t, s[1].omega / s[0].omega 
0, -5.599989669749081 
0.009999999999999995, -5.598649467109753 
0.019999999999999934, -5.596991325166803 
0.029999999999999874, -5.596468597915047 
0.04000000000000012, -5.5957105958077005 
0.050000000000000405, -5.594501097373802 
0.06000000000000069, -5.593186894088238 
0.07000000000000098, -5.592367373536612 
0.08000000000000126, -5.5914245052418545 
0.09000000000000155, -5.590293317832756 
0.10000000000000184, -5.589243796164294 
0.11000000000000212, -5.588307273543567 
0.12000000000000241, -5.587199500659837 
0.130000000000002, -5.586126775994239 
0.1400000000000009, -5.585272056952439 
0.1499999999999998, -5.5842720143501925 
0.1599999999999987, -5.582924440333912 
0.1699999999999976, -5.581923156407965 
0.1799999999999965, -5.581356718108203 
0.1899999999999954, -5.580343211003264 
0.1999999999999943, -5.578721369111625 
0.2099999999999932, -5.577592163983982 
0.2199999999999921, -5.577256122945771 
0.229999999999991, -5.576301893205937 
0.2399999999999899, -5.574818431977135 
0.2499999999999888, -5.573599794424185 
0.2599999999999877, -5.572996935785184 
0.2699999999999866, -5.572013800499551 
0.2799999999999855, -5.57078856456947 
0.2899999999999844, -5.5697379561752705 
0.2999999999999833, -5.5688568779558025 
0.3099999999999822, -5.567778979610671 
0.3199999999999811, -5.566719174728968 
0.32999999999998, -5.56578923271249 
0.3399999999999789, -5.564759973836749 
0.3499999999999778, -5.563538838841248 
0.35999999999997667, -5.562676971211731 
0.36999999999997557, -5.561876904697884 
0.37999999999997447, -5.5607184528096045 
0.38999999999997337, -5.559174382272439 
0.39999999999997227, -5.558573689823177 
0.40999999999997117, -5.557987834099757 
0.41999999999997006, -5.556811997779389 
0.42999999999996896, -5.55507778763992 
0.43999999999996786, -5.55433717789875 
0.44999999999996676, -5.553785819610617 
0.45999999999996566, -5.552694871082077 
0.46999999999996456, -5.551293165853153 
0.47999999999996346, -5.550361578926093 
0.48999999999996235, -5.549555309894763 
0.49999999999996125, -5.548473643471249 
0.5099999999999602, -5.547353681230725 
0.519999999999959, -5.546419790723706 
0.529999999999958, -5.545419694276658 
0.5399999999999568, -5.544295593182808 
0.5499999999999557, -5.54337989978982 
0.5599999999999546, -5.542475114637289 
0.5699999999999535, -5.541301241481081 
0.5799999999999524, -5.540040775795986 
0.5899999999999513, -5.5394354229033524 
0.5999999999999502, -5.538622892912889 
0.6099999999999491, -5.537288701986148 
0.619999999999948, -5.535677200297654 
0.6299999999999469, -5.535326739532687 
0.6399999999999458, -5.534653491212831 
0.6499999999999447, -5.533394256838204 
0.6599999999999436, -5.5318150731891125 
0.6699999999999425, -5.531157688565159 
0.6799999999999414, -5.530401427467284 
0.6899999999999403, -5.529266140342372 
0.6999999999999392, -5.528046691409776 
0.7099999999999381, -5.527174558160201 
0.719999999999937, -5.526225940200209 
0.7299999999999359, -5.5251278998202995 
0.7399999999999348, -5.524137350530599 
0.7499999999999337, -5.523212173735614 
0.7599999999999326, -5.522096322117435 
0.7699999999999315, -5.520990090639565 
0.7799999999999304, -5.5202338533404856 
0.7899999999999293, -5.519312423366399 
0.7999999999999282, -5.517968723358047 
0.8099999999999271, -5.516704804893758 
0.819999999999926, -5.51631879392206 
0.8299999999999249, -5.515493968056572 
0.8399999999999238, -5.514068245660499 
0.8499999999999227, -5.512500115076602 
0.8599999999999216, -5.5121370510587955 
0.8699999999999205, -5.511377903884057 
0.8799999999999194, -5.510137284686889 
0.8899999999999183, -5.508791435048116 
0.8999999999999172, -5.5080532894129135 
0.9099999999999161, -5.507163608035358 
0.919999999999915, -5.506044526540018 
0.9299999999999139, -5.504977259978169 
0.9399999999999128, -5.504080860106595 
0.9499999999999117, -5.5030366301544 
0.9599999999999106, -5.5019644207523735 
0.9699999999999095, -5.501091763233508 
0.9799999999999084, -5.500146301599807 
0.9899999999999073, -5.49890232852008 
0.9999999999999062, -5.497823571537874 
1.0099999999999052, -5.497246115544188 
1.019999999999904, -5.4963270491453535 
1.029999999999903, -5.494852683429626 
1.039999999999902, -5.493505246849567 
1.0499999999999008, -5.493238787488285 
1.0599999999998997, -5.4924345088157995 
1.0699999999998986, -5.49106295393509 
1.0799999999998975, -5.489601753441702 
1.0899999999998964, -5.489063139343686 
1.0999999999998953, -5.488234877653577 
1.1099999999998942, -5.487064269150709 
1.119999999999893, -5.485896154320537 
1.129999999999892, -5.485065719328235 
1.1399999999998909, -5.484094034850271 
1.1499999999998898, -5.483010252530702 
1.1599999999998887, -5.482050993495356 
1.1699999999998876, -5.481126060846739 
1.1799999999998865, -5.479995063272604 
1.1899999999998854, -5.478945544211405 
1.1999999999998843, -5.4782074536283565 
1.2099999999998832, -5.4772649496657655 
1.219999999999882, -5.475888531305121 
1.229999999999881, -5.474721899922439 
1.2399999999998799, -5.474351036172154 
1.2499999999998788, -5.4735007260237 
1.2599999999998777, -5.472048372843007 
1.2699999999998766, -5.470542499374279 
1.2799999999998755, -5.4702008741224475 
1.2899999999998744, -5.46943165014042 
1.2999999999998733, -5.468195661296911 
1.3099999999998722, -5.466877127337784 
1.319999999999871, -5.4661483948974325 
1.32999999999987, -5.465264846788874 
1.3399999999998689, -5.464159877006586 
1.3499999999998678, -5.463108383274091 
1.3599999999998666, -5.462221392885311 
1.3699999999998655, -5.461188936811455 
1.3799999999998644, -5.460122656554412 
1.3899999999998633, -5.459266510813902 
1.3999999999998622, -5.458343446758059 
1.4099999999998611, -5.457118812157022 
1.41999999999986, -5.455997682188657 
1.429999999999859, -5.455452043649448 
1.4399999999998578, -5.4545882508879675 
1.4499999999998567, -5.453179399893744 
1.4599999999998556, -5.451702104049563 
1.4699999999998545, -5.451435774354219 
1.4799999999998534, -5.450719799228596 
1.4899999999998523, -5.449441059626383 
1.4999999999998512, -5.447924687072658 
1.5099999999998501, -5.447314354498618 
1.519999999999849, -5.446554568885471 
1.529999999999848, -5.4454402138050835 
1.5399999999998468, -5.444260806184114 
1.5499999999998457, -5.443406244544226 
1.5599999999998446, -5.442476459607184 
1.5699999999998435, -5.4414022009152365 
1.5799999999998424, -5.440440846837356 
1.5899999999998413, -5.439543625011891 
1.5999999999998402, -5.438458021706413 
1.6099999999998391, -5.437333013978081 
1.619999999999838, -5.436612742783365 
1.629999999999837, -5.435764211535219 
1.6399999999998358, -5.434501451782566 
1.6499999999998347, -5.433079304450581 
1.6599999999998336, -5.432702561215599 
1.6699999999998325, -5.4320339202434 
1.6799999999998314, -5.4307845606891885 
1.6899999999998303, -5.429098823740958 
1.6999999999998292, -5.428542674304071 
1.709999999999828, -5.42795212291555 
1.719999999999827, -5.42686419428997 
1.729999999999826, -5.4255219055551205 
1.7399999999998248, -5.42464579055978 
1.7499999999998237, -5.423852502592037 
1.7599999999998226, -5.422805542654407 
1.7699999999998215, -5.4217359630458954 
1.7799999999998204, -5.420833651209195 
1.7899999999998193, -5.419869652816506 
1.7999999999998182, -5.418764611533084 
1.809999999999817, -5.417883864199745 
1.819999999999816, -5.417046676395039 
1.8299999999998149, -5.415950353894559 
1.8399999999998138, -5.414613460711015 
1.8499999999998127, -5.413986709233866 
1.8599999999998116, -5.413350106299517 
1.8699999999998105, -5.4122148231350415 
1.8799999999998094, -5.410521201076527 
1.8899999999998083, -5.409823908473003 
1.8999999999998072, -5.409422026811072 
1.909999999999806, -5.408418040585778 
1.919999999999805, -5.406949645542168 
1.9299999999998039, -5.4059044409588655 
1.9399999999998028, -5.405302386488863 
1.9499999999998017, -5.4043404991279065 
1.9599999999998006, -5.403181519809305 
1.9699999999997995, -5.402191508010202 
1.9799999999997984, -5.401342101362807 
1.9899999999997973, -5.400307015794283 
1.9999999999997962, -5.399297748332374 
2.0099999999998173, -5.3984274302351345 
2.0199999999998384, -5.397467069560056 
2.0299999999998595, -5.396262443905058 
2.0399999999998806, -5.395361830345639 
2.0499999999999017, -5.394708606727072 
2.059999999999923, -5.39372346085864 
2.069999999999944, -5.3922243859230665 
2.079999999999965, -5.391190507713239 
2.089999999999986, -5.390900016452266 
2.100000000000007, -5.390038591636072 
2.1100000000000283, -5.3885965567184595 
2.1200000000000494, -5.387196313252162 
2.1300000000000705, -5.3867829846102415 
2.1400000000000916, -5.385989078987944 
2.1500000000001127, -5.3848169655519715 
2.160000000000134, -5.383623575013305 
2.170000000000155, -5.382850031992422 
2.180000000000176, -5.381943972128845 
2.190000000000197, -5.380880430159704 
2.2000000000002182, -5.379907190568515 
2.2100000000002393, -5.379026860078646 
2.2200000000002604, -5.3779789870756805 
2.2300000000002815, -5.3769103532605795 
2.2400000000003026, -5.376149851772021 
2.2500000000003237, -5.375287144592974 
2.260000000000345, -5.374061790031629 
2.270000000000366, -5.372759873572481 
2.280000000000387, -5.372345578742146 
2.290000000000408, -5.371652360095683 
2.3000000000004293, -5.370403840444373 
2.3100000000004504, -5.36871441984619 
2.3200000000004715, -5.368226559418699 
2.3300000000004926, -5.367699882786225 
2.3400000000005137, -5.366633613090611 
2.3500000000005348, -5.3652342475484325 
2.360000000000556, -5.36434293737029 
2.370000000000577, -5.363637010924448 
2.380000000000598, -5.3626317073062335 
2.390000000000619, -5.361532972121534 
2.4000000000006403, -5.360618070546992 
2.4100000000006614, -5.35972237121976 
2.4200000000006825, -5.358655912171604 
2.4300000000007036, -5.3577199152334405 
2.4400000000007247, -5.356895799565569 
2.450000000000746, -5.3558957308110475 
2.460000000000767, -5.354619183366863 
2.470000000000788, -5.353826318275759 
2.480000000000809, -5.353244909897457 
2.49000000000083, -5.35224361081155 
2.5000000000008513, -5.350670336071416 
2.5100000000008724, -5.349644023646771 
2.5200000000008935, -5.34939011214863 
2.5300000000009146, -5.3485418091965995 
2.5400000000009357, -5.347162577769218 
2.550000000000957, -5.3458302778259235 
2.560000000000978, -5.345317575455776 
2.570000000000999, -5.344501281211346 
2.58000000000102, -5.343380416192541 
2.5900000000010412, -5.342272894989593 
2.6000000000010624, -5.341463823811783 
2.6100000000010835, -5.34053089886135 
2.6200000000011046, -5.339487033618368 
2.6300000000011257, -5.338574955138933 
2.6400000000011468, -5.3377021033251335 
2.650000000001168, -5.3366252712918225 
2.660000000001189, -5.335523116498983 
2.67000000000121, -5.3348550725611465 
2.680000000001231, -5.334052062857063 
2.6900000000012523, -5.332830927341551 
2.7000000000012734, -5.331354421726205 
2.7100000000012945, -5.330974622521294 
2.7200000000013156, -5.330416778744974 
2.7300000000013367, -5.329284895576365 
2.740000000001358, -5.327636289868634 
2.750000000001379, -5.326872084425807 
2.7600000000014, -5.326390560770779 
2.770000000001421, -5.32541974349069 
2.780000000001442, -5.324157216735568 
2.7900000000014633, -5.323169603206481 
2.8000000000014844, -5.322428759148691 
2.8100000000015055, -5.321453605813089 
2.8200000000015266, -5.320410517067364 
2.8300000000015477, -5.319504449295379 
2.840000000001569, -5.318609736914807 
2.85000000000159, -5.317523897069208 
2.860000000001611, -5.316581344402374 
2.870000000001632, -5.315840603011017 
2.8800000000016532, -5.314903212239423 
2.8900000000016743, -5.313578711026167 
2.9000000000016954, -5.312558209230821 
2.9100000000017165, -5.312178787729694 
2.9200000000017377, -5.3113563378235416 
2.9300000000017588, -5.30995751859116 
2.94000000000178, -5.308438157958459 
2.950000000001801, -5.3081552127284946 
2.960000000001822, -5.307508772292694 
2.970000000001843, -5.30636570471275 
2.9800000000018643, -5.304993848859776 
2.9900000000018854, -5.304242758235189 
3.0000000000019065, -5.303500762778136 
3.0100000000019276, -5.302478575699944 
3.0200000000019487, -5.301409259887205 
3.03000000000197, -5.30053807167703 
3.040000000001991, -5.299634651042366 
3.050000000002012, -5.2985783230154775 
3.060000000002033, -5.297686140035774 
3.070000000002054, -5.296875665315042 
3.0800000000020753, -5.295865969889689 
3.0900000000020964, -5.294594647642023 
3.1000000000021175, -5.293865909284234 
3.1100000000021386, -5.293297050435658 
3.1200000000021597, -5.29229761197515 
3.130000000002181, -5.290724808542976 
3.140000000002202, -5.289713628133159 
3.150000000002223, -5.289480825156302 
3.160000000002244, -5.2886605361719665 
3.1700000000022652, -5.2873239437425745 
3.1800000000022863, -5.28598551739129 
3.1900000000023074, -5.285459564083113 
3.2000000000023285, -5.284677028482745 
3.2100000000023496, -5.283593524738366 
3.2200000000023707, -5.282497140317472 
3.230000000002392, -5.281685353512257 
3.240000000002413, -5.2807817364582785 
3.250000000002434, -5.279750163905979 
3.260000000002455, -5.278850094622651 
3.2700000000024763, -5.278006152787428 
3.2800000000024974, -5.276972541122162 
3.2900000000025185, -5.2758214779115065 
3.3000000000025396, -5.275149922045204 
3.3100000000025607, -5.274437393111917 
3.3200000000025818, -5.273328516633042 
3.330000000002603, -5.271774234047518 
3.340000000002624, -5.271181991731661 
3.350000000002645, -5.270804731091726 
3.360000000002666, -5.269841769545533 
3.3700000000026873, -5.268321667410507 
3.3800000000027084, -5.267183631623809 
3.3900000000027295, -5.266786605616041 
3.4000000000027506, -5.265953045752883 
3.4100000000027717, -5.264791341737619 
3.420000000002793, -5.2636841226768025 
3.430000000002814, -5.262942779496997 
3.440000000002835, -5.262045260898724 
3.450000000002856, -5.261017324928652 
3.460000000002877, -5.260094131646427 
3.4700000000028983, -5.259245026747324 
3.4800000000029194, -5.258221845943355 
3.4900000000029405, -5.257161703168098 
3.5000000000029616, -5.256452994994689 
3.5100000000029827, -5.255660376304801 
3.520000000003004, -5.254507707769994 
3.530000000003025, -5.253101797734054 
3.540000000003046, -5.252659604118854 
3.550000000003067, -5.252138953805758 
3.5600000000030882, -5.25107132242808 
3.5700000000031094, -5.2494333278223015 
3.5800000000031305, -5.248556185506044 
3.5900000000031516, -5.248206014157541 
3.6000000000031727, -5.247326103918285 
3.6100000000031938, -5.2460756706564045 
3.620000000003215, -5.244970434711402 
3.630000000003236, -5.2443047359097665 
3.640000000003257, -5.2434195418285565 
3.650000000003278, -5.24237772219655 
3.6600000000032993, -5.241427678127158 
3.6700000000033204, -5.240592359973349 
3.6800000000033415, -5.239598031840265 
3.6900000000033626, -5.238580077676642 
3.7000000000033837, -5.237818538636489 
3.710000000003405, -5.2369914731159986 
3.720000000003426, -5.235851130269579 
3.730000000003447, -5.2345890364756595 
3.740000000003468, -5.2341307494780756 
3.750000000003489, -5.233516291933851 
3.7600000000035103, -5.232393005483156 
3.7700000000035314, -5.2307267295824005 
3.7800000000035525, -5.230045916158327 
3.7900000000035736, -5.229708905944934 
3.8000000000035947, -5.228798337954867 
3.810000000003616, -5.227461539807246 
3.820000000003637, -5.2263503666077815 
3.830000000003658, -5.225766845971974 
3.840000000003679, -5.224904158985947 
3.8500000000037002, -5.223840066911765 
3.8600000000037213, -5.222854589770188 
3.8700000000037424, -5.222044664689017 
3.8800000000037635, -5.221088990426102 
3.8900000000037847, -5.2200816040065705 
3.9000000000038058, -5.219270149837999 
3.910000000003827, -5.218437377261285 
3.920000000003848, -5.217344427950194 
3.930000000003869, -5.21616621479984 
3.94000000000389, -5.2156310833809645 
3.9500000000039113, -5.21497020435921 
3.9600000000039324, -5.213847256869865 
3.9700000000039535, -5.212218177420528 
3.9800000000039746, -5.211608973649284 
3.9900000000039957, -5.211286027151482 
4.000000000004016, -5.210371962373244 
4.010000000003993, -5.208970177656636 
4.02000000000397, -5.20781388067733 
4.030000000003946, -5.207320775683906 
4.040000000003923, -5.206498842759421 
4.0500000000039, -5.205415443539399 
4.0600000000038765, -5.204375564353893 
4.070000000003853, -5.203593965179053 
4.08000000000383, -5.20268716394636 
4.090000000003807, -5.201679010914798 
4.100000000003783, -5.2008175851159235 
4.11000000000376, -5.199992722694703 
4.120000000003737, -5.198964318825567 
4.130000000003713, -5.197824138043604 
4.14000000000369, -5.19719210612052 
4.150000000003667, -5.196518598012753 
4.1600000000036434, -5.195445419623286 
4.17000000000362, -5.193889670142848 
4.180000000003597, -5.193220400069435 
4.1900000000035735, -5.192925074346409 
4.20000000000355, -5.192044419194816 
4.210000000003527, -5.190624239986419 
4.220000000003504, -5.189354073357242 
4.23000000000348, -5.188950095444906 
4.240000000003457, -5.188198481520806 
4.250000000003434, -5.18711382583826 
4.26000000000341, -5.185994236154803 
4.270000000003387, -5.185226743479538 
4.280000000003364, -5.184384509335532 
4.2900000000033405, -5.183381971612647 
4.300000000003317, -5.182465292747629 
4.310000000003294, -5.181645801125456 
4.320000000003271, -5.180689839848533 
4.330000000003247, -5.179575650248806 
4.340000000003224, -5.178832686054147 
4.350000000003201, -5.17816230723646 
4.360000000003177, -5.177171111824029 
4.370000000003154, -5.1757207969058365 
4.380000000003131, -5.174877750627722 
4.390000000003107, -5.17461302827695 
4.400000000003084, -5.1738066526051965 
4.410000000003061, -5.172438481416819 
4.4200000000030375, -5.170987991160549 
4.430000000003014, -5.170629308300363 
4.440000000002991, -5.1699910613370665 
4.450000000002968, -5.168940847887163 
4.460000000002944, -5.167729766376503 
4.470000000002921, -5.166926460344275 
4.480000000002898, -5.166169521685778 
4.490000000002874, -5.165195607080351 
4.500000000002851, -5.164221865638564 
4.510000000002828, -5.163385727332978 
4.520000000002804, -5.162503844194872 
4.530000000002781, -5.161432958174393 
4.540000000002758, -5.160568626405067 
4.5500000000027345, -5.159894157088414 
4.560000000002711, -5.158997364114123 
4.570000000002688, -5.157690447823187 
4.580000000002665, -5.156612986239122 
4.590000000002641, -5.156337827932528 
4.600000000002618, -5.1556434862210985 
4.610000000002595, -5.154402026779925 
4.620000000002571, -5.152784493314681 
4.630000000002548, -5.152325489959338 
4.640000000002525, -5.15185502374279 
4.6500000000025015, -5.150889854917237 
4.660000000002478, -5.149622358189361 
4.670000000002455, -5.1486827730066755 
4.6800000000024315, -5.1480240498672645 
4.690000000002408, -5.147116844929039 
4.700000000002385, -5.146103134095543 
4.710000000002362, -5.145210928312092 
4.720000000002338, -5.1443911513844105 
4.730000000002315, -5.143395062836289 
4.740000000002292, -5.142423032631641 
4.750000000002268, -5.141709301398526 
4.760000000002245, -5.1409003327704985 
4.770000000002222, -5.139762593992488 
4.7800000000021985, -5.138501889436251 
4.790000000002175, -5.138091235434324 
4.800000000002152, -5.1375353516287365 
4.810000000002129, -5.13647175806773 
4.820000000002105, -5.134843745932276 
4.830000000002082, -5.134020282611982 
4.840000000002059, -5.133754102032349 
4.850000000002035, -5.132935377562201 
4.860000000002012, -5.131703655511183 
4.870000000001989, -5.130524730898159 
4.880000000001965, -5.129918843442764 
4.890000000001942, -5.12912850747188 
4.900000000001919, -5.128121394824822 
4.9100000000018955, -5.127141707787494 
4.920000000001872, -5.12633812029304 
4.930000000001849, -5.125442785118282 
4.940000000001826, -5.1244234489147065 
4.950000000001802, -5.123615100855616 
4.960000000001779, -5.122864496642868 
4.970000000001756, -5.121892392540088 
4.980000000001732, -5.120617853988178 
4.990000000001709, -5.119889775764217 
5.000000000001686, -5.1194593781897 
5.0100000000016625, -5.11859417378456 
5.020000000001639, -5.117165125828225 
5.030000000001616, -5.115805853803349 
