t, s[1].omega / s[0].omega 
0, -1.089997507714808 
0.009999999999999995, -1.089702430126284 
0.019999999999999934, -1.0893197538329462 
0.029999999999999874, -1.088858890924166 
0.04000000000000012, -1.0883353804088038 
0.050000000000000405, -1.0877708342590267 
0.06000000000000069, -1.0871926337891118 
0.07000000000000098, -1.0866326491287732 
0.08000000000000126, -1.086124049293257 
0.09000000000000155, -1.0856958838890463 
0.10000000000000184, -1.0853666030331603 
0.11000000000000212, -1.0851391135847201 
0.12000000000000241, -1.084999937222783 
0.130000000000002, -1.0849230506948513 
0.1400000000000009, -1.084876380461503 
0.1499999999999998, -1.0848278176517518 
0.1599999999999987, -1.0847487387973227 
0.1699999999999976, -1.0846150484296442 
0.1799999999999965, -1.0844070353528954 
0.1899999999999954, -1.0841093664938626 
0.1999999999999943, -1.0837118353120037 
0.2099999999999932, -1.083210710530548 
0.2199999999999921, -1.082610135731946 
0.229999999999991, -1.0819231094846056 
0.2399999999999899, -1.0811718623939675 
0.2499999999999888, -1.0803875217399812 
0.2599999999999877, -1.0796086380384193 
0.2699999999999866, -1.0788777381992518 
0.2799999999999855, -1.0782352243919477 
0.2899999999999844, -1.0777111981846086 
0.2999999999999833, -1.0773178200429219 
0.3099999999999822, -1.0770459764489724 
0.3199999999999811, -1.0768684900661245 
0.32999999999998, -1.0767483035818013 
0.3399999999999789, -1.0766472015787385 
0.3499999999999778, -1.0765312316909361 
0.35999999999997667, -1.0763719331291326 
0.36999999999997557, -1.0761449253394082 
0.37999999999997447, -1.075828080616307 
0.38999999999997337, -1.0754009848635768 
0.39999999999997227, -1.0748465103586056 
0.40999999999997117, -1.0741543798434325 
0.41999999999997006, -1.0733257033335573 
0.42999999999996896, -1.072376938777607 
0.43999999999996786, -1.0713418437976716 
0.44999999999996676, -1.070270485459425 
0.45999999999996566, -1.0692246762509732 
0.46999999999996456, -1.0682693290485106 
0.47999999999996346, -1.0674601325214017 
0.48999999999996235, -1.0668303858321204 
0.49999999999996125, -1.0663824826454698 
0.5099999999999602, -1.0660890667459904 
0.519999999999959, -1.0659037588190243 
0.529999999999958, -1.0657754073271835 
0.5399999999999568, -1.065658670150626 
0.5499999999999557, -1.0655177440717938 
0.5599999999999546, -1.065324607401466 
0.5699999999999535, -1.0650549215229148 
0.5799999999999524, -1.0646842370926755 
0.5899999999999513, -1.064186184218877 
0.5999999999999502, -1.0635337573521997 
0.6099999999999491, -1.0627043486343724 
0.619999999999948, -1.0616881720722071 
0.6299999999999469, -1.06049798737718 
0.6399999999999458, -1.0591763809810941 
0.6499999999999447, -1.0577964954415435 
0.6599999999999436, -1.056453443778035 
0.6699999999999425, -1.0552463243620795 
0.6799999999999414, -1.0542546179206258 
0.6899999999999403, -1.0535172140161615 
0.6999999999999392, -1.0530240844650698 
0.7099999999999381, -1.0527254280721832 
0.719999999999937, -1.0525527301071804 
0.7299999999999359, -1.0524396532855358 
0.7399999999999348, -1.052333730888083 
0.7499999999999337, -1.0521977975020769 
0.7599999999999326, -1.0520052606502905 
0.7699999999999315, -1.0517336572317804 
0.7799999999999304, -1.051359117719669 
0.7899999999999293, -1.0508529648095208 
0.7999999999999282, -1.0501814240320022 
0.8099999999999271, -1.049309784772038 
0.819999999999926, -1.0482122164276817 
0.8299999999999249, -1.0468866313299616 
0.8399999999999238, -1.0453702428892284 
0.8499999999999227, -1.0437476836657147 
0.8599999999999216, -1.0421432553330416 
0.8699999999999205, -1.040694438347117 
0.8799999999999194, -1.0395138642530928 
0.8899999999999183, -1.0386561863299173 
0.8999999999999172, -1.0381069449163465 
0.9099999999999161, -1.0377986072042182 
0.919999999999915, -1.0376421302121237 
0.9299999999999139, -1.0375553785328506 
0.9399999999999128, -1.0374771660990905 
0.9499999999999117, -1.0373675517315477 
0.9599999999999106, -1.037200951121368 
0.9699999999999095, -1.0369578486821818 
0.9799999999999084, -1.0366178901616414 
0.9899999999999073, -1.0361551343601232 
0.9999999999999062, -1.0355358904668581 
1.0099999999999052, -1.034720309204921 
1.019999999999904, -1.0336697832642636 
1.029999999999903, -1.0323618251922562 
1.039999999999902, -1.0308107698704831 
1.0499999999999008, -1.0290863002501014 
1.0599999999998997, -1.0273163983290488 
1.0699999999998986, -1.0256639588786416 
1.0799999999998975, -1.024280212303862 
1.0899999999998964, -1.0232557734526737 
1.0999999999998953, -1.0225962161289153 
1.1099999999998942, -1.0222346620099145 
1.119999999999893, -1.0220693698789858 
1.129999999999892, -1.0220015681950805 
1.1399999999998909, -1.0219564817844027 
1.1499999999998898, -1.021886317492021 
1.1599999999998887, -1.0217630573253993 
1.1699999999998876, -1.0215687731762308 
1.1799999999998865, -1.0212873539850926 
1.1899999999998854, -1.0208985613216721 
1.1999999999998843, -1.0203743412770294 
1.2099999999998832, -1.0196778033181402 
1.219999999999882, -1.0187664724675878 
1.229999999999881, -1.0176023667410747 
1.2399999999998799, -1.0161704774477076 
1.2499999999998788, -1.0145024073523434 
1.2599999999998777, -1.012693811553347 
1.2699999999998766, -1.010899225088982 
1.2799999999998755, -1.009295217786104 
1.2899999999998744, -1.0080234843591769 
1.2999999999998733, -1.007144093123109 
1.3099999999998722, -1.0066259367623753 
1.319999999999871, -1.0063758521692177 
1.32999999999987, -1.0062831198145037 
1.3399999999998689, -1.006253405746661 
1.3499999999998678, -1.0062218213220924 
1.3599999999998666, -1.0061499385715742 
1.3699999999998655, -1.0060161756816166 
1.3799999999998644, -1.005806043141644 
1.3899999999998633, -1.005504642200013 
1.3999999999998622, -1.0050915369372964 
1.4099999999998611, -1.0045377531542552 
1.41999999999986, -1.0038054533223455 
1.429999999999859, -1.0028521122434149 
1.4399999999998578, -1.0016418171228652 
1.4499999999998567, -1.000164883987697 
1.4599999999998556, -0.9984614938788168 
1.4699999999998545, -0.9966367635463588 
1.4799999999998534, -0.9948509364994761 
1.4899999999998523, -0.9932783109779459 
1.4999999999998512, -0.992050297145839 
1.5099999999998501, -0.9912137620596327 
1.519999999999849, -0.9907279938754232 
1.529999999999848, -0.9904969412401929 
1.5399999999998468, -0.9904122911214843 
1.5499999999998457, -0.9903840477074602 
1.5599999999998446, -0.9903510787364098 
1.5699999999998435, -0.9902772791795756 
1.5799999999998424, -0.9901421702128473 
1.5899999999998413, -0.9899316713504163 
1.5999999999998402, -0.9896310592971409 
1.6099999999998391, -0.9892201654941811 
1.619999999999838, -0.9886706088332454 
1.629999999999837, -0.9879456293907027 
1.6399999999998358, -0.9870042444404478 
1.6499999999998347, -0.9858120700880484 
1.6599999999998336, -0.9843596437105668 
1.6699999999998325, -0.9826839998776512 
1.6799999999998314, -0.9808821216432577 
1.6899999999998303, -0.979102264529202 
1.6999999999998292, -0.9775080782366967 
1.709999999999828, -0.976228453384152 
1.719999999999827, -0.9753188240818375 
1.729999999999826, -0.9747542120188282 
1.7399999999998248, -0.9744537008600334 
1.7499999999998237, -0.9743178038671727 
1.7599999999998226, -0.9742582525983551 
1.7699999999998215, -0.9742111364979944 
1.7799999999998204, -0.974136161719694 
1.7899999999998193, -0.9740092546620922 
1.7999999999998182, -0.9738141566031138 
1.809999999999817, -0.9735355350302244 
1.819999999999816, -0.9731541154063968 
1.8299999999998149, -0.9726438143393967 
1.8399999999998138, -0.9719713446334222 
1.8499999999998127, -0.9710996385816429 
1.8599999999998116, -0.9699968448136204 
1.8699999999998105, -0.9686513401586243 
1.8799999999998094, -0.9670892794245483 
1.8899999999998083, -0.9653861564810814 
1.8999999999998072, -0.9636623024559613 
1.909999999999806, -0.962058284828812 
1.919999999999805, -0.9606976564494843 
1.9299999999998039, -0.9596533370455556 
1.9399999999998028, -0.9589330690001315 
1.9499999999998017, -0.9584888727121482 
1.9599999999998006, -0.9582424333272119 
1.9699999999997995, -0.9581119816874951 
1.9799999999997984, -0.9580297493085036 
1.9899999999997973, -0.9579474598084102 
1.9999999999997962, -0.9578334621439284 
2.0099999999998173, -0.957666445075977 
2.0199999999998384, -0.9574290830928434 
2.0299999999998595, -0.957103064443299 
2.0399999999998806, -0.9566659761852495 
2.0499999999999017, -0.9560904912305261 
2.059999999999923, -0.9553467166506738 
2.069999999999944, -0.9544086723239527 
2.079999999999965, -0.953264816789457 
2.089999999999986, -0.9519300129604427 
2.100000000000007, -0.9504536083287034 
2.1100000000000283, -0.9489180154701412 
2.1200000000000494, -0.9474256993180783 
2.1300000000000705, -0.9460778683125095 
2.1400000000000916, -0.9449520172846615 
2.1500000000001127, -0.9440860882570258 
2.160000000000134, -0.9434745585464018 
2.170000000000155, -0.9430769813391761 
2.180000000000176, -0.9428342330909354 
2.190000000000197, -0.9426850417389165 
2.2000000000002182, -0.9425769841298071 
2.2100000000002393, -0.9424703106568402 
2.2200000000002604, -0.9423363922787689 
2.2300000000002815, -0.9421536747296211 
2.2400000000003026, -0.9419034186326964 
2.2500000000003237, -0.941566541833765 
2.260000000000345, -0.9411223153176598 
2.270000000000366, -0.9405494852393449 
2.280000000000387, -0.9398301422753669 
2.290000000000408, -0.938955846832944 
2.3000000000004293, -0.9379341704722707 
2.3100000000004504, -0.9367928293777787 
2.3200000000004715, -0.9355791019245165 
2.3300000000004926, -0.9343541890503164 
2.3400000000005137, -0.9331841042225157 
2.3500000000005348, -0.9321293499717486 
2.360000000000556, -0.9312353937551233 
2.370000000000577, -0.930525772359298 
2.380000000000598, -0.929999590755725 
2.390000000000619, -0.9296343905210962 
2.4000000000006403, -0.9293934912494108 
2.4100000000006614, -0.9292349983976387 
2.4200000000006825, -0.929119239180342 
2.4300000000007036, -0.9290127320100756 
2.4400000000007247, -0.9288887404970556 
2.450000000000746, -0.9287257237149819 
2.460000000000767, -0.9285052446395448 
2.470000000000788, -0.9282105610145805 
2.480000000000809, -0.9278266329190654 
2.49000000000083, -0.9273417365701914 
2.5000000000008513, -0.9267502076984051 
2.5100000000008724, -0.926055192818521 
2.5200000000008935, -0.9252701153491666 
2.5300000000009146, -0.9244181662522978 
2.5400000000009357, -0.9235301129956964 
2.550000000000957, -0.9226412725254054 
2.560000000000978, -0.9217882734462087 
2.570000000000999, -0.9210056861910878 
2.58000000000102, -0.9203223832478565 
2.5900000000010412, -0.9197578482107531 
2.6000000000010624, -0.9193192841121431 
2.6100000000010835, -0.9190006764051535 
2.6200000000011046, -0.918784487220005 
2.6300000000011257, -0.9186455421530573 
2.6400000000011468, -0.9185556778533905 
2.650000000001168, -0.9184875737376835 
2.660000000001189, -0.9184169140507997 
2.67000000000121, -0.9183230022431573 
2.680000000001231, -0.918188567332483 
2.6900000000012523, -0.9179995690847518 
2.7000000000012734, -0.9177454668910408 
2.7100000000012945, -0.9174199183414278 
2.7200000000013156, -0.9170214928154607 
2.7300000000013367, -0.9165539497511599 
2.740000000001358, -0.9160259398080507 
2.750000000001379, -0.9154503487350073 
2.7600000000014, -0.9148436077657722 
2.770000000001421, -0.9142251124874365 
2.780000000001442, -0.913616618256935 
2.7900000000014633, -0.9130412879242081 
2.8000000000014844, -0.9125220483570338 
2.8100000000015055, -0.9120791350032663 
2.8200000000015266, -0.9117271619542476 
2.8300000000015477, -0.9114725418913402 
2.840000000001569, -0.9113122322734016 
2.85000000000159, -0.9112343715843974 
2.860000000001611, -0.9112205757361383 
2.870000000001632, -0.9112490032054839 
2.8800000000016532, -0.9112971823985901 
2.8900000000016743, -0.911344000534385 
2.9000000000016954, -0.9113708049889395 
2.9100000000017165, -0.9113619087000314 
2.9200000000017377, -0.9113048316106521 
2.9300000000017588, -0.9111904881855232 
2.94000000000178, -0.9110134065867648 
2.950000000001801, -0.9107719748851443 
2.960000000001822, -0.9104686237087167 
2.970000000001843, -0.9101098185312543 
2.9800000000018643, -0.9097058318829877 
2.9900000000018854, -0.909270434899198 
3.0000000000019065, -0.9088206875904268 
3.0100000000019276, -0.90837680604058 
3.0200000000019487, -0.9079617570296087 
3.03000000000197, -0.907600034723951 
3.040000000001991, -0.9073152448036836 
3.050000000002012, -0.907126698180309 
3.060000000002033, -0.9070459165314819 
3.070000000002054, -0.9070742713418838 
3.0800000000020753, -0.9072025964806147 
3.0900000000020964, -0.9074127447806898 
3.1000000000021175, -0.9076802995985787 
3.1100000000021386, -0.9079774618685098 
3.1200000000021597, -0.9082755002160173 
3.130000000002181, -0.9085467166501777 
3.140000000002202, -0.9087662488927737 
3.150000000002223, -0.9089139765382956 
3.160000000002244, -0.9089763630719634 
3.1700000000022652, -0.9089476110445437 
3.1800000000022863, -0.9088295241235068 
3.1900000000023074, -0.9086300794870095 
3.2000000000023285, -0.9083614416102366 
3.2100000000023496, -0.9080384066261086 
3.2200000000023707, -0.9076779472552751 
3.230000000002392, -0.9072999428928057 
3.240000000002413, -0.9069286112864248 
3.250000000002434, -0.9065936929716607 
3.260000000002455, -0.9063301581161092 
3.2700000000024763, -0.9061753642860279 
3.2800000000024974, -0.9061634607730381 
3.2900000000025185, -0.9063182280403428 
3.3000000000025396, -0.9066466319981459 
3.3100000000025607, -0.9071353010628084 
3.3200000000025818, -0.9077509376932096 
3.330000000002603, -0.9084443314619121 
3.340000000002624, -0.9091570126005426 
3.350000000002645, -0.90982955353415 
3.360000000002666, -0.910410313599175 
3.3700000000026873, -0.9108627389627152 
3.3800000000027084, -0.9111690049345553 
3.3900000000027295, -0.9113288607096356 
3.4000000000027506, -0.9113546710852954 
3.4100000000027717, -0.9112651962244117 
3.420000000002793, -0.9110805431626284 
3.430000000002814, -0.910819515545688 
3.440000000002835, -0.9104994563043574 
3.450000000002856, -0.9101381723397892 
3.460000000002877, -0.9097574350022883 
3.4700000000028983, -0.909387370858296 
3.4800000000029194, -0.9090704369700072 
3.4900000000029405, -0.9088626866132792 
3.5000000000029616, -0.9088294232028631 
3.5100000000029827, -0.9090333616804948 
3.520000000003004, -0.9095167362941634 
3.530000000003025, -0.9102831352150733 
3.540000000003046, -0.9112872411148262 
3.550000000003067, -0.9124388394295359 
3.5600000000030882, -0.9136217811564377 
3.5700000000031094, -0.9147216417385777 
3.5800000000031305, -0.9156512009771867 
3.5900000000031516, -0.9163638831833666 
3.6000000000031727, -0.916852081328166 
3.6100000000031938, -0.9171350894748919 
3.620000000003215, -0.9172445792281556 
3.630000000003236, -0.9172133862794402 
3.640000000003257, -0.9170693767394124 
3.650000000003278, -0.9168335488585605 
3.6600000000032993, -0.9165209162080735 
3.6700000000033204, -0.9161432413247029 
3.6800000000033415, -0.9157134295980404 
3.6900000000033626, -0.9152517845353696 
3.7000000000033837, -0.9147939152740797 
3.710000000003405, -0.9143984207475674 
3.720000000003426, -0.9141496039634035 
3.730000000003447, -0.9141481311137808 
3.740000000003468, -0.9144846895011904 
3.750000000003489, -0.9152015751748113 
3.7600000000035103, -0.9162608761738611 
3.7700000000035314, -0.9175424142606957 
3.7800000000035525, -0.9188792960108421 
3.7900000000035736, -0.92011267555657 
3.8000000000035947, -0.9211345897207348 
3.810000000003616, -0.9219004359740779 
3.820000000003637, -0.9224156059340751 
3.830000000003658, -0.9227125557327177 
3.840000000003679, -0.9228313041269267 
3.8500000000037002, -0.9228078307468787 
3.8600000000037213, -0.9226691930953562 
3.8700000000037424, -0.9224326438093493 
3.8800000000037635, -0.9221066816203308 
3.8900000000037847, -0.9216931430012307 
3.9000000000038058, -0.9211904734678885 
3.910000000003827, -0.920599048928025 
3.920000000003848, -0.9199295983673428 
3.930000000003869, -0.9192146993518128 
3.94000000000389, -0.9185200100712099 
3.9500000000039113, -0.9179466903617653 
3.9600000000039324, -0.9176137346351245 
3.9700000000039535, -0.9176168481457225 
3.9800000000039746, -0.917980885837547 
3.9900000000039957, -0.9186385245330726 
4.000000000004016, -0.9194548010211161 
4.010000000003993, -0.9202815384657713 
4.02000000000397, -0.9210052183204847 
4.030000000003946, -0.9215655027421057 
4.040000000003923, -0.9219475765582696 
4.0500000000039, -0.9221638104024006 
4.0600000000038765, -0.9222369551237388 
4.070000000003853, -0.9221892777104095 
4.08000000000383, -0.9220370440368404 
4.090000000003807, -0.9217882741516565 
4.100000000003783, -0.9214420529492777 
4.11000000000376, -0.920988554510026 
4.120000000003737, -0.920409852506604 
4.130000000003713, -0.9196825050739987 
4.14000000000369, -0.9187837458997355 
4.150000000003667, -0.9177032918967928 
4.1600000000036434, -0.9164608518885565 
4.17000000000362, -0.9151238474503322 
4.180000000003597, -0.9138121669613868 
4.1900000000035735, -0.9126752892988858 
4.20000000000355, -0.9118420644549536 
4.210000000003527, -0.9113691062788035 
4.220000000003504, -0.9112226346444553 
4.23000000000348, -0.9113043021801488 
4.240000000003457, -0.911498273813384 
4.250000000003434, -0.911708805712059 
4.26000000000341, -0.9118747737198578 
4.270000000003387, -0.9119660356340159 
4.280000000003364, -0.9119724303775616 
4.2900000000033405, -0.911892995669176 
4.300000000003317, -0.9117281551339703 
4.310000000003294, -0.9114747490932278 
4.320000000003271, -0.9111229189973591 
4.330000000003247, -0.9106540964032623 
4.340000000003224, -0.910040083102507 
4.350000000003201, -0.9092442248576503 
4.360000000003177, -0.9082267730793557 
4.370000000003154, -0.906956932982974 
4.380000000003131, -0.9054321460044363 
4.390000000003107, -0.9036993612974511 
4.400000000003084, -0.9018655407383447 
4.410000000003061, -0.900083433156824 
4.4200000000030375, -0.8985110114389311 
4.430000000003014, -0.8972625832388339 
4.440000000002991, -0.8963779994874617 
4.450000000002968, -0.8958241620280285 
4.460000000002944, -0.8955218567323799 
4.470000000002921, -0.8953790821455595 
4.480000000002898, -0.8953152817684098 
4.490000000002874, -0.8952714655725655 
4.500000000002851, -0.8952094539973784 
4.510000000002828, -0.8951059289552632 
4.520000000002804, -0.8949455697928735 
4.530000000002781, -0.8947152914115076 
4.540000000002758, -0.8944001028955286 
4.5500000000027345, -0.8939806233696457 
4.560000000002711, -0.8934325138937476 
4.570000000002688, -0.8927285645260549 
4.580000000002665, -0.8918443330870428 
4.590000000002641, -0.8907673463541403 
4.600000000002618, -0.8895076426008556 
4.610000000002595, -0.8881049923338493 
4.620000000002571, -0.8866279591570081 
4.630000000002548, -0.8851633541630415 
4.640000000002525, -0.88379943642053 
4.6500000000025015, -0.8826087921037692 
4.660000000002478, -0.8816360639649179 
4.670000000002455, -0.8808932505808892 
4.6800000000024315, -0.8803627745807441 
4.690000000002408, -0.880006361030319 
4.700000000002385, -0.8797762535416224 
4.710000000002362, -0.8796250881075522 
4.720000000002338, -0.87951204586534 
4.730000000002315, -0.8794048884045982 
4.740000000002292, -0.8792789789666491 
4.750000000002268, -0.8791148942369243 
4.760000000002245, -0.8788960052410593 
4.770000000002222, -0.8786069626622348 
4.7800000000021985, -0.878233630776427 
4.790000000002175, -0.8777646165633332 
4.800000000002152, -0.8771939725810084 
4.810000000002129, -0.8765239910309038 
4.820000000002105, -0.8757667202910335 
4.830000000002082, -0.874943373822511 
4.840000000002059, -0.8740819137491638 
4.850000000002035, -0.8732138813412489 
4.860000000002012, -0.8723714370037554 
4.870000000001989, -0.8715848911683782 
4.880000000001965, -0.8708804771507136 
4.890000000001942, -0.8702781154010756 
4.900000000001919, -0.8697893225208805 
4.9100000000018955, -0.8694158467468498 
4.920000000001872, -0.8691496915258506 
4.930000000001849, -0.8689747800526325 
