t, s[1].omega / s[0].omega 
0, -3.1999951529204895 
0.009999999999999995, -3.1993567112624275 
0.019999999999999934, -3.1983971781592713 
0.029999999999999874, -3.1972516778316553 
0.04000000000000012, -3.1965269257523237 
0.050000000000000405, -3.1963986480959425 
0.06000000000000069, -3.196267583344745 
0.07000000000000098, -3.1959085380860057 
0.08000000000000126, -3.1953764072794995 
0.09000000000000155, -3.194777042226514 
0.10000000000000184, -3.1942292848028346 
0.11000000000000212, -3.193794152745919 
0.12000000000000241, -3.1934098494997736 
0.130000000000002, -3.1929428337115957 
0.1400000000000009, -3.192306035087003 
0.1499999999999998, -3.1915334978606364 
0.1599999999999987, -3.190974566021503 
0.1699999999999976, -3.1908949095621417 
0.1799999999999965, -3.190899266176455 
0.1899999999999954, -3.190678996931412 
0.1999999999999943, -3.1901799557140107 
0.2099999999999932, -3.189356603846321 
0.2199999999999921, -3.188172652087348 
0.229999999999991, -3.1870325907107313 
0.2399999999999899, -3.1867124575406214 
0.2499999999999888, -3.186800374300023 
0.2599999999999877, -3.1866613297817805 
0.2699999999999866, -3.1862547075960226 
0.2799999999999855, -3.185676096422502 
0.2899999999999844, -3.185031907136001 
0.2999999999999833, -3.1844535260449853 
0.3099999999999822, -3.1840245507501375 
0.3199999999999811, -3.183646109958078 
0.32999999999998, -3.1831681541506684 
0.3399999999999789, -3.182539173010814 
0.3499999999999778, -3.181868330679273 
0.35999999999997667, -3.1814616051985327 
0.36999999999997557, -3.1813356336059675 
0.37999999999997447, -3.1811753790143875 
0.38999999999997337, -3.180815077399691 
0.39999999999997227, -3.180188572438973 
0.40999999999997117, -3.1792034729660776 
0.41999999999997006, -3.177910374199166 
0.42999999999996896, -3.1770772571992714 
0.43999999999996786, -3.1771745747293085 
0.44999999999996676, -3.1773275868260997 
0.45999999999996566, -3.177135138831601 
0.46999999999996456, -3.1766686181488017 
0.47999999999996346, -3.17602406823545 
0.48999999999996235, -3.1753103711408746 
0.49999999999996125, -3.174708417451037 
0.5099999999999602, -3.174313164471594 
0.519999999999959, -3.1739556316730546 
0.529999999999958, -3.173480533380904 
0.5399999999999568, -3.1728758929258274 
0.5499999999999557, -3.1722834234177184 
0.5599999999999546, -3.171915166404958 
0.5699999999999535, -3.1717022830063346 
0.5799999999999524, -3.1714312416154318 
0.5899999999999513, -3.170982772451053 
0.5999999999999502, -3.170268609512849 
0.6099999999999491, -3.169193251548836 
0.619999999999948, -3.167999060255452 
0.6299999999999469, -3.1676158159247776 
0.6399999999999458, -3.167929786119257 
0.6499999999999447, -3.168036198899871 
0.6599999999999436, -3.167771754256702 
0.6699999999999425, -3.167235005489967 
0.6799999999999414, -3.1665024148850085 
0.6899999999999403, -3.165701367203005 
0.6999999999999392, -3.16509607673954 
0.7099999999999381, -3.164759337170457 
0.719999999999937, -3.164432471520235 
0.7299999999999359, -3.163968277503031 
0.7399999999999348, -3.1633880082522787 
0.7499999999999337, -3.1628340406519757 
0.7599999999999326, -3.162448939502232 
0.7699999999999315, -3.162163093152529 
0.7799999999999304, -3.1618262415762968 
0.7899999999999293, -3.161329115800692 
0.7999999999999282, -3.1605741165916372 
0.8099999999999271, -3.1595090224585616 
0.819999999999926, -3.1585613844794964 
0.8299999999999249, -3.1585101374713793 
0.8399999999999238, -3.158838311855513 
0.8499999999999227, -3.158853004022941 
0.8599999999999216, -3.1585140270502725 
0.8699999999999205, -3.157899272503326 
0.8799999999999194, -3.1570589972355116 
0.8899999999999183, -3.156162296167201 
0.8999999999999172, -3.155581308634607 
0.9099999999999161, -3.1553234472596774 
0.919999999999915, -3.1550344702893667 
0.9299999999999139, -3.154585265610476 
0.9399999999999128, -3.15402151698908 
0.9499999999999117, -3.153474471556661 
0.9599999999999106, -3.15305349474605 
0.9699999999999095, -3.1527160451330447 
0.9799999999999084, -3.1523451691479227 
0.9899999999999073, -3.1518304813682647 
0.9999999999999062, -3.1510795343950084 
1.0099999999999052, -3.150100181762796 
1.019999999999904, -3.14939459624029 
1.029999999999903, -3.149471293163538 
1.039999999999902, -3.1497118287645844 
1.0499999999999008, -3.149632491235362 
1.0599999999998997, -3.149226051728971 
1.0699999999998986, -3.1485320277793165 
1.0799999999998975, -3.1475740412579714 
1.0899999999998964, -3.1465847003820953 
1.0999999999998953, -3.146056020238651 
1.1099999999998942, -3.145892652379705 
1.119999999999893, -3.1456483456034183 
1.129999999999892, -3.1452167770832364 
1.1399999999998909, -3.1446611301137954 
1.1499999999998898, -3.1441011513519843 
1.1599999999998887, -3.143638579064066 
1.1699999999998876, -3.1432654230170582 
1.1799999999998865, -3.1428822600208766 
1.1899999999998854, -3.14237338719707 
1.1999999999998843, -3.141657783786966 
1.2099999999998832, -3.140786018433033 
1.219999999999882, -3.140229232905521 
1.229999999999881, -3.1402919092016406 
1.2399999999998799, -3.140421477100158 
1.2499999999998788, -3.140265042140965 
1.2599999999998777, -3.1398058735512024 
1.2699999999998766, -3.139043090879085 
1.2799999999998755, -3.1379748272358867 
1.2899999999998744, -3.136905764127623 
1.2999999999998733, -3.1364481246591223 
1.3099999999998722, -3.1363898393845075 
1.319999999999871, -3.1361981649376283 
1.32999999999987, -3.1357878243969526 
1.3399999999998689, -3.1352350391144146 
1.3499999999998678, -3.1346506903447358 
1.3599999999998666, -3.134142722191141 
1.3699999999998655, -3.1337417958108267 
1.3799999999998644, -3.1333606181513374 
1.3899999999998633, -3.132873672670601 
1.3999999999998622, -3.1322083008255985 
1.4099999999998611, -3.1314287146131106 
1.41999999999986, -3.1309282132321727 
1.429999999999859, -3.1309131271668593 
1.4399999999998578, -3.1309431575488325 
1.4499999999998567, -3.130732817099098 
1.4599999999998556, -3.130242228456642 
1.4699999999998545, -3.1294358703755556 
1.4799999999998534, -3.1282866708612875 
1.4899999999998523, -3.1271548980941333 
1.4999999999998512, -3.126766798601145 
1.5099999999998501, -3.1268181369706234 
1.519999999999849, -3.1266893736605303 
1.529999999999848, -3.1263066291937585 
1.5399999999998468, -3.1257562863534814 
1.5499999999998457, -3.125142071681233 
1.5599999999998446, -3.1245827639398356 
1.5699999999998435, -3.1241532908613117 
1.5799999999998424, -3.123782150447181 
1.5899999999998413, -3.123327694087374 
1.5999999999998402, -3.1227166865268945 
1.6099999999998391, -3.122005021537941 
1.619999999999838, -3.121502914877902 
1.629999999999837, -3.1213907101579106 
1.6399999999998358, -3.1213404718432773 
1.6499999999998347, -3.1210990156106435 
1.6599999999998336, -3.120601952068101 
1.6699999999998325, -3.1197888493364583 
1.6799999999998314, -3.118607032200091 
1.6899999999998303, -3.117427345794174 
1.6999999999998292, -3.117078218152384 
1.709999999999828, -3.1172347799231632 
1.719999999999827, -3.117181922369137 
1.729999999999826, -3.1168371611196752 
1.7399999999998248, -3.1162945563844597 
1.7499999999998237, -3.1156508234718996 
1.7599999999998226, -3.1150322740348195 
1.7699999999998215, -3.114563754130571 
1.7799999999998204, -3.1142041054157534 
1.7899999999998193, -3.113789376092895 
1.7999999999998182, -3.1132333312970184 
1.809999999999817, -3.1125726120125083 
1.819999999999816, -3.112042891751631 
1.8299999999998149, -3.111830920627304 
1.8399999999998138, -3.1117152850227168 
1.8499999999998127, -3.1114610036306916 
1.8599999999998116, -3.1109811853620406 
1.8699999999998105, -3.1102009190003086 
1.8799999999998094, -3.1090437682545593 
1.8899999999998083, -3.1078293507429864 
1.8999999999998072, -3.1074574960377257 
1.909999999999806, -3.1076996634289626 
1.919999999999805, -3.1077375266959892 
1.9299999999998039, -3.1074458267491845 
1.9399999999998028, -3.106922468775774 
1.9499999999998017, -3.1062569968606772 
1.9599999999998006, -3.105573102613627 
1.9699999999997995, -3.105044768011207 
1.9799999999997984, -3.1046886885750387 
1.9899999999997973, -3.104318831622021 
1.9999999999997962, -3.10381948262923 
2.0099999999998173, -3.1032037272037485 
2.0199999999998384, -3.1026423514367054 
2.0299999999998595, -3.102332306267327 
2.0399999999998806, -3.102157008494559 
2.0499999999999017, -3.1019008062400806 
2.059999999999923, -3.101456046963194 
2.069999999999944, -3.100740852723317 
2.079999999999965, -3.0996620224027116 
2.089999999999986, -3.0984344811820606 
2.100000000000007, -3.0979575713452787 
2.1100000000000283, -3.098239823588031 
2.1200000000000494, -3.0983816915227287 
2.1300000000000705, -3.098162870295055 
2.1400000000000916, -3.097676373088576 
2.1500000000001127, -3.0970059906999974 
2.160000000000134, -3.096259397669302 
2.170000000000155, -3.0956432321760188 
2.180000000000176, -3.0952676395704546 
2.190000000000197, -3.094944285717913 
2.2000000000002182, -3.0945063987559474 
2.2100000000002393, -3.0939387759482466 
2.2200000000002604, -3.0933566419217473 
2.2300000000002815, -3.092953013393272 
2.2400000000003026, -3.0927138179094014 
2.2500000000003237, -3.092457099006576 
2.260000000000345, -3.09205664804745 
2.270000000000366, -3.091425476613975 
2.280000000000387, -3.0904644925109497 
2.290000000000408, -3.089264465597597 
2.3000000000004293, -3.088608267571367 
2.3100000000004504, -3.088846322423081 
2.3200000000004715, -3.0890957145421347 
2.3300000000004926, -3.088973479789368 
2.3400000000005137, -3.0885467433967664 
2.3500000000005348, -3.087897066543644 
2.360000000000556, -3.087106658949519 
2.370000000000577, -3.0863787653011934 
2.380000000000598, -3.085938727616213 
2.390000000000619, -3.085653422580243 
2.4000000000006403, -3.0852845813833305 
2.4100000000006614, -3.08477459311453 
2.4200000000006825, -3.084192848711888 
2.4300000000007036, -3.083707315881673 
2.4400000000007247, -3.083392736371571 
2.450000000000746, -3.083125825104596 
2.460000000000767, -3.0827694131108 
2.470000000000788, -3.0822277207917477 
2.480000000000809, -3.081404428408813 
2.49000000000083, -3.080288445035024 
2.5000000000008513, -3.0794305626605882 
2.5100000000008724, -3.07949817266491 
2.5200000000008935, -3.079831553120714 
2.5300000000009146, -3.0798306051580595 
2.5400000000009357, -3.0794906554077732 
2.550000000000957, -3.0788931477119776 
2.560000000000978, -3.078096437845768 
2.570000000000999, -3.077257740754038 
2.58000000000102, -3.0766887351126293 
2.5900000000010412, -3.0764080062653356 
2.6000000000010624, -3.0761149913336236 
2.6100000000010835, -3.0756765938699853 
2.6200000000011046, -3.0751222063562698 
2.6300000000011257, -3.074579085791771 
2.6400000000011468, -3.074177955947906 
2.650000000001168, -3.073879885080269 
2.660000000001189, -3.0735565845240833 
2.67000000000121, -3.073099246630106 
2.680000000001231, -3.0724144944711536 
2.6900000000012523, -3.0714348898479216 
2.7000000000012734, -3.0704371679275484 
2.7100000000012945, -3.0701988635974184 
2.7200000000013156, -3.0705365889116383 
2.7300000000013367, -3.0706738580044144 
2.740000000001358, -3.0704507622487287 
2.750000000001379, -3.0699386152665213 
2.7600000000014, -3.069184775136681 
2.770000000001421, -3.0682786796083614 
2.780000000001442, -3.067525735517235 
2.7900000000014633, -3.067170720554702 
2.8000000000014844, -3.0669466562534615 
2.8100000000015055, -3.066596952726939 
2.8200000000015266, -3.06609872248522 
2.8300000000015477, -3.065535987384482 
2.840000000001569, -3.0650498524141487 
2.85000000000159, -3.064692589257548 
2.860000000001611, -3.0643786378030917 
2.870000000001632, -3.063991678601801 
2.8800000000016532, -3.0634329203591664 
2.8900000000016743, -3.0626165977874704 
2.9000000000016954, -3.061605604182834 
2.9100000000017165, -3.061003089009483 
2.9200000000017377, -3.0611842808837566 
2.9300000000017588, -3.0614450411471696 
2.94000000000178, -3.0613695271892127 
2.950000000001801, -3.060975321388087 
2.960000000001822, -3.0603124846976306 
2.970000000001843, -3.0594178318501624 
2.9800000000018643, -3.058491735730359 
2.9900000000018854, -3.057941452359528 
3.0000000000019065, -3.057733600766092 
3.0100000000019276, -3.0574870239516643 
3.0200000000019487, -3.0570740026249954 
3.03000000000197, -3.0565372660248173 
3.040000000001991, -3.05599194930739 
3.050000000002012, -3.0555529227668345 
3.060000000002033, -3.055211872249946 
3.070000000002054, -3.0548699102022296 
3.0800000000020753, -3.0544169020404395 
3.0900000000020964, -3.0537609027360855 
3.1000000000021175, -3.0528570192394455 
3.1100000000021386, -3.0519908643608398 
3.1200000000021597, -3.0518150345019146 
3.130000000002181, -3.0521031121834117 
3.140000000002202, -3.052195390436006 
3.150000000002223, -3.051951847557736 
3.160000000002244, -3.051418707689593 
3.1700000000022652, -3.0506169031640646 
3.1800000000022863, -3.049621626973579 
3.1900000000023074, -3.048793815344008 
3.2000000000023285, -3.0484609325004235 
3.2100000000023496, -3.048302915631223 
3.2200000000023707, -3.0480040499184495 
3.230000000002392, -3.0475384511703334 
3.240000000002413, -3.0469840429420865 
3.250000000002434, -3.0464656043219374 
3.260000000002455, -3.0460583065471067 
3.2700000000024763, -3.045720068755605 
3.2800000000024974, -3.04534447352409 
3.2900000000025185, -3.04482690063969 
3.3000000000025396, -3.0440877915519997 
3.3100000000025607, -3.04317070799165 
3.3200000000025818, -3.042563653549555 
3.330000000002603, -3.042656101931649 
3.340000000002624, -3.0428855313335803 
3.350000000002645, -3.0428244158313418 
3.360000000002666, -3.042452289977354 
3.3700000000026873, -3.0417994216895385 
3.3800000000027084, -3.0408753893297975 
3.3900000000027295, -3.0398479236375153 
3.4000000000027506, -3.039199521294477 
3.4100000000027717, -3.0390179108374404 
3.420000000002793, -3.038848295509499 
3.430000000002814, -3.0384960096888833 
3.440000000002835, -3.0379924514340706 
3.450000000002856, -3.037435045841193 
3.460000000002877, -3.0369425043570084 
3.4700000000028983, -3.0365562766373104 
3.4800000000029194, -3.036213667464995 
3.4900000000029405, -3.035802837138369 
3.5000000000029616, -3.0352267023837602 
3.5100000000029827, -3.0344289465766807 
3.520000000003004, -3.0335727865413933 
3.530000000003025, -3.0332252611075288 
3.540000000003046, -3.0334235463030135 
3.550000000003067, -3.033552422161447 
3.5600000000030882, -3.033372998958339 
3.5700000000031094, -3.032900494234557 
3.5800000000031305, -3.0321439648698396 
3.5900000000031516, -3.03112631202179 
3.6000000000031727, -3.0301387926950225 
3.6100000000031938, -3.029679036476712 
3.620000000003215, -3.0295718161750598 
3.630000000003236, -3.0293677584777035 
3.640000000003257, -3.0289714249813118 
3.650000000003278, -3.028443128191881 
3.6600000000032993, -3.0278905527539814 
3.6700000000033204, -3.027419674717909 
3.6800000000033415, -3.027047916612682 
3.6900000000033626, -3.026696863549393 
3.7000000000033837, -3.0262530732366555 
3.710000000003405, -3.025628386416316 
3.720000000003426, -3.024800191198639 
3.730000000003447, -3.0240465311013276 
3.740000000003468, -3.023891380262306 
3.750000000003489, -3.024104197229536 
3.7600000000035103, -3.0241422489208363 
3.7700000000035314, -3.023876515076828 
3.7800000000035525, -3.023325925669025 
3.7900000000035736, -3.0224846240004686 
3.8000000000035947, -3.0214094729238647 
3.810000000003616, -3.0205065454500772 
3.820000000003637, -3.020194664711474 
3.830000000003658, -3.0201109969189073 
3.840000000003679, -3.0198712586755185 
3.8500000000037002, -3.0194425107261744 
3.8600000000037213, -3.018899671862439 
3.8700000000037424, -3.0183548644540026 
3.8800000000037635, -3.0179012786252524 
3.8900000000037847, -3.0175393361943335 
3.9000000000038058, -3.017178653927437 
3.910000000003827, -3.0167074154586113 
3.920000000003848, -3.01604644669863 
3.930000000003869, -3.0152103025610395 
3.94000000000389, -3.01456060267506 
3.9500000000039113, -3.014523773128551 
3.9600000000039324, -3.0147184697894924 
3.9700000000039535, -3.0146898434117486 
3.9800000000039746, -3.014364710187745 
3.9900000000039957, -3.0137570179482283 
4.000000000004016, -3.012853983473386 
4.010000000003993, -3.0117539606640777 
4.02000000000397, -3.010941183975213 
4.030000000003946, -3.010723524603905 
4.040000000003923, -3.0106397864539636 
4.0500000000039, -3.010372179283789 
4.0600000000038765, -3.009922087902317 
4.070000000003853, -3.009371898843472 
4.08000000000383, -3.0088349986634615 
4.090000000003807, -3.0083945856748118 
4.100000000003783, -3.0080390603987768 
4.11000000000376, -3.007670298499213 
4.120000000003737, -3.007179368691856 
4.130000000003713, -3.0064945366833293 
4.14000000000369, -3.005661324969682 
4.150000000003667, -3.005089416761847 
4.1600000000036434, -3.0051164131437504 
4.17000000000362, -3.005291753909602 
4.180000000003597, -3.0052226459749845 
4.1900000000035735, -3.004861980040931 
4.20000000000355, -3.0042190255036383 
4.210000000003527, -3.0032797634717148 
4.220000000003504, -3.002175729569158 
4.23000000000348, -3.0014285283276005 
4.240000000003457, -3.0012588766157746 
4.250000000003434, -3.001168580846893 
4.26000000000341, -3.000883925560533 
4.270000000003387, -3.0004223656166835 
4.280000000003364, -2.999869695640724 
4.2900000000033405, -2.9993393289547643 
4.300000000003317, -2.998908052673806 
4.310000000003294, -2.9985567410077065 
4.320000000003271, -2.998183558897698 
4.330000000003247, -2.997682027805183 
4.340000000003224, -2.996984639343455 
4.350000000003201, -2.996153904101122 
4.360000000003177, -2.995620642251412 
4.370000000003154, -2.995676337858213 
4.380000000003131, -2.9958448577606616 
4.390000000003107, -2.995760853412856 
4.400000000003084, -2.9953872203603074 
4.410000000003061, -2.9947319683691416 
4.4200000000030375, -2.9937823576371763 
4.430000000003014, -2.9926833521661655 
4.440000000002991, -2.9919620612198585 
4.450000000002968, -2.991804382666541 
4.460000000002944, -2.991709161081437 
4.470000000002921, -2.9914189075362096 
4.480000000002898, -2.9909547410579127 
4.490000000002874, -2.9904029642708427 
4.500000000002851, -2.9898769116717316 
4.510000000002828, -2.989450808303924 
4.520000000002804, -2.9891025019365673 
4.530000000002781, -2.9887298327929974 
4.540000000002758, -2.988227489608872 
4.5500000000027345, -2.9875279475567558 
4.560000000002711, -2.986692696764865 
4.570000000002688, -2.986154120184972 
4.580000000002665, -2.986212669971335 
4.590000000002641, -2.986391681555048 
4.600000000002618, -2.9863180052386604 
4.610000000002595, -2.9859535886251645 
4.620000000002571, -2.9853093757873728 
4.630000000002548, -2.9843747597094388 
4.640000000002525, -2.983284778882622 
4.6500000000025015, -2.9825467248715953 
4.660000000002478, -2.982369680212422 
4.670000000002455, -2.98227308071018 
4.6800000000024315, -2.9819884489468955 
4.690000000002408, -2.981530005916399 
4.700000000002385, -2.9809818089232367 
4.710000000002362, -2.980457380633943 
4.720000000002338, -2.9800326107703703 
4.730000000002315, -2.9796866546628045 
4.740000000002292, -2.979319870336815 
4.750000000002268, -2.9788267994399926 
4.760000000002245, -2.978135893148288 
4.770000000002222, -2.9772894758462694 
4.7800000000021985, -2.976700181166884 
4.790000000002175, -2.9767326283746662 
4.800000000002152, -2.976938739292241 
4.810000000002129, -2.9769011832806265 
4.820000000002105, -2.9765683177891797 
4.830000000002082, -2.975957809371411 
4.840000000002059, -2.9750628981219243 
4.850000000002035, -2.9739898012081207 
4.860000000002012, -2.97319875919466 
4.870000000001989, -2.9729687746711924 
4.880000000001965, -2.972871303396518 
4.890000000001942, -2.972602771931186 
4.900000000001919, -2.9721584073322815 
4.9100000000018955, -2.9716166159902677 
4.920000000001872, -2.971090893219296 
4.930000000001849, -2.9706636338803856 
4.940000000001826, -2.9703194176057335 
4.950000000001802, -2.969963561044108 
4.960000000001779, -2.96948975978714 
4.970000000001756, -2.9688199607691073 
