t, s[1].omega / s[0].omega 
0, -1.0099975523718077 
0.009999999999999995, -1.0097184386136133 
0.019999999999999934, -1.0093737239077805 
0.029999999999999874, -1.0089704749994546 
0.04000000000000012, -1.008520134103155 
0.050000000000000405, -1.0080382122342342 
0.06000000000000069, -1.007543904888919 
0.07000000000000098, -1.007059375262146 
0.08000000000000126, -1.006608244000978 
0.09000000000000155, -1.0062129226154464 
0.10000000000000184, -1.0058909899072304 
0.11000000000000212, -1.0056516107130216 
0.12000000000000241, -1.0054934258849506 
0.130000000000002, -1.0054048968945832 
0.1400000000000009, -1.0053669433271595 
0.1499999999999998, -1.005356679209577 
0.1599999999999987, -1.0053508457860814 
0.1699999999999976, -1.0053281352345687 
0.1799999999999965, -1.0052704014523666 
0.1899999999999954, -1.00516320946229 
0.1999999999999943, -1.0049961665389078 
0.2099999999999932, -1.004763226164616 
0.2199999999999921, -1.0044629318286318 
0.229999999999991, -1.0040985019610253 
0.2399999999999899, -1.003677720831835 
0.2499999999999888, -1.0032126905342482 
0.2599999999999877, -1.0027195150919075 
0.2699999999999866, -1.0022178658156151 
0.2799999999999855, -1.0017301467544546 
0.2899999999999844, -1.0012798158674072 
0.2999999999999833, -1.000888578951732 
0.3099999999999822, -1.0005727700328448 
0.3199999999999811, -1.0003399848682881 
0.32999999999998, -1.0001873414337188 
0.3399999999999789, -1.000102185810827 
0.3499999999999778, -1.0000649165061855 
0.35999999999997667, -1.0000526812284571 
0.36999999999997557, -1.000042621898365 
0.37999999999997447, -1.0000139902876284 
0.38999999999997337, -0.999949217671387 
0.39999999999997227, -0.999834405569436 
0.40999999999997117, -0.9996596492317147 
0.41999999999997006, -0.9994193464267574 
0.42999999999996896, -0.999112437719233 
0.43999999999996786, -0.9987424789656991 
0.44999999999996676, -0.9983175191158724 
0.45999999999996566, -0.9978498433009209 
0.46999999999996456, -0.9973556490648965 
0.47999999999996346, -0.9968545976533637 
0.48999999999996235, -0.9963689577404589 
0.49999999999996125, -0.995921910579265 
0.5099999999999602, -0.9955347600835358 
0.519999999999959, -0.9952233823873421 
0.529999999999958, -0.9949949712203565 
0.5399999999999568, -0.9948464053773742 
0.5499999999999557, -0.994765000907208 
0.5599999999999546, -0.9947313003639113 
0.5699999999999535, -0.9947226831387935 
0.5799999999999524, -0.9947165259685626 
0.5899999999999513, -0.99469227185673 
0.5999999999999502, -0.9946324918380812 
0.6099999999999491, -0.9945233850606009 
0.619999999999948, -0.994355107016672 
0.6299999999999469, -0.9941220705465726 
0.6399999999999458, -0.9938231709101462 
0.6499999999999447, -0.9934618432078443 
0.6599999999999436, -0.9930459276074977 
0.6699999999999425, -0.9925874029790158 
0.6799999999999414, -0.992102064480029 
0.6899999999999403, -0.991609104649795 
0.6999999999999392, -0.9911303349805394 
0.7099999999999381, -0.9906886212689072 
0.719999999999937, -0.9903052464631618 
0.7299999999999359, -0.9899964685307822 
0.7399999999999348, -0.9897702554850918 
0.7499999999999337, -0.9896244963847158 
0.7599999999999326, -0.9895475045159342 
0.7699999999999315, -0.9895205752557527 
0.7799999999999304, -0.9895214782330429 
0.7899999999999293, -0.9895276353538305 
0.7999999999999282, -0.9895182929276711 
0.8099999999999271, -0.9894756977063762 
0.819999999999926, -0.9893856708528747 
0.8299999999999249, -0.9892379592525149 
0.8399999999999238, -0.989026528730186 
0.8499999999999227, -0.9887497759930302 
0.8599999999999216, -0.9884105774819801 
0.8699999999999205, -0.9880161438287818 
0.8799999999999194, -0.9875777369860048 
0.8899999999999183, -0.9871103456985617 
0.8999999999999172, -0.9866323225029566 
0.9099999999999161, -0.9861647615370563 
0.919999999999915, -0.985730191165986 
0.9299999999999139, -0.9853502189819874 
0.9399999999999128, -0.9850422504302132 
0.9499999999999117, -0.9848161233429573 
0.9599999999999106, -0.9846719346013943 
0.9699999999999095, -0.9846000176652216 
0.9799999999999084, -0.9845830632576092 
0.9899999999999073, -0.9845994306964589 
0.9999999999999062, -0.9846264121925093 
1.0099999999999052, -0.9846426396337777 
1.019999999999904, -0.984629499088444 
1.029999999999903, -0.984571861757282 
1.039999999999902, -0.9844585041960745 
1.0499999999999008, -0.9842824221846633 
1.0599999999998997, -0.9840410532514481 
1.0699999999998986, -0.9837363323120641 
1.0799999999998975, -0.9833745311873692 
1.0899999999998964, -0.9829659331589143 
1.0999999999998953, -0.9825244736496875 
1.1099999999998942, -0.9820674222546941 
1.119999999999893, -0.9816149557455448 
1.129999999999892, -0.9811892067528257 
1.1399999999998909, -0.980812323375045 
1.1499999999998898, -0.9805034473343582 
1.1599999999998887, -0.9802752331905114 
1.1699999999998876, -0.9801311279192122 
1.1799999999998865, -0.9800645630129907 
1.1899999999998854, -0.9800603921664159 
1.1999999999998843, -0.9800978879200993 
1.2099999999998832, -0.9801540982682152 
1.219999999999882, -0.9802065924187124 
1.229999999999881, -0.9802352497548332 
1.2399999999998799, -0.9802232686770707 
1.2499999999998788, -0.9801577487913402 
1.2599999999998777, -0.9800300966963702 
1.2699999999998766, -0.9798363111612375 
1.2799999999998755, -0.9795770691923842 
1.2899999999998744, -0.9792575347085677 
1.2999999999998733, -0.9788869370706085 
1.3099999999998722, -0.9784781057385874 
1.319999999999871, -0.9780471390539466 
1.32999999999987, -0.9776131600012375 
1.3399999999998689, -0.9771977807632964 
1.3499999999998678, -0.9768237116120861 
1.3599999999998666, -0.9765121621861821 
1.3699999999998655, -0.976279341892092 
1.3799999999998644, -0.9761331290440488 
1.3899999999998633, -0.9760712440114109 
1.3999999999998622, -0.976081696279873 
1.4099999999998611, -0.9761452226339264 
1.41999999999986, -0.9762386445688831 
1.429999999999859, -0.976338013163313 
1.4399999999998578, -0.9764209233420719 
1.4499999999998567, -0.9764679758388105 
1.4599999999998556, -0.9764636819478776 
1.4699999999998545, -0.9763970917621141 
1.4799999999998534, -0.9762622312723106 
1.4899999999998523, -0.9760582520059715 
1.4999999999998512, -0.9757891775311431 
1.5099999999998501, -0.9754633005002062 
1.519999999999849, -0.9750924987355312 
1.529999999999848, -0.9746917832869251 
1.5399999999998468, -0.9742791672902944 
1.5499999999998457, -0.973875552618227 
1.5599999999998446, -0.9735040059446629 
1.5699999999998435, -0.9731878064781533 
1.5799999999998424, -0.9729471627094439 
1.5899999999998413, -0.9727953594616567 
1.5999999999998402, -0.9727357455767944 
1.6099999999998391, -0.9727608182172777 
1.619999999999838, -0.9728537056377379 
1.629999999999837, -0.9729912819472213 
1.6399999999998358, -0.9731476896649351 
1.6499999999998347, -0.9732973358304273 
1.6599999999998336, -0.9734170509414797 
1.6699999999998325, -0.9734875696843528 
1.6799999999998314, -0.9734945955287833 
1.6899999999998303, -0.9734295315984601 
1.6999999999998292, -0.9732897412475339 
1.709999999999828, -0.973078182942697 
1.719999999999827, -0.9728025046439864 
1.729999999999826, -0.9724739883210308 
1.7399999999998248, -0.972106826260425 
1.7499999999998237, -0.9717179786895107 
1.7599999999998226, -0.9713274211008468 
1.7699999999998215, -0.970958151260126 
1.7799999999998204, -0.9706351248716357 
1.7899999999998193, -0.9703825612451569 
1.7999999999998182, -0.9702198751440134 
1.809999999999817, -0.9701574781665487 
1.819999999999816, -0.9701941165699717 
1.8299999999998149, -0.970316815540107 
1.8399999999998138, -0.9705032681565001 
1.8499999999998127, -0.9707255504105378 
1.8599999999998116, -0.9709539225169662 
1.8699999999998105, -0.9711600041191456 
1.8799999999998094, -0.9713192111957116 
1.8899999999998083, -0.9714125931214463 
1.8999999999998072, -0.9714280793492607 
1.909999999999806, -0.9713609229057573 
1.919999999999805, -0.9712131533189243 
1.9299999999998039, -0.9709922057361207 
1.9399999999998028, -0.9707093014672505 
1.9499999999998017, -0.9703782690808709 
1.9599999999998006, -0.9700152260938009 
1.9699999999997995, -0.9696390565130351 
1.9799999999997984, -0.9692721177856809 
1.9899999999997973, -0.9689402432928753 
1.9999999999997962, -0.9686710796166791 
2.0099999999998173, -0.9684903597563469 
2.0199999999998384, -0.9684168326607135 
2.0299999999998595, -0.9684576248171213 
2.0399999999998806, -0.9686059246322669 
2.0499999999999017, -0.9688418262825585 
2.059999999999923, -0.9691357354308631 
2.069999999999944, -0.9694529568117687 
2.079999999999965, -0.9697582533394904 
2.089999999999986, -0.9700197818129294 
2.100000000000007, -0.970212218621001 
2.1100000000000283, -0.9703188709446489 
2.1200000000000494, -0.9703324203139252 
2.1300000000000705, -0.9702541015119488 
2.1400000000000916, -0.970091654876424 
2.1500000000001127, -0.9698569105749094 
2.160000000000134, -0.9695639518816108 
2.170000000000155, -0.9692284410474372 
2.180000000000176, -0.9688681496366875 
2.190000000000197, -0.9685042250018718 
2.2000000000002182, -0.9681622879497687 
2.2100000000002393, -0.9678721686962646 
2.2200000000002604, -0.9676652375554446 
2.2300000000002815, -0.9675691934916995 
2.2400000000003026, -0.9676016479430662 
2.2500000000003237, -0.9677649282292731 
2.260000000000345, -0.9680442349776728 
2.270000000000366, -0.9684097315901632 
2.280000000000387, -0.9688215340550054 
2.290000000000408, -0.9692359474880213 
2.3000000000004293, -0.9696116040707505 
2.3100000000004504, -0.9699146383734982 
2.3200000000004715, -0.9701222066158216 
2.3300000000004926, -0.9702237310787541 
2.3400000000005137, -0.9702197005722013 
2.3500000000005348, -0.9701186828297326 
2.360000000000556, -0.9699338411021291 
2.370000000000577, -0.9696802299987214 
2.380000000000598, -0.9693735981487623 
2.390000000000619, -0.9690307883709173 
2.4000000000006403, -0.9686713456805025 
2.4100000000006614, -0.9683195523227874 
2.4200000000006825, -0.9680056938999945 
2.4300000000007036, -0.9677650862555709 
2.4400000000007247, -0.9676337623994359 
2.450000000000746, -0.9676411171703613 
2.460000000000767, -0.9678017420544972 
2.470000000000788, -0.9681097385229995 
2.480000000000809, -0.9685379324110345 
2.49000000000083, -0.9690422244902953 
2.5000000000008513, -0.969569441889297 
2.5100000000008724, -0.9700664189565511 
2.5200000000008935, -0.9704882464555835 
2.5300000000009146, -0.9708040104222443 
2.5400000000009357, -0.9709988842124853 
2.550000000000957, -0.9710724683931462 
2.560000000000978, -0.9710345657151194 
2.570000000000999, -0.9709003303407631 
2.58000000000102, -0.9706864903992922 
2.5900000000010412, -0.9704094915333776 
2.6000000000010624, -0.970085618578677 
2.6100000000010835, -0.9697327142723238 
2.6200000000011046, -0.9693728581423201 
2.6300000000011257, -0.9690349956820071 
2.6400000000011468, -0.9687559615917849 
2.650000000001168, -0.9685780579782479 
2.660000000001189, -0.9685421239128112 
2.67000000000121, -0.9686772080978544 
2.680000000001231, -0.9689904710902674 
2.6900000000012523, -0.9694617661295094 
2.7000000000012734, -0.9700455266079379 
2.7100000000012945, -0.970679427064313 
2.7200000000013156, -0.9712968599674017 
2.7300000000013367, -0.9718394185367556 
2.740000000001358, -0.9722659545337944 
2.750000000001379, -0.9725560838308697 
2.7600000000014, -0.9727080774424088 
2.770000000001421, -0.9727331206120727 
2.780000000001442, -0.9726487990661414 
2.7900000000014633, -0.9724740595235005 
2.8000000000014844, -0.9722265946914186 
2.8100000000015055, -0.9719225909782949 
2.8200000000015266, -0.9715783723100817 
2.8300000000015477, -0.971213397237755 
2.840000000001569, -0.9708538674249997 
2.85000000000159, -0.9705356106683733 
2.860000000001611, -0.9703041068568968 
2.870000000001632, -0.9702093856171372 
2.8800000000016532, -0.9702951383911433 
2.8900000000016743, -0.9705847625804109 
2.9000000000016954, -0.9710701075408371 
2.9100000000017165, -0.9717086517177448 
2.9200000000017377, -0.9724312171053706 
2.9300000000017588, -0.9731575527080414 
2.94000000000178, -0.9738139992496866 
2.950000000001801, -0.9743471273739303 
2.960000000001822, -0.9747294741957016 
2.970000000001843, -0.9749571854925355 
2.9800000000018643, -0.9750425907204203 
2.9900000000018854, -0.9750057925164641 
3.0000000000019065, -0.9748682136848521 
3.0100000000019276, -0.9746491558321845 
3.0200000000019487, -0.9743651230311189 
3.03000000000197, -0.9740312725400966 
3.040000000001991, -0.9736644612472958 
3.050000000002012, -0.9732873921399916 
3.060000000002033, -0.9729329053028284 
3.070000000002054, -0.9726464266543869 
3.0800000000020753, -0.9724836029908968 
3.0900000000020964, -0.9725006503994083 
3.1000000000021175, -0.9727381642812901 
3.1100000000021386, -0.97320406664217 
3.1200000000021597, -0.9738642316154948 
3.130000000002181, -0.9746468561003168 
3.140000000002202, -0.9754598426611494 
3.150000000002223, -0.9762139172612455 
3.160000000002244, -0.9768419586823821 
3.1700000000022652, -0.9773079531936893 
3.1800000000022863, -0.9776048381484206 
3.1900000000023074, -0.9777454317582382 
3.2000000000023285, -0.9777520223014016 
3.2100000000023496, -0.977648413313917 
3.2200000000023707, -0.9774556142237036 
3.230000000002392, -0.9771907156450697 
3.240000000002413, -0.9768680848583845 
3.250000000002434, -0.9765022844760368 
3.260000000002455, -0.9761123874475974 
3.2700000000024763, -0.9757271302568518 
3.2800000000024974, -0.9753893320109365 
3.2900000000025185, -0.97515647375197 
3.3000000000025396, -0.9750936116100599 
3.3100000000025607, -0.9752569942208773 
3.3200000000025818, -0.9756725212925282 
3.330000000002603, -0.9763191468564753 
3.340000000002624, -0.9771276561949536 
3.350000000002645, -0.9779977428592359 
3.360000000002666, -0.9788258886151923 
3.3700000000026873, -0.979530960187615 
3.3800000000027084, -0.9800673211146919 
3.3900000000027295, -0.9804235393353598 
3.4000000000027506, -0.9806119614413322 
3.4100000000027717, -0.9806563749676528 
3.420000000002793, -0.9805825493485034 
3.430000000002814, -0.9804130434634294 
3.440000000002835, -0.9801656188840694 
3.450000000002856, -0.9798541511049338 
3.460000000002877, -0.979491325022955 
3.4700000000028983, -0.979092871795412 
3.4800000000029194, -0.9786831162306878 
3.4900000000029405, -0.9783007607635346 
3.5000000000029616, -0.9780020723322979 
3.5100000000029827, -0.9778569303268334 
3.520000000003004, -0.977933963678049 
3.530000000003025, -0.9782764921710942 
3.540000000003046, -0.9788793513370143 
3.550000000003067, -0.9796807284525613 
3.5600000000030882, -0.9805766863933221 
3.5700000000031094, -0.9814522942108919 
3.5800000000031305, -0.98221331163564 
3.5900000000031516, -0.9828040878063 
3.6000000000031727, -0.9832078593295602 
3.6100000000031938, -0.9834354607297315 
3.620000000003215, -0.9835113058276429 
3.630000000003236, -0.9834625147660262 
3.640000000003257, -0.9833128550069027 
3.650000000003278, -0.9830806860579757 
3.6600000000032993, -0.9827795739522504 
3.6700000000033204, -0.9824207233121817 
3.6800000000033415, -0.982017001887742 
3.6900000000033626, -0.981588559271756 
3.7000000000033837, -0.981169426911132 
3.710000000003405, -0.9808127338006611 
3.720000000003426, -0.9805898200887615 
3.730000000003447, -0.9805779001994386 
3.740000000003468, -0.9808353746344796 
3.750000000003489, -0.9813735648008723 
3.7600000000035103, -0.9821414102256177 
3.7700000000035314, -0.9830357136860794 
3.7800000000035525, -0.9839336769953636 
3.7900000000035736, -0.984729822268398 
3.8000000000035947, -0.9853588413515484 
3.810000000003616, -0.9857980895335448 
3.820000000003637, -0.9860560037058888 
3.830000000003658, -0.9861567647974463 
3.840000000003679, -0.9861281787470648 
3.8500000000037002, -0.9859948021950109 
3.8600000000037213, -0.985775423667946 
3.8700000000037424, -0.985483378982902 
3.8800000000037635, -0.9851287116430228 
3.8900000000037847, -0.9847219296231833 
3.9000000000038058, -0.9842795087723788 
3.910000000003827, -0.9838309043245136 
3.920000000003848, -0.9834252127282233 
3.930000000003869, -0.9831329313537284 
3.94000000000389, -0.9830364830364953 
3.9500000000039113, -0.98320626426888 
3.9600000000039324, -0.9836689820442904 
3.9700000000039535, -0.9843858982796048 
3.9800000000039746, -0.9852578986263316 
3.9900000000039957, -0.9861577667773582 
4.000000000004016, -0.9869711278538128 
4.010000000003993, -0.9876239681755026 
4.02000000000397, -0.988087684737728 
4.030000000003946, -0.988367731965796 
4.040000000003923, -0.9884873627271933 
4.0500000000039, -0.9884744767869973 
4.0600000000038765, -0.9883540128177938 
4.070000000003853, -0.9881449864441805 
4.08000000000383, -0.9878605135266559 
4.090000000003807, -0.9875097078489539 
4.100000000003783, -0.9871011608915927 
4.11000000000376, -0.986648240902408 
4.120000000003737, -0.9861762563712289 
4.130000000003713, -0.9857300913078018 
4.14000000000369, -0.9853780906409021 
4.150000000003667, -0.985205341837158 
4.1600000000036434, -0.9852912339500325 
4.17000000000362, -0.985675852468542 
4.180000000003597, -0.9863328817332097 
4.1900000000035735, -0.9871693506332428 
4.20000000000355, -0.9880564460421812 
4.210000000003527, -0.9888732310649747 
4.220000000003504, -0.9895382618304254 
4.23000000000348, -0.990017289509094 
4.240000000003457, -0.9903125248466449 
4.250000000003434, -0.9904458224339588 
4.26000000000341, -0.9904447202420263 
4.270000000003387, -0.9903341984546528 
4.280000000003364, -0.9901333091892383 
4.2900000000033405, -0.9898549230364333 
4.300000000003317, -0.9895073815545092 
4.310000000003294, -0.989097713631022 
4.320000000003271, -0.9886366998165975 
4.330000000003247, -0.9881460378937564 
4.340000000003224, -0.9876666110850246 
4.350000000003201, -0.9872640197834468 
4.360000000003177, -0.9870243106381498 
4.370000000003154, -0.9870333676468981 
4.380000000003131, -0.9873424272834314 
4.390000000003107, -0.9879367979580834 
4.400000000003084, -0.9887306175848718 
4.410000000003061, -0.9895955054759323 
4.4200000000030375, -0.9904059878251132 
4.430000000003014, -0.991074525599968 
4.440000000002991, -0.9915617665262841 
4.450000000002968, -0.9918666694070666 
4.460000000002944, -0.9920094270615347 
4.470000000002921, -0.9920169029330902 
4.480000000002898, -0.9919138617602075 
4.490000000002874, -0.9917192343995798 
4.500000000002851, -0.9914456084528093 
4.510000000002828, -0.9911006559657825 
4.520000000002804, -0.9906901081649281 
4.530000000002781, -0.9902225841261586 
4.540000000002758, -0.9897166786811272 
4.5500000000027345, -0.9892096343069529 
4.560000000002711, -0.9887641346646335 
4.570000000002688, -0.9884661268703828 
4.580000000002665, -0.9884060988615596 
4.590000000002641, -0.9886444146743466 
4.600000000002618, -0.9891768545079188 
4.610000000002595, -0.9899249232071744 
4.620000000002571, -0.9907620133473432 
4.630000000002548, -0.991559718543147 
4.640000000002525, -0.9922256124083001 
4.6500000000025015, -0.9927158453839132 
4.660000000002478, -0.9930262563706229 
4.670000000002455, -0.9931752558455921 
4.6800000000024315, -0.9931888328988953 
4.690000000002408, -0.9930913544098774 
4.700000000002385, -0.9929015089951483 
4.710000000002362, -0.9926315633916218 
4.720000000002338, -0.9922885842585139 
4.730000000002315, -0.9918771924295238 
4.740000000002292, -0.9914041654336636 
4.750000000002268, -0.9908854064252491 
4.760000000002245, -0.990354869676611 
4.770000000002222, -0.9898723313267208 
4.7800000000021985, -0.9895229930215347 
4.790000000002175, -0.9894005884431539 
4.800000000002152, -0.9895729842708862 
4.810000000002129, -0.9900453257749836 
4.820000000002105, -0.990746436153523 
4.830000000002082, -0.9915523629488355 
4.840000000002059, -0.9923329767291179 
4.850000000002035, -0.9929919438929368 
4.860000000002012, -0.9934814526232545 
4.870000000001989, -0.9937943795004595 
4.880000000001965, -0.9939472967857513 
4.890000000001942, -0.9939651868215279 
4.900000000001919, -0.9938718888179274 
4.9100000000018955, -0.9936857586873357 
4.920000000001872, -0.9934187085992964 
4.930000000001849, -0.9930772366021356 
