t, s[1].omega / s[0].omega 
0, -3.0749953567556187 
0.009999999999999995, -3.0743847175959615 
0.019999999999999934, -3.0734698531466487 
0.029999999999999874, -3.0723522114079804 
0.04000000000000012, -3.071548878408448 
0.050000000000000405, -3.0713556347128916 
0.06000000000000069, -3.0712653767692175 
0.07000000000000098, -3.070974876811489 
0.08000000000000126, -3.0705014368786623 
0.09000000000000155, -3.0699349483003315 
0.10000000000000184, -3.069391381284268 
0.11000000000000212, -3.0689486351008055 
0.12000000000000241, -3.0685850740671983 
0.130000000000002, -3.0681902352803756 
0.1400000000000009, -3.0676565222545102 
0.1499999999999998, -3.0669297346527133 
0.1599999999999987, -3.066139190839244 
0.1699999999999976, -3.065755836335657 
0.1799999999999965, -3.0658507411902285 
0.1899999999999954, -3.0659094250890666 
0.1999999999999943, -3.0656965422461044 
0.2099999999999932, -3.065199069744117 
0.2199999999999921, -3.0643966390536206 
0.229999999999991, -3.0632883507300943 
0.2399999999999899, -3.0622223130212394 
0.2499999999999888, -3.061814338392068 
0.2599999999999877, -3.0618005360438723 
0.2699999999999866, -3.061643215554887 
0.2799999999999855, -3.061260712263845 
0.2899999999999844, -3.0607276470341374 
0.2999999999999833, -3.060147669774492 
0.3099999999999822, -3.059629858702068 
0.3199999999999811, -3.0592230088894765 
0.32999999999998, -3.0588604989026464 
0.3399999999999789, -3.0584168708163593 
0.3499999999999778, -3.0578087526854767 
0.35999999999997667, -3.0570485513296437 
0.36999999999997557, -3.0564315781733358 
0.37999999999997447, -3.0563132801919344 
0.38999999999997337, -3.056398060069022 
0.39999999999997227, -3.0563000220712593 
0.40999999999997117, -3.055932521566683 
0.41999999999997006, -3.0552772800228167 
0.42999999999996896, -3.0542885328109124 
0.43999999999996786, -3.053082213424195 
0.44999999999996676, -3.0522924396835895 
0.45999999999996566, -3.052211812230272 
0.46999999999996456, -3.0522054784741983 
0.47999999999996346, -3.0519559318991005 
0.48999999999996235, -3.0514994566103977 
0.49999999999996125, -3.0509268693971547 
0.5099999999999602, -3.0503474320573245 
0.519999999999959, -3.049861498979273 
0.529999999999958, -3.04948424382841 
0.5399999999999568, -3.049106548924044 
0.5499999999999557, -3.0486106433153717 
0.5599999999999546, -3.0479471250353347 
0.5699999999999535, -3.0472232125166525 
0.5799999999999524, -3.0468152297862594 
0.5899999999999513, -3.046812021662183 
0.5999999999999502, -3.046809578056263 
0.6099999999999491, -3.0465812089322144 
0.619999999999948, -3.0460869555593577 
0.6299999999999469, -3.0452834911546605 
0.6399999999999458, -3.044139249124198 
0.6499999999999447, -3.04298932251288 
0.6599999999999436, -3.0425615301171205 
0.6699999999999425, -3.0426351492837544 
0.6799999999999414, -3.042563728863454 
0.6899999999999403, -3.042232798817179 
0.6999999999999392, -3.0417209009825266 
0.7099999999999381, -3.0411240218026117 
0.719999999999937, -3.040555011949101 
0.7299999999999359, -3.0401047433310944 
0.7399999999999348, -3.039745197752946 
0.7499999999999337, -3.039342310647321 
0.7599999999999326, -3.038799103782298 
0.7699999999999315, -3.0381077762749444 
0.7799999999999304, -3.0374705048143826 
0.7899999999999293, -3.0372261498996433 
0.7999999999999282, -3.0372375135978156 
0.8099999999999271, -3.037142783910668 
0.819999999999926, -3.036812460743967 
0.8299999999999249, -3.0362100393688776 
0.8399999999999238, -3.035272327268679 
0.8499999999999227, -3.0340353346239364 
0.8599999999999216, -3.0330736844856325 
0.8699999999999205, -3.0329405639778524 
0.8799999999999194, -3.033041757866434 
0.8899999999999183, -3.032894717392711 
0.8999999999999172, -3.0325005351206675 
0.9099999999999161, -3.0319487536326446 
0.919999999999915, -3.0313388389092473 
0.9299999999999139, -3.030787704093112 
0.9399999999999128, -3.0303709112736414 
0.9499999999999117, -3.0300169442474227 
0.9599999999999106, -3.029586387705545 
0.9699999999999095, -3.0290059854598956 
0.9799999999999084, -3.0283132748029438 
0.9899999999999073, -3.0277765093493203 
0.9999999999999062, -3.027630472642783 
1.0099999999999052, -3.027615714120302 
1.019999999999904, -3.0274453277493327 
1.029999999999903, -3.0270362697717323 
1.039999999999902, -3.026342435049539 
1.0499999999999008, -3.025294927221353 
1.0599999999998997, -3.0240382838068744 
1.0699999999998986, -3.0233105992485902 
1.0799999999998975, -3.023355188099012 
1.0899999999998964, -3.023428947130872 
1.0999999999998953, -3.0232186005760684 
1.1099999999998942, -3.0227783579589587 
1.119999999999893, -3.0221993260140163 
1.129999999999892, -3.021584757974497 
1.1399999999998909, -3.021055074953425 
1.1499999999998898, -3.020664548566426 
1.1599999999998887, -3.020308226532413 
1.1699999999998876, -3.019853023015931 
1.1799999999998865, -3.0192470040725423 
1.1899999999998854, -3.0185695872003038 
1.1999999999998843, -3.018119226622381 
1.2099999999998832, -3.0180228356789467 
1.219999999999882, -3.0179752305920022 
1.229999999999881, -3.0177494472260222 
1.2399999999998799, -3.0172818687753016 
1.2499999999998788, -3.016515967469676 
1.2599999999998777, -3.015390754829595 
1.2699999999998766, -3.0141661613581343 
1.2799999999998755, -3.0136397024457158 
1.2899999999998744, -3.013769916001073 
1.2999999999998733, -3.013805207833682 
1.3099999999998722, -3.0135493212647004 
1.319999999999871, -3.013078042756563 
1.32999999999987, -3.012482160914776 
1.3399999999998689, -3.0118686502468486 
1.3499999999998678, -3.011359177315477 
1.3599999999998666, -3.010986227798045 
1.3699999999998655, -3.010624622618644 
1.3799999999998644, -3.0101508439601607 
1.3899999999998633, -3.0095293476879137 
1.3999999999998622, -3.0088714532910847 
1.4099999999998611, -3.008481901632899 
1.41999999999986, -3.0084084953203583 
1.429999999999859, -3.0083359766197817 
1.4399999999998578, -3.008074581502354 
1.4499999999998567, -3.00756814981268 
1.4599999999998556, -3.006753209069772 
1.4699999999998545, -3.0055825878178952 
1.4799999999998534, -3.0044043494873574 
1.4899999999998523, -3.004009682384327 
1.4999999999998512, -3.004172694038731 
1.5099999999998501, -3.004178026491402 
1.519999999999849, -3.0038944235496015 
1.529999999999848, -3.0034053696827017 
1.5399999999998468, -3.002801337943903 
1.5499999999998457, -3.002191878063948 
1.5599999999998446, -3.0016974874145697 
1.5699999999998435, -3.001334475044556 
1.5799999999998424, -3.00096845294643 
1.5899999999998413, -3.000483493625637 
1.5999999999998402, -2.9998539245557603 
1.6099999999998391, -2.999209703874924 
1.619999999999838, -2.9988541661966135 
1.629999999999837, -2.9987923630925257 
1.6399999999998358, -2.9987084883696484 
1.6499999999998347, -2.998430630681015 
1.6599999999998336, -2.997905617661382 
1.6699999999998325, -2.99706740788475 
1.6799999999998314, -2.995878825585374 
1.6899999999998303, -2.994729454177758 
1.6999999999998292, -2.9943904287661307 
1.709999999999828, -2.9945602368898045 
1.719999999999827, -2.9945511176096855 
1.729999999999826, -2.994256630811205 
1.7399999999998248, -2.993761864630859 
1.7499999999998237, -2.99315709841641 
1.7599999999998226, -2.992552492118124 
1.7699999999998215, -2.9920660096395753 
1.7799999999998204, -2.9917069401508014 
1.7899999999998193, -2.99133955077462 
1.7999999999998182, -2.9908512513100045 
1.809999999999817, -2.9902187580871136 
1.819999999999816, -2.989576474834732 
1.8299999999998149, -2.9892294078012416 
1.8399999999998138, -2.989175351591386 
1.8499999999998127, -2.9890958155974836 
1.8599999999998116, -2.9888205305532307 
1.8699999999998105, -2.988297862730554 
1.8799999999998094, -2.987463439838163 
1.8899999999998083, -2.9862803655612793 
1.8999999999998072, -2.9851275712825722 
1.909999999999806, -2.9847704059355022 
1.919999999999805, -2.9849317045025137 
1.9299999999998039, -2.9849251166043906 
1.9399999999998028, -2.9846357822509573 
1.9499999999998017, -2.9841466515053408 
1.9599999999998006, -2.9835477389537464 
1.9699999999997995, -2.9829477574186503 
1.9799999999997984, -2.9824616823288372 
1.9899999999997973, -2.9821015774995248 
1.9999999999997962, -2.9817366318085674 
2.0099999999998173, -2.981253002664654 
2.0199999999998384, -2.980622193459327 
2.0299999999998595, -2.979968416391844 
2.0399999999998806, -2.979603531892018 
2.0499999999999017, -2.9795542485327062 
2.059999999999923, -2.979495504378475 
2.069999999999944, -2.9792422371434095 
2.079999999999965, -2.9787430027104884 
2.089999999999986, -2.9779393716327323 
2.100000000000007, -2.9767861251431027 
2.1100000000000283, -2.975602274918509 
2.1200000000000494, -2.975154511262056 
2.1300000000000705, -2.975288177814414 
2.1400000000000916, -2.975299450656864 
2.1500000000001127, -2.975030928854762 
2.160000000000134, -2.9745585165806783 
2.170000000000155, -2.973971742073325 
2.180000000000176, -2.9733764297707235 
2.190000000000197, -2.972884318261477 
2.2000000000002182, -2.972518271469375 
2.2100000000002393, -2.972159096411471 
2.2200000000002604, -2.971688229932357 
2.2300000000002815, -2.9710652798513317 
2.2400000000003026, -2.9703892717358458 
2.2500000000003237, -2.969976657454544 
2.260000000000345, -2.9699231346395587 
2.270000000000366, -2.96990115086465 
2.280000000000387, -2.969690369924068 
2.290000000000408, -2.9692353684819968 
2.3000000000004293, -2.96848806770984 
2.3100000000004504, -2.9673936414805224 
2.3200000000004715, -2.9661739779110157 
2.3300000000004926, -2.965566935178974 
2.3400000000005137, -2.96563604728811 
2.3500000000005348, -2.965674831743339 
2.360000000000556, -2.965442610011956 
2.370000000000577, -2.964998233339593 
2.380000000000598, -2.964430115820175 
2.390000000000619, -2.9638406849804593 
2.4000000000006403, -2.9633383286294768 
2.4100000000006614, -2.9629609830451837 
2.4200000000006825, -2.9626092091742633 
2.4300000000007036, -2.962158934612308 
2.4400000000007247, -2.96155311703136 
2.450000000000746, -2.9608521003344377 
2.460000000000767, -2.960358281709423 
2.470000000000788, -2.960276332484074 
2.480000000000809, -2.960303455210833 
2.49000000000083, -2.9601574750413278 
2.5000000000008513, -2.9597674361073785 
2.5100000000008724, -2.959099023592322 
2.5200000000008935, -2.9580957220012083 
2.5300000000009146, -2.9568701776163016 
2.5400000000009357, -2.9560565535961634 
2.550000000000957, -2.955994449642825 
2.560000000000978, -2.956056460033123 
2.570000000000999, -2.9558751277025723 
2.58000000000102, -2.955470880811716 
2.5900000000010412, -2.954928773705253 
2.6000000000010624, -2.954347829686073 
2.6100000000010835, -2.953834004685289 
2.6200000000011046, -2.953440040857843 
2.6300000000011257, -2.95309448374542 
2.6400000000011468, -2.952671448853492 
2.650000000001168, -2.952095119506914 
2.660000000001189, -2.951379473852438 
2.67000000000121, -2.9507755466501875 
2.680000000001231, -2.9506148689150944 
2.6900000000012523, -2.95069090779673 
2.7000000000012734, -2.950634301896028 
2.7100000000012945, -2.950331424974537 
2.7200000000013156, -2.949760848901472 
2.7300000000013367, -2.9488778267723226 
2.740000000001358, -2.9477067533194816 
2.750000000001379, -2.9466944583655943 
2.7600000000014, -2.9464074698096523 
2.770000000001421, -2.946458607094236 
2.780000000001442, -2.9463382889724774 
2.7900000000014633, -2.9459873508241188 
2.8000000000014844, -2.945480231475099 
2.8100000000015055, -2.9449117298834215 
2.8200000000015266, -2.944387761027142 
2.8300000000015477, -2.9439734407439433 
2.840000000001569, -2.9436296265468074 
2.85000000000159, -2.943237794394861 
2.860000000001611, -2.942704364201693 
2.870000000001632, -2.9419989923057877 
2.8800000000016532, -2.941279853082252 
2.8900000000016743, -2.9409608549571864 
2.9000000000016954, -2.941051648829533 
2.9100000000017165, -2.9411078853944232 
2.9200000000017377, -2.9409189808378398 
2.9300000000017588, -2.9404634663333216 
2.94000000000178, -2.9397204442024147 
2.950000000001801, -2.93867060988418 
2.960000000001822, -2.937546549655319 
2.970000000001843, -2.9369564040075344 
2.9800000000018643, -2.9369124682611196 
2.9900000000018854, -2.936848066242608 
3.0000000000019065, -2.936563698758005 
3.0100000000019276, -2.9361030090864544 
3.0200000000019487, -2.935553006640919 
3.03000000000197, -2.9350209420080566 
3.040000000001991, -2.9345852161385313 
3.050000000002012, -2.934236516756534 
3.060000000002033, -2.9338755620618784 
3.070000000002054, -2.933396159638764 
3.0800000000020753, -2.9327341362605908 
3.0900000000020964, -2.931938611026614 
3.1000000000021175, -2.931382188862955 
3.1100000000021386, -2.9313837961135425 
3.1200000000021597, -2.9315568591038046 
3.130000000002181, -2.931516334827079 
3.140000000002202, -2.931196886386854 
3.150000000002223, -2.9306044007765877 
3.160000000002244, -2.9297210397098565 
3.1700000000022652, -2.928622458242283 
3.1800000000022863, -2.9277481543275483 
3.1900000000023074, -2.927479293810932 
3.2000000000023285, -2.9274269432485345 
3.2100000000023496, -2.927217032118687 
3.2200000000023707, -2.926816686026382 
3.230000000002392, -2.92629542828253 
3.240000000002413, -2.925757165879559 
3.250000000002434, -2.92529944778079 
3.260000000002455, -2.9249396785135895 
3.2700000000024763, -2.9246044739059527 
3.2800000000024974, -2.9241849553322963 
3.2900000000025185, -2.9235956656641258 
3.3000000000025396, -2.9228013963330417 
3.3100000000025607, -2.9220054115842187 
3.3200000000025818, -2.9217332220742236 
3.330000000002603, -2.9219502815536003 
3.340000000002624, -2.9220927229222466 
3.350000000002645, -2.921942459837286 
3.360000000002666, -2.921510557775655 
3.3700000000026873, -2.9208090168749394 
3.3800000000027084, -2.9198507677454684 
3.3900000000027295, -2.9188437949335464 
3.4000000000027506, -2.9182577906390854 
3.4100000000027717, -2.9181081389844725 
3.420000000002793, -2.9179583638503996 
3.430000000002814, -2.9176317085121126 
3.440000000002835, -2.9171552801006695 
3.450000000002856, -2.916616692902943 
3.460000000002877, -2.9161318836393364 
3.4700000000028983, -2.915755008236706 
3.4800000000029194, -2.915437450619312 
3.4900000000029405, -2.9150772911354426 
3.5000000000029616, -2.9145777193992113 
3.5100000000029827, -2.9138627851906556 
3.520000000003004, -2.9129527763730194 
3.530000000003025, -2.9122628023790518 
3.540000000003046, -2.9122819136386076 
3.550000000003067, -2.9125871324544543 
3.5600000000030882, -2.9126545891655766 
3.5700000000031094, -2.9124070549899703 
3.5800000000031305, -2.9118883592150144 
3.5900000000031516, -2.911119639415434 
3.6000000000031727, -2.9101688583316725 
3.6100000000031938, -2.909335855048532 
3.620000000003215, -2.908946444308337 
3.630000000003236, -2.9087878528242084 
3.640000000003257, -2.908536397320289 
3.650000000003278, -2.9081242427258727 
3.6600000000032993, -2.907602843414278 
3.6700000000033204, -2.9070841304138457 
3.6800000000033415, -2.9066751560682764 
3.6900000000033626, -2.9063651854679433 
3.7000000000033837, -2.9060590647526894 
3.710000000003405, -2.9056538535699685 
3.720000000003426, -2.9050622861961477 
3.730000000003447, -2.904212361618785 
3.740000000003468, -2.903219812689339 
3.750000000003489, -2.9027005989291 
3.7600000000035103, -2.902932930992826 
3.7700000000035314, -2.9032400973570667 
3.7800000000035525, -2.903226329537282 
3.7900000000035736, -2.902902478961564 
3.8000000000035947, -2.902327317941615 
3.810000000003616, -2.9015400120853863 
3.820000000003637, -2.900663182650466 
3.830000000003658, -2.9000042048580394 
3.840000000003679, -2.899703671745094 
3.8500000000037002, -2.899489647161706 
3.8600000000037213, -2.899154426736327 
3.8700000000037424, -2.898679571812822 
3.8800000000037635, -2.898137749966499 
3.8900000000037847, -2.8976668937012127 
3.9000000000038058, -2.8973400582307827 
3.910000000003827, -2.8970792537755274 
3.920000000003848, -2.896767001726803 
3.930000000003869, -2.896309837323628 
3.94000000000389, -2.8956221168491605 
3.9500000000039113, -2.894638865202613 
3.9600000000039324, -2.893595924171639 
3.9700000000039535, -2.893239309517069 
3.9800000000039746, -2.8935822653821583 
3.9900000000039957, -2.8938469927567634 
4.000000000004016, -2.8937613766458083 
4.010000000003993, -2.89338388379428 
4.02000000000397, -2.8927828870450454 
4.030000000003946, -2.892019389428172 
4.040000000003923, -2.891246966566834 
4.0500000000039, -2.8907165681958444 
4.0600000000038765, -2.89043608053207 
4.070000000003853, -2.8901608012098796 
4.08000000000383, -2.8897592025622876 
4.090000000003807, -2.889235828003774 
4.100000000003783, -2.8886910127966385 
4.11000000000376, -2.8882858408984946 
4.120000000003737, -2.8880409456594114 
4.130000000003713, -2.8878189479783005 
4.14000000000369, -2.8874965356067888 
4.150000000003667, -2.8869912057747804 
4.1600000000036434, -2.8862157433264692 
4.17000000000362, -2.8851172137649925 
4.180000000003597, -2.884038488334162 
4.1900000000035735, -2.883774663783775 
4.20000000000355, -2.884135681736068 
4.210000000003527, -2.884338731737841 
4.220000000003504, -2.8841950943504386 
4.23000000000348, -2.8837846031057466 
4.240000000003457, -2.883183306612922 
4.250000000003434, -2.8824704365612392 
4.26000000000341, -2.881801216365381 
4.270000000003387, -2.881350152097135 
4.280000000003364, -2.8810586241085216 
4.2900000000033405, -2.8807296812835643 
4.300000000003317, -2.8802734453798964 
4.310000000003294, -2.8797073203043615 
4.320000000003271, -2.8791671790859965 
4.330000000003247, -2.878837263067008 
4.340000000003224, -2.87867680880393 
4.350000000003201, -2.878495078480227 
4.360000000003177, -2.878170300275551 
4.370000000003154, -2.877632121263544 
4.380000000003131, -2.876795962702894 
4.390000000003107, -2.875622099779364 
4.400000000003084, -2.874508012516592 
4.410000000003061, -2.8742397780304483 
4.4200000000030375, -2.8745449833938292 
4.430000000003014, -2.874678912364092 
4.440000000002991, -2.8744904828300917 
4.450000000002968, -2.874063082624164 
4.460000000002944, -2.873478210898197 
4.470000000002921, -2.8728261488800046 
4.480000000002898, -2.8722436823618396 
4.490000000002874, -2.8718376560747116 
4.500000000002851, -2.8715264562281755 
4.510000000002828, -2.8711539868450786 
4.520000000002804, -2.8706494483193317 
4.530000000002781, -2.8700370290351422 
4.540000000002758, -2.8694948576948027 
4.5500000000027345, -2.869242386218292 
4.560000000002711, -2.869176854523413 
4.570000000002688, -2.8690495961944658 
4.580000000002665, -2.8687407262801123 
4.590000000002641, -2.868196620418722 
4.600000000002618, -2.8673458140982917 
4.610000000002595, -2.866159897605904 
4.620000000002571, -2.865019768727539 
4.630000000002548, -2.8646614960157133 
4.640000000002525, -2.8648555472846384 
4.6500000000025015, -2.8649172622205077 
4.660000000002478, -2.8646944844307245 
4.670000000002455, -2.86426046722402 
4.6800000000024315, -2.8636991172467487 
4.690000000002408, -2.863106078495668 
4.700000000002385, -2.862592520788717 
4.710000000002362, -2.862214133430887 
4.720000000002338, -2.861886074913168 
4.730000000002315, -2.861480417100972 
4.740000000002292, -2.8609308930866026 
4.750000000002268, -2.860259002108875 
4.760000000002245, -2.859686141844086 
4.770000000002222, -2.859499469807043 
4.7800000000021985, -2.8595468355374654 
4.790000000002175, -2.8595003203163905 
4.800000000002152, -2.8592341195139888 
4.810000000002129, -2.858718120055486 
4.820000000002105, -2.8579069066811056 
4.830000000002082, -2.8567836613106885 
4.840000000002059, -2.8556553284384236 
4.850000000002035, -2.8551651738010015 
4.860000000002012, -2.8552122954663663 
4.870000000001989, -2.855199726408748 
4.880000000001965, -2.854949580185964 
4.890000000001942, -2.854513511942287 
4.900000000001919, -2.8539743510259363 
4.9100000000018955, -2.853431862578924 
4.920000000001872, -2.8529746352040415 
4.930000000001849, -2.8526200539712288 
4.940000000001826, -2.852284583588495 
4.950000000001802, -2.851857731684114 
4.960000000001779, -2.8512684206078065 
4.970000000001756, -2.85051929217191 
