t, s[1].omega / s[0].omega 
0, -0.15999781503887842 
0.009999999999999995, -0.15979592340991414 
0.019999999999999934, -0.1596239990152004 
0.029999999999999874, -0.1594741156504505 
0.04000000000000012, -0.15933532948261755 
0.050000000000000405, -0.159196139213685 
0.06000000000000069, -0.15904652361029367 
0.07000000000000098, -0.15887895301438504 
0.08000000000000126, -0.1586883099007637 
0.09000000000000155, -0.1584710765082787 
0.10000000000000184, -0.1582242574416797 
0.11000000000000212, -0.1579443879064861 
0.12000000000000241, -0.15762683221125295 
0.130000000000002, -0.15726553191124382 
0.1400000000000009, -0.15685343027407872 
0.1499999999999998, -0.1563838817631166 
0.1599999999999987, -0.15585323971849857 
0.1699999999999976, -0.15526424416733692 
0.1799999999999965, -0.15462882728175556 
0.1899999999999954, -0.1539682727417832 
0.1999999999999943, -0.15330949696932822 
0.2099999999999932, -0.1526786088411886 
0.2199999999999921, -0.15209485583501137 
0.229999999999991, -0.151567630316018 
0.2399999999999899, -0.1510970043997723 
0.2499999999999888, -0.1506764510082014 
0.2599999999999877, -0.15029605039385086 
0.2699999999999866, -0.149945068464111 
0.2799999999999855, -0.14961350656854588 
0.2899999999999844, -0.14929268444189012 
0.2999999999999833, -0.148975106486657 
0.3099999999999822, -0.14865386434784036 
0.3199999999999811, -0.14832174009090868 
0.32999999999998, -0.14797007685671984 
0.3399999999999789, -0.14758745481233265 
0.3499999999999778, -0.14715834366724764 
0.35999999999997667, -0.14666231870547433 
0.36999999999997557, -0.14607515764904594 
0.37999999999997447, -0.14537373757633304 
0.38999999999997337, -0.1445457462029884 
0.39999999999997227, -0.14360132431346564 
0.40999999999997117, -0.14257871616842593 
0.41999999999997006, -0.1415366520500861 
0.42999999999996896, -0.14053585585574008 
0.43999999999996786, -0.13962133438405788 
0.44999999999996676, -0.13881501086248127 
0.45999999999996566, -0.1381187795038036 
0.46999999999996456, -0.13752222040426204 
0.47999999999996346, -0.13700988343151782 
0.48999999999996235, -0.1365661055974054 
0.49999999999996125, -0.1361774514910032 
0.5099999999999602, -0.13583357015316966 
0.519999999999959, -0.1355271957609928 
0.529999999999958, -0.13525373084841338 
0.5399999999999568, -0.13501056240398762 
0.5499999999999557, -0.13479600854335655 
0.5599999999999546, -0.13460756315558237 
0.5699999999999535, -0.13443894916183524 
0.5799999999999524, -0.13427567204927549 
0.5899999999999513, -0.13408989596253 
0.5999999999999502, -0.13383814145153 
0.6099999999999491, -0.13346827291539687 
0.619999999999948, -0.13294004192706269 
0.6299999999999469, -0.1322509232989272 
0.6399999999999458, -0.13144608142166087 
0.6499999999999447, -0.13060016064124708 
0.6599999999999436, -0.12978509431560756 
0.6699999999999425, -0.12904809849713844 
0.6799999999999414, -0.12840849930720352 
0.6899999999999403, -0.12786599555240077 
0.6999999999999392, -0.1274107142526811 
0.7099999999999381, -0.1270304406954527 
0.719999999999937, -0.1267145753823104 
0.7299999999999359, -0.12645588353203888 
0.7399999999999348, -0.12625111800506908 
0.7499999999999337, -0.12610119453459212 
0.7599999999999326, -0.12601120565217436 
0.7699999999999315, -0.12599022654067776 
0.7799999999999304, -0.12605051794046984 
0.7899999999999293, -0.12620531070871896 
0.7999999999999282, -0.12646398630570502 
0.8099999999999271, -0.1268237438946719 
0.819999999999926, -0.12725902535750305 
0.8299999999999249, -0.12771485295680285 
0.8399999999999238, -0.12811441640423615 
0.8499999999999227, -0.12838542206677295 
0.8599999999999216, -0.1284913278971775 
0.8699999999999205, -0.1284430690918756 
0.8799999999999194, -0.12828377064795926 
0.8899999999999183, -0.12806324606707348 
0.8999999999999172, -0.127820945247436 
0.9099999999999161, -0.1275816308676206 
0.919999999999915, -0.12735841857308466 
0.9299999999999139, -0.12715754490494202 
0.9399999999999128, -0.126982246275179 
0.9499999999999117, -0.12683530015845124 
0.9599999999999106, -0.12672057811307944 
0.9699999999999095, -0.12664402926920396 
0.9799999999999084, -0.1266143406498082 
0.9899999999999073, -0.12664329047841472 
0.9999999999999062, -0.12674554626730913 
1.0099999999999052, -0.1269373558274263 
1.019999999999904, -0.1272333218496409 
1.029999999999903, -0.12764057401968049 
1.039999999999902, -0.12815082457821203 
1.0499999999999008, -0.1287334902120474 
1.0599999999998997, -0.1293358815051445 
1.0699999999998986, -0.1298950665020206 
1.0799999999998975, -0.13035772220266684 
1.0899999999998964, -0.13069593345744887 
1.0999999999998953, -0.13090949858461265 
1.1099999999998942, -0.13101672091227268 
1.119999999999893, -0.1310425580649734 
1.129999999999892, -0.13101054517358052 
1.1399999999998909, -0.1309395511786442 
1.1499999999998898, -0.13084365380048235 
1.1599999999998887, -0.13073331265392507 
1.1699999999998876, -0.1306168047790707 
1.1799999999998865, -0.13050152810057042 
1.1899999999998854, -0.13039507737306058 
1.1999999999998843, -0.13030605381966187 
1.2099999999998832, -0.13024450077497496 
1.219999999999882, -0.13022174727900088 
1.229999999999881, -0.13024936437414772 
1.2399999999998799, -0.13033698608356672 
1.2499999999998788, -0.13048904255381816 
1.2599999999998777, -0.13070111465288686 
1.2699999999998766, -0.1309575368332983 
1.2799999999998755, -0.13123233859315525 
1.2899999999998744, -0.13149450389422454 
1.2999999999998733, -0.13171579549602175 
1.3099999999998722, -0.13187725777219675 
1.319999999999871, -0.13197138771508654 
1.32999999999987, -0.13200006091223832 
1.3399999999998689, -0.13197054041009162 
1.3499999999998678, -0.13189184295574602 
1.3599999999998666, -0.1317724730058692 
1.3699999999998655, -0.13161949451990504 
1.3799999999998644, -0.1314385304841807 
1.3899999999998633, -0.13123431359694368 
1.3999999999998622, -0.13101153848316816 
1.4099999999998611, -0.13077581667526125 
1.41999999999986, -0.13053447862035852 
1.429999999999859, -0.13029687223406589 
1.4399999999998578, -0.1300738136406485 
1.4499999999998567, -0.12987606650495695 
1.4599999999998556, -0.12971212193570852 
1.4699999999998545, -0.12958592243817685 
1.4799999999998534, -0.12949533174723307 
1.4899999999998523, -0.12943203152198987 
1.4999999999998512, -0.12938310585179455 
1.5099999999998501, -0.1293338904324068 
1.519999999999849, -0.12927101979712946 
1.529999999999848, -0.12918450783258767 
1.5399999999998468, -0.129068292806028 
1.5499999999998457, -0.1289194916636563 
1.5599999999998446, -0.1287370518015339 
1.5699999999998435, -0.128520436045549 
1.5799999999998424, -0.12826870157454823 
1.5899999999998413, -0.12798011638673323 
1.5999999999998402, -0.12765238457834044 
1.6099999999998391, -0.12728355154749724 
1.619999999999838, -0.12687358550190916 
1.629999999999837, -0.12642634415638324 
1.6399999999998358, -0.12595115444021085 
1.6499999999998347, -0.1254629077633391 
1.6599999999998336, -0.1249799511143395 
1.6699999999998325, -0.12452022688804743 
1.6799999999998314, -0.1240972522178712 
1.6899999999998303, -0.12371761159326462 
1.6999999999998292, -0.12338066257528017 
1.709999999999828, -0.12308004886436359 
1.719999999999827, -0.12280608109026528 
1.729999999999826, -0.12254807497521074 
1.7399999999998248, -0.12229603633603192 
1.7499999999998237, -0.12204145110138324 
1.7599999999998226, -0.12177725764893883 
1.7699999999998215, -0.1214972587165611 
1.7799999999998204, -0.12119525381504223 
1.7899999999998193, -0.12086411369615035 
1.7999999999998182, -0.12049498475568247 
1.809999999999817, -0.12007688755524293 
1.819999999999816, -0.11959717892105248 
1.8299999999998149, -0.11904356067870478 
1.8399999999998138, -0.11840816295159973 
1.8499999999998127, -0.11769315217398876 
1.8599999999998116, -0.11691532378300147 
1.8699999999998105, -0.11610589363511128 
1.8799999999998094, -0.11530366850886356 
1.8899999999998083, -0.11454448265286506 
1.8999999999998072, -0.11385264380201539 
1.909999999999806, -0.11323808875194771 
1.919999999999805, -0.11269868526021196 
1.9299999999998039, -0.11222479923944399 
1.9399999999998028, -0.11180362594029056 
1.9499999999998017, -0.11142216218760052 
1.9599999999998006, -0.11106873063964103 
1.9699999999997995, -0.11073339650671914 
1.9799999999997984, -0.11040766289412604 
1.9899999999997973, -0.11008371701421107 
1.9999999999997962, -0.10975335198784167 
2.0099999999998173, -0.1094065788215316 
2.0199999999998384, -0.1090299438195074 
2.0299999999998595, -0.10860480385270474 
2.0399999999998806, -0.1081064580599291 
2.0499999999999017, -0.10750607503503899 
2.059999999999923, -0.1067779290950305 
2.069999999999944, -0.10591238891019286 
2.079999999999965, -0.10492902990665136 
2.089999999999986, -0.10387892840635242 
2.100000000000007, -0.10283016210796077 
2.1100000000000283, -0.10184469202887103 
2.1200000000000494, -0.10096179641732353 
2.1300000000000705, -0.10019520769607486 
2.1400000000000916, -0.09953989670283239 
2.1500000000001127, -0.09898115598817422 
2.160000000000134, -0.09850158898561878 
2.170000000000155, -0.09808507686687469 
2.180000000000176, -0.09771843484042472 
2.190000000000197, -0.09739171333909896 
2.2000000000002182, -0.09709781367760288 
2.2100000000002393, -0.09683173188484676 
2.2200000000002604, -0.0965894430537214 
2.2300000000002815, -0.09636619117155204 
2.2400000000003026, -0.0961537814533007 
2.2500000000003237, -0.09593657922923937 
2.260000000000345, -0.09568681296594694 
2.270000000000366, -0.09536209404689001 
2.280000000000387, -0.09491111395900452 
2.290000000000408, -0.09429266769942957 
2.3000000000004293, -0.09350225634888859 
2.3100000000004504, -0.0925857000201728 
2.3200000000004715, -0.09162338001472774 
2.3300000000004926, -0.0906958495954902 
2.3400000000005137, -0.08985742858339052 
2.3500000000005348, -0.08913061328187763 
2.360000000000556, -0.08851469200638795 
2.370000000000577, -0.08799731180782142 
2.380000000000598, -0.08756301725217686 
2.390000000000619, -0.08719791380686452 
2.4000000000006403, -0.08689163238218311 
2.4100000000006614, -0.08663787401278727 
2.4200000000006825, -0.08643434539371639 
2.4300000000007036, -0.08628242533923035 
2.4400000000007247, -0.0861865148626468 
2.450000000000746, -0.08615264831857544 
2.460000000000767, -0.08618553982478976 
2.470000000000788, -0.08628300544301619 
2.480000000000809, -0.08642740504402875 
2.49000000000083, -0.08657678910999314 
2.5000000000008513, -0.08666402115267591 
2.5100000000008724, -0.08661451597007562 
2.5200000000008935, -0.08638116418799205 
2.5300000000009146, -0.08597213476293132 
2.5400000000009357, -0.08544537892182867 
2.550000000000957, -0.08487549011097502 
2.560000000000978, -0.08432254426404552 
2.570000000000999, -0.08382067685023926 
2.58000000000102, -0.08338234865289193 
2.5900000000010412, -0.08300749487604787 
2.6000000000010624, -0.0826911403288606 
2.6100000000010835, -0.0824280346856035 
2.6200000000011046, -0.08221502328932026 
2.6300000000011257, -0.08205216513966129 
2.6400000000011468, -0.08194328648395713 
2.650000000001168, -0.08189626362462372 
2.660000000001189, -0.0819229553432148 
2.67000000000121, -0.08203828633410451 
2.680000000001231, -0.08225747441185863 
2.6900000000012523, -0.08259000679996377 
2.7000000000012734, -0.08302955755656845 
2.7100000000012945, -0.08354218962345564 
2.7200000000013156, -0.08406128123984606 
2.7300000000013367, -0.08450089951801912 
2.740000000001358, -0.08478861030862132 
2.750000000001379, -0.08489685741101252 
2.7600000000014, -0.0848476264177761 
2.770000000001421, -0.0846905018778718 
2.780000000001442, -0.08447630421551254 
2.7900000000014633, -0.08424284290414288 
2.8000000000014844, -0.08401316165153007 
2.8100000000015055, -0.08379961192375993 
2.8200000000015266, -0.08360865670071145 
2.8300000000015477, -0.08344450010134002 
2.840000000001569, -0.08331143690219259 
2.85000000000159, -0.08321534030969659 
2.860000000001611, -0.08316465905307366 
2.870000000001632, -0.08317107198145904 
2.8800000000016532, -0.08324966049212618 
2.8900000000016743, -0.08341809892150619 
2.9000000000016954, -0.08369395626154097 
2.9100000000017165, -0.08408901267752586 
2.9200000000017377, -0.08460027919933434 
2.9300000000017588, -0.08520023269344376 
2.94000000000178, -0.08583319715533218 
2.950000000001801, -0.08642594022719571 
2.960000000001822, -0.08691186666298134 
2.970000000001843, -0.08725429718459589 
2.9800000000018643, -0.08745282373842882 
2.9900000000018854, -0.08753205495050852 
3.0000000000019065, -0.0875250672385816 
3.0100000000019276, -0.08746201422685093 
3.0200000000019487, -0.08736595161514978 
3.03000000000197, -0.08725319207592326 
3.040000000001991, -0.0871353154068132 
3.050000000002012, -0.08702129633058528 
3.060000000002033, -0.08691925824517867 
3.070000000002054, -0.0868378212472247 
3.0800000000020753, -0.08678709831705869 
3.0900000000020964, -0.08677929911243112 
3.1000000000021175, -0.08682872137491929 
3.1100000000021386, -0.08695069783326421 
3.1200000000021597, -0.08715891913473497 
3.130000000002181, -0.08746072428138944 
3.140000000002202, -0.08785088787503799 
3.150000000002223, -0.08830638107937129 
3.160000000002244, -0.0887864499719326 
3.1700000000022652, -0.08924121511699964 
3.1800000000022863, -0.08962627030625905 
3.1900000000023074, -0.08991502766286431 
3.2000000000023285, -0.09010192478569229 
3.2100000000023496, -0.09019702673307292 
3.2200000000023707, -0.09021768877084749 
3.230000000002392, -0.09018207166024066 
3.240000000002413, -0.09010591379929174 
3.250000000002434, -0.09000178843578002 
3.260000000002455, -0.0898796561434076 
3.2700000000024763, -0.0897478945800138 
3.2800000000024974, -0.08961440080870264 
3.2900000000025185, -0.08948757987060288 
3.3000000000025396, -0.08937707424435173 
3.3100000000025607, -0.08929403322624628 
3.3200000000025818, -0.0892506541992633 
3.330000000002603, -0.08925872874051363 
3.340000000002624, -0.08932707478242255 
3.350000000002645, -0.08945812965040392 
3.360000000002666, -0.08964468563835787 
3.3700000000026873, -0.08986853305128281 
3.3800000000027084, -0.09010278997988327 
3.3900000000027295, -0.09031804278540964 
3.4000000000027506, -0.09048975794297145 
3.4100000000027717, -0.09060325854187957 
3.420000000002793, -0.09065433755231542 
3.430000000002814, -0.09064649827040508 
3.440000000002835, -0.09058718815979884 
3.450000000002856, -0.0904848044852356 
3.460000000002877, -0.09034704597092214 
3.4700000000028983, -0.09018041938332574 
3.4800000000029194, -0.08999050790951145 
3.4900000000029405, -0.08978267474494292 
3.5000000000029616, -0.08956295587162855 
3.5100000000029827, -0.08933888974797964 
3.520000000003004, -0.08911996329133995 
3.530000000003025, -0.088917329863036 
3.540000000003046, -0.08874258950964137 
3.550000000003067, -0.08860572656056921 
3.5600000000030882, -0.08851265434835029 
3.5700000000031094, -0.08846308441771869 
3.5800000000031305, -0.08844955252781712 
3.5900000000031516, -0.08845828683410925 
3.6000000000031727, -0.08847199852742846 
3.6100000000031938, -0.08847370239619867 
3.620000000003215, -0.08845001253828676 
3.630000000003236, -0.08839268204812659 
3.640000000003257, -0.08829823552992425 
3.650000000003278, -0.08816645675945267 
3.6600000000032993, -0.08799868287636728 
3.6700000000033204, -0.08779652324159673 
3.6800000000033415, -0.08756122654985468 
3.6900000000033626, -0.08729370211472531 
3.7000000000033837, -0.08699513315230681 
3.710000000003405, -0.08666806511546751 
3.720000000003426, -0.0863176966846487 
3.730000000003447, -0.08595285044938424 
3.740000000003468, -0.08558594659491889 
3.750000000003489, -0.08523153215825516 
3.7600000000035103, -0.08490358405096604 
3.7700000000035314, -0.0846124978428607 
3.7800000000035525, -0.08436285912429303 
3.7900000000035736, -0.08415269352160219 
3.8000000000035947, -0.08397429327084846 
3.810000000003616, -0.08381624228439512 
3.820000000003637, -0.08366594972379751 
3.830000000003658, -0.0835118832478102 
3.840000000003679, -0.08334488020184376 
3.8500000000037002, -0.08315836550235922 
3.8600000000037213, -0.08294774540455786 
3.8700000000037424, -0.08270943793175885 
3.8800000000037635, -0.08243994888902349 
3.8900000000037847, -0.08213527211082092 
3.9000000000038058, -0.08179081940107281 
3.910000000003827, -0.0814020825412024 
3.920000000003848, -0.0809661862563695 
3.930000000003869, -0.08048422037480854 
3.94000000000389, -0.0799636359457365 
3.9500000000039113, -0.07941933040490586 
3.9600000000039324, -0.07887208724288983 
3.9700000000039535, -0.07834431225375682 
3.9800000000039746, -0.07785478422130887 
3.9900000000039957, -0.07741479005487711 
4.000000000004016, -0.07702696812586957 
4.010000000003993, -0.07668658386726988 
4.02000000000397, -0.07638409118136638 
4.030000000003946, -0.07610785187848552 
4.040000000003923, -0.07584628180809502 
4.0500000000039, -0.07558909809732955 
4.0600000000038765, -0.07532766324695686 
4.070000000003853, -0.07505463383220452 
4.08000000000383, -0.07476320192292368 
4.090000000003807, -0.07444619632499004 
4.100000000003783, -0.07409527475763891 
4.11000000000376, -0.07370047672867897 
4.120000000003737, -0.07325055476948891 
4.130000000003713, -0.07273466708531512 
4.14000000000369, -0.07214588675162932 
4.150000000003667, -0.07148609231317596 
4.1600000000036434, -0.07077011419015102 
4.17000000000362, -0.07002583701156632 
4.180000000003597, -0.06928843970393075 
4.1900000000035735, -0.06859098328786516 
4.20000000000355, -0.06795635636699272 
4.210000000003527, -0.06739416701501402 
4.220000000003504, -0.066902437647243 
4.23000000000348, -0.0664716580004964 
4.240000000003457, -0.06608887344110961 
4.250000000003434, -0.06574064659697659 
4.26000000000341, -0.06541467768613918 
4.270000000003387, -0.06510031176762024 
4.280000000003364, -0.06478826899711132 
4.2900000000033405, -0.0644698888922995 
4.300000000003317, -0.06413608892523551 
4.310000000003294, -0.06377617852199607 
4.320000000003271, -0.06337672248433211 
4.330000000003247, -0.06292089906224216 
4.340000000003224, -0.06238926958704164 
4.350000000003201, -0.06176329832430617 
4.360000000003177, -0.061032463768126675 
4.370000000003154, -0.06020328592784348 
4.380000000003131, -0.05930480548271855 
4.390000000003107, -0.05838439096249446 
4.400000000003084, -0.05749389973065454 
4.410000000003061, -0.05667426092885808 
4.4200000000030375, -0.05594720621688909 
4.430000000003014, -0.05531608904725148 
4.440000000002991, -0.054771843294424916 
4.450000000002968, -0.05429948026775625 
4.460000000002944, -0.053882770793150195 
4.470000000002921, -0.053506770773776344 
4.480000000002898, -0.05315870557756085 
4.490000000002874, -0.05282782254037953 
4.500000000002851, -0.0525046390011944 
4.510000000002828, -0.05217980024167577 
4.520000000002804, -0.0518426084453133 
4.530000000002781, -0.05147925359631468 
4.540000000002758, -0.05107098463652826 
4.5500000000027345, -0.050593076530506334 
4.560000000002711, -0.050016491479961366 
4.570000000002688, -0.049314807415253015 
4.580000000002665, -0.04847711724416029 
4.590000000002641, -0.04752155655234429 
4.600000000002618, -0.04649831269640764 
4.610000000002595, -0.0454754025579887 
4.620000000002571, -0.04451507270971129 
4.630000000002548, -0.04365657065895233 
4.640000000002525, -0.042913045797075826 
4.6500000000025015, -0.04227849177283503 
4.660000000002478, -0.041737053439943515 
4.670000000002455, -0.0412701205640713 
4.6800000000024315, -0.04086026787691245 
4.690000000002408, -0.04049278706764242 
4.700000000002385, -0.04015578211467434 
4.710000000002362, -0.039839494610470434 
4.720000000002338, -0.03953516943206396 
4.730000000002315, -0.03923350041036095 
4.740000000002292, -0.03892254636519819 
4.750000000002268, -0.03858507420395317 
4.760000000002245, -0.038195817077342945 
4.770000000002222, -0.03772045832071989 
4.7800000000021985, -0.03711998980026075 
4.790000000002175, -0.036364099335688245 
4.800000000002152, -0.035451227762616604 
4.810000000002129, -0.03442199854212767 
