t, s[1].omega / s[0].omega 
0, -1.2699973962737363 
0.009999999999999995, -1.269676909154215 
0.019999999999999934, -1.2692412733917275 
0.029999999999999874, -1.2687024454337572 
0.04000000000000012, -1.2680816294347503 
0.050000000000000405, -1.267410774138129 
0.06000000000000069, -1.266732832507574 
0.07000000000000098, -1.2660982296821452 
0.08000000000000126, -1.2655554278532402 
0.09000000000000155, -1.265136821869051 
0.10000000000000184, -1.26484648586608 
0.11000000000000212, -1.2646583336393857 
0.12000000000000241, -1.2645268947326502 
0.130000000000002, -1.2644028184779075 
0.1400000000000009, -1.2642429044413814 
0.1499999999999998, -1.2640112938104555 
0.1599999999999987, -1.2636751359784788 
0.1699999999999976, -1.2631995369111597 
0.1799999999999965, -1.2625453880860813 
0.1899999999999954, -1.2616727860053216 
0.1999999999999943, -1.2605523641410774 
0.2099999999999932, -1.259185276956005 
0.2199999999999921, -1.2576277368332094 
0.229999999999991, -1.2560071692995973 
0.2399999999999899, -1.2545086571102861 
0.2499999999999888, -1.2533168350913022 
0.2599999999999877, -1.2525338006480173 
0.2699999999999866, -1.252133178883589 
0.2799999999999855, -1.2519915412306077 
0.2899999999999844, -1.2519646786546743 
0.2999999999999833, -1.2519438865026595 
0.3099999999999822, -1.2518676577983487 
0.3199999999999811, -1.2517066739079274 
0.32999999999998, -1.251444621817274 
0.3399999999999789, -1.2510644987788366 
0.3499999999999778, -1.2505415343830861 
0.35999999999997667, -1.2498430554244087 
0.36999999999997557, -1.2489390715204842 
0.37999999999997447, -1.2478307214912734 
0.38999999999997337, -1.246598290192479 
0.39999999999997227, -1.2454430995379453 
0.40999999999997117, -1.244657597764863 
0.41999999999997006, -1.2444790301078803 
0.42999999999996896, -1.2449191156986787 
0.43999999999996786, -1.2457490924844106 
0.44999999999996676, -1.2466599520083572 
0.45999999999996566, -1.24742617297744 
0.46999999999996456, -1.2479533302623484 
0.47999999999996346, -1.2482393963732248 
0.48999999999996235, -1.2483213932382333 
0.49999999999996125, -1.2482414211620696 
0.5099999999999602, -1.2480330493461154 
0.519999999999959, -1.2477201191928764 
0.529999999999958, -1.2473226097033927 
0.5399999999999568, -1.2468680263476248 
0.5499999999999557, -1.2464072708885992 
0.5599999999999546, -1.2460284249505553 
0.5699999999999535, -1.2458520207084438 
0.5799999999999524, -1.2459917614880558 
0.5899999999999513, -1.246492971517545 
0.5999999999999502, -1.247296016369858 
0.6099999999999491, -1.2482590493684014 
0.619999999999948, -1.249219720439571 
0.6299999999999469, -1.250049304739209 
0.6399999999999458, -1.2506749919716393 
0.6499999999999447, -1.251075203745979 
0.6599999999999436, -1.2512628036382423 
0.6699999999999425, -1.2512677224217168 
0.6799999999999414, -1.2511245954020196 
0.6899999999999403, -1.2508667654704988 
0.6999999999999392, -1.250525791898444 
0.7099999999999381, -1.250134600638318 
0.719999999999937, -1.2497315195466412 
0.7299999999999359, -1.2493612705647257 
0.7399999999999348, -1.2490691369717213 
0.7499999999999337, -1.2488885757393056 
0.7599999999999326, -1.2488290173607817 
0.7699999999999315, -1.2488722933327334 
0.7799999999999304, -1.2489797609378337 
0.7899999999999293, -1.249104688662705 
0.7999999999999282, -1.2492029945841516 
0.8099999999999271, -1.2492389989692523 
0.819999999999926, -1.2491867780366328 
0.8299999999999249, -1.2490293782556372 
0.8399999999999238, -1.248757773362946 
0.8499999999999227, -1.2483703989763595 
0.8599999999999216, -1.24787340346223 
0.8699999999999205, -1.2472815598836275 
0.8799999999999194, -1.2466196535928908 
0.8899999999999183, -1.2459235885718414 
0.8999999999999172, -1.2452394159429219 
0.9099999999999161, -1.244617839724055 
0.919999999999915, -1.2441030442768952 
0.9299999999999139, -1.2437187544443549 
0.9399999999999128, -1.2434590317636895 
0.9499999999999117, -1.2432907547455145 
0.9599999999999106, -1.2431665771295652 
0.9699999999999095, -1.243039114714396 
0.9799999999999084, -1.2428681662701697 
0.9899999999999073, -1.2426200300750359 
0.9999999999999062, -1.2422628731497283 
1.0099999999999052, -1.2417624364436755 
1.019999999999904, -1.2410811063096077 
1.029999999999903, -1.240182636732276 
1.039999999999902, -1.2390441872382634 
1.0499999999999008, -1.237675324028245 
1.0599999999998997, -1.2361389061693118 
1.0699999999998986, -1.2345615852956484 
1.0799999999998975, -1.2331164808315564 
1.0899999999998964, -1.2319688552877484 
1.0999999999998953, -1.2312057538180763 
1.1099999999998942, -1.230799824351704 
1.119999999999893, -1.2306385009463134 
1.129999999999892, -1.230590059143096 
1.1399999999998909, -1.2305529350168896 
1.1499999999998898, -1.2304671866306187 
1.1599999999998887, -1.230302152045753 
1.1699999999998876, -1.2300393837063202 
1.1799999999998865, -1.2296597107410938 
1.1899999999998854, -1.2291358280774107 
1.1999999999998843, -1.2284307770578609 
1.2099999999998832, -1.2275056071963206 
1.219999999999882, -1.226343069986957 
1.229999999999881, -1.2249916478863292 
1.2399999999998799, -1.2236136113218223 
1.2499999999998788, -1.2224826980306536 
1.2599999999998777, -1.2218741512378926 
1.2699999999998766, -1.2218921738051933 
1.2799999999998755, -1.2223967106325306 
1.2899999999998744, -1.2231102713756186 
1.2999999999998733, -1.2237851826197081 
1.3099999999998722, -1.2242868298156808 
1.319999999999871, -1.2245803567590525 
1.32999999999987, -1.2246832880151428 
1.3399999999998689, -1.2246280150908109 
1.3499999999998678, -1.2244432253771145 
1.3599999999998666, -1.224148747925024 
1.3699999999998655, -1.2237582035972854 
1.3799999999998644, -1.2232876009082776 
1.3899999999998633, -1.2227703737506261 
1.3999999999998622, -1.2222769860809857 
1.4099999999998611, -1.2219273197034606 
1.41999999999986, -1.2218723082854415 
1.429999999999859, -1.2222309395187123 
1.4399999999998578, -1.2230141031351505 
1.4499999999998567, -1.224100651700073 
1.4599999999998556, -1.2252913441860258 
1.4699999999998545, -1.226394612666214 
1.4799999999998534, -1.2272842100588346 
1.4899999999998523, -1.2279099074738933 
1.4999999999998512, -1.228277838352135 
1.5099999999998501, -1.228423374010233 
1.519999999999849, -1.2283901007047322 
1.529999999999848, -1.2282186027674609 
1.5399999999998468, -1.2279435824262672 
1.5499999999998457, -1.227596585162403 
1.5599999999998446, -1.2272117542240273 
1.5699999999998435, -1.226831525305077 
1.5799999999998424, -1.2265076343311063 
1.5899999999998413, -1.2262928513904325 
1.5999999999998402, -1.2262243092313587 
1.6099999999998391, -1.2263079973344533 
1.619999999999838, -1.2265156454412538 
1.629999999999837, -1.2267956355906597 
1.6399999999998358, -1.2270895264058712 
1.6499999999998347, -1.2273451637292188 
1.6599999999998336, -1.2275230814980673 
1.6699999999998325, -1.227597636155306 
1.6799999999998314, -1.2275555735530803 
1.6899999999998303, -1.2273939150054174 
1.6999999999998292, -1.2271180061275742 
1.709999999999828, -1.2267400942786197 
1.719999999999827, -1.2262787275656284 
1.729999999999826, -1.2257590506653973 
1.7399999999998248, -1.2252133364051123 
1.7499999999998237, -1.224680068709 
1.7599999999998226, -1.22419956974562 
1.7699999999998215, -1.2238056677318883 
1.7799999999998204, -1.223516002329283 
1.7899999999998193, -1.223325951566515 
1.7999999999998182, -1.2232101207878734 
1.809999999999817, -1.223130690619198 
1.819999999999816, -1.2230474213695828 
1.8299999999998149, -1.2229240557955914 
1.8399999999998138, -1.2227297194975013 
1.8499999999998127, -1.2224374257867034 
1.8599999999998116, -1.2220226400546834 
1.8699999999998105, -1.2214639249976462 
1.8799999999998094, -1.2207463883991205 
1.8899999999998083, -1.2198675603800693 
1.8999999999998072, -1.218844490041588 
1.909999999999806, -1.2177200645152726 
1.919999999999805, -1.2165653393921991 
1.9299999999998039, -1.2154731066203306 
1.9399999999998028, -1.2145384015866125 
1.9499999999998017, -1.2138284622399542 
1.9599999999998006, -1.2133569152129757 
1.9699999999997995, -1.2130812043026125 
1.9799999999997984, -1.2129262766613158 
1.9899999999997973, -1.212815853069418 
1.9999999999997962, -1.212690996875684 
2.0099999999998173, -1.2125116077647102 
2.0199999999998384, -1.2122483054474065 
2.0299999999998595, -1.2118725474777872 
2.0399999999998806, -1.2113488753424109 
2.0499999999999017, -1.2106311415952349 
2.059999999999923, -1.209665514225264 
2.069999999999944, -1.208405322219559 
2.079999999999965, -1.2068425667437048 
2.089999999999986, -1.2050516157310152 
2.100000000000007, -1.2032184902085057 
2.1100000000000283, -1.2016103264771805 
2.1200000000000494, -1.2004660475158457 
2.1300000000000705, -1.199871731840409 
2.1400000000000916, -1.1997288449683299 
2.1500000000001127, -1.1998393945494479 
2.160000000000134, -1.2000185966795789 
2.170000000000155, -1.2001509423942276 
2.180000000000176, -1.2001859724075934 
2.190000000000197, -1.2001108524543822 
2.2000000000002182, -1.1999262151606813 
2.2100000000002393, -1.199632110842187 
2.2200000000002604, -1.1992221732655912 
2.2300000000002815, -1.1986839697223017 
2.2400000000003026, -1.1980065366963615 
2.2500000000003237, -1.1971989184010268 
2.260000000000345, -1.1963216516547803 
2.270000000000366, -1.1955190048574644 
2.280000000000387, -1.1950136588588611 
2.290000000000408, -1.195021719382794 
2.3000000000004293, -1.1956152755040477 
2.3100000000004504, -1.1966523885750129 
2.3200000000004715, -1.1978552331995378 
2.3300000000004926, -1.1989613942503943 
2.3400000000005137, -1.199818786425846 
2.3500000000005348, -1.2003873192958772 
2.360000000000556, -1.200693704439972 
2.370000000000577, -1.2007877283834456 
2.380000000000598, -1.200717246422555 
2.390000000000619, -1.2005193136750738 
2.4000000000006403, -1.2002207746191982 
2.4100000000006614, -1.199844147356068 
2.4200000000006825, -1.1994174307857717 
2.4300000000007036, -1.1989867118971405 
2.4400000000007247, -1.1986266306886395 
2.450000000000746, -1.198437372564753 
2.460000000000767, -1.1985170645211554 
2.470000000000788, -1.1989161276546905 
2.480000000000809, -1.199604099196781 
2.49000000000083, -1.2004765373338118 
2.5000000000008513, -1.2013961767106347 
2.5100000000008724, -1.2022383926799576 
2.5200000000008935, -1.2029182569970116 
2.5300000000009146, -1.20339587037069 
2.5400000000009357, -1.2036677082578526 
2.550000000000957, -1.203752928012102 
2.560000000000978, -1.2036808560294605 
2.570000000000999, -1.20348275547772 
2.58000000000102, -1.2031885666578241 
2.5900000000010412, -1.2028278339931515 
2.6000000000010624, -1.2024331282949186 
2.6100000000010835, -1.2020432862903383 
2.6200000000011046, -1.2017028226908555 
2.6300000000011257, -1.2014546870118508 
2.6400000000011468, -1.2013278952017703 
2.650000000001168, -1.201326947067531 
2.660000000001189, -1.2014300862522131 
2.67000000000121, -1.2015970914863856 
2.680000000001231, -1.2017811248931047 
2.6900000000012523, -1.201938611505321 
2.7000000000012734, -1.2020345585490886 
2.7100000000012945, -1.2020440082002157 
2.7200000000013156, -1.2019515202129423 
2.7300000000013367, -1.2017501630320224 
2.740000000001358, -1.2014406609887645 
2.750000000001379, -1.2010308653901531 
2.7600000000014, -1.2005356443209596 
2.770000000001421, -1.1999772387577852 
2.780000000001442, -1.1993857076476035 
2.7900000000014633, -1.1987982690133832 
2.8000000000014844, -1.1982557882743978 
2.8100000000015055, -1.1977954271569222 
2.8200000000015266, -1.1974409479028236 
2.8300000000015477, -1.1971949893241587 
2.840000000001569, -1.197038012989116 
2.85000000000159, -1.1969349577461073 
2.860000000001611, -1.1968454515045521 
2.870000000001632, -1.196731719236923 
2.8800000000016532, -1.1965613842910494 
2.8900000000016743, -1.196306395883968 
2.9000000000016954, -1.1959410161668682 
2.9100000000017165, -1.1954413199247245 
2.9200000000017377, -1.1947874629254946 
2.9300000000017588, -1.1939688030113154 
2.94000000000178, -1.1929909276760235 
2.950000000001801, -1.191882780029498 
2.960000000001822, -1.1907012369231225 
2.970000000001843, -1.1895293956380106 
2.9800000000018643, -1.1884642199030802 
2.9900000000018854, -1.1875920855615985 
3.0000000000019065, -1.1869597204289177 
3.0100000000019276, -1.1865574807545067 
3.0200000000019487, -1.1863280444905038 
3.03000000000197, -1.1861942977265958 
3.040000000001991, -1.186086124815902 
3.050000000002012, -1.1859521516364926 
3.060000000002033, -1.1857573548301574 
3.070000000002054, -1.1854743680613722 
3.0800000000020753, -1.1850745673805971 
3.0900000000020964, -1.1845216383905004 
3.1000000000021175, -1.1837692411244156 
3.1100000000021386, -1.182765608828685 
3.1200000000021597, -1.1814695928236096 
3.130000000002181, -1.179881177027856 
3.140000000002202, -1.1780797720977902 
3.150000000002223, -1.1762450827744286 
3.160000000002244, -1.1746240437355868 
3.1700000000022652, -1.173434102403282 
3.1800000000022863, -1.1727582036083763 
3.1900000000023074, -1.1725171090645765 
3.2000000000023285, -1.1725382724210995 
3.2100000000023496, -1.1726519098173573 
3.2200000000023707, -1.172744231354562 
3.230000000002392, -1.1727592479664346 
3.240000000002413, -1.1726772249123594 
3.250000000002434, -1.172493109865951 
3.260000000002455, -1.172202614111049 
3.2700000000024763, -1.1717952439672124 
3.2800000000024974, -1.1712525583993885 
3.2900000000025185, -1.1705522441670628 
3.3000000000025396, -1.1696816210994014 
3.3100000000025607, -1.1686648471896806 
3.3200000000025818, -1.1675999077521102 
3.330000000002603, -1.1666788372905477 
3.340000000002624, -1.1661441138787656 
3.350000000002645, -1.1661667145508594 
3.360000000002666, -1.1667274246378647 
3.3700000000026873, -1.1676198082745846 
3.3800000000027084, -1.1685758512267888 
3.3900000000027295, -1.169393795505891 
3.4000000000027506, -1.1699816497904933 
3.4100000000027717, -1.1703311436774668 
3.420000000002793, -1.1704739305610146 
3.430000000002814, -1.1704500828369009 
3.440000000002835, -1.1702932001278255 
3.450000000002856, -1.1700266992409594 
3.460000000002877, -1.1696663357538992 
3.4700000000028983, -1.1692271187092724 
3.4800000000029194, -1.1687349700569538 
3.4900000000029405, -1.168242734797805 
3.5000000000029616, -1.1678443200952309 
3.5100000000029827, -1.167671127731016 
3.520000000003004, -1.167853829315112 
3.530000000003025, -1.1684567651246602 
3.540000000003046, -1.1694289301555263 
3.550000000003067, -1.1706151939095588 
3.5600000000030882, -1.1718212288016079 
3.5700000000031094, -1.172884006055905 
3.5800000000031305, -1.1737088645215914 
3.5900000000031516, -1.1742685770857546 
3.6000000000031727, -1.174581478356521 
3.6100000000031938, -1.1746868718783956 
3.620000000003215, -1.1746275394853498 
3.630000000003236, -1.1744412893286056 
3.640000000003257, -1.1741596694992955 
3.650000000003278, -1.1738113917687563 
3.6600000000032993, -1.1734284354425197 
3.6700000000033204, -1.1730524016411243 
3.6800000000033415, -1.1727369891329178 
3.6900000000033626, -1.1725415139587851 
3.7000000000033837, -1.1725142330744147 
3.710000000003405, -1.1726730710551636 
3.720000000003426, -1.1729964943611246 
3.730000000003447, -1.1734306482595662 
3.740000000003468, -1.173906869025915 
3.750000000003489, -1.1743590071184256 
3.7600000000035103, -1.17473431408195 
3.7700000000035314, -1.1749975553862781 
3.7800000000035525, -1.1751306614998942 
3.7900000000035736, -1.1751300876445794 
3.8000000000035947, -1.175003231698435 
3.810000000003616, -1.1747648778687867 
3.820000000003637, -1.1744345796278701 
3.830000000003658, -1.1740356382858956 
3.840000000003679, -1.1735955959306712 
3.8500000000037002, -1.1731470604985614 
3.8600000000037213, -1.172726739825713 
3.8700000000037424, -1.1723707883720478 
3.8800000000037635, -1.1721067694259015 
3.8900000000037847, -1.1719456474419192 
3.9000000000038058, -1.1718783058480846 
3.910000000003827, -1.1718785888678505 
3.920000000003848, -1.1719108926280706 
3.930000000003869, -1.171938233108285 
3.94000000000389, -1.1719276777831469 
3.9500000000039113, -1.1718525407124298 
3.9600000000039324, -1.1716925947479884 
3.9700000000039535, -1.1714338432927323 
3.9800000000039746, -1.1710686917418633 
3.9900000000039957, -1.170596608376511 
4.000000000004016, -1.1700250503804575 
4.010000000003993, -1.169370463215561 
4.02000000000397, -1.168659139070353 
4.030000000003946, -1.1679273089477413 
4.040000000003923, -1.1672191433499286 
4.0500000000039, -1.1665810751764127 
4.0600000000038765, -1.16605209227014 
4.070000000003853, -1.165652662386999 
4.08000000000383, -1.1653778484194695 
4.090000000003807, -1.1651993316970732 
4.100000000003783, -1.1650754468288071 
4.11000000000376, -1.1649628338542088 
4.120000000003737, -1.1648235055928984 
4.130000000003713, -1.1646258243218734 
4.14000000000369, -1.1643417972456749 
4.150000000003667, -1.1639439635673217 
4.1600000000036434, -1.163404311752341 
4.17000000000362, -1.1626966692109886 
4.180000000003597, -1.1618030597656652 
4.1900000000035735, -1.1607232391102353 
4.20000000000355, -1.1594849538267968 
4.210000000003527, -1.1581508347249145 
4.220000000003504, -1.156816691872118 
4.23000000000348, -1.1555963035626253 
4.240000000003457, -1.154592153810514 
4.250000000003434, -1.1538617094947283 
4.26000000000341, -1.153398291470043 
4.270000000003387, -1.1531404867409127 
4.280000000003364, -1.153003150452141 
4.2900000000033405, -1.152907946798346 
4.300000000003317, -1.1527977848085762 
4.310000000003294, -1.1526354672817771 
4.320000000003271, -1.1523948759297347 
4.330000000003247, -1.152051471509527 
4.340000000003224, -1.1515749883960609 
4.350000000003201, -1.1509253915343454 
4.360000000003177, -1.1500538215038811 
4.370000000003154, -1.1489121001443456 
4.380000000003131, -1.1474749740417036 
4.390000000003107, -1.1457744670932926 
4.400000000003084, -1.143932023344174 
4.410000000003061, -1.14215772855483 
4.4200000000030375, -1.1406899292905184 
4.430000000003014, -1.139692790823037 
4.440000000002991, -1.1391823484534442 
4.450000000002968, -1.1390403737406258 
4.460000000002944, -1.1390958990761024 
4.470000000002921, -1.1392029374291643 
4.480000000002898, -1.1392714672040145 
4.490000000002874, -1.139259720016378 
4.500000000002851, -1.1391533766423285 
4.510000000002828, -1.1389476625828145 
4.520000000002804, -1.1386362262381848 
4.530000000002781, -1.1382054924192393 
4.540000000002758, -1.1376331892924783 
4.5500000000027345, -1.1368919669722366 
4.560000000002711, -1.1359617037039018 
4.570000000002688, -1.1348547547312262 
4.580000000002665, -1.133651517124091 
4.590000000002641, -1.1325241637829593 
4.600000000002618, -1.1317066499279083 
4.610000000002595, -1.131390964804765 
4.620000000002571, -1.1316099048143058 
4.630000000002548, -1.1322137773859662 
4.640000000002525, -1.1329654331787027 
4.6500000000025015, -1.1336612594895814 
4.660000000002478, -1.1341889490550634 
4.670000000002455, -1.1345175015688425 
4.6800000000024315, -1.1346612324761716 
4.690000000002408, -1.1346491649518542 
4.700000000002385, -1.1345081662518304 
4.710000000002362, -1.134256703276549 
4.720000000002338, -1.1339047707307248 
4.730000000002315, -1.1334579004204186 
4.740000000002292, -1.132925703634288 
4.750000000002268, -1.1323365146619844 
4.760000000002245, -1.1317571652727483 
4.770000000002222, -1.1313080311837944 
4.7800000000021985, -1.1311515052692989 
4.790000000002175, -1.1314350662398724 
4.800000000002152, -1.1322070574814627 
4.810000000002129, -1.1333679338381206 
4.820000000002105, -1.1347059484865072 
4.830000000002082, -1.1359920732981377 
4.840000000002059, -1.137062608663869 
4.850000000002035, -1.1378462015234416 
4.860000000002012, -1.1383444266128095 
4.870000000001989, -1.1385969882886984 
4.880000000001965, -1.1386535934000992 
4.890000000001942, -1.1385587628720597 
4.900000000001919, -1.1383470830221254 
4.9100000000018955, -1.138044832556122 
4.920000000001872, -1.1376754327259613 
4.930000000001849, -1.1372676466517546 
4.940000000001826, -1.1368652039254268 
