t, s[1].omega / s[0].omega 
0, -6.599986497948568 
0.009999999999999995, -6.598168803253119 
0.019999999999999934, -6.596375699272739 
0.029999999999999874, -6.5957605992972805 
0.04000000000000012, -6.594355161052002 
0.050000000000000405, -6.592529341758504 
0.06000000000000069, -6.59150273516156 
0.07000000000000098, -6.590240858887182 
0.08000000000000126, -6.588712246835404 
0.09000000000000155, -6.587434389765386 
0.10000000000000184, -6.586134747163264 
0.11000000000000212, -6.584713564694541 
0.12000000000000241, -6.583463989725326 
0.130000000000002, -6.582102328160064 
0.1400000000000009, -6.580584360009048 
0.1499999999999998, -6.579523876022198 
0.1599999999999987, -6.578209112094993 
0.1699999999999976, -6.576347792672353 
0.1799999999999965, -6.575451497862476 
0.1899999999999954, -6.574438235684974 
0.1999999999999943, -6.572565816699397 
0.2099999999999932, -6.570924671297358 
0.2199999999999921, -6.570405509604461 
0.229999999999991, -6.568959012374286 
0.2399999999999899, -6.566898691880752 
0.2499999999999888, -6.566084290609929 
0.2599999999999877, -6.56490718665224 
0.2699999999999866, -6.563260215977306 
0.2799999999999855, -6.561959201478125 
0.2899999999999844, -6.56078323727624 
0.2999999999999833, -6.5593399699391055 
0.3099999999999822, -6.558008642890376 
0.3199999999999811, -6.556742147134746 
0.32999999999998, -6.555287637958156 
0.3399999999999789, -6.554080160742776 
0.3499999999999778, -6.552807521438652 
0.35999999999997667, -6.551164175104799 
0.36999999999997557, -6.550072830546594 
0.37999999999997447, -6.549001380539922 
0.38999999999997337, -6.5472578228355 
0.39999999999997227, -6.545680951380622 
0.40999999999997117, -6.545123959499975 
0.41999999999997006, -6.543693278311646 
0.42999999999996896, -6.541466145925962 
0.43999999999996786, -6.540818060447128 
0.44999999999996676, -6.539761676957633 
0.45999999999996566, -6.538002380620857 
0.46999999999996456, -6.536591255901039 
0.47999999999996346, -6.535603321618666 
0.48999999999996235, -6.534162586505623 
0.49999999999996125, -6.532698929534433 
0.5099999999999602, -6.531536893281279 
0.519999999999959, -6.530148332590405 
0.529999999999958, -6.528814940690351 
0.5399999999999568, -6.527584713385274 
0.5499999999999557, -6.526113179268458 
0.5599999999999546, -6.524834620681853 
0.5699999999999535, -6.52373176544927 
0.5799999999999524, -6.522198517890689 
0.5899999999999513, -6.520586174413715 
0.5999999999999502, -6.519889377556733 
0.6099999999999491, -6.518556527037383 
0.619999999999948, -6.516372495935189 
0.6299999999999469, -6.5156534275958204 
0.6399999999999458, -6.5147578345633645 
0.6499999999999447, -6.512985384932679 
0.6599999999999436, -6.511293265053948 
0.6699999999999425, -6.510577290394418 
0.6799999999999414, -6.509205117242082 
0.6899999999999403, -6.507538914624068 
0.6999999999999392, -6.5064550466124915 
0.7099999999999381, -6.505185091811406 
0.719999999999937, -6.503746610140449 
0.7299999999999359, -6.502501105071251 
0.7399999999999348, -6.50118680661153 
0.7499999999999337, -6.49979547167639 
0.7599999999999326, -6.498629893246964 
0.7699999999999315, -6.497285609361251 
0.7799999999999304, -6.495683451506634 
0.7899999999999293, -6.494754803807034 
0.7999999999999282, -6.493556598788807 
0.8099999999999271, -6.491645963566681 
0.819999999999926, -6.490549752242994 
0.8299999999999249, -6.4898196702664865 
0.8399999999999238, -6.488202654182271 
0.8499999999999227, -6.486124412487397 
0.8599999999999216, -6.485651248455757 
0.8699999999999205, -6.484453197629323 
0.8799999999999194, -6.482619117622055 
0.8899999999999183, -6.481435380957912 
0.8999999999999172, -6.480385413859745 
0.9099999999999161, -6.478918290906911 
0.919999999999915, -6.477528087611401 
0.9299999999999139, -6.476372525296138 
0.9399999999999128, -6.474984632572854 
0.9499999999999117, -6.473692877713477 
0.9599999999999106, -6.472470198354609 
0.9699999999999095, -6.470993063061154 
0.9799999999999084, -6.469785718242546 
0.9899999999999073, -6.468679514713972 
0.9999999999999062, -6.467114868032942 
1.0099999999999052, -6.465595107365168 
1.019999999999904, -6.464910923330481 
1.029999999999903, -6.4635557566081605 
1.039999999999902, -6.461372174710853 
1.0499999999999008, -6.460731317118407 
1.0599999999998997, -6.459828805792374 
1.0699999999998986, -6.458066178476915 
1.0799999999998975, -6.456406889816108 
1.0899999999998964, -6.45569803128286 
1.0999999999998953, -6.454349481708175 
1.1099999999998942, -6.4527107511770465 
1.119999999999893, -6.451629434839195 
1.129999999999892, -6.450384094924033 
1.1399999999998909, -6.448969075325067 
1.1499999999998898, -6.447734756521747 
1.1599999999998887, -6.446446925601687 
1.1699999999998876, -6.445058771234774 
1.1799999999998865, -6.443918544058633 
1.1899999999998854, -6.442619094462188 
1.1999999999998843, -6.440997944566142 
1.2099999999998832, -6.4400641324240855 
1.219999999999882, -6.43895538344538 
1.229999999999881, -6.437137728534912 
1.2399999999998799, -6.435789180108695 
1.2499999999998788, -6.435218877006312 
1.2599999999998777, -6.433765866186384 
1.2699999999998766, -6.431588137868394 
1.2799999999998755, -6.431004384434091 
1.2899999999998744, -6.429964681493308 
1.2999999999998733, -6.428260340983644 
1.3099999999998722, -6.426872185867078 
1.319999999999871, -6.42591381598907 
1.32999999999987, -6.424527510024541 
1.3399999999998689, -6.423099197312943 
1.3499999999998678, -6.4219623563138075 
1.3599999999998666, -6.420618298015714 
1.3699999999998655, -6.419316105436158 
1.3799999999998644, -6.418132501291318 
1.3899999999998633, -6.416719383978209 
1.3999999999998622, -6.415389738360849 
1.4099999999998611, -6.414388691619623 
1.41999999999986, -6.412998733058639 
1.429999999999859, -6.411194948440004 
1.4399999999998578, -6.410548665526605 
1.4499999999998567, -6.409469714160875 
1.4599999999998556, -6.407512175627583 
1.4699999999998545, -6.406150749913418 
1.4799999999998534, -6.405617195848021 
1.4899999999998523, -6.404188009659528 
1.4999999999998512, -6.4022207104134425 
1.5099999999998501, -6.401433840387081 
1.519999999999849, -6.400312323532326 
1.529999999999848, -6.398758146028278 
1.5399999999998468, -6.397472283712029 
1.5499999999998457, -6.396356977736533 
1.5599999999998446, -6.394983236237403 
1.5699999999998435, -6.393697981008574 
1.5799999999998424, -6.392499642204191 
1.5899999999998413, -6.391081198496673 
1.5999999999998402, -6.389907614448794 
1.6099999999998391, -6.388761189123964 
1.619999999999838, -6.387216986535763 
1.629999999999837, -6.3859010415943125 
1.6399999999998358, -6.385097799081631 
1.6499999999998347, -6.383688552759231 
1.6599999999998336, -6.3816140111338 
1.6699999999998325, -6.381120204535734 
1.6799999999998314, -6.380160265891581 
1.6899999999998303, -6.378320418074053 
1.6999999999998292, -6.376741146821935 
1.709999999999828, -6.376139942982126 
1.719999999999827, -6.3748053938343245 
1.729999999999826, -6.373099005853673 
1.7399999999998248, -6.372086070167752 
1.7499999999998237, -6.370914503250189 
1.7599999999998226, -6.369492774124695 
1.7699999999998215, -6.368249700674739 
1.7799999999998204, -6.367043640182427 
1.7899999999998193, -6.365673804658666 
1.7999999999998182, -6.364504706687779 
1.809999999999817, -6.36328167609912 
1.819999999999816, -6.361746772980023 
1.8299999999998149, -6.360694233639657 
1.8399999999998138, -6.359657913251445 
1.8499999999998127, -6.358036115266794 
1.8599999999998116, -6.356462628787233 
1.8699999999998105, -6.355967389431223 
1.8799999999998094, -6.354693852899493 
1.8899999999998083, -6.352534585265219 
1.8999999999998072, -6.351720704945981 
1.909999999999806, -6.350932038185951 
1.919999999999805, -6.349365488907603 
1.9299999999998039, -6.347682165969995 
1.9399999999998028, -6.346881005586896 
1.9499999999998017, -6.345630098318869 
1.9599999999998006, -6.3441366686224185 
1.9699999999997995, -6.342983734557222 
1.9799999999997984, -6.341771739226152 
1.9899999999997973, -6.340425480467042 
1.9999999999997962, -6.339237295463 
2.0099999999998173, -6.337987278663734 
2.0199999999998384, -6.336547359481358 
2.0299999999998595, -6.335515172412359 
2.0399999999998806, -6.33435026556995 
2.0499999999999017, -6.332668366849399 
2.059999999999923, -6.3315417693708 
2.069999999999944, -6.330790934392578 
2.079999999999965, -6.329301729988959 
2.089999999999986, -6.327196524379273 
2.100000000000007, -6.326814467014294 
2.1100000000000283, -6.3258134949824125 
2.1200000000000494, -6.324001114260552 
2.1300000000000705, -6.322559524683203 
2.1400000000000916, -6.321833611774233 
2.1500000000001127, -6.320497923674694 
2.160000000000134, -6.31893330916708 
2.170000000000155, -6.31789279013502 
2.180000000000176, -6.316679608961943 
2.190000000000197, -6.315319730075378 
2.2000000000002182, -6.314129569621289 
2.2100000000002393, -6.312887020500349 
2.2200000000002604, -6.311521134215815 
2.2300000000002815, -6.310441412905492 
2.2400000000003026, -6.309224450596375 
2.2500000000003237, -6.3076075341204 
2.260000000000345, -6.3066333469536335 
2.270000000000366, -6.3057029621747 
2.280000000000387, -6.304094909677074 
2.290000000000408, -6.302294316873765 
2.3000000000004293, -6.301947678887485 
2.3100000000004504, -6.300797893903992 
2.3200000000004715, -6.298785163893392 
2.3300000000004926, -6.297659596672468 
2.3400000000005137, -6.296938882887494 
2.3500000000005348, -6.295520581794144 
2.360000000000556, -6.293892771605213 
2.370000000000577, -6.292967652668571 
2.380000000000598, -6.291761192583705 
2.390000000000619, -6.29036391195915 
2.4000000000006403, -6.289183645551311 
2.4100000000006614, -6.28797247925267 
2.4200000000006825, -6.286637965848208 
2.4300000000007036, -6.285511028771779 
2.4400000000007247, -6.284292407232595 
2.450000000000746, -6.28276917601125 
2.460000000000767, -6.281783504956506 
2.470000000000788, -6.280764486170789 
2.480000000000809, -6.279144953947183 
2.49000000000083, -6.277587747933903 
2.5000000000008513, -6.277142270325233 
2.5100000000008724, -6.275915359683004 
2.5200000000008935, -6.27380305964652 
2.5300000000009146, -6.272907013409748 
2.5400000000009357, -6.272193806172279 
2.550000000000957, -6.270713306624751 
2.560000000000978, -6.2690086969017 
2.570000000000999, -6.2681986709499204 
2.58000000000102, -6.267015628336209 
2.5900000000010412, -6.265568541126246 
2.6000000000010624, -6.264391873936935 
2.6100000000010835, -6.263232033820688 
2.6200000000011046, -6.261904643402719 
2.6300000000011257, -6.260734619911738 
2.6400000000011468, -6.259545204526078 
2.650000000001168, -6.258098414464377 
2.660000000001189, -6.257045398505513 
2.67000000000121, -6.25599774982203 
2.680000000001231, -6.254447857399868 
2.6900000000012523, -6.252973787479626 
2.7000000000012734, -6.252430385940009 
2.7100000000012945, -6.251200199310963 
2.7200000000013156, -6.2490941446967 
2.7300000000013367, -6.248256808585305 
2.740000000001358, -6.247592304581896 
2.750000000001379, -6.246098277282261 
2.7600000000014, -6.244273059672582 
2.770000000001421, -6.24357133829866 
2.780000000001442, -6.242444417736047 
2.7900000000014633, -6.2409493214916365 
2.8000000000014844, -6.239741109191223 
2.8100000000015055, -6.238655853521882 
2.8200000000015266, -6.237334999797225 
2.8300000000015477, -6.236113338449446 
2.840000000001569, -6.234966403865332 
2.85000000000159, -6.233586277682323 
2.860000000001611, -6.2324471610118355 
2.870000000001632, -6.231400530191111 
2.8800000000016532, -6.229963253646082 
2.8900000000016743, -6.228463406181466 
2.9000000000016954, -6.227833659339006 
2.9100000000017165, -6.226665582536336 
2.9200000000017377, -6.224663100844383 
2.9300000000017588, -6.223680754880266 
2.94000000000178, -6.223121083947233 
2.950000000001801, -6.221688105071922 
2.960000000001822, -6.21970564821473 
2.970000000001843, -6.219058570521787 
2.9800000000018643, -6.218042777531594 
2.9900000000018854, -6.216530966095847 
3.0000000000019065, -6.215215851102876 
3.0100000000019276, -6.214230521780925 
3.0200000000019487, -6.21294031465516 
3.03000000000197, -6.211651360649032 
3.040000000001991, -6.210537113488901 
3.050000000002012, -6.209235919820808 
3.060000000002033, -6.208006022274504 
3.070000000002054, -6.206959307648155 
3.0800000000020753, -6.20565053733886 
3.0900000000020964, -6.204108155591143 
3.1000000000021175, -6.203358419436451 
3.1100000000021386, -6.20229636516503 
3.1200000000021597, -6.200494150541578 
3.130000000002181, -6.199173656829296 
3.140000000002202, -6.198756565640221 
3.150000000002223, -6.197466821433208 
3.160000000002244, -6.195392216175824 
3.1700000000022652, -6.194613230119523 
3.1800000000022863, -6.193791156590418 
3.1900000000023074, -6.192334792273048 
3.2000000000023285, -6.190819074401015 
3.2100000000023496, -6.189931144146724 
3.2200000000023707, -6.188721776726519 
3.230000000002392, -6.187368459300543 
3.240000000002413, -6.186237435443757 
3.250000000002434, -6.18504022568622 
3.260000000002455, -6.183741832643169 
3.2700000000024763, -6.182661943084614 
3.2800000000024974, -6.181475318088756 
3.2900000000025185, -6.179963376196174 
3.3000000000025396, -6.179005073149885 
3.3100000000025607, -6.178063227369745 
3.3200000000025818, -6.176525519758988 
3.330000000002603, -6.174812843938627 
3.340000000002624, -6.174461976616881 
3.350000000002645, -6.173388298956363 
3.360000000002666, -6.171440145199897 
3.3700000000026873, -6.170181607708516 
3.3800000000027084, -6.169648342351933 
3.3900000000027295, -6.16834528858367 
3.4000000000027506, -6.166632711133614 
3.4100000000027717, -6.16571338016591 
3.420000000002793, -6.16466032690489 
3.430000000002814, -6.163296103978199 
3.440000000002835, -6.162058388748937 
3.450000000002856, -6.160974270979063 
3.460000000002877, -6.159676621635869 
3.4700000000028983, -6.158512663292101 
3.4800000000029194, -6.157410599901544 
3.4900000000029405, -6.156031882138739 
3.5000000000029616, -6.154798529692679 
3.5100000000029827, -6.153938024369317 
3.520000000003004, -6.152663210240367 
3.530000000003025, -6.150815152258241 
3.540000000003046, -6.150187274443733 
3.550000000003067, -6.149396869870613 
3.5600000000030882, -6.147783583217182 
3.5700000000031094, -6.145853937060142 
3.5800000000031305, -6.1455381458464515 
3.5900000000031516, -6.144498946244757 
3.6000000000031727, -6.14280765909273 
3.6100000000031938, -6.141527842352585 
3.620000000003215, -6.140708809322867 
3.630000000003236, -6.139435777698639 
3.640000000003257, -6.1380484149838 
3.650000000003278, -6.136999834549998 
3.6600000000032993, -6.135804480787281 
3.6700000000033204, -6.1345429111456244 
3.6800000000033415, -6.133443483288329 
3.6900000000033626, -6.132238771715036 
3.7000000000033837, -6.130835847824254 
3.710000000003405, -6.12990368319682 
3.720000000003426, -6.12884682250179 
3.730000000003447, -6.127246610764699 
3.740000000003468, -6.1259422290842105 
3.750000000003489, -6.125436301101002 
3.7600000000035103, -6.124206172527934 
3.7700000000035314, -6.12211395142147 
3.7800000000035525, -6.121331207576226 
3.7900000000035736, -6.120710774858273 
3.8000000000035947, -6.1192915920438 
3.810000000003616, -6.117507266238963 
3.820000000003637, -6.116780984394937 
3.830000000003658, -6.115730222899016 
3.840000000003679, -6.114318422526272 
3.8500000000037002, -6.113093525097066 
3.8600000000037213, -6.112061496533875 
3.8700000000037424, -6.110791523222395 
3.8800000000037635, -6.109601749548475 
3.8900000000037847, -6.108509992384247 
3.9000000000038058, -6.107188638847987 
3.910000000003827, -6.1059869612794335 
3.920000000003848, -6.105062223222877 
3.930000000003869, -6.1038023556195355 
3.94000000000389, -6.10209111841882 
3.9500000000039113, -6.101431146481893 
3.9600000000039324, -6.10059010338861 
3.9700000000039535, -6.098974652705138 
3.9800000000039746, -6.097104166279347 
3.9900000000039957, -6.096860236616967 
4.000000000004016, -6.095845432235893 
4.010000000003993, -6.094098366562263 
4.02000000000397, -6.092775550777626 
4.030000000003946, -6.092077608723696 
4.040000000003923, -6.090838954973837 
4.0500000000039, -6.089386163813562 
4.0600000000038765, -6.088358407909949 
4.070000000003853, -6.087239292699359 
4.08000000000383, -6.085964792166366 
4.090000000003807, -6.084834937227154 
4.100000000003783, -6.0837012701311695 
4.11000000000376, -6.082346076111026 
4.120000000003737, -6.081322323946306 
4.130000000003713, -6.080306484633278 
4.14000000000369, -6.078859603503212 
4.150000000003667, -6.0774302553108015 
4.1600000000036434, -6.076892621026282 
4.17000000000362, -6.075781327931067 
4.180000000003597, -6.073831051420818 
4.1900000000035735, -6.072746041348405 
4.20000000000355, -6.072318755596394 
4.210000000003527, -6.07103121502991 
4.220000000003504, -6.069117421604472 
4.23000000000348, -6.068314825616081 
4.240000000003457, -6.067441917076225 
4.250000000003434, -6.066075425671114 
4.26000000000341, -6.064705015289224 
4.270000000003387, -6.063758131824638 
4.280000000003364, -6.062564578941532 
4.2900000000033405, -6.061314783019758 
4.300000000003317, -6.060228576850858 
4.310000000003294, -6.059034229659906 
4.320000000003271, -6.057734293040257 
4.330000000003247, -6.056777632634882 
4.340000000003224, -6.055671461098061 
4.350000000003201, -6.0541013340645 
4.360000000003177, -6.0530469499010096 
4.370000000003154, -6.052388670103744 
4.380000000003131, -6.051074694923732 
4.390000000003107, -6.049006425189404 
4.400000000003084, -6.048508841055784 
4.410000000003061, -6.047821859430239 
4.4200000000030375, -6.046326808827991 
4.430000000003014, -6.044503698601251 
4.440000000002991, -6.0439384293525515 
4.450000000002968, -6.042921564901759 
4.460000000002944, -6.041475587219784 
4.470000000002921, -6.040240954032571 
4.480000000002898, -6.03928699155864 
4.490000000002874, -6.038054457038182 
4.500000000002851, -6.036835645872584 
4.510000000002828, -6.0357715564675525 
4.520000000002804, -6.034531121672396 
4.530000000002781, -6.033309621593224 
4.540000000002758, -6.0323616319317015 
4.5500000000027345, -6.031183953170542 
4.560000000002711, -6.0295815944514395 
4.570000000002688, -6.028768507827112 
4.580000000002665, -6.027989008582959 
4.590000000002641, -6.026524828361168 
4.600000000002618, -6.024553448646615 
4.610000000002595, -6.02428950234466 
4.620000000002571, -6.023436471342066 
4.630000000002548, -6.021796416375944 
4.640000000002525, -6.020174457289034 
4.6500000000025015, -6.019648585739612 
4.660000000002478, -6.018546262310343 
4.670000000002455, -6.017065587424252 
4.6800000000024315, -6.015938780561112 
4.690000000002408, -6.014958598498014 
4.700000000002385, -6.013712312565419 
4.710000000002362, -6.012521334146101 
4.720000000002338, -6.011464777548972 
4.730000000002315, -6.010202094299474 
4.740000000002292, -6.0090383913192955 
4.750000000002268, -6.00808732599468 
4.760000000002245, -6.006865849120698 
4.770000000002222, -6.005280455611862 
4.7800000000021985, -6.0045773061556655 
4.790000000002175, -6.003731261542555 
4.800000000002152, -6.002180799225327 
4.810000000002129, -6.000336563641942 
4.820000000002105, -6.000128981276658 
4.830000000002082, -5.999199112936025 
4.840000000002059, -5.9974898747195144 
4.850000000002035, -5.996007298237132 
4.860000000002012, -5.995470810606962 
4.870000000001989, -5.994333820409974 
4.880000000001965, -5.992849760767841 
4.890000000001942, -5.991775347840897 
4.900000000001919, -5.990782497640348 
4.9100000000018955, -5.9895368757825835 
4.920000000001872, -5.9883644558583216 
4.930000000001849, -5.987312553037758 
4.940000000001826, -5.9860460242370515 
4.950000000001802, -5.984908892344859 
4.960000000001779, -5.983962283362834 
4.970000000001756, -5.982730761702246 
4.980000000001732, -5.981155823502648 
4.990000000001709, -5.980486603751971 
5.000000000001686, -5.979633636036974 
5.0100000000016625, -5.978071153525842 
5.020000000001639, -5.976251724067398 
5.030000000001616, -5.976056277572708 
5.0400000000015925, -5.975127317150848 
