t, s[1].omega / s[0].omega 
0, -1.48999724022982 
0.009999999999999995, -1.4896734262215618 
0.019999999999999934, -1.4892582680071382 
0.029999999999999874, -1.488762939136097 
0.04000000000000012, -1.488209265056089 
0.050000000000000405, -1.4876323881197624 
0.06000000000000069, -1.4870792118403227 
0.07000000000000098, -1.4865980919934045 
0.08000000000000126, -1.4862203706959598 
0.09000000000000155, -1.4859448480587405 
0.10000000000000184, -1.4857393039247893 
0.11000000000000212, -1.4855582906031055 
0.12000000000000241, -1.4853609961412952 
0.130000000000002, -1.485117546525372 
0.1400000000000009, -1.4848057251236175 
0.1499999999999998, -1.4844054393682797 
0.1599999999999987, -1.4838966097109214 
0.1699999999999976, -1.4832647856159489 
0.1799999999999965, -1.4825185268470276 
0.1899999999999954, -1.48171685014437 
0.1999999999999943, -1.4809853535778417 
0.2099999999999932, -1.480479560649918 
0.2199999999999921, -1.4802887935565996 
0.229999999999991, -1.4803659152678839 
0.2399999999999899, -1.4805674039382584 
0.2499999999999888, -1.4807534185248132 
0.2599999999999877, -1.4808452915364057 
0.2699999999999866, -1.4808211660785697 
0.2799999999999855, -1.480689103482562 
0.2899999999999844, -1.480466521797681 
0.2999999999999833, -1.4801718123756251 
0.3099999999999822, -1.4798249154343177 
0.3199999999999811, -1.4794527740202756 
0.32999999999998, -1.4790945866423457 
0.3399999999999789, -1.4787990641037634 
0.3499999999999778, -1.4786080718304373 
0.35999999999997667, -1.4785344391771738 
0.36999999999997557, -1.4785531879753724 
0.37999999999997447, -1.4786143465578767 
0.38999999999997337, -1.4786646415390536 
0.39999999999997227, -1.4786623838299369 
0.40999999999997117, -1.47858154510688 
0.41999999999997006, -1.4784093746096423 
0.42999999999996896, -1.4781425729491668 
0.43999999999996786, -1.4777847558119208 
0.44999999999996676, -1.477346077117095 
0.45999999999996566, -1.4768448157680216 
0.46999999999996456, -1.4763096480732447 
0.47999999999996346, -1.4757797648204283 
0.48999999999996235, -1.4752989785846256 
0.49999999999996125, -1.4749022944725554 
0.5099999999999602, -1.474600641891245 
0.519999999999959, -1.4743755118941764 
0.529999999999958, -1.4741890913982199 
0.5399999999999568, -1.4740009066208175 
0.5499999999999557, -1.4737780135260012 
0.5599999999999546, -1.4734953638080683 
0.5699999999999535, -1.473131257903991 
0.5799999999999524, -1.4726636729680822 
0.5899999999999513, -1.4720718117905829 
0.5999999999999502, -1.471347000141508 
0.6099999999999491, -1.470515311754845 
0.619999999999948, -1.4696632638802716 
0.6299999999999469, -1.4689357456022392 
0.6399999999999458, -1.468472783292684 
0.6499999999999447, -1.468314991870613 
0.6599999999999436, -1.4683755098736795 
0.6699999999999425, -1.4685114020781938 
0.6799999999999414, -1.4686097111501417 
0.6899999999999403, -1.468616728137127 
0.6999999999999392, -1.4685221283396772 
0.7099999999999381, -1.468335054711113 
0.719999999999937, -1.468069698123242 
0.7299999999999359, -1.467741423075917 
0.7399999999999348, -1.4673702214748074 
0.7499999999999337, -1.46698785826943 
0.7599999999999326, -1.4666423736821665 
0.7699999999999315, -1.4663901440143636 
0.7799999999999304, -1.4662717663276468 
0.7899999999999293, -1.4662871239311202 
0.7999999999999282, -1.466393087700141 
0.8099999999999271, -1.4665256772647262 
0.819999999999926, -1.4666260176157222 
0.8299999999999249, -1.4666539051849807 
0.8399999999999238, -1.46658870971723 
0.8499999999999227, -1.4664244710840801 
0.8599999999999216, -1.4661646560660235 
0.8699999999999205, -1.4658189511026252 
0.8799999999999194, -1.465402549847488 
0.8899999999999183, -1.4649373197360183 
0.8999999999999172, -1.4644531104836538 
0.9099999999999161, -1.463986294394584 
0.919999999999915, -1.4635728262063017 
0.9299999999999139, -1.4632364920228482 
0.9399999999999128, -1.4629786268904559 
0.9499999999999117, -1.4627774632849728 
0.9599999999999106, -1.462598239272476 
0.9699999999999095, -1.4624057161222241 
0.9799999999999084, -1.4621705693005405 
0.9899999999999073, -1.4618686495063913 
0.9999999999999062, -1.4614773090296937 
1.0099999999999052, -1.4609733372573275 
1.019999999999904, -1.4603362377989002 
1.029999999999903, -1.4595602823416824 
1.039999999999902, -1.4586760602965056 
1.0499999999999008, -1.4577713575931448 
1.0599999999998997, -1.4569837570767175 
1.0699999999998986, -1.4564409147723199 
1.0799999999998975, -1.4561799191578666 
1.0899999999998964, -1.4561266310857186 
1.0999999999998953, -1.4561573031965354 
1.1099999999998942, -1.4561713450334974 
1.119999999999893, -1.4561171250195244 
1.129999999999892, -1.4559799214553701 
1.1399999999998909, -1.4557623308256242 
1.1499999999998898, -1.4554721915973623 
1.1599999999998887, -1.4551197199172616 
1.1699999999998876, -1.4547219884005569 
1.1799999999998865, -1.4543120760693917 
1.1899999999998854, -1.4539460686447643 
1.1999999999998843, -1.4536948530648603 
1.2099999999998832, -1.4536129948185292 
1.219999999999882, -1.4537029480472554 
1.229999999999881, -1.453908922503254 
1.2399999999998799, -1.454146913832106 
1.2499999999998788, -1.4543417975749766 
1.2599999999998777, -1.4544462707187926 
1.2699999999998766, -1.4544407267976622 
1.2799999999998755, -1.4543246952032594 
1.2899999999998744, -1.4541082161424592 
1.2999999999998733, -1.453806498648492 
1.3099999999998722, -1.4534381951679003 
1.319999999999871, -1.4530262204839013 
1.32999999999987, -1.4525989930532064 
1.3399999999998689, -1.4521891386617298 
1.3499999999998678, -1.4518274234607595 
1.3599999999998666, -1.4515331433594436 
1.3699999999998655, -1.4513063914345294 
1.3799999999998644, -1.4511279360562839 
1.3899999999998633, -1.4509670512632538 
1.3999999999998622, -1.450791407773536 
1.4099999999998611, -1.4505727927996312 
1.41999999999986, -1.4502873988078802 
1.429999999999859, -1.4499135470082618 
1.4399999999998578, -1.4494304637053683 
1.4499999999998567, -1.4488210134021056 
1.4599999999998556, -1.4480805165596953 
1.4699999999998545, -1.447231712261933 
1.4799999999998534, -1.4463397276318724 
1.4899999999998523, -1.4455107952792674 
1.4999999999998512, -1.4448570111638495 
1.5099999999998501, -1.4444371247126342 
1.519999999999849, -1.4442230329193055 
1.529999999999848, -1.4441269431412402 
1.5399999999998468, -1.4440579646556 
1.5499999999998457, -1.4439563494027428 
1.5599999999998446, -1.4437944095529587 
1.5699999999998435, -1.4435631808822327 
1.5799999999998424, -1.443260946028818 
1.5899999999998413, -1.4428888365369466 
1.5999999999998402, -1.4424540476778516 
1.6099999999998391, -1.441980337209158 
1.619999999999838, -1.4415217862317629 
1.629999999999837, -1.4411655947991904 
1.6399999999998358, -1.4410037360299426 
1.6499999999998347, -1.4410773595450306 
1.6599999999998336, -1.4413413117984992 
1.6699999999998325, -1.4416883823952222 
1.6799999999998314, -1.442008012072246 
1.6899999999998303, -1.4422273139415958 
1.6999999999998292, -1.4423171934690648 
1.709999999999828, -1.4422788140899363 
1.719999999999827, -1.4421279863747956 
1.729999999999826, -1.441885180508826 
1.7399999999998248, -1.4415718142131992 
1.7499999999998237, -1.4412109154982602 
1.7599999999998226, -1.440829455841421 
1.7699999999998215, -1.4404589223788773 
1.7799999999998204, -1.4401309237782853 
1.7899999999998193, -1.439867941892677 
1.7999999999998182, -1.4396745332604477 
1.809999999999817, -1.4395354667313587 
1.819999999999816, -1.4394220145766068 
1.8299999999998149, -1.439301554074198 
1.8399999999998138, -1.4391446719974608 
1.8499999999998127, -1.4389275608797665 
1.8599999999998116, -1.4386312700732793 
1.8699999999998105, -1.438240635557659 
1.8799999999998094, -1.4377450758390227 
1.8899999999998083, -1.4371423916821906 
1.8999999999998072, -1.436445579135682 
1.909999999999806, -1.4356906373517893 
1.919999999999805, -1.434939658686147 
1.9299999999998039, -1.4342702395797047 
1.9399999999998028, -1.4337471402967246 
1.9499999999998017, -1.4333902153720364 
1.9599999999998006, -1.4331659814571203 
1.9699999999997995, -1.4330114471086988 
1.9799999999997984, -1.432866605121096 
1.9899999999997973, -1.432690758378407 
1.9999999999997962, -1.43246095402401 
2.0099999999998173, -1.432163641304645 
2.0199999999998384, -1.43178816415054 
2.0299999999998595, -1.431325787828462 
2.0399999999998806, -1.4307764930884546 
2.0499999999999017, -1.4301650228040905 
2.059999999999923, -1.4295609103258144 
2.069999999999944, -1.429080842538616 
2.079999999999965, -1.428844509745797 
2.089999999999986, -1.428895810051087 
2.100000000000007, -1.4291634204185317 
2.1100000000000283, -1.4295080479025617 
2.1200000000000494, -1.4298040645232089 
2.1300000000000705, -1.4299826095301156 
2.1400000000000916, -1.4300266078507855 
2.1500000000001127, -1.429947553833851 
2.160000000000134, -1.4297665754643554 
2.170000000000155, -1.42950542821882 
2.180000000000176, -1.4291852659399098 
2.190000000000197, -1.4288298280435514 
2.2000000000002182, -1.4284695149024622 
2.2100000000002393, -1.4281416855203288 
2.2200000000002604, -1.4278828765735117 
2.2300000000002815, -1.427714596983997 
2.2400000000003026, -1.4276325962564924 
2.2500000000003237, -1.427608610190142 
2.260000000000345, -1.4276024927010151 
2.270000000000366, -1.4275752393437044 
2.280000000000387, -1.427496360431823 
2.290000000000408, -1.4273453784712644 
2.3000000000004293, -1.4271103707535773 
2.3100000000004504, -1.4267862793073802 
2.3200000000004715, -1.4263744200255566 
2.3300000000004926, -1.425883597329198 
2.3400000000005137, -1.4253324874966398 
2.3500000000005348, -1.4247519166745002 
2.360000000000556, -1.424184131540178 
2.370000000000577, -1.4236754045059858 
2.380000000000598, -1.4232612412151189 
2.390000000000619, -1.4229510401274705 
2.4000000000006403, -1.4227240669625167 
2.4100000000006614, -1.422540914339431 
2.4200000000006825, -1.4223604816807776 
2.4300000000007036, -1.4221500160383274 
2.4400000000007247, -1.4218854465298674 
2.450000000000746, -1.4215468307134331 
2.460000000000767, -1.421114227144352 
2.470000000000788, -1.420567618226788 
2.480000000000809, -1.4198941316089304 
2.49000000000083, -1.4191052695166544 
2.5000000000008513, -1.4182606314325288 
2.5100000000008724, -1.4174783420450425 
2.5200000000008935, -1.4169003558913575 
2.5300000000009146, -1.416612021503164 
2.5400000000009357, -1.416583040100367 
2.550000000000957, -1.416694975440139 
2.560000000000978, -1.4168218442518665 
2.570000000000999, -1.4168839320299331 
2.58000000000102, -1.416851236364058 
2.5900000000010412, -1.4167233576184903 
2.6000000000010624, -1.4165110739117306 
2.6100000000010835, -1.4162272565867313 
2.6200000000011046, -1.4158859049768584 
2.6300000000011257, -1.4155067799479364 
2.6400000000011468, -1.4151227128590773 
2.650000000001168, -1.4147835702176932 
2.660000000001189, -1.4145475553606637 
2.67000000000121, -1.4144566658072457 
2.680000000001231, -1.4145112899717023 
2.6900000000012523, -1.4146668962582933 
2.7000000000012734, -1.414855804058076 
2.7100000000012945, -1.4150144593512157 
2.7200000000013156, -1.4150990103864232 
2.7300000000013367, -1.4150873636844339 
2.740000000001358, -1.4149741744067394 
2.750000000001379, -1.4147646808180028 
2.7600000000014, -1.414470283936479 
2.770000000001421, -1.414106647740744 
2.780000000001442, -1.4136939326439073 
2.7900000000014633, -1.413257821532493 
2.8000000000014844, -1.4128290510617867 
2.8100000000015055, -1.4124391129205913 
2.8200000000015266, -1.4121119485484246 
2.8300000000015477, -1.4118553072457118 
2.840000000001569, -1.4116574940381013 
2.85000000000159, -1.4114921954518298 
2.860000000001611, -1.4113278524622472 
2.870000000001632, -1.411135164956963 
2.8800000000016532, -1.4108894452738043 
2.8900000000016743, -1.4105691732465615 
2.9000000000016954, -1.4101539938599932 
2.9100000000017165, -1.4096250305855242 
2.9200000000017377, -1.4089696496282262 
2.9300000000017588, -1.4081918283154011 
2.94000000000178, -1.407326339472983 
2.950000000001801, -1.4064483465542448 
2.960000000001822, -1.4056629281621835 
2.970000000001843, -1.405065002657163 
2.9800000000018643, -1.4046893806915168 
2.9900000000018854, -1.4044945677174263 
3.0000000000019065, -1.4043961263018008 
3.0100000000019276, -1.4043144025946697 
3.0200000000019487, -1.4041986844253445 
3.03000000000197, -1.4040251268360708 
3.040000000001991, -1.4037849408614593 
3.050000000002012, -1.403474860832671 
3.060000000002033, -1.4030936450186016 
3.070000000002054, -1.4026452429857685 
3.0800000000020753, -1.4021489092265031 
3.0900000000020964, -1.401653592495794 
3.1000000000021175, -1.401244520647382 
3.1100000000021386, -1.401021384165443 
3.1200000000021597, -1.401044191120103 
3.130000000002181, -1.4012868227911253 
3.140000000002202, -1.4016473874262254 
3.150000000002223, -1.4020058994520377 
3.160000000002244, -1.4022753105062828 
3.1700000000022652, -1.4024161491979634 
3.1800000000022863, -1.4024249260170198 
3.1900000000023074, -1.402316575435282 
3.2000000000023285, -1.402111952921659 
3.2100000000023496, -1.4018323471826104 
3.2200000000023707, -1.4014992840443583 
3.230000000002392, -1.4011371132212018 
3.240000000002413, -1.4007753385948032 
3.250000000002434, -1.4004470539791822 
3.260000000002455, -1.4001813537796128 
3.2700000000024763, -1.3999926777032619 
3.2800000000024974, -1.399874485535627 
3.2900000000025185, -1.3998020801796094 
3.3000000000025396, -1.3997419766622148 
3.3100000000025607, -1.3996613512157663 
3.3200000000025818, -1.3995333568888029 
3.330000000002603, -1.399338248812701 
3.340000000002624, -1.3990625104652454 
3.350000000002645, -1.398698126461952 
3.360000000002666, -1.3982431793512462 
3.3700000000026873, -1.3977040702141197 
3.3800000000027084, -1.3970989154670934 
3.3900000000027295, -1.3964605482420893 
3.4000000000027506, -1.3958358614436754 
3.4100000000027717, -1.3952773586210143 
3.420000000002793, -1.3948261113273035 
3.430000000002814, -1.394494050297974 
3.440000000002835, -1.394259210004928 
3.450000000002856, -1.394078646493894 
3.460000000002877, -1.3939077233693613 
3.4700000000028983, -1.3937117112283626 
3.4800000000029194, -1.3934665142269629 
3.4900000000029405, -1.393153775068239 
3.5000000000029616, -1.3927560147840317 
3.5100000000029827, -1.3922552463197193 
3.520000000003004, -1.3916377696209543 
3.530000000003025, -1.3909078565446302 
3.540000000003046, -1.3901093019144013 
3.550000000003067, -1.389341158664483 
3.5600000000030882, -1.3887390569252642 
3.5700000000031094, -1.3884081108429929 
3.5800000000031305, -1.3883526015821401 
3.5900000000031516, -1.3884752100783428 
3.6000000000031727, -1.3886458585474377 
3.6100000000031938, -1.3887677585199798 
3.620000000003215, -1.3887960638794408 
3.630000000003236, -1.3887231369559487 
3.640000000003257, -1.3885583196782583 
3.650000000003278, -1.3883152575171205 
3.6600000000032993, -1.3880077306441785 
3.6700000000033204, -1.3876516411674387 
3.6800000000033415, -1.3872708753992935 
3.6900000000033626, -1.3869035783796857 
3.7000000000033837, -1.3866020082198003 
3.710000000003405, -1.3864185886176097 
3.720000000003426, -1.3863809810452772 
3.730000000003447, -1.3864742919783566 
3.740000000003468, -1.3866466197791516 
3.750000000003489, -1.386832514284303 
3.7600000000035103, -1.3869756240069486 
3.7700000000035314, -1.3870393459490662 
3.7800000000035525, -1.3870066831937984 
3.7900000000035736, -1.3868751909541488 
3.8000000000035947, -1.3866515522273382 
3.810000000003616, -1.3863478910749438 
3.820000000003637, -1.3859803361911105 
3.830000000003658, -1.3855693833739182 
3.840000000003679, -1.3851407056646619 
3.8500000000037002, -1.384724241065804 
3.8600000000037213, -1.3843495954559686 
3.8700000000037424, -1.3840380770953329 
3.8800000000037635, -1.3837951134694226 
3.8900000000037847, -1.383608064261113 
3.9000000000038058, -1.3834511967158405 
3.910000000003827, -1.3832942761062328 
3.920000000003848, -1.3831092464080048 
3.930000000003869, -1.3828723844927935 
3.94000000000389, -1.3825631918261327 
3.9500000000039113, -1.382162827964216 
3.9600000000039324, -1.381654513439502 
3.9700000000039535, -1.381027543850911 
3.9800000000039746, -1.3802855866358472 
3.9900000000039957, -1.3794577362608984 
4.000000000004016, -1.3786063342501063 
4.010000000003993, -1.37782061120365 
4.02000000000397, -1.3771878946717024 
4.030000000003946, -1.3767528026022995 
4.040000000003923, -1.3764956786817046 
4.0500000000039, -1.3763504370571442 
4.0600000000038765, -1.3762434412943274 
4.070000000003853, -1.3761205691030507 
4.08000000000383, -1.3759516713553095 
4.090000000003807, -1.3757224690989793 
4.100000000003783, -1.375425408196599 
4.11000000000376, -1.3750546447587637 
4.120000000003737, -1.374606629043717 
4.130000000003713, -1.374087342017304 
4.14000000000369, -1.3735263582104864 
4.150000000003667, -1.3729916752164417 
4.1600000000036434, -1.3725871553054272 
4.17000000000362, -1.372412841171389 
4.180000000003597, -1.3725018866837058 
4.1900000000035735, -1.3727905598114936 
4.20000000000355, -1.3731554401020418 
4.210000000003527, -1.3734800915692007 
4.220000000003504, -1.3736949850880205 
4.23000000000348, -1.3737780783551599 
4.240000000003457, -1.3737366245774856 
4.250000000003434, -1.373589656897446 
4.26000000000341, -1.3733581024633337 
4.270000000003387, -1.3730619479477042 
4.280000000003364, -1.3727219862653532 
4.2900000000033405, -1.3723635769142641 
4.300000000003317, -1.3720191476000556 
4.310000000003294, -1.3717253206211693 
4.320000000003271, -1.3715127224410009 
4.330000000003247, -1.3713931515001343 
4.340000000003224, -1.3713535392571852 
4.350000000003201, -1.371361416495782 
4.360000000003177, -1.371377096020159 
4.370000000003154, -1.3713644871165633 
4.380000000003131, -1.3712964972381478 
4.390000000003107, -1.371155773104296 
4.400000000003084, -1.3709333093816043 
4.410000000003061, -1.370626935152982 
4.4200000000030375, -1.3702406517491081 
4.430000000003014, -1.3697850689592879 
4.440000000002991, -1.3692786553233183 
4.450000000002968, -1.3687487772832962 
4.460000000002944, -1.3682305386271612 
4.470000000002921, -1.367761158922911 
4.480000000002898, -1.3673696306374317 
4.490000000002874, -1.3670658726546794 
4.500000000002851, -1.3668366897838231 
4.510000000002828, -1.3666521226048105 
4.520000000002804, -1.3664772936644345 
4.530000000002781, -1.3662813485969727 
4.540000000002758, -1.3660397231262067 
4.5500000000027345, -1.365731727163182 
4.560000000002711, -1.3653372114550302 
4.570000000002688, -1.3648353299294924 
4.580000000002665, -1.364207789624841 
4.590000000002641, -1.3634487158571011 
4.600000000002618, -1.3625811536152463 
4.610000000002595, -1.3616731883403852 
4.620000000002571, -1.3608360616049542 
4.630000000002548, -1.3601869088299696 
4.640000000002525, -1.359788210349143 
4.6500000000025015, -1.3596133469471001 
4.660000000002478, -1.3595719312757928 
4.670000000002455, -1.3595664730043746 
4.6800000000024315, -1.359530186517653 
4.690000000002408, -1.3594314570384702 
4.700000000002385, -1.3592612744235777 
4.710000000002362, -1.3590202633276784 
4.720000000002338, -1.3587115330499349 
4.730000000002315, -1.3583396862445531 
4.740000000002292, -1.3579153872915348 
4.750000000002268, -1.3574647022227706 
4.760000000002245, -1.3570391527677614 
4.770000000002222, -1.3567153843857562 
4.7800000000021985, -1.3565712954998246 
4.790000000002175, -1.356643376291863 
4.800000000002152, -1.3568981804459181 
4.810000000002129, -1.357246654466674 
4.820000000002105, -1.3575883005087097 
4.830000000002082, -1.357848521569303 
4.840000000002059, -1.357990473159114 
4.850000000002035, -1.3580077557371728 
4.860000000002012, -1.3579113677499408 
4.870000000001989, -1.3577192781055376 
4.880000000001965, -1.3574510128113098 
4.890000000001942, -1.3571266062409695 
4.900000000001919, -1.3567682480306436 
4.9100000000018955, -1.3564023705590609 
4.920000000001872, -1.3560592957604753 
4.930000000001849, -1.355768131609389 
4.940000000001826, -1.3555479045440708 
