t, s[1].omega / s[0].omega 
0, -3.4999946333168546 
0.009999999999999995, -3.49931465654198 
0.019999999999999934, -3.498349023358048 
0.029999999999999874, -3.497328793079948 
0.04000000000000012, -3.4968315970820796 
0.050000000000000405, -3.496659627245279 
0.06000000000000069, -3.496330703581014 
0.07000000000000098, -3.495801686562013 
0.08000000000000126, -3.4951588274302976 
0.09000000000000155, -3.4945211491614003 
0.10000000000000184, -3.4939957590507715 
0.11000000000000212, -3.4935509898382895 
0.12000000000000241, -3.4930416961369986 
0.130000000000002, -3.492396597088632 
0.1400000000000009, -3.4917057967668748 
0.1499999999999998, -3.4912399838916564 
0.1599999999999987, -3.490983170995051 
0.1699999999999976, -3.4906614969998797 
0.1799999999999965, -3.4901438142039174 
0.1899999999999954, -3.4893550786489045 
0.1999999999999943, -3.48826378397476 
0.2099999999999932, -3.4873488920794005 
0.2199999999999921, -3.487224988469854 
0.229999999999991, -3.4872367095947254 
0.2399999999999899, -3.486942466991767 
0.2499999999999888, -3.4863830432140888 
0.2599999999999877, -3.48563445353958 
0.2699999999999866, -3.484834281159574 
0.2799999999999855, -3.484250180984634 
0.2899999999999844, -3.483874825001223 
0.2999999999999833, -3.4834448931992745 
0.3099999999999822, -3.4828809323805308 
0.3199999999999811, -3.482259224274678 
0.32999999999998, -3.4817258820664634 
0.3399999999999789, -3.4813037218964182 
0.3499999999999778, -3.4808804897290377 
0.35999999999997667, -3.4803386689320974 
0.36999999999997557, -3.479593174182571 
0.37999999999997447, -3.4786887395675072 
0.38999999999997337, -3.4781158494721067 
0.39999999999997227, -3.478077473002197 
0.40999999999997117, -3.477987019537148 
0.41999999999997006, -3.477608955219238 
0.42999999999996896, -3.4769492978378276 
0.43999999999996786, -3.4760091808340703 
0.44999999999996676, -3.474990809722498 
0.45999999999996566, -3.4744529068088683 
0.46999999999996456, -3.474269131547613 
0.47999999999996346, -3.473952831607985 
0.48999999999996235, -3.473438717160799 
0.49999999999996125, -3.472807975962946 
0.5099999999999602, -3.472176805043172 
0.519999999999959, -3.471649692626196 
0.529999999999958, -3.471206662263306 
0.5399999999999568, -3.4707094030489856 
0.5499999999999557, -3.4700757900959567 
0.5599999999999546, -3.4693709523101304 
0.5699999999999535, -3.468871516803459 
0.5799999999999524, -3.468625333032454 
0.5899999999999513, -3.4683426201990253 
0.5999999999999502, -3.4678688675930394 
0.6099999999999491, -3.4671343969956205 
0.619999999999948, -3.46608350966972 
0.6299999999999469, -3.465054285801333 
0.6399999999999458, -3.464783580708447 
0.6499999999999447, -3.4648225145741898 
0.6599999999999436, -3.464591418217691 
0.6699999999999425, -3.464085703233298 
0.6799999999999414, -3.463385558008663 
0.6899999999999403, -3.4626021776871205 
0.6999999999999392, -3.4619697736427795 
0.7099999999999381, -3.4615657962355995 
0.719999999999937, -3.461154856316766 
0.7299999999999359, -3.460615171706506 
0.7399999999999348, -3.4599934085246473 
0.7499999999999337, -3.4594395255195756 
0.7599999999999326, -3.459018131944491 
0.7699999999999315, -3.458621739444119 
0.7799999999999304, -3.4581255251107015 
0.7899999999999293, -3.4574361056102334 
0.7999999999999282, -3.4565263143415925 
0.8099999999999271, -3.455757076568948 
0.819999999999926, -3.4556200790287006 
0.8299999999999249, -3.455627477014449 
0.8399999999999238, -3.455361715794411 
0.8499999999999227, -3.4548086365356037 
0.8599999999999216, -3.453983703301945 
0.8699999999999205, -3.4529759915866824 
0.8799999999999194, -3.4522360427931438 
0.8899999999999183, -3.451966943737149 
0.8999999999999172, -3.4517007195188 
0.9099999999999161, -3.4512446356452218 
0.919999999999915, -3.4506492580303716 
0.9299999999999139, -3.450022098280513 
0.9399999999999128, -3.4494728203264273 
0.9499999999999117, -3.4490213610281635 
0.9599999999999106, -3.4485574489687907 
0.9699999999999095, -3.447969905842181 
0.9799999999999084, -3.447250361012717 
0.9899999999999073, -3.4466206727916253 
0.9999999999999062, -3.446331678417832 
1.0099999999999052, -3.4461379786893254 
1.019999999999904, -3.4457800688781703 
1.029999999999903, -3.4451820193878335 
1.039999999999902, -3.4442794463180286 
1.0499999999999008, -3.4431398681556415 
1.0599999999998997, -3.4424302662967916 
1.0699999999998986, -3.442397360799428 
1.0799999999998975, -3.4423039502901496 
1.0899999999998964, -3.441921852995015 
1.0999999999998953, -3.441322671733159 
1.1099999999998942, -3.4405944171743466 
1.119999999999893, -3.4398949807555077 
1.129999999999892, -3.4394001547421027 
1.1399999999998909, -3.4390046294805723 
1.1499999999998898, -3.4385191605759937 
1.1599999999998887, -3.4379151021718166 
1.1699999999998876, -3.437306704395874 
1.1799999999998865, -3.436849389475257 
1.1899999999998854, -3.4364904797464226 
1.1999999999998843, -3.4360780804725506 
1.2099999999998832, -3.435505390209991 
1.219999999999882, -3.434690291737283 
1.229999999999881, -3.433701965122046 
1.2399999999998799, -3.43314093281568 
1.2499999999998788, -3.4331801123323964 
1.2599999999998777, -3.433130969132565 
1.2699999999998766, -3.4327712168227826 
1.2799999999998755, -3.4321400491247815 
1.2899999999998744, -3.431272612310645 
1.2999999999998733, -3.4303540077525554 
1.3099999999998722, -3.429804630805794 
1.319999999999871, -3.4295388369374167 
1.32999999999987, -3.4291791112830956 
1.3399999999998689, -3.428656047186773 
1.3499999999998678, -3.428045032400534 
1.3599999999998666, -3.4274658412745778 
1.3699999999998655, -3.4269858330238265 
1.3799999999998644, -3.4265537224946536 
1.3899999999998633, -3.426049021340913 
1.3999999999998622, -3.425388591641416 
1.4099999999998611, -3.424615751728053 
1.41999999999986, -3.4240726917686457 
1.429999999999859, -3.4239151666505 
1.4399999999998578, -3.4237503257366497 
1.4499999999998567, -3.4233625617595167 
1.4599999999998556, -3.4227101992624327 
1.4699999999998545, -3.421747889886773 
1.4799999999998534, -3.4206363658613093 
1.4899999999998523, -3.420060664183295 
1.4999999999998512, -3.4200037632718456 
1.5099999999998501, -3.4198162880939558 
1.519999999999849, -3.41937615923671 
1.529999999999848, -3.418760842117245 
1.5399999999998468, -3.4180700759493803 
1.5499999999998457, -3.4174530540784587 
1.5599999999998446, -3.416999003419734 
1.5699999999998435, -3.4165735082504476 
1.5799999999998424, -3.4160402120728124 
1.5899999999998413, -3.4154001549585367 
1.5999999999998402, -3.4148134549911666 
1.6099999999998391, -3.414433260678244 
1.619999999999838, -3.414125822552125 
1.629999999999837, -3.413716375612806 
1.6399999999998358, -3.41311085219451 
1.6499999999998347, -3.412229036037952 
1.6599999999998336, -3.411170769955741 
1.6699999999998325, -3.4106219304957115 
1.6799999999998314, -3.4106923269883067 
1.6899999999998303, -3.410640264229655 
1.6999999999998292, -3.410273597720992 
1.709999999999828, -3.4096539256334255 
1.719999999999827, -3.408841499134513 
1.729999999999826, -3.408018288467654 
1.7399999999998248, -3.407496742995167 
1.7499999999998237, -3.4071766025459054 
1.7599999999998226, -3.406769712827045 
1.7699999999998215, -3.4062232121639555 
1.7799999999998204, -3.405617985545998 
1.7899999999998193, -3.405083358874312 
1.7999999999998182, -3.4046508512596096 
1.809999999999817, -3.4042320299612947 
1.819999999999816, -3.4037124545649213 
1.8299999999998149, -3.4030103971868444 
1.8399999999998138, -3.402162913965273 
1.8499999999998127, -3.401585055290556 
1.8599999999998116, -3.4015055075703806 
1.8699999999998105, -3.4014266930103503 
1.8799999999998094, -3.4010887925834523 
1.8899999999998083, -3.40047818744545 
1.8999999999998072, -3.3995809472277805 
1.909999999999806, -3.398521644263939 
1.919999999999805, -3.3978563050312474 
1.9299999999998039, -3.397685411419534 
1.9399999999998028, -3.3974597574778542 
1.9499999999998017, -3.3970199720219405 
1.9599999999998006, -3.396428945738905 
1.9699999999997995, -3.3957887299933467 
1.9799999999997984, -3.3952185213691157 
1.9899999999997973, -3.3947669306461803 
1.9999999999997962, -3.3943257219128404 
2.0099999999998173, -3.3937746421521444 
2.0199999999998384, -3.393099648598654 
2.0299999999998595, -3.3924771010597055 
2.0399999999998806, -3.392137856260996 
2.0499999999999017, -3.3919166213196545 
2.059999999999923, -3.3915722146465037 
2.069999999999944, -3.3910134240937553 
2.079999999999965, -3.3901693916150983 
2.089999999999986, -3.3890559753748297 
2.100000000000007, -3.3882462486474223 
2.1100000000000283, -3.3881867544998565 
2.1200000000000494, -3.388180322503139 
2.1300000000000705, -3.38787824934289 
2.1400000000000916, -3.3873321249960364 
2.1500000000001127, -3.386620032398139 
2.160000000000134, -3.3858713125743636 
2.170000000000155, -3.3853065645463416 
2.180000000000176, -3.3849254876353476 
2.190000000000197, -3.384504273485392 
2.2000000000002182, -3.3839565797346323 
2.2100000000002393, -3.3833430898054764 
2.2200000000002604, -3.382820014329494 
2.2300000000002815, -3.382433534178707 
2.2400000000003026, -3.3820604472106455 
2.2500000000003237, -3.3815784928541377 
2.260000000000345, -3.3808983380728157 
2.270000000000366, -3.379979908244203 
2.280000000000387, -3.379143440744817 
2.290000000000408, -3.3789631294504274 
2.3000000000004293, -3.3790304483005307 
2.3100000000004504, -3.378841470563375 
2.3200000000004715, -3.378362146058688 
2.3300000000004926, -3.3776274085806257 
2.3400000000005137, -3.3766958998877916 
2.3500000000005348, -3.3758831856895606 
2.360000000000556, -3.3755057508455395 
2.370000000000577, -3.375248488175302 
2.380000000000598, -3.374840749020295 
2.390000000000619, -3.37428733327815 
2.4000000000006403, -3.3736824150058786 
2.4100000000006614, -3.373139349947342 
2.4200000000006825, -3.372692436388699 
2.4300000000007036, -3.372262598018371 
2.4400000000007247, -3.3717336819746975 
2.450000000000746, -3.371042551675046 
2.460000000000767, -3.3702848382671347 
2.470000000000788, -3.36983771910097 
2.480000000000809, -3.3697285933715135 
2.49000000000083, -3.369551249705855 
2.5000000000008513, -3.369140890071759 
2.5100000000008724, -3.3684644130589794 
2.5200000000008935, -3.367484065244502 
2.5300000000009146, -3.3664019718357414 
2.5400000000009357, -3.365881004857249 
2.550000000000957, -3.365821744232174 
2.560000000000978, -3.3656221968616564 
2.570000000000999, -3.36518262354888 
2.58000000000102, -3.3645789420863794 
2.5900000000010412, -3.363910016820495 
2.6000000000010624, -3.3633134481991123 
2.6100000000010835, -3.362865749149227 
2.6200000000011046, -3.3624449758292103 
2.6300000000011257, -3.361919988175269 
2.6400000000011468, -3.361282108837064 
2.650000000001168, -3.360684079379424 
2.660000000001189, -3.3603104621627096 
2.67000000000121, -3.360040109162764 
2.680000000001231, -3.3596754359410292 
2.6900000000012523, -3.359119976643825 
2.7000000000012734, -3.358295377600738 
2.7100000000012945, -3.3572179178324406 
2.7200000000013156, -3.3564505098187416 
2.7300000000013367, -3.3564281682442085 
2.740000000001358, -3.356460115709852 
2.750000000001379, -3.3561876582518124 
2.7600000000014, -3.355655080317491 
2.770000000001421, -3.354929601459946 
2.780000000001442, -3.3541294956788215 
2.7900000000014633, -3.3535161523396058 
2.8000000000014844, -3.3531506807536395 
2.8100000000015055, -3.3527760031599128 
2.8200000000015266, -3.3522706111712983 
2.8300000000015477, -3.3516747419322988 
2.840000000001569, -3.351120723205748 
2.85000000000159, -3.3506910082322108 
2.860000000001611, -3.3503106823626387 
2.870000000001632, -3.3498607651539203 
2.8800000000016532, -3.349246205553728 
2.8900000000016743, -3.348412550640217 
2.9000000000016954, -3.3475598715118293 
2.9100000000017165, -3.3472467309378873 
2.9200000000017377, -3.347299495049774 
2.9300000000017588, -3.347170209675391 
2.94000000000178, -3.346754068366206 
2.950000000001801, -3.3460729996289467 
2.960000000001822, -3.3451481744590432 
2.970000000001843, -3.344216677325586 
2.9800000000018643, -3.343735290239489 
2.9900000000018854, -3.343530106238248 
3.0000000000019065, -3.343205476315819 
3.0100000000019276, -3.3427071899591922 
3.0200000000019487, -3.3421093558980637 
3.03000000000197, -3.3415237333142604 
3.040000000001991, -3.341033182903967 
3.050000000002012, -3.3406128169382163 
3.060000000002033, -3.3401455949977454 
3.070000000002054, -3.3395407624320925 
3.0800000000020753, -3.3388086178669467 
3.0900000000020964, -3.3382074891381976 
3.1000000000021175, -3.3379831049112534 
3.1100000000021386, -3.3378487003879167 
3.1200000000021597, -3.337536360277622 
3.130000000002181, -3.3369823450702505 
3.140000000002202, -3.3361388804168577 
3.150000000002223, -3.335034069354181 
3.160000000002244, -3.3341857738652494 
3.1700000000022652, -3.3340284602563677 
3.1800000000022863, -3.3339681884238486 
3.1900000000023074, -3.333657869063361 
3.2000000000023285, -3.3331344910187193 
3.2100000000023496, -3.332482728707197 
3.2200000000023707, -3.331818972610555 
3.230000000002392, -3.331288427187966 
3.240000000002413, -3.330883454006181 
3.250000000002434, -3.3304399785433114 
3.260000000002455, -3.3298746049679346 
3.2700000000024763, -3.329237215737188 
3.2800000000024974, -3.328722919439012 
3.2900000000025185, -3.3284096571575397 
3.3000000000025396, -3.3281154838289133 
3.3100000000025607, -3.327690892398344 
3.3200000000025818, -3.3270545416017137 
3.330000000002603, -3.326133278931752 
3.340000000002624, -3.325080081219338 
3.350000000002645, -3.324599143760704 
3.360000000002666, -3.3246913881250357 
3.3700000000026873, -3.3246416435682313 
3.3800000000027084, -3.3242876897930054 
3.3900000000027295, -3.3236954370095275 
3.4000000000027506, -3.322930265063834 
3.4100000000027717, -3.322150109817721 
3.420000000002793, -3.321619379257695 
3.430000000002814, -3.321284806650631 
3.440000000002835, -3.320889999028565 
3.450000000002856, -3.3203632675663974 
3.460000000002877, -3.3197693156072448 
3.4700000000028983, -3.3192445589983395 
3.4800000000029194, -3.31883816058109 
3.4900000000029405, -3.3184583738356856 
3.5000000000029616, -3.317990677658237 
3.5100000000029827, -3.3173461355393514 
3.520000000003004, -3.316487832056346 
3.530000000003025, -3.3156856331835463 
3.540000000003046, -3.3154655988860418 
3.550000000003067, -3.3155245878908333 
3.5600000000030882, -3.3153680757488955 
3.5700000000031094, -3.314929108040306 
3.5800000000031305, -3.314230018775824 
3.5900000000031516, -3.3132999375701693 
3.6000000000031727, -3.3124004933890667 
3.6100000000031938, -3.3119553135244595 
3.620000000003215, -3.3117485156764923 
3.630000000003236, -3.311415242338468 
3.640000000003257, -3.310914580588629 
3.650000000003278, -3.3103217209392843 
3.6600000000032993, -3.30974808137141 
3.6700000000033204, -3.309270056879374 
3.6800000000033415, -3.3088566421254955 
3.6900000000033626, -3.3083932234817994 
3.7000000000033837, -3.3077906531914527 
3.710000000003405, -3.307053992164728 
3.720000000003426, -3.306437534216434 
3.730000000003447, -3.3062158406526847 
3.740000000003468, -3.3061102167261494 
3.750000000003489, -3.3058292774229594 
3.7600000000035103, -3.3053069500700225 
3.7700000000035314, -3.304503770710763 
3.7800000000035525, -3.3034276666316074 
3.7900000000035736, -3.302510942951801 
3.8000000000035947, -3.30226840911675 
3.810000000003616, -3.3022141630014703 
3.820000000003637, -3.301936529139186 
3.830000000003658, -3.301444343287868 
3.840000000003679, -3.300819635201144 
3.8500000000037002, -3.3001693889221224 
3.8600000000037213, -3.299626937108711 
3.8700000000037424, -3.299213481715222 
3.8800000000037635, -3.298784601947414 
3.8900000000037847, -3.2982391529918935 
3.9000000000038058, -3.297596799788333 
3.910000000003827, -3.2970401416721757 
3.920000000003848, -3.2967188475951397 
3.930000000003869, -3.2964682735696584 
3.94000000000389, -3.296103223820687 
3.9500000000039113, -3.295538656427566 
3.9600000000039324, -3.294699845137084 
3.9700000000039535, -3.2936151317583446 
3.9800000000039746, -3.292851175739437 
3.9900000000039957, -3.292824964176792 
4.000000000004016, -3.2928652437115034 
4.010000000003993, -3.2926121945547138 
4.02000000000397, -3.292106670994926 
4.030000000003946, -3.2914195219511173 
4.040000000003923, -3.2906574084460067 
4.0500000000039, -3.290041907095339 
4.0600000000038765, -3.28965724868009 
4.070000000003853, -3.2892890220985307 
4.08000000000383, -3.288801963728406 
4.090000000003807, -3.288215621733579 
4.100000000003783, -3.2876569551437727 
4.11000000000376, -3.287237512045876 
4.120000000003737, -3.286890243362136 
4.130000000003713, -3.286486910799096 
4.14000000000369, -3.2859307045520025 
4.150000000003667, -3.285146409708072 
4.1600000000036434, -3.284196496315045 
4.17000000000362, -3.283615825432507 
4.180000000003597, -3.2836471455477776 
4.1900000000035735, -3.2836690898544476 
4.20000000000355, -3.283399093436632 
4.210000000003527, -3.2828618032767727 
4.220000000003504, -3.282090346576129 
4.23000000000348, -3.2811819066657244 
4.240000000003457, -3.2804806518463834 
4.250000000003434, -3.280160532409012 
4.26000000000341, -3.2798852297683374 
4.270000000003387, -3.2794612415481446 
4.280000000003364, -3.2789097673234275 
4.2900000000033405, -3.2783285729476574 
4.300000000003317, -3.277824472111565 
4.310000000003294, -3.2774097782408553 
4.320000000003271, -3.276998288521123 
4.330000000003247, -3.2764824303763853 
4.340000000003224, -3.2757952254809224 
4.350000000003201, -3.275001938563136 
4.360000000003177, -3.2744916302082805 
4.370000000003154, -3.2744195454450384 
4.380000000003131, -3.2743458042560993 
4.390000000003107, -3.2740360974279 
4.400000000003084, -3.273468538414275 
4.410000000003061, -3.2726239675177005 
4.4200000000030375, -3.2715741733664707 
4.430000000003014, -3.270795501526332 
4.440000000002991, -3.2705810859067723 
4.450000000002968, -3.2704344000588668 
4.460000000002944, -3.270084469206116 
4.470000000002921, -3.2695611067181347 
4.480000000002898, -3.2689503027073585 
4.490000000002874, -3.2683620406385074 
4.500000000002851, -3.2678834443212694 
4.510000000002828, -3.267477408683765 
4.520000000002804, -3.267015020488702 
4.530000000002781, -3.26642127923503 
4.540000000002758, -3.2657384050252114 
4.5500000000027345, -3.265213399372596 
4.560000000002711, -3.264987181083253 
4.570000000002688, -3.2648032203327544 
4.580000000002665, -3.2644592685131784 
4.590000000002641, -3.263889811422685 
4.600000000002618, -3.2630342089407707 
4.610000000002595, -3.261928333410173 
4.620000000002571, -3.261117358692735 
4.630000000002548, -3.261018296389009 
4.640000000002525, -3.2610134721227473 
4.6500000000025015, -3.260746458572175 
4.660000000002478, -3.2602522395179947 
4.670000000002455, -3.2596100097460776 
4.6800000000024315, -3.2589258555102303 
4.690000000002408, -3.258361269347499 
4.700000000002385, -3.257960274622689 
4.710000000002362, -3.257560267442705 
4.720000000002338, -3.257048327466689 
4.730000000002315, -3.256438896602746 
4.740000000002292, -3.255881369331868 
4.750000000002268, -3.255516425985365 
4.760000000002245, -3.2552351310129937 
4.770000000002222, -3.254873006912483 
4.7800000000021985, -3.254337355378309 
4.790000000002175, -3.2535510040756526 
4.800000000002152, -3.2525172174191943 
4.810000000002129, -3.25172068087046 
4.820000000002105, -3.2516611330904 
4.830000000002082, -3.2517525107471217 
4.840000000002059, -3.2515611754016924 
4.850000000002035, -3.251099968478343 
4.860000000002012, -3.2504324626516157 
4.870000000001989, -3.2496413353446725 
4.880000000001965, -3.2489463845572835 
4.890000000001942, -3.248531518155114 
4.900000000001919, -3.2482083885366073 
4.9100000000018955, -3.247780319014403 
4.920000000001872, -3.2472321350515942 
4.930000000001849, -3.246655644100424 
4.940000000001826, -3.246181143913411 
4.950000000001802, -3.2458113267232256 
4.960000000001779, -3.2454378570470475 
4.970000000001756, -3.2449544619233586 
