t, s[1].omega / s[0].omega 
0, -0.24999780586204032 
0.009999999999999995, -0.2497987298923361 
0.019999999999999934, -0.24963580336135993 
0.029999999999999874, -0.24949790914913983 
0.04000000000000012, -0.24936999014069827 
0.050000000000000405, -0.24923669597012216 
0.06000000000000069, -0.24908520417646302 
0.07000000000000098, -0.24890635451124465 
0.08000000000000126, -0.24869413859144576 
0.09000000000000155, -0.24844418295990361 
0.10000000000000184, -0.2481518978379409 
0.11000000000000212, -0.24781066968496704 
0.12000000000000241, -0.24741020482124626 
0.130000000000002, -0.24693509783831727 
0.1400000000000009, -0.24636399781487 
0.1499999999999998, -0.24567040576848717 
0.1599999999999987, -0.24482692538083278 
0.1699999999999976, -0.24381471517836495 
0.1799999999999965, -0.24263716024191034 
0.1899999999999954, -0.24133107597999442 
0.1999999999999943, -0.23996521062630155 
0.2099999999999932, -0.23862219454122174 
0.2199999999999921, -0.23737356370134047 
0.229999999999991, -0.23626296811809322 
0.2399999999999899, -0.23530412444322982 
0.2499999999999888, -0.23448898752636219 
0.2599999999999877, -0.2337983676236862 
0.2699999999999866, -0.23321022643241954 
0.2799999999999855, -0.23270454178672942 
0.2899999999999844, -0.23226548648722672 
0.2999999999999833, -0.23188204023817632 
0.3099999999999822, -0.231547905827868 
0.3199999999999811, -0.23126123342534233 
0.32999999999998, -0.23102432495836656 
0.3399999999999789, -0.23084317002097587 
0.3499999999999778, -0.23072625559914947 
0.35999999999997667, -0.23068150133085547 
0.36999999999997557, -0.23070952807452208 
0.37999999999997447, -0.23079167361852745 
0.38999999999997337, -0.2308746172506171 
0.39999999999997227, -0.23086268152037492 
0.40999999999997117, -0.23063839211328224 
0.41999999999997006, -0.2301199398605342 
0.42999999999996896, -0.2293199619614817 
0.43999999999996786, -0.22834663123021093 
0.44999999999996676, -0.2273419986852386 
0.45999999999996566, -0.22641666481624453 
0.46999999999996456, -0.2256256602700152 
0.47999999999996346, -0.22497940256565552 
0.48999999999996235, -0.22446467420499278 
0.49999999999996125, -0.22406081315003315 
0.5099999999999602, -0.22374848596990585 
0.519999999999959, -0.2235133045905648 
0.529999999999958, -0.22334686378975627 
0.5399999999999568, -0.2232468458307865 
0.5499999999999557, -0.2232170042325595 
0.5599999999999546, -0.22326730686513616 
0.5699999999999535, -0.2234141559579351 
0.5799999999999524, -0.22368023905859696 
0.5899999999999513, -0.22409307856909763 
0.5999999999999502, -0.22468076116619 
0.6099999999999491, -0.22546306738245617 
0.619999999999948, -0.22643748270742953 
0.6299999999999469, -0.22756397367050174 
0.6399999999999458, -0.22875910477321523 
0.6499999999999447, -0.22991143845739942 
0.6599999999999436, -0.23091684052234399 
0.6699999999999425, -0.23171239305977429 
0.6799999999999414, -0.2322865304295439 
0.6899999999999403, -0.23266479131927756 
0.6999999999999392, -0.23288779050914302 
0.7099999999999381, -0.23299523308230025 
0.719999999999937, -0.2330189759680749 
0.7299999999999359, -0.23298209127435188 
0.7399999999999348, -0.23290046386350113 
0.7499999999999337, -0.23278496192552162 
0.7599999999999326, -0.23264347453944906 
0.7699999999999315, -0.23248271113313296 
0.7799999999999304, -0.23230979482711964 
0.7899999999999293, -0.23213355998580504 
0.7999999999999282, -0.23196524062517304 
0.8099999999999271, -0.23181809332173858 
0.819999999999926, -0.23170563092626403 
0.8299999999999249, -0.23163861214385753 
0.8399999999999238, -0.2316215619945076 
0.8499999999999227, -0.2316500957723835 
0.8599999999999216, -0.23171041328069655 
0.8699999999999205, -0.23178174218656541 
0.8799999999999194, -0.2318411560320956 
0.8899999999999183, -0.23186875911729915 
0.8999999999999172, -0.23185096630651172 
0.9099999999999161, -0.2317808797565807 
0.919999999999915, -0.23165642052601837 
0.9299999999999139, -0.23147760665506872 
0.9399999999999128, -0.23124406137430867 
0.9499999999999117, -0.23095319681583865 
0.9599999999999106, -0.23059913232000556 
0.9699999999999095, -0.23017241217690199 
0.9799999999999084, -0.22966086872969846 
0.9899999999999073, -0.2290522839773263 
0.9999999999999062, -0.2283393756862885 
1.0099999999999052, -0.2275264547948781 
1.019999999999904, -0.22663486409164016 
1.029999999999903, -0.2257028371803072 
1.039999999999902, -0.2247775613408974 
1.0499999999999008, -0.22390265982588847 
1.0599999999998997, -0.223107837599574 
1.0699999999998986, -0.22240526506248717 
1.0799999999998975, -0.22179225876978365 
1.0899999999998964, -0.22125690050140082 
1.0999999999998953, -0.22078351729711673 
1.1099999999998942, -0.22035653117640477 
1.119999999999893, -0.21996247609443115 
1.129999999999892, -0.2195905909448061 
1.1399999999998909, -0.21923251932755328 
1.1499999999998898, -0.21888151218501295 
1.1599999999998887, -0.218531290243306 
1.1699999999998876, -0.218174457104268 
1.1799999999998865, -0.21780009741741574 
1.1899999999998854, -0.2173900328776234 
1.1999999999998843, -0.2169134702158615 
1.2099999999998832, -0.21632128372124093 
1.219999999999882, -0.2155449686901847 
1.229999999999881, -0.2145101396560331 
1.2399999999998799, -0.21317203453972064 
1.2499999999998788, -0.21155969803939176 
1.2599999999998777, -0.2097897759289306 
1.2699999999998766, -0.20802493510245812 
1.2799999999998755, -0.2064065630265187 
1.2899999999998744, -0.20501364179204726 
1.2999999999998733, -0.20386380333933002 
1.3099999999998722, -0.20293654568622926 
1.319999999999871, -0.20219645028679029 
1.32999999999987, -0.20160776403483754 
1.3399999999998689, -0.20114109707349898 
1.3499999999998678, -0.20077549871380995 
1.3599999999998666, -0.20049854431895056 
1.3699999999998655, -0.200305933874315 
1.3799999999998644, -0.20020128807238638 
1.3899999999998633, -0.20019633116011018 
1.3999999999998622, -0.2003112623873971 
1.4099999999998611, -0.20057459943377837 
1.41999999999986, -0.20102090550294696 
1.429999999999859, -0.2016835829861273 
1.4399999999998578, -0.20257923849112108 
1.4499999999998567, -0.20368298833057819 
1.4599999999998556, -0.20490476037993136 
1.4699999999998545, -0.20609176011393776 
1.4799999999998534, -0.20707819680591338 
1.4899999999998523, -0.2077598510694917 
1.4999999999998512, -0.20813230957517864 
1.5099999999998501, -0.20826492272712488 
1.519999999999849, -0.20824694500406057 
1.529999999999848, -0.2081508411391273 
1.5399999999998468, -0.20802276817006118 
1.5499999999998457, -0.20788791900408815 
1.5599999999998446, -0.20775887649396224 
1.5699999999998435, -0.20764208140003496 
1.5799999999998424, -0.2075418379657541 
1.5899999999998413, -0.20746262579606412 
1.5999999999998402, -0.20741050733210714 
1.6099999999998391, -0.2073941088871783 
1.619999999999838, -0.20742532777029016 
1.629999999999837, -0.20751961429309723 
1.6399999999998358, -0.2076953786872484 
1.6499999999998347, -0.20797181534109307 
1.6599999999998336, -0.20836439125403916 
1.6699999999998325, -0.2088778085861423 
1.6799999999998314, -0.20949794582549922 
1.6899999999998303, -0.21018693816077158 
1.6999999999998292, -0.2108868831866891 
1.709999999999828, -0.21153399437182346 
1.719999999999827, -0.21207695755710038 
1.729999999999826, -0.21248883089839055 
1.7399999999998248, -0.21276704574288932 
1.7499999999998237, -0.21292503657677958 
1.7599999999998226, -0.21298249305337205 
1.7699999999998215, -0.2129585697423772 
1.7799999999998204, -0.2128686961074308 
1.7899999999998193, -0.21272388416142257 
1.7999999999998182, -0.21253136561741198 
1.809999999999817, -0.21229589102203605 
1.819999999999816, -0.21202143481177765 
1.8299999999998149, -0.2117131637143675 
1.8399999999998138, -0.2113793334002442 
1.8499999999998127, -0.2110324307652942 
1.8599999999998116, -0.2106887349123508 
1.8699999999998105, -0.2103659107303486 
1.8799999999998094, -0.21007921349483313 
1.8899999999998083, -0.2098377114540868 
1.8999999999998072, -0.20964199756456306 
1.909999999999806, -0.2094842123163508 
1.919999999999805, -0.20935030465190482 
1.9299999999998039, -0.20922364277115507 
1.9399999999998028, -0.20908859004579247 
1.9499999999998017, -0.20893278826455114 
1.9599999999998006, -0.2087476383097273 
1.9699999999997995, -0.20852731081625256 
1.9799999999997984, -0.20826700965542955 
1.9899999999997973, -0.20796109500149326 
1.9999999999997962, -0.20760137433695905 
2.0099999999998173, -0.20717570940263558 
2.0199999999998384, -0.2066672225420597 
2.0299999999998595, -0.20605484075432265 
2.0399999999998806, -0.2053165053505257 
2.0499999999999017, -0.20443639902422467 
2.059999999999923, -0.20341569899841372 
2.069999999999944, -0.20228217346652907 
2.079999999999965, -0.20109066162959527 
2.089999999999986, -0.1999101464546053 
2.100000000000007, -0.1988033923629146 
2.1100000000000283, -0.1978112498712413 
2.1200000000000494, -0.19694868795277662 
2.1300000000000705, -0.1962103724576126 
2.1400000000000916, -0.1955795506063769 
2.1500000000001127, -0.19503565358154568 
2.160000000000134, -0.19455906902325928 
2.170000000000155, -0.1941333847674173 
2.180000000000176, -0.19374596199198485 
2.190000000000197, -0.19338760089296017 
2.2000000000002182, -0.1930517650901688 
2.2100000000002393, -0.19273350902261638 
2.2200000000002604, -0.19242793321800342 
2.2300000000002815, -0.19212765405852694 
2.2400000000003026, -0.19181846515298637 
2.2500000000003237, -0.19147245437540236 
2.260000000000345, -0.19103942370490423 
2.270000000000366, -0.190442250606741 
2.280000000000387, -0.18958901901464367 
2.290000000000408, -0.18841374611785955 
2.3000000000004293, -0.18693174626957215 
2.3100000000004504, -0.1852605500672573 
2.3200000000004715, -0.18357340303749775 
2.3300000000004926, -0.18202170453888664 
2.3400000000005137, -0.18068906462843265 
2.3500000000005348, -0.17959381261699042 
2.360000000000556, -0.17871503684976994 
2.370000000000577, -0.17801730091105952 
2.380000000000598, -0.1774654952325056 
2.390000000000619, -0.17703133468807417 
2.4000000000006403, -0.17669521435019053 
2.4100000000006614, -0.17644618963839304 
2.4200000000006825, -0.17628157636673544 
2.4300000000007036, -0.17620681339921326 
2.4400000000007247, -0.1762357177393905 
2.450000000000746, -0.17639083208304018 
2.460000000000767, -0.17670294453500046 
2.470000000000788, -0.17720781847426487 
2.480000000000809, -0.17793682088690507 
2.49000000000083, -0.1788978791466728 
2.5000000000008513, -0.1800479709317515 
2.5100000000008724, -0.18127230439914377 
2.5200000000008935, -0.18239993027261314 
2.5300000000009146, -0.1832698838895383 
2.5400000000009357, -0.18380679294873228 
2.550000000000957, -0.18404017557286034 
2.560000000000978, -0.18405976470582497 
2.570000000000999, -0.18395887179804152 
2.58000000000102, -0.18380513574626017 
2.5900000000010412, -0.1836380665488186 
2.6000000000010624, -0.18347759237288935 
2.6100000000010835, -0.1833330170962895 
2.6200000000011046, -0.1832091693859361 
2.6300000000011257, -0.18311000196101512 
2.6400000000011468, -0.18304064804217152 
2.650000000001168, -0.1830087247102012 
2.660000000001189, -0.18302529311264581 
2.67000000000121, -0.18310553394714205 
2.680000000001231, -0.18326885440869053 
2.6900000000012523, -0.1835377734998852 
2.7000000000012734, -0.18393459256051187 
2.7100000000012945, -0.1844748482679906 
2.7200000000013156, -0.18515757931952448 
2.7300000000013367, -0.18595531277676555 
2.740000000001358, -0.18681053620445037 
2.750000000001379, -0.18764571010820874 
2.7600000000014, -0.18838577919111904 
2.770000000001421, -0.18898064752931906 
2.780000000001442, -0.1894139673680946 
2.7900000000014633, -0.1896964273107567 
2.8000000000014844, -0.18985236150165302 
2.8100000000015055, -0.18990848399782415 
2.8200000000015266, -0.18988784725700963 
2.8300000000015477, -0.18980802005639036 
2.840000000001569, -0.18968154155438083 
2.85000000000159, -0.18951730031955727 
2.860000000001611, -0.18932221907397176 
2.870000000001632, -0.18910302459073844 
2.8800000000016532, -0.18886793210121733 
2.8900000000016743, -0.1886278956989884 
2.9000000000016954, -0.18839687892896836 
2.9100000000017165, -0.1881906544768935 
2.9200000000017377, -0.18802409749257526 
2.9300000000017588, -0.18790761226809455 
2.94000000000178, -0.18784383937414778 
2.950000000001801, -0.18782590475057798 
2.960000000001822, -0.18783816477090726 
2.970000000001843, -0.1878595829221714 
2.9800000000018643, -0.18786862595936235 
2.9900000000018854, -0.18784764685956234 
3.0000000000019065, -0.18778503999432458 
3.0100000000019276, -0.18767483695124848 
3.0200000000019487, -0.18751466173955442 
3.03000000000197, -0.18730326543191805 
3.040000000001991, -0.1870384421074458 
3.050000000002012, -0.18671563548664796 
3.060000000002033, -0.18632735560445993 
3.070000000002054, -0.18586365359468937 
3.0800000000020753, -0.18531415095088932 
3.0900000000020964, -0.18467209854577687 
3.1000000000021175, -0.18394010510950648 
3.1100000000021386, -0.1831353505866728 
3.1200000000021597, -0.18229053050086938 
3.130000000002181, -0.18144794850032095 
3.140000000002202, -0.1806486180458298 
3.150000000002223, -0.17992206992192658 
3.160000000002244, -0.1792816780276149 
3.1700000000022652, -0.17872604662964123 
3.1800000000022863, -0.17824381873841155 
3.1900000000023074, -0.17781896439133255 
3.2000000000023285, -0.17743484069380938 
3.2100000000023496, -0.17707652113532482 
3.2200000000023707, -0.17673157665970665 
3.230000000002392, -0.17638974499464538 
3.240000000002413, -0.1760419026839892 
3.250000000002434, -0.17567857648260743 
3.260000000002455, -0.17528800642158024 
3.2700000000024763, -0.17485361058516757 
3.2800000000024974, -0.17435076202020108 
3.2900000000025185, -0.17374340019533327 
3.3000000000025396, -0.17298267174500842 
3.3100000000025607, -0.17201252756018318 
3.3200000000025818, -0.17078836687386728 
3.330000000002603, -0.16930785810260654 
3.340000000002624, -0.1676358017099423 
3.350000000002645, -0.1658958846992297 
3.360000000002666, -0.16422583304614766 
3.3700000000026873, -0.16272832676547871 
3.3800000000027084, -0.16145020613553845 
3.3900000000027295, -0.160391478813042 
3.4000000000027506, -0.1595259860435296 
3.4100000000027717, -0.15881909186208232 
3.420000000002793, -0.1582380236437898 
3.430000000002814, -0.1577562922134396 
3.440000000002835, -0.15735478479943063 
3.450000000002856, -0.15702144870713733 
3.460000000002877, -0.15675060716639247 
3.4700000000028983, -0.156542309783753 
3.4800000000029194, -0.15640165676625023 
3.4900000000029405, -0.15633755684009457 
3.5000000000029616, -0.1563596923563673 
3.5100000000029827, -0.1564715647162163 
3.520000000003004, -0.15665715156337892 
3.530000000003025, -0.15686161509334423 
3.540000000003046, -0.15697690999338593 
3.550000000003067, -0.15685811586795165 
3.5600000000030882, -0.15638973136484474 
3.5700000000031094, -0.15556658850167362 
3.5800000000031305, -0.15450854643647235 
3.5900000000031516, -0.15338775434211993 
3.6000000000031727, -0.1523425737570405 
3.6100000000031938, -0.15144341271069434 
3.620000000003215, -0.15070542902332568 
3.630000000003236, -0.15011472788665167 
3.640000000003257, -0.14964836275870008 
3.650000000003278, -0.14928493811829419 
3.6600000000032993, -0.14900889511336513 
3.6700000000033204, -0.1488117704577271 
3.6800000000033415, -0.14869244916571706 
3.6900000000033626, -0.14865737918013258 
3.7000000000033837, -0.14872106636178256 
3.710000000003405, -0.14890669326294245 
3.720000000003426, -0.14924612005722315 
3.730000000003447, -0.14977757793655017 
3.740000000003468, -0.150538056038545 
3.750000000003489, -0.15154673051575934 
3.7600000000035103, -0.15277904598891948 
3.7700000000035314, -0.15414255122685236 
3.7800000000035525, -0.15548066524211626 
3.7900000000035736, -0.15662400406140514 
3.8000000000035947, -0.1574638301571678 
3.810000000003616, -0.15798796631672596 
3.820000000003637, -0.1582560796428904 
3.830000000003658, -0.15835017046901714 
3.840000000003679, -0.15834048063961081 
3.8500000000037002, -0.15827529721691144 
3.8600000000037213, -0.15818420200846867 
3.8700000000037424, -0.15808469599967384 
3.8800000000037635, -0.1579878095217388 
3.8900000000037847, -0.15790192360355626 
3.9000000000038058, -0.15783525650969193 
3.910000000003827, -0.1577975751915402 
3.920000000003848, -0.15780145734413914 
3.930000000003869, -0.15786312513179884 
3.94000000000389, -0.15800254411923081 
3.9500000000039113, -0.1582421401462845 
3.9600000000039324, -0.15860322010756983 
3.9700000000039535, -0.1590993081329408 
3.9800000000039746, -0.1597268104931637 
3.9900000000039957, -0.16045630176791892 
4.000000000004016, -0.16123101230462208 
4.010000000003993, -0.16197822077791976 
4.02000000000397, -0.16263078384658133 
4.030000000003946, -0.1631464048794305 
4.040000000003923, -0.16351344571469711 
4.0500000000039, -0.16374349537937172 
4.0600000000038765, -0.1638591809384638 
4.070000000003853, -0.16388452241321683 
4.08000000000383, -0.16383999103138502 
4.090000000003807, -0.16374117575462482 
4.100000000003783, -0.16359937443419392 
4.11000000000376, -0.16342299282665843 
4.120000000003737, -0.16321923705122943 
4.130000000003713, -0.16299586689378923 
4.14000000000369, -0.16276274994461398 
4.150000000003667, -0.16253276849449805 
4.1600000000036434, -0.16232152398157673 
4.17000000000362, -0.1621454961468032 
4.180000000003597, -0.1620188626452946 
4.1900000000035735, -0.16194978990469622 
4.20000000000355, -0.16193737378823267 
4.210000000003527, -0.1619704713610604 
4.220000000003504, -0.1620293343440286 
4.23000000000348, -0.16208995972677606 
4.240000000003457, -0.16212960522983397 
4.250000000003434, -0.16213110096492914 
4.26000000000341, -0.1620843583038188 
4.270000000003387, -0.16198519953000196 
4.280000000003364, -0.1618328123009644 
4.2900000000033405, -0.16162715500463992 
4.300000000003317, -0.16136703996108442 
4.310000000003294, -0.16104911761388443 
4.320000000003271, -0.16066784881517718 
4.330000000003247, -0.16021667326133843 
4.340000000003224, -0.1596906623673667 
4.350000000003201, -0.15909058626184253 
4.360000000003177, -0.1584272547828054 
4.370000000003154, -0.157723672689287 
4.380000000003131, -0.15701250663384786 
4.390000000003107, -0.15632878324272365 
4.400000000003084, -0.15570111546908572 
4.410000000003061, -0.15514574847079693 
4.4200000000030375, -0.15466542795875254 
4.430000000003014, -0.15425213123003384 
4.440000000002991, -0.1538914491616371 
4.450000000002968, -0.15356677467622967 
4.460000000002944, -0.1532622932042665 
4.470000000002921, -0.15296446402606262 
4.480000000002898, -0.15266214463346953 
4.490000000002874, -0.1523457427087564 
4.500000000002851, -0.1520057805094859 
4.510000000002828, -0.1516311073382978 
4.520000000002804, -0.15120685344833945 
4.530000000002781, -0.15071226351857064 
4.540000000002758, -0.15011899042253263 
4.5500000000027345, -0.149391464429268 
4.560000000002711, -0.1484923259569256 
4.570000000002688, -0.14739590876902087 
4.580000000002665, -0.1461080535720424 
4.590000000002641, -0.14468082054477563 
4.600000000002618, -0.1432062315674198 
4.610000000002595, -0.1417867489665729 
4.620000000002571, -0.14050149590118127 
4.630000000002548, -0.13938954497843428 
4.640000000002525, -0.13845382983108134 
4.6500000000025015, -0.13767508214183188 
4.660000000002478, -0.13702526435633183 
4.670000000002455, -0.13647624583930304 
4.6800000000024315, -0.13600394751150077 
4.690000000002408, -0.13558956220575433 
4.700000000002385, -0.1352192640324466 
4.710000000002362, -0.13488325172132323 
4.720000000002338, -0.13457445851715238 
4.730000000002315, -0.13428684217862039 
4.740000000002292, -0.1340127729882 
4.750000000002268, -0.1337386504439185 
4.760000000002245, -0.1334377787616894 
4.770000000002222, -0.13306075061382794 
4.7800000000021985, -0.13252813600240848 
4.790000000002175, -0.13173861547293045 
4.800000000002152, -0.1306084656198579 
4.810000000002129, -0.12913456963610664 
4.820000000002105, -0.12742898135936084 
