t, s[1].omega / s[0].omega 
0, -0.32999779321426115 
0.009999999999999995, -0.3297911440694449 
0.019999999999999934, -0.32960880083105465 
0.029999999999999874, -0.3294414917606779 
0.04000000000000012, -0.3292769136244002 
0.050000000000000405, -0.32910287786264764 
0.06000000000000069, -0.3289095562047431 
0.07000000000000098, -0.32869019833752755 
0.08000000000000126, -0.3284405052321336 
0.09000000000000155, -0.32815726061282713 
0.10000000000000184, -0.32783674969498156 
0.11000000000000212, -0.3274731865613961 
0.12000000000000241, -0.3270571015366959 
0.130000000000002, -0.3265735422821749 
0.1400000000000009, -0.32600009853179 
0.1499999999999998, -0.32530533026711334 
0.1599999999999987, -0.3244493700137502 
0.1699999999999976, -0.3233900309718566 
0.1799999999999965, -0.3220978237602467 
0.1899999999999954, -0.3205782024330209 
0.1999999999999943, -0.31888872087202114 
0.2099999999999932, -0.31713357570173933 
0.2199999999999921, -0.3154320863112423 
0.229999999999991, -0.3138807885318554 
0.2399999999999899, -0.3125327498900128 
0.2499999999999888, -0.3113996477003194 
0.2599999999999877, -0.31046620476145653 
0.2699999999999866, -0.3097053172763445 
0.2799999999999855, -0.30908849211591566 
0.2899999999999844, -0.3085913408233742 
0.2999999999999833, -0.30819577467711234 
0.3099999999999822, -0.30789054009410094 
0.3199999999999811, -0.30767118078830374 
0.32999999999998, -0.3075400035666657 
0.3399999999999789, -0.30750626716413004 
0.3499999999999778, -0.3075865337714668 
0.35999999999997667, -0.30780479583431186 
0.36999999999997557, -0.30819149029034565 
0.37999999999997447, -0.3087797985032576 
0.38999999999997337, -0.30959701332550066 
0.39999999999997227, -0.3106493986255955 
0.40999999999997117, -0.31190301590824043 
0.41999999999997006, -0.31327119192608416 
0.42999999999996896, -0.314624997789501 
0.43999999999996786, -0.31583236980149043 
0.44999999999996676, -0.3168047428114965 
0.45999999999996566, -0.3175182891948694 
0.46999999999996456, -0.3180003521998798 
0.47999999999996346, -0.31830057680510476 
0.48999999999996235, -0.31846826083021706 
0.49999999999996125, -0.3185423870086683 
0.5099999999999602, -0.31855040451858 
0.519999999999959, -0.3185105119917246 
0.529999999999958, -0.31843445731976094 
0.5399999999999568, -0.3183298477609895 
0.5499999999999557, -0.31820190759711225 
0.5599999999999546, -0.3180548974873191 
0.5699999999999535, -0.31789337854836675 
0.5799999999999524, -0.31772332597393593 
0.5899999999999513, -0.3175528480198409 
0.5999999999999502, -0.3173920688296866 
0.6099999999999491, -0.3172517844741979 
0.619999999999948, -0.31714093052291814 
0.6299999999999469, -0.3170635711572599 
0.6399999999999458, -0.3170166422812001 
0.6499999999999447, -0.3169896563866566 
0.6599999999999436, -0.31696684089650606 
0.6699999999999425, -0.31693097371451495 
0.6799999999999414, -0.31686722644616505 
0.6899999999999403, -0.316765398617668 
0.6999999999999392, -0.3166199841884455 
0.7099999999999381, -0.31642863807457855 
0.719999999999937, -0.31619001980898365 
0.7299999999999359, -0.3159017132983006 
0.7399999999999348, -0.31555845112960496 
0.7499999999999337, -0.31515058577116706 
0.7599999999999326, -0.3146627671769079 
0.7699999999999315, -0.31407312889713224 
0.7799999999999304, -0.31335397143677857 
0.7899999999999293, -0.31247578100431 
0.7999999999999282, -0.3114165331230138 
0.8099999999999271, -0.3101757968914153 
0.819999999999926, -0.3087874625797169 
0.8299999999999249, -0.30732050231599894 
0.8399999999999238, -0.3058622804093437 
0.8499999999999227, -0.30449260033707437 
0.8599999999999216, -0.3032641928329029 
0.8699999999999205, -0.30219819199933756 
0.8799999999999194, -0.3012913185565973 
0.8899999999999183, -0.3005268086141245 
0.8999999999999172, -0.2998835548124516 
0.9099999999999161, -0.29934180345339545 
0.919999999999915, -0.2988859772781526 
0.9299999999999139, -0.29850577544403795 
0.9399999999999128, -0.2981965168900658 
0.9499999999999117, -0.2979593366062494 
0.9599999999999106, -0.29780153186811936 
0.9699999999999095, -0.297737089530147 
0.9799999999999084, -0.29778711159193894 
0.9899999999999073, -0.2979793563099874 
0.9999999999999062, -0.2983453204719701 
1.0099999999999052, -0.29891239524306085 
1.019999999999904, -0.2996887534630805 
1.029999999999903, -0.3006424199395453 
1.039999999999902, -0.30168564953804733 
1.0499999999999008, -0.30268511400122067 
1.0599999999998997, -0.30350822233319497 
1.0699999999998986, -0.30407999091888327 
1.0799999999998975, -0.30440476141178274 
1.0899999999998964, -0.3045403876642951 
1.0999999999998953, -0.30455645147001936 
1.1099999999998942, -0.30450789833261915 
1.119999999999893, -0.30442905434131806 
1.129999999999892, -0.30433821486144075 
1.1399999999998909, -0.30424411102580623 
1.1499999999998898, -0.30415076695729687 
1.1599999999998887, -0.3040604124624612 
1.1699999999998876, -0.3039750863623529 
1.1799999999998865, -0.30389756576963484 
1.1899999999998854, -0.30383201471743126 
1.1999999999998843, -0.3037844948763452 
1.2099999999998832, -0.303763248869245 
1.219999999999882, -0.30377845753316124 
1.229999999999881, -0.3038410506611559 
1.2399999999998799, -0.30396024646206987 
1.2499999999998788, -0.30413993892091934 
1.2599999999998777, -0.3043748546503418 
1.2699999999998766, -0.3046482722817361 
1.2799999999998755, -0.3049332880939083 
1.2899999999998744, -0.3051982608983233 
1.2999999999998733, -0.30541445998625083 
1.3099999999998722, -0.3055621903554607 
1.319999999999871, -0.3056326988957808 
1.32999999999987, -0.3056260265495424 
1.3399999999998689, -0.30554695457992603 
1.3499999999998678, -0.3054011297884264 
1.3599999999998666, -0.30519232069176483 
1.3699999999998655, -0.30492082105328683 
1.3799999999998644, -0.3045827085472785 
1.3899999999998633, -0.3041698282071036 
1.3999999999998622, -0.3036707483777451 
1.4099999999998611, -0.30307329196111005 
1.41999999999986, -0.3023692011279255 
1.429999999999859, -0.3015605094283388 
1.4399999999998578, -0.3006651793598355 
1.4499999999998567, -0.2997179829264128 
1.4599999999998556, -0.2987640786418971 
1.4699999999998545, -0.29784752477345566 
1.4799999999998534, -0.29700078317387935 
1.4899999999998523, -0.2962400797784874 
1.4999999999998512, -0.29556699489408705 
1.5099999999998501, -0.2949734389063249 
1.519999999999849, -0.2944469534111084 
1.529999999999848, -0.2939746643870205 
1.5399999999998468, -0.29354555555514117 
1.5499999999998457, -0.29315143691493456 
1.5599999999998446, -0.29278715648370623 
1.5699999999998435, -0.29245049485945224 
1.5799999999998424, -0.29214197399242986 
1.5899999999998413, -0.2918645760916084 
1.5999999999998402, -0.2916230894597668 
1.6099999999998391, -0.29142241865477037 
1.619999999999838, -0.29126373512344944 
1.629999999999837, -0.2911371833974013 
1.6399999999998358, -0.29101123515012206 
1.6499999999998347, -0.2908236964807587 
1.6599999999998336, -0.2904872241086783 
1.6699999999998325, -0.28992251064364905 
1.6799999999998314, -0.289109182321077 
1.6899999999998303, -0.2881121593446039 
1.6999999999998292, -0.2870524078919277 
1.709999999999828, -0.28604730560462127 
1.719999999999827, -0.2851701743462043 
1.729999999999826, -0.2844461283809165 
1.7399999999998248, -0.28386836688424233 
1.7499999999998237, -0.28341612757379087 
1.7599999999998226, -0.28306648281070595 
1.7699999999998215, -0.28280003830733974 
1.7799999999998204, -0.2826028979689389 
1.7899999999998193, -0.2824669175368252 
1.7999999999998182, -0.2823894248596793 
1.809999999999817, -0.28237294171714505 
1.819999999999816, -0.28242504216730385 
1.8299999999998149, -0.2825582013749365 
1.8399999999998138, -0.282789213809481 
1.8499999999998127, -0.28313744771305804 
1.8599999999998116, -0.2836209514186161 
1.8699999999998105, -0.28424959828624924 
1.8799999999998094, -0.28501572973417566 
1.8899999999998083, -0.2858856101013944 
1.8999999999998072, -0.28679811108854947 
1.909999999999806, -0.28767613191818175 
1.919999999999805, -0.2884481915145958 
1.9299999999998039, -0.28906822829992923 
1.9399999999998028, -0.28952224645915353 
1.9499999999998017, -0.28982129109993743 
1.9599999999998006, -0.28998889314711046 
1.9699999999997995, -0.29005061210370775 
1.9799999999997984, -0.29002828844834294 
1.9899999999997973, -0.28993809851506236 
1.9999999999997962, -0.28979069378434935 
2.0099999999998173, -0.28959223099412257 
2.0199999999998384, -0.28934578867863947 
2.0299999999998595, -0.2890530966125407 
2.0399999999998806, -0.28871660741904936 
2.0499999999999017, -0.288341715881177 
2.059999999999923, -0.28793847580951326 
2.069999999999944, -0.2875218220216611 
2.079999999999965, -0.2871095961227052 
2.089999999999986, -0.2867187441345391 
2.100000000000007, -0.28636121032466544 
2.1100000000000283, -0.28604131358987117 
2.1200000000000494, -0.2857555685051225 
2.1300000000000705, -0.2854947026930977 
2.1400000000000916, -0.2852467681688573 
2.1500000000001127, -0.285000040640434 
2.160000000000134, -0.284744788842371 
2.170000000000155, -0.284473674321752 
2.180000000000176, -0.28418109355356075 
2.190000000000197, -0.283861947607713 
2.2000000000002182, -0.2835101765118142 
2.2100000000002393, -0.2831171407605963 
2.2200000000002604, -0.2826697506488992 
2.2300000000002815, -0.2821482543761068 
2.2400000000003026, -0.2815239625819631 
2.2500000000003237, -0.2807581863079366 
2.260000000000345, -0.27980540163475737 
2.270000000000366, -0.278624981127202 
2.280000000000387, -0.2772030938515137 
2.290000000000408, -0.2755761674564471 
2.3000000000004293, -0.2738364657117561 
2.3100000000004504, -0.2721071405065628 
2.3200000000004715, -0.27050022300609916 
2.3300000000004926, -0.26908605552109993 
2.3400000000005137, -0.26788834449179677 
2.3500000000005348, -0.2668972215269257 
2.360000000000556, -0.266086245514241 
2.370000000000577, -0.26542517469932647 
2.380000000000598, -0.26488705920535743 
2.390000000000619, -0.26445123112305857 
2.4000000000006403, -0.26410411779590415 
2.4100000000006614, -0.26383923386111585 
2.4200000000006825, -0.26365710245597507 
2.4300000000007036, -0.2635654264835357 
2.4400000000007247, -0.2635795134304577 
2.450000000000746, -0.26372260469989217 
2.460000000000767, -0.26402520111949784 
2.470000000000788, -0.26452159397629016 
2.480000000000809, -0.26524084945639836 
2.49000000000083, -0.26618978591054787 
2.5000000000008513, -0.2673300431682701 
2.5100000000008724, -0.26856227503386987 
2.5200000000008935, -0.2697398043325635 
2.5300000000009146, -0.27072038615593996 
2.5400000000009357, -0.27142543048935175 
2.550000000000957, -0.27185941879109693 
2.560000000000978, -0.27208130282173115 
2.570000000000999, -0.27216225265453076 
2.58000000000102, -0.27215979080736696 
2.5900000000010412, -0.2721117111441528 
2.6000000000010624, -0.27204004684052074 
2.6100000000010835, -0.2719569772683901 
2.6200000000011046, -0.27186944061450713 
2.6300000000011257, -0.27178207239968527 
2.6400000000011468, -0.271698981922764 
2.650000000001168, -0.27162490185140414 
2.660000000001189, -0.271566032119337 
2.67000000000121, -0.27153065268902116 
2.680000000001231, -0.2715293388356479 
2.6900000000012523, -0.2715744105091479 
2.7000000000012734, -0.27167817571364555 
2.7100000000012945, -0.2718497271210044 
2.7200000000013156, -0.2720906477149341 
2.7300000000013367, -0.27239095872520347 
2.740000000001358, -0.2727275704285922 
2.750000000001379, -0.2730673262170403 
2.7600000000014, -0.273374551421104 
2.770000000001421, -0.2736198488003063 
2.780000000001442, -0.2737857174654442 
2.7900000000014633, -0.27386688112644997 
2.8000000000014844, -0.27386665517754016 
2.8100000000015055, -0.2737921698088571 
2.8200000000015266, -0.2736504796532388 
2.8300000000015477, -0.27344617451226977 
2.840000000001569, -0.27318026998379413 
2.85000000000159, -0.2728500335426342 
2.860000000001611, -0.27244966218120886 
2.870000000001632, -0.2719720502588937 
2.8800000000016532, -0.27141197751004587 
2.8900000000016743, -0.2707705654935362 
2.9000000000016954, -0.27005964594561765 
2.9100000000017165, -0.2693034394750743 
2.9200000000017377, -0.26853528438461993 
2.9300000000017588, -0.26778991702928934 
2.94000000000178, -0.26709498430575146 
2.950000000001801, -0.2664658903535482 
2.960000000001822, -0.2659054849391642 
2.970000000001843, -0.2654072609728946 
2.9800000000018643, -0.264959716208754 
2.9900000000018854, -0.26455010107032156 
3.0000000000019065, -0.2641667908129287 
3.0100000000019276, -0.26380029392127613 
3.0200000000019487, -0.26344327707342563 
3.03000000000197, -0.2630900235290927 
3.040000000001991, -0.2627355838600394 
3.050000000002012, -0.26237464510450975 
3.060000000002033, -0.26199990067755896 
3.070000000002054, -0.2615994871565669 
3.0800000000020753, -0.2611529995793219 
3.0900000000020964, -0.2606261568577826 
3.1000000000021175, -0.2599662904945769 
3.1100000000021386, -0.2591050687169622 
3.1200000000021597, -0.2579781718673736 
3.130000000002181, -0.25656405674114835 
3.140000000002202, -0.25491992141680414 
3.150000000002223, -0.2531775958532244 
3.160000000002244, -0.2514917725415827 
3.1700000000022652, -0.24998078304484425 
3.1800000000022863, -0.24870085336147976 
3.1900000000023074, -0.24765572649231543 
3.2000000000023285, -0.24681987551533005 
3.2100000000023496, -0.24615826736344987 
3.2200000000023707, -0.245637825496671 
3.230000000002392, -0.2452323367312553 
3.240000000002413, -0.24492376690470413 
3.250000000002434, -0.24470213537745317 
3.260000000002455, -0.2445651175873858 
3.2700000000024763, -0.24451788204888375 
3.2800000000024974, -0.24457326114836025 
3.2900000000025185, -0.244752020956563 
3.3000000000025396, -0.24508254921355652 
3.3100000000025607, -0.24559858407627205 
3.3200000000025818, -0.24633274079171308 
3.330000000002603, -0.24730334593124859 
3.340000000002624, -0.2484945650437807 
3.350000000002645, -0.24983744011403886 
3.360000000002666, -0.25120921692210885 
3.3700000000026873, -0.2524656141398309 
3.3800000000027084, -0.2534941237339072 
3.3900000000027295, -0.25425051571159135 
3.4000000000027506, -0.254754557267622 
3.4100000000027717, -0.25505918693506824 
3.420000000002793, -0.25522123277825237 
3.430000000002814, -0.25528670494525874 
3.440000000002835, -0.2552880221479388 
3.450000000002856, -0.2552465460730989 
3.460000000002877, -0.25517613486435764 
3.4700000000028983, -0.25508612105537243 
3.4800000000029194, -0.2549835079258687 
3.4900000000029405, -0.2548746079899414 
3.5000000000029616, -0.25476633898070616 
3.5100000000029827, -0.25466721582316404 
3.520000000003004, -0.25458784698186865 
3.530000000003025, -0.2545405608049206 
3.540000000003046, -0.2545377879647101 
3.550000000003067, -0.254589124313479 
3.5600000000030882, -0.2546975962951181 
3.5700000000031094, -0.2548563929936926 
3.5800000000031305, -0.25504783592445 
3.5900000000031516, -0.2552459750766109 
3.6000000000031727, -0.25542249150906554 
3.6100000000031938, -0.2555534017757361 
3.620000000003215, -0.2556233840037715 
3.630000000003236, -0.25562621640856137 
3.640000000003257, -0.2555622182281249 
3.650000000003278, -0.25543466748656246 
3.6600000000032993, -0.2552466973660973 
3.6700000000033204, -0.2549992136714619 
3.6800000000033415, -0.2546897811439249 
3.6900000000033626, -0.2543123509225118 
3.7000000000033837, -0.2538579504371824 
3.710000000003405, -0.2533167664576199 
3.720000000003426, -0.25268206957023576 
3.730000000003447, -0.2519556848027467 
3.740000000003468, -0.25115305911948754 
3.750000000003489, -0.25030450047720426 
3.7600000000035103, -0.2494500869180581 
3.7700000000035314, -0.24862968562868146 
3.7800000000035525, -0.24787318580791912 
3.7900000000035736, -0.24719559932985508 
3.8000000000035947, -0.24659791266298758 
3.810000000003616, -0.24607142822265277 
3.820000000003637, -0.24560277375799772 
3.830000000003658, -0.24517782424039694 
3.840000000003679, -0.24478399817427182 
3.8500000000037002, -0.24441113212082305 
3.8600000000037213, -0.24405140065796674 
3.8700000000037424, -0.24369870255069478 
3.8800000000037635, -0.2433477350343769 
3.8900000000037847, -0.24299272831121677 
3.9000000000038058, -0.24262555607912312 
3.910000000003827, -0.2422327189094938 
3.920000000003848, -0.2417907093113431 
3.930000000003869, -0.24126011013831347 
3.94000000000389, -0.2405815336684821 
3.9500000000039113, -0.23968139883408662 
3.9600000000039324, -0.23849766984962129 
3.9700000000039535, -0.23702327561545458 
3.9800000000039746, -0.23533736826817592 
3.9900000000039957, -0.23358741310653747 
4.000000000004016, -0.2319278369531908 
4.010000000003993, -0.23046442902663 
4.02000000000397, -0.2292386912329511 
4.030000000003946, -0.22824410964065084 
4.040000000003923, -0.22745046285280232 
4.0500000000039, -0.2268219415193884 
4.0600000000038765, -0.2263267292709578 
4.070000000003853, -0.22594068347725565 
4.08000000000383, -0.2256480739713454 
4.090000000003807, -0.22544129840903393 
4.100000000003783, -0.22532054795567538 
4.11000000000376, -0.22529380235121135 
4.120000000003737, -0.2253771505902798 
4.130000000003713, -0.22559505391210438 
4.14000000000369, -0.22597958759961162 
4.150000000003667, -0.22656679113644124 
4.1600000000036434, -0.22738728462618654 
4.17000000000362, -0.2284486709815782 
4.180000000003597, -0.22971202943190389 
4.1900000000035735, -0.23107595734163594 
4.20000000000355, -0.23239055028247754 
4.210000000003527, -0.23350913852729524 
4.220000000003504, -0.23434687287641548 
4.23000000000348, -0.23490060799357404 
4.240000000003457, -0.23522278056434326 
4.250000000003434, -0.23538155391795912 
4.26000000000341, -0.23543524623138853 
4.270000000003387, -0.23542487333911954 
4.280000000003364, -0.23537651307352245 
4.2900000000033405, -0.23530618702241646 
4.300000000003317, -0.2352240813106119 
4.310000000003294, -0.23513749892433178 
4.320000000003271, -0.2350528395012872 
4.330000000003247, -0.2349770014945846 
4.340000000003224, -0.23491843287886566 
4.350000000003201, -0.23488781804830103 
4.360000000003177, -0.23489814774737786 
4.370000000003154, -0.2349637462349564 
4.380000000003131, -0.23509783949635282 
4.390000000003107, -0.2353085802874796 
4.400000000003084, -0.23559421893537782 
4.410000000003061, -0.23593925142291935 
4.4200000000030375, -0.23631421510201656 
4.430000000003014, -0.23668096608574102 
4.440000000002991, -0.23700213316671723 
4.450000000002968, -0.23725016595280474 
4.460000000002944, -0.23741148795612538 
4.470000000002921, -0.23748487880469288 
4.480000000002898, -0.2374766192811276 
4.490000000002874, -0.23739548583629602 
4.500000000002851, -0.2372492403936116 
4.510000000002828, -0.23704281303383942 
4.520000000002804, -0.2367777768840059 
4.530000000002781, -0.23645277435891682 
4.540000000002758, -0.23606483835893846 
4.5500000000027345, -0.23561172395409663 
4.560000000002711, -0.23509516016648635 
4.570000000002688, -0.2345242127184783 
4.580000000002665, -0.2339170511088991 
4.590000000002641, -0.23329933284137852 
4.600000000002618, -0.23269897532323744 
4.610000000002595, -0.23213945350989046 
4.620000000002571, -0.23163477521804027 
4.630000000002548, -0.23118801567719327 
4.640000000002525, -0.23079314106607834 
4.6500000000025015, -0.2304385602980016 
4.660000000002478, -0.23011076589838728 
4.670000000002455, -0.22979698953454078 
4.6800000000024315, -0.22948648354400186 
4.690000000002408, -0.2291705736205858 
4.700000000002385, -0.22884187559901353 
4.710000000002362, -0.22849303317686576 
4.720000000002338, -0.22811513636664144 
4.730000000002315, -0.22769577434135554 
4.740000000002292, -0.22721659483437923 
4.750000000002268, -0.2266504660142139 
4.760000000002245, -0.2259591934938976 
4.770000000002222, -0.22509456582357226 
4.7800000000021985, -0.22400764131595485 
4.790000000002175, -0.22267015981535945 
4.800000000002152, -0.2211024401666128 
4.810000000002129, -0.21938743157869572 
4.820000000002105, -0.21765124135365155 
4.830000000002082, -0.216017977228968 
4.840000000002059, -0.2145710386264516 
4.850000000002035, -0.21334250634228707 
