t, s[1].omega / s[0].omega 
0, -2.1249966413992154 
0.009999999999999995, -2.1245692447635385 
0.019999999999999934, -2.1239612206465592 
0.029999999999999874, -2.123189002850011 
0.04000000000000012, -2.122328069667034 
0.050000000000000405, -2.1215504704419907 
0.06000000000000069, -2.1210424867904045 
0.07000000000000098, -2.1208104628019155 
0.08000000000000126, -2.1206838615234984 
0.09000000000000155, -2.1205115251140954 
0.10000000000000184, -2.120235561456105 
0.11000000000000212, -2.1198514431349484 
0.12000000000000241, -2.119384592767959 
0.130000000000002, -2.1189100324604104 
0.1400000000000009, -2.118558431698066 
0.1499999999999998, -2.118421767012309 
0.1599999999999987, -2.1184462539308018 
0.1699999999999976, -2.1184923003183957 
0.1799999999999965, -2.118450605155016 
0.1899999999999954, -2.1182675505188877 
0.1999999999999943, -2.117917760448894 
0.2099999999999932, -2.117380085352971 
0.2199999999999921, -2.1166354113606074 
0.229999999999991, -2.1156989247022744 
0.2399999999999899, -2.114693471336254 
0.2499999999999888, -2.1138816049621 
0.2599999999999877, -2.1134712536442715 
0.2699999999999866, -2.1133685772571944 
0.2799999999999855, -2.113323424623761 
0.2899999999999844, -2.1131860338864623 
0.2999999999999833, -2.11292397268119 
0.3099999999999822, -2.1125525412631783 
0.3199999999999811, -2.112110836233429 
0.32999999999998, -2.111675091196592 
0.3399999999999789, -2.1113472559916864 
0.3499999999999778, -2.1111771424821355 
0.35999999999997667, -2.111111704471866 
0.36999999999997557, -2.111050869500915 
0.37999999999997447, -2.110913892151997 
0.38999999999997337, -2.1106507028365424 
0.39999999999997227, -2.1102245620616618 
0.40999999999997117, -2.109596476524173 
0.41999999999997006, -2.1087317482042005 
0.42999999999996896, -2.107655411242805 
0.43999999999996786, -2.1065602271628263 
0.44999999999996676, -2.1058019731779902 
0.45999999999996566, -2.1055597113250424 
0.46999999999996456, -2.1056105270769465 
0.47999999999996346, -2.1056500267110128 
0.48999999999996235, -2.1055492081785983 
0.49999999999996125, -2.105302968517589 
0.5099999999999602, -2.1049429111098457 
0.519999999999959, -2.1045156112377956 
0.529999999999958, -2.104092251363597 
0.5399999999999568, -2.103754071431486 
0.5499999999999557, -2.103535866125036 
0.5599999999999546, -2.1033985034454084 
0.5699999999999535, -2.103266728139331 
0.5799999999999524, -2.103071497125114 
0.5899999999999513, -2.102760975764947 
0.5999999999999502, -2.1022896206927726 
0.6099999999999491, -2.101606156402438 
0.619999999999948, -2.100667528093419 
0.6299999999999469, -2.0995184649823626 
0.6399999999999458, -2.098426125627996 
0.6499999999999447, -2.0978094680447894 
0.6599999999999436, -2.097773488977967 
0.6699999999999425, -2.0979785565528393 
0.6799999999999414, -2.098099426694116 
0.6899999999999403, -2.098036047184684 
0.6999999999999392, -2.097807087481871 
0.7099999999999381, -2.0974562410645854 
0.719999999999937, -2.097033559253788 
0.7299999999999359, -2.096604368808489 
0.7399999999999348, -2.0962387695504 
0.7499999999999337, -2.095971423148508 
0.7599999999999326, -2.0957794668911593 
0.7699999999999315, -2.0956029093732433 
0.7799999999999304, -2.0953765946511944 
0.7899999999999293, -2.0950458930227076 
0.7999999999999282, -2.094560677733999 
0.8099999999999271, -2.0938649076063505 
0.819999999999926, -2.092915650494569 
0.8299999999999249, -2.0917794619212597 
0.8399999999999238, -2.090776569779938 
0.8499999999999227, -2.090343668000442 
0.8599999999999216, -2.0905035284363116 
0.8699999999999205, -2.0908425189066135 
0.8799999999999194, -2.091037079076119 
0.8899999999999183, -2.0910117454391832 
0.8999999999999172, -2.0908017963117556 
0.9099999999999161, -2.090458822705858 
0.919999999999915, -2.0900340072239807 
0.9299999999999139, -2.0895877824233544 
0.9399999999999128, -2.0891857604562762 
0.9499999999999117, -2.0888698949155797 
0.9599999999999106, -2.0886341996186126 
0.9699999999999095, -2.08842951857165 
0.9799999999999084, -2.0881908352830094 
0.9899999999999073, -2.0878604855355025 
0.9999999999999062, -2.0873874523538465 
1.0099999999999052, -2.08671773054792 
1.019999999999904, -2.08581443776176 
1.029999999999903, -2.0847580034218502 
1.039999999999902, -2.083884631508775 
1.0499999999999008, -2.083614219040024 
1.0599999999998997, -2.083917416675991 
1.0699999999998986, -2.0843552780152583 
1.0799999999998975, -2.084612357759464 
1.0899999999998964, -2.0846251205271136 
1.0999999999998953, -2.0844364009203273 
1.1099999999998942, -2.0841015323116956 
1.119999999999893, -2.0836711831428736 
1.129999999999892, -2.0832016251738716 
1.1399999999998909, -2.0827573312945464 
1.1499999999998898, -2.082391114700004 
1.1599999999998887, -2.082115412777878 
1.1699999999998876, -2.081891366821637 
1.1799999999998865, -2.0816521683923384 
1.1899999999998854, -2.081336024484551 
1.1999999999998843, -2.08089262474478 
1.2099999999998832, -2.080273849497521 
1.219999999999882, -2.0794504271267495 
1.229999999999881, -2.078503267968999 
1.2399999999998799, -2.0777489054796727 
1.2499999999998788, -2.077575626952512 
1.2599999999998777, -2.0779477582510286 
1.2699999999998766, -2.0784416119899096 
1.2799999999998755, -2.0787469151413602 
1.2899999999998744, -2.0787967649850385 
1.2999999999998733, -2.078631921213929 
1.3099999999998722, -2.0783071832366917 
1.319999999999871, -2.077871094513982 
1.32999999999987, -2.0773756193745774 
1.3399999999998689, -2.07688471023012 
1.3499999999998678, -2.076463169761932 
1.3599999999998666, -2.0761445643537297 
1.3699999999998655, -2.0759031564106776 
1.3799999999998644, -2.075669840478205 
1.3899999999998633, -2.0753762964222915 
1.3999999999998622, -2.07497193414932 
1.4099999999998611, -2.07441510955697 
1.41999999999986, -2.0736826804468196 
1.429999999999859, -2.0728441250823746 
1.4399999999998578, -2.072172175018712 
1.4499999999998567, -2.072020088538277 
1.4599999999998556, -2.0723854090988505 
1.4699999999998545, -2.072890725956867 
1.4799999999998534, -2.07322762518191 
1.4899999999998523, -2.073312340867255 
1.4999999999998512, -2.073174408343346 
1.5099999999998501, -2.0728637162002412 
1.519999999999849, -2.07242486578015 
1.529999999999848, -2.071904511727327 
1.5399999999998468, -2.0713645460379695 
1.5499999999998457, -2.070880511399381 
1.5599999999998446, -2.0705100420275953 
1.5699999999998435, -2.0702467024794062 
1.5799999999998424, -2.0700209462551067 
1.5899999999998413, -2.069754605797092 
1.5999999999998402, -2.0693933991550475 
1.6099999999998391, -2.068900313930796 
1.619999999999838, -2.068256044299614 
1.629999999999837, -2.0675121777262113 
1.6399999999998358, -2.066886146555359 
1.6499999999998347, -2.0666939121193506 
1.6599999999998336, -2.066988900257373 
1.6699999999998325, -2.067464115395679 
1.6799999999998314, -2.067814915326827 
1.6899999999998303, -2.067931371982417 
1.6999999999998292, -2.0678238788078134 
1.709999999999828, -2.0675331513991493 
1.719999999999827, -2.0670979123111253 
1.729999999999826, -2.066558002736353 
1.7399999999998248, -2.0659701362149883 
1.7499999999998237, -2.0654164943948614 
1.7599999999998226, -2.064980041218534 
1.7699999999998215, -2.0646828321741686 
1.7799999999998204, -2.0644610994724584 
1.7899999999998193, -2.064223845935965 
1.7999999999998182, -2.063907480007077 
1.809999999999817, -2.0634759658696114 
1.819999999999816, -2.0629119109365286 
1.8299999999998149, -2.0622482196744865 
1.8399999999998138, -2.061645387981278 
1.8499999999998127, -2.061376760912531 
1.8599999999998116, -2.0615556397455235 
1.8699999999998105, -2.061964247779856 
1.8799999999998094, -2.0623109931000516 
1.8899999999998083, -2.062455496716275 
1.8999999999998072, -2.06238255201698 
1.909999999999806, -2.062119722506991 
1.919999999999805, -2.0616980248781567 
1.9299999999998039, -2.06114901722155 
1.9399999999998028, -2.0605203850501965 
1.9499999999998017, -2.0598938241683795 
1.9599999999998006, -2.0593744548622603 
1.9699999999997995, -2.0590229170580283 
1.9799999999997984, -2.058794297631812 
1.9899999999997973, -2.0585849329000903 
1.9999999999997962, -2.058314425922057 
2.0099999999998173, -2.0579420373197914 
2.0199999999998384, -2.057450529432583 
2.0299999999998595, -2.056857160039057 
2.0399999999998806, -2.0562706748428394 
2.0499999999999017, -2.055914665696976 
2.059999999999923, -2.055949822744034 
2.069999999999944, -2.056260005954406 
2.079999999999965, -2.05658384311684 
2.089999999999986, -2.056751772369328 
2.100000000000007, -2.0567177837964565 
2.1100000000000283, -2.0564924392886157 
2.1200000000000494, -2.0560974557988825 
2.1300000000000705, -2.0555552272239064 
2.1400000000000916, -2.054901060793971 
2.1500000000001127, -2.0542070289938197 
2.160000000000134, -2.0535902829574555 
2.170000000000155, -2.0531557324956293 
2.180000000000176, -2.0528981406078435 
2.190000000000197, -2.0527097687193216 
2.2000000000002182, -2.0524855935518884 
2.2100000000002393, -2.0521714921776537 
2.2200000000002604, -2.0517475291631615 
2.2300000000002815, -2.051219802100513 
2.2400000000003026, -2.0506548856698332 
2.2500000000003237, -2.0502214654952806 
2.260000000000345, -2.0501027823286684 
2.270000000000366, -2.0502862960374557 
2.280000000000387, -2.0505651944206362 
2.290000000000408, -2.0507493200838174 
2.3000000000004293, -2.0507579524697555 
2.3100000000004504, -2.0505803771383513 
2.3200000000004715, -2.050227403912401 
2.3300000000004926, -2.049712259722925 
2.3400000000005137, -2.049056355684047 
2.3500000000005348, -2.048313625682568 
2.360000000000556, -2.047596340584155 
2.370000000000577, -2.0470469949882295 
2.380000000000598, -2.0467233410759733 
2.390000000000619, -2.0465375937220105 
2.4000000000006403, -2.046357338337831 
2.4100000000006614, -2.0461025808152753 
2.4200000000006825, -2.0457445964069545 
2.4300000000007036, -2.0452818341587538 
2.4400000000007247, -2.044750413993631 
2.450000000000746, -2.0442647802201517 
2.460000000000767, -2.044000283665542 
2.470000000000788, -2.044033503181772 
2.480000000000809, -2.0442393938453165 
2.49000000000083, -2.044426588133828 
2.5000000000008513, -2.044478630013611 
2.5100000000008724, -2.0443581940717066 
2.5200000000008935, -2.044062766180823 
2.5300000000009146, -2.0435969563977547 
2.5400000000009357, -2.0429693253872467 
2.550000000000957, -2.042211186114894 
2.560000000000978, -2.0414113247812358 
2.570000000000999, -2.0407256840953387 
2.58000000000102, -2.0402852608110553 
2.5900000000010412, -2.040063595938521 
2.6000000000010624, -2.039915453280284 
2.6100000000010835, -2.0397211285231 
2.6200000000011046, -2.0394309321223405 
2.6300000000011257, -2.039035406547214 
2.6400000000011468, -2.038551425032308 
2.650000000001168, -2.0380473031970974 
2.660000000001189, -2.0376642889892307 
2.67000000000121, -2.0375340846309355 
2.680000000001231, -2.0376321056504985 
2.6900000000012523, -2.0377987629559837 
2.7000000000012734, -2.0378885303360366 
2.7100000000012945, -2.0378314088918454 
2.7200000000013156, -2.0376070899100776 
2.7300000000013367, -2.0372114979865743 
2.740000000001358, -2.0366433616172084 
2.750000000001379, -2.035912937047041 
2.7600000000014, -2.0350737633826155 
2.770000000001421, -2.034260224257113 
2.780000000001442, -2.0336543397837166 
2.7900000000014633, -2.0333318550196333 
2.8000000000014844, -2.0331820197557873 
2.8100000000015055, -2.03304298492681 
2.8200000000015266, -2.0328243880004364 
2.8300000000015477, -2.032500933756528 
2.840000000001569, -2.0320775263078112 
2.85000000000159, -2.0315898376871298 
2.860000000001611, -2.0311326884399756 
2.870000000001632, -2.030846778289424 
2.8800000000016532, -2.030801096330632 
2.8900000000016743, -2.030909105227839 
2.9000000000016954, -2.031018963385205 
2.9100000000017165, -2.031024779276328 
2.9200000000017377, -2.0308810089088185 
2.9300000000017588, -2.0305722904793906 
2.94000000000178, -2.030090450065141 
2.950000000001801, -2.029431075925352 
2.960000000001822, -2.028613283159774 
2.970000000001843, -2.027722882147443 
2.9800000000018643, -2.0269382353504666 
2.9900000000018854, -2.0264358314231616 
3.0000000000019065, -2.02621297081488 
3.0100000000019276, -2.0261030038069405 
3.0200000000019487, -2.0259564049147643 
3.03000000000197, -2.025711882598722 
3.040000000001991, -2.0253608609351046 
3.050000000002012, -2.0249196599260175 
3.060000000002033, -2.0244412545398878 
3.070000000002054, -2.02403637287451 
3.0800000000020753, -2.02382636868768 
3.0900000000020964, -2.0238249430077966 
3.1000000000021175, -2.023918446951266 
3.1100000000021386, -2.0239746902415785 
3.1200000000021597, -2.0239141805346894 
3.130000000002181, -2.0237031724254364 
3.140000000002202, -2.0233264646450952 
3.150000000002223, -2.022772107550052 
3.160000000002244, -2.0220359146442273 
3.1700000000022652, -2.0211516807582637 
3.1800000000022863, -2.020241038343447 
3.1900000000023074, -2.0195127614090445 
3.2000000000023285, -2.019110454052431 
3.2100000000023496, -2.018957880036097 
3.2200000000023707, -2.0188645379201273 
3.230000000002392, -2.0187038210408303 
3.240000000002413, -2.0184364704253523 
3.250000000002434, -2.018064682793171 
3.260000000002455, -2.0176140323586718 
3.2700000000024763, -2.017151260176633 
3.2800000000024974, -2.0167929834060745 
3.2900000000025185, -2.016635377452919 
3.3000000000025396, -2.0166537868994467 
3.3100000000025607, -2.0167269434243704 
3.3200000000025818, -2.016740596469087 
3.330000000002603, -2.016631086069194 
3.340000000002624, -2.016370066982238 
3.350000000002645, -2.0159410942494453 
3.360000000002666, -2.015329790185393 
3.3700000000026873, -2.014534885930894 
3.3800000000027084, -2.0136070941734614 
3.3900000000027295, -2.012699483950863 
3.4000000000027506, -2.012033823542345 
3.4100000000027717, -2.0117104411074136 
3.420000000002793, -2.0116006012439263 
3.430000000002814, -2.0115107896478297 
3.440000000002835, -2.011335860931726 
3.450000000002856, -2.0110509452887175 
3.460000000002877, -2.0106649027434162 
3.4700000000028983, -2.0102103016640633 
3.4800000000029194, -2.009763289421157 
3.4900000000029405, -2.009440363775451 
3.5000000000029616, -2.00931600132949 
3.5100000000029827, -2.009342683684537 
3.520000000003004, -2.0093991904963837 
3.530000000003025, -2.009383763823061 
3.540000000003046, -2.0092416504033084 
3.550000000003067, -2.0089469452968567 
3.5600000000030882, -2.0084820915286477 
3.5700000000031094, -2.007831741526302 
3.5800000000031305, -2.0069986009046703 
3.5900000000031516, -2.006047917399214 
3.6000000000031727, -2.0051540971501414 
3.6100000000031938, -2.0045391512785113 
3.620000000003215, -2.0042667035739545 
3.630000000003236, -2.0041786673029454 
3.640000000003257, -2.00408685912707 
3.650000000003278, -2.0039011063050958 
3.6600000000032993, -2.003604632262112 
3.6700000000033204, -2.003209950799222 
3.6800000000033415, -2.0027540348787243 
3.6900000000033626, -2.0023184178387554 
3.7000000000033837, -2.00201782638305 
3.710000000003405, -2.001912903703458 
3.720000000003426, -2.001944387196175 
3.730000000003447, -2.001992430222969 
3.740000000003468, -2.001962139908909 
3.750000000003489, -2.0018032467701667 
3.7600000000035103, -2.001491069623759 
3.7700000000035314, -2.0010077204643832 
3.7800000000035525, -2.0003380147432814 
3.7900000000035736, -1.999487824629658 
3.8000000000035947, -1.998530672502285 
3.810000000003616, -1.9976500293580355 
3.820000000003637, -1.9970630364482402 
3.830000000003658, -1.9968132266748957 
3.840000000003679, -1.996732089826829 
3.8500000000037002, -1.9966371572816464 
3.8600000000037213, -1.9964455587565726 
3.8700000000037424, -1.9961436325457982 
3.8800000000037635, -1.9957450376405046 
3.8900000000037847, -1.9952883173526363 
3.9000000000038058, -1.9948570583960472 
3.910000000003827, -1.9945655251469265 
3.920000000003848, -1.994469851472934 
3.930000000003869, -1.9945068662574599 
3.94000000000389, -1.9945566685529017 
3.9500000000039113, -1.9945260351381822 
3.9600000000039324, -1.994366027173001 
3.9700000000039535, -1.9940527345435537 
3.9800000000039746, -1.9935689278300353 
3.9900000000039957, -1.9929003619868506 
4.000000000004016, -1.992054048107169 
4.010000000003993, -1.991103620869557 
4.02000000000397, -1.990229505723351 
4.030000000003946, -1.9896439037919031 
4.040000000003923, -1.9893900592990856 
4.0500000000039, -1.9893041619870897 
4.0600000000038765, -1.9892067288953625 
4.070000000003853, -1.9890147233980264 
4.08000000000383, -1.9887133513295576 
4.090000000003807, -1.9883150838505415 
4.100000000003783, -1.987857070099227 
4.11000000000376, -1.9874219023158493 
4.120000000003737, -1.987125771634906 
4.130000000003713, -1.9870300836163666 
4.14000000000369, -1.9870746101077823 
4.150000000003667, -1.9871371881106767 
4.1600000000036434, -1.9871210961321535 
4.17000000000362, -1.9869758008386917 
4.180000000003597, -1.986677825926415 
4.1900000000035735, -1.9862115686876431 
4.20000000000355, -1.9855643880431628 
4.210000000003527, -1.9847423637398272 
4.220000000003504, -1.983811498963816 
4.23000000000348, -1.982938033674607 
4.240000000003457, -1.9823291856206169 
4.250000000003434, -1.982046009524226 
4.26000000000341, -1.9819437792380874 
4.270000000003387, -1.981844052984758 
4.280000000003364, -1.981656751964816 
4.2900000000033405, -1.981361820832738 
4.300000000003317, -1.9809682235661872 
4.310000000003294, -1.9805087211306458 
4.320000000003271, -1.980061427145317 
4.330000000003247, -1.979745945903573 
4.340000000003224, -1.9796388668872489 
4.350000000003201, -1.979691349102239 
4.360000000003177, -1.9797775168651115 
4.370000000003154, -1.9797913840972465 
4.380000000003131, -1.9796771221491647 
4.390000000003107, -1.9794108861151625 
4.400000000003084, -1.9789794659525488 
4.410000000003061, -1.9783726479973165 
4.4200000000030375, -1.9775945771380001 
4.430000000003014, -1.9766983429944696 
4.440000000002991, -1.9758264812407507 
4.450000000002968, -1.9751769513528843 
4.460000000002944, -1.9748406796073639 
4.470000000002921, -1.974707963292722 
4.480000000002898, -1.9746037121987765 
4.490000000002874, -1.9744250912741603 
4.500000000002851, -1.9741422983862218 
4.510000000002828, -1.9737583537883097 
4.520000000002804, -1.9732987893686809 
4.530000000002781, -1.9728328152849073 
4.540000000002758, -1.9724819174000203 
4.5500000000027345, -1.9723467751580959 
4.560000000002711, -1.9724025191371701 
4.570000000002688, -1.9725212577608726 
4.580000000002665, -1.9725810572814386 
4.590000000002641, -1.9725151287930764 
4.600000000002618, -1.972297236996797 
4.610000000002595, -1.9719168500628412 
4.620000000002571, -1.9713672300356788 
4.630000000002548, -1.970651175360206 
4.640000000002525, -1.969807327663976 
4.6500000000025015, -1.9689482311062112 
4.660000000002478, -1.968253098055979 
4.670000000002455, -1.967844127681905 
4.6800000000024315, -1.9676629061176047 
4.690000000002408, -1.9675474061892881 
4.700000000002385, -1.9673791733552073 
4.710000000002362, -1.9671136869263406 
4.720000000002338, -1.9667452607983467 
4.730000000002315, -1.9662898114374616 
4.740000000002292, -1.965802544756378 
4.750000000002268, -1.965400443716933 
4.760000000002245, -1.9652127603031382 
4.770000000002222, -1.965256622488554 
4.7800000000021985, -1.9654115212084875 
4.790000000002175, -1.9655330612981978 
4.800000000002152, -1.9655343887094197 
4.810000000002129, -1.9653823715002894 
4.820000000002105, -1.9650684084779115 
4.830000000002082, -1.96459028173163 
4.840000000002059, -1.9639513974684824 
4.850000000002035, -1.963178223857509 
4.860000000002012, -1.9623522723011728 
4.870000000001989, -1.9616228641231779 
4.880000000001965, -1.9611316203758444 
4.890000000001942, -1.9608816227794172 
4.900000000001919, -1.9607419656725231 
4.9100000000018955, -1.9605819214267128 
4.920000000001872, -1.960337565519567 
4.930000000001849, -1.9599911220929207 
4.940000000001826, -1.959547195028802 
4.950000000001802, -1.9590425303090293 
4.960000000001779, -1.958578306408063 
4.970000000001756, -1.9583064391699032 
