t, s[1].omega / s[0].omega 
0, -2.5749960889995074 
0.009999999999999995, -2.574465285011926 
0.019999999999999934, -2.5736443366430075 
0.029999999999999874, -2.572550153012827 
0.04000000000000012, -2.571422222848224 
0.050000000000000405, -2.570752406763391 
0.06000000000000069, -2.570624443898928 
0.07000000000000098, -2.5706006285851277 
0.08000000000000126, -2.5704174007232803 
0.09000000000000155, -2.5700561410980027 
0.10000000000000184, -2.569574975851687 
0.11000000000000212, -2.5690817834554744 
0.12000000000000241, -2.568702486943955 
0.130000000000002, -2.5684608884621 
0.1400000000000009, -2.5682700544035044 
0.1499999999999998, -2.568023240026556 
0.1599999999999987, -2.567631176483872 
0.1699999999999976, -2.567005974517183 
0.1799999999999965, -2.566038587164905 
0.1899999999999954, -2.5647223814923477 
0.1999999999999943, -2.5636004435658113 
0.2099999999999932, -2.563554510932609 
0.2199999999999921, -2.564246478151561 
0.229999999999991, -2.5647647578523634 
0.2399999999999899, -2.56486192642197 
0.2499999999999888, -2.5646304229133046 
0.2599999999999877, -2.5641722741021313 
0.2699999999999866, -2.5635616956501055 
0.2799999999999855, -2.5628896762985356 
0.2899999999999844, -2.5622976038519654 
0.2999999999999833, -2.561903490679372 
0.3099999999999822, -2.561645443464269 
0.3199999999999811, -2.5613588037303066 
0.32999999999998, -2.56094331190711 
0.3399999999999789, -2.5603716510851466 
0.3499999999999778, -2.5597169493135317 
0.35999999999997667, -2.5592514470449848 
0.36999999999997557, -2.5592173580633046 
0.37999999999997447, -2.5594176959371175 
0.38999999999997337, -2.5595254080226963 
0.39999999999997227, -2.5594063060749397 
0.40999999999997117, -2.559032880859255 
0.41999999999997006, -2.5583746040447277 
0.42999999999996896, -2.557376519307735 
0.43999999999996786, -2.556070235380634 
0.44999999999996676, -2.5548635979596583 
0.45999999999996566, -2.5543753317240485 
0.46999999999996456, -2.5544596491317852 
0.47999999999996346, -2.554531003951122 
0.48999999999996235, -2.5543759225645015 
0.49999999999996125, -2.5540233888269057 
0.5099999999999602, -2.5535485603801846 
0.519999999999959, -2.5530533068420387 
0.529999999999958, -2.5526422413678094 
0.5399999999999568, -2.5523451783575513 
0.5499999999999557, -2.55210635550809 
0.5599999999999546, -2.55182981940815 
0.5699999999999535, -2.5514219539565746 
0.5799999999999524, -2.5507945484489785 
0.5899999999999513, -2.5498581647241494 
0.5999999999999502, -2.548682263559003 
0.6099999999999491, -2.5478850653094414 
0.619999999999948, -2.5481223344818016 
0.6299999999999469, -2.5488529012784933 
0.6399999999999458, -2.549319584651677 
0.6499999999999447, -2.549375167247677 
0.6599999999999436, -2.5491115060433964 
0.6699999999999425, -2.5486122696839906 
0.6799999999999414, -2.547936110147963 
0.6899999999999403, -2.5471734991260186 
0.6999999999999392, -2.5465039830026384 
0.7099999999999381, -2.5460933149013405 
0.719999999999937, -2.5458645697528626 
0.7299999999999359, -2.5456146960869477 
0.7399999999999348, -2.545236657380375 
0.7499999999999337, -2.544715019367307 
0.7599999999999326, -2.544123161938578 
0.7699999999999315, -2.5436798157193734 
0.7799999999999304, -2.543566698646355 
0.7899999999999293, -2.543642410317439 
0.7999999999999282, -2.5436580362177965 
0.8099999999999271, -2.5434898171619205 
0.819999999999926, -2.5430901077896206 
0.8299999999999249, -2.5424046940963017 
0.8399999999999238, -2.5413522913953166 
0.8499999999999227, -2.539948411763377 
0.8599999999999216, -2.5386570712477923 
0.8699999999999205, -2.5382114646328064 
0.8799999999999194, -2.538430236310065 
0.8899999999999183, -2.538616352353702 
0.8999999999999172, -2.538531099347442 
0.9099999999999161, -2.538218280646378 
0.919999999999915, -2.5377601768607208 
0.9299999999999139, -2.5372495355877627 
0.9399999999999128, -2.536787448546157 
0.9499999999999117, -2.53643132246269 
0.9599999999999106, -2.536160615510596 
0.9699999999999095, -2.5358886392563322 
0.9799999999999084, -2.535514893429723 
0.9899999999999073, -2.5349540554535976 
0.9999999999999062, -2.5341299741418846 
1.0099999999999052, -2.5330901745458916 
1.019999999999904, -2.532331652077112 
1.029999999999903, -2.5324777960547458 
1.039999999999902, -2.5331555210588617 
1.0499999999999008, -2.533644155441263 
1.0599999999998997, -2.5337429029017153 
1.0699999999998986, -2.533514857096658 
1.0799999999998975, -2.533032530178031 
1.0899999999998964, -2.532341035703929 
1.0999999999998953, -2.531511321493762 
1.1099999999998942, -2.530726851665231 
1.119999999999893, -2.5302267542830625 
1.129999999999892, -2.5299981395136677 
1.1399999999998909, -2.529802845407025 
1.1499999999998898, -2.5294907235119153 
1.1599999999998887, -2.5290340852761704 
1.1699999999998876, -2.5284803357362486 
1.1799999999998865, -2.5279884385044245 
1.1899999999998854, -2.527749745754698 
1.1999999999998843, -2.5277277511549494 
1.2099999999998832, -2.527715973509863 
1.219999999999882, -2.5275702674058396 
1.229999999999881, -2.5272236426621406 
1.2399999999998799, -2.526616566855721 
1.2499999999998788, -2.5256583878812444 
1.2599999999998777, -2.5242978947926664 
1.2699999999998766, -2.5228548389721395 
1.2799999999998755, -2.5221569887600337 
1.2899999999998744, -2.5223589865481295 
1.2999999999998733, -2.5226945725662087 
1.3099999999998722, -2.52274812649448 
1.319999999999871, -2.522527083496244 
1.32999999999987, -2.522119612906386 
1.3399999999998689, -2.52161178959179 
1.3499999999998678, -2.5211005130522532 
1.3599999999998666, -2.5206713953195115 
1.3699999999998655, -2.520352343751651 
1.3799999999998644, -2.5200876967256916 
1.3899999999998633, -2.519772432575274 
1.3999999999998622, -2.519314374372162 
1.4099999999998611, -2.518638881503946 
1.41999999999986, -2.517725003262089 
1.429999999999859, -2.5168413734552666 
1.4399999999998578, -2.5166253918292965 
1.4499999999998567, -2.5171481965668825 
1.4599999999998556, -2.5177280574765546 
1.4699999999998545, -2.5179710968720252 
1.4799999999998534, -2.517866216866522 
1.4899999999998523, -2.5174815436103164 
1.4999999999998512, -2.516860250979799 
1.5099999999998501, -2.516042086123041 
1.519999999999849, -2.5151509766403977 
1.529999999999848, -2.5144546900607225 
1.5399999999998468, -2.5141199731769155 
1.5499999999998457, -2.5139613765772406 
1.5599999999998446, -2.5137404104980674 
1.5699999999998435, -2.513375736245027 
1.5799999999998424, -2.512879648656633 
1.5899999999998413, -2.5123428275424375 
1.5999999999998402, -2.511948869227841 
1.6099999999998391, -2.511800513601738 
1.619999999999838, -2.5117725810592386 
1.629999999999837, -2.5116894372037852 
1.6399999999998358, -2.5114508237498585 
1.6499999999998347, -2.510996003161946 
1.6599999999998336, -2.5102479379073417 
1.6699999999998325, -2.5091073212008688 
1.6799999999998314, -2.5076240095638367 
1.6899999999998303, -2.506398445266101 
1.6999999999998292, -2.5061788494020476 
1.709999999999828, -2.5065824612031813 
1.719999999999827, -2.5068592510188203 
1.729999999999826, -2.5068161772513182 
1.7399999999998248, -2.5065240242491944 
1.7499999999998237, -2.506071953535627 
1.7599999999998226, -2.5055469137550768 
1.7699999999998215, -2.505045248281999 
1.7799999999998204, -2.5046420101738063 
1.7899999999998193, -2.504345280944951 
1.7999999999998182, -2.504077222017762 
1.809999999999817, -2.5037308168080936 
1.819999999999816, -2.5032219260701463 
1.8299999999998149, -2.5024864919488006 
1.8399999999998138, -2.501560927266292 
1.8499999999998127, -2.5008417752223115 
1.8599999999998116, -2.5008910775047397 
1.8699999999998105, -2.501483549359217 
1.8799999999998094, -2.5019692615320746 
1.8899999999998083, -2.502103449095911 
1.8999999999998072, -2.5019147966079296 
1.909999999999806, -2.5014621683327727 
1.919999999999805, -2.500778602849714 
1.9299999999998039, -2.4999118622707517 
1.9399999999998028, -2.499023661771878 
1.9499999999998017, -2.498401784819627 
1.9599999999998006, -2.4981370397014118 
1.9699999999997995, -2.497988873757204 
1.9799999999997984, -2.4977473906442365 
1.9899999999997973, -2.4973590038787714 
1.9999999999997962, -2.4968500464709176 
2.0099999999998173, -2.496328857977656 
2.0199999999998384, -2.4959786580494163 
2.0299999999998595, -2.495861207228807 
2.0399999999998806, -2.495830716300966 
2.0499999999999017, -2.495725907560812 
2.059999999999923, -2.495457936972266 
2.069999999999944, -2.4949664921854797 
2.079999999999965, -2.494169712796237 
2.089999999999986, -2.4929729185137597 
2.100000000000007, -2.491475465407178 
2.1100000000000283, -2.490349438274955 
2.1200000000000494, -2.490247922613528 
2.1300000000000705, -2.490667330054814 
2.1400000000000916, -2.4909133379009445 
2.1500000000001127, -2.4908435152074957 
2.160000000000134, -2.4905352930180134 
2.170000000000155, -2.49007588709828 
2.180000000000176, -2.4895523539157436 
2.190000000000197, -2.4890601732392534 
2.2000000000002182, -2.4886694549837416 
2.2100000000002393, -2.4883810440876766 
2.2200000000002604, -2.4881137124561725 
2.2300000000002815, -2.4877626980362404 
2.2400000000003026, -2.4872456285963955 
2.2500000000003237, -2.486498337568764 
2.260000000000345, -2.4855596489362055 
2.270000000000366, -2.4848342167997544 
2.280000000000387, -2.48489003589465 
2.290000000000408, -2.4854988100572095 
2.3000000000004293, -2.4860025003635435 
2.3100000000004504, -2.48615160571017 
2.3200000000004715, -2.4859757958842925 
2.3300000000004926, -2.485537400772401 
2.3400000000005137, -2.4848732412487124 
2.3500000000005348, -2.484031561088249 
2.360000000000556, -2.483162519780777 
2.370000000000577, -2.4825356885734537 
2.380000000000598, -2.4822524859923853 
2.390000000000619, -2.4820957902642515 
2.4000000000006403, -2.481856473246241 
2.4100000000006614, -2.481473312016553 
2.4200000000006825, -2.4809653911010985 
2.4300000000007036, -2.480433485658586 
2.4400000000007247, -2.4800670947700088 
2.450000000000746, -2.479952520008235 
2.460000000000767, -2.4799479019292563 
2.470000000000788, -2.4798771179544943 
2.480000000000809, -2.479644688345496 
2.49000000000083, -2.4791942623397505 
2.5000000000008513, -2.47845391908104 
2.5100000000008724, -2.477330955914735 
2.5200000000008935, -2.4758667372183383 
2.5300000000009146, -2.4746053244521393 
2.5400000000009357, -2.4742831321069287 
2.550000000000957, -2.474620069802272 
2.560000000000978, -2.4748878461974657 
2.570000000000999, -2.4748575494320866 
2.58000000000102, -2.47458254841602 
2.5900000000010412, -2.4741477411022896 
2.6000000000010624, -2.4736386557393932 
2.6100000000010835, -2.4731514448112177 
2.6200000000011046, -2.472759007864354 
2.6300000000011257, -2.472468753340052 
2.6400000000011468, -2.472211643267373 
2.650000000001168, -2.471886292204176 
2.660000000001189, -2.4714068121095223 
2.67000000000121, -2.4706983717063027 
2.680000000001231, -2.4697423950143023 
2.6900000000012523, -2.4688253475563857 
2.7000000000012734, -2.468607349652314 
2.7100000000012945, -2.4691645005434024 
2.7200000000013156, -2.469796100504859 
2.7300000000013367, -2.470086252161155 
2.740000000001358, -2.470020729504637 
2.750000000001379, -2.469676023449634 
2.7600000000014, -2.469106274867751 
2.770000000001421, -2.468356882428704 
2.780000000001442, -2.4675312569008856 
2.7900000000014633, -2.4668440741119873 
2.8000000000014844, -2.4664627118750686 
2.8100000000015055, -2.46627121681953 
2.8200000000015266, -2.466051340327543 
2.8300000000015477, -2.4657021196616915 
2.840000000001569, -2.4652142169857107 
2.85000000000159, -2.464651971932471 
2.860000000001611, -2.464198669885927 
2.870000000001632, -2.4640321309354203 
2.8800000000016532, -2.4640712211337243 
2.8900000000016743, -2.464095726617894 
2.9000000000016954, -2.4639699384448894 
2.9100000000017165, -2.463636796906905 
2.9200000000017377, -2.46304699706805 
2.9300000000017588, -2.462124795447625 
2.94000000000178, -2.460825772813652 
2.950000000001801, -2.459399955546907 
2.960000000001822, -2.4585567272984226 
2.970000000001843, -2.4585753976255873 
2.9800000000018643, -2.4588447100285196 
2.9900000000018854, -2.458906982959923 
3.0000000000019065, -2.4587152872311497 
3.0100000000019276, -2.4583395935543133 
3.0200000000019487, -2.457859930581283 
3.03000000000197, -2.4573726280796233 
3.040000000001991, -2.456966353529455 
3.050000000002012, -2.4566668186436833 
3.060000000002033, -2.4564256886552736 
3.070000000002054, -2.4561510410267164 
3.0800000000020753, -2.4557526958907148 
3.0900000000020964, -2.45514887923027 
3.1000000000021175, -2.45426056025332 
3.1100000000021386, -2.453143523957131 
3.1200000000021597, -2.4523209414994014 
3.130000000002181, -2.4524489667952682 
3.140000000002202, -2.4531741162077525 
3.150000000002223, -2.4537385255332476 
3.160000000002244, -2.453906427000138 
3.1700000000022652, -2.453740664805818 
3.1800000000022863, -2.453327992354761 
3.1900000000023074, -2.452727666299025 
3.2000000000023285, -2.4520063542039408 
3.2100000000023496, -2.451293370443188 
3.2200000000023707, -2.4507681646423847 
3.230000000002392, -2.450477255745601 
3.240000000002413, -2.4502631755863598 
3.250000000002434, -2.449970766522829 
3.260000000002455, -2.4495394926424803 
3.2700000000024763, -2.448973534390138 
3.2800000000024974, -2.448382489763335 
3.2900000000025185, -2.448021867714446 
3.3000000000025396, -2.4480286672606857 
3.3100000000025607, -2.4481951923221503 
3.3200000000025818, -2.448265855637097 
3.330000000002603, -2.4481328667355435 
3.340000000002624, -2.447764669118914 
3.350000000002645, -2.447126961387343 
3.360000000002666, -2.4461656650824803 
3.3700000000026873, -2.4448916756916885 
3.3800000000027084, -2.4436217159188898 
3.3900000000027295, -2.442955986491579 
3.4000000000027506, -2.4429532595775507 
3.4100000000027717, -2.443074722617287 
3.420000000002793, -2.443008616317708 
3.430000000002814, -2.4427360883105353 
3.440000000002835, -2.4423159470488853 
3.450000000002856, -2.4418307270949553 
3.460000000002877, -2.441389254667702 
3.4700000000028983, -2.4410654921091384 
3.4800000000029194, -2.440839598268434 
3.4900000000029405, -2.4406302472127455 
3.5000000000029616, -2.440345219545224 
3.5100000000029827, -2.4399030754741764 
3.520000000003004, -2.4392169138804407 
3.530000000003025, -2.438193695159411 
3.540000000003046, -2.436905783793999 
3.550000000003067, -2.4359696666670634 
3.5600000000030882, -2.4360904419970746 
3.5700000000031094, -2.4368219066435266 
3.5800000000031305, -2.43736372239355 
3.5900000000031516, -2.437502357616064 
3.6000000000031727, -2.43731924397326 
3.6100000000031938, -2.4369112904137666 
3.620000000003215, -2.436349453986138 
3.630000000003236, -2.435711521254098 
3.640000000003257, -2.435112019621342 
3.650000000003278, -2.4346708094278293 
3.6600000000032993, -2.434391003612439 
3.6700000000033204, -2.434142224705152 
3.6800000000033415, -2.4338034193153444 
3.6900000000033626, -2.4333157546010797 
3.7000000000033837, -2.4326729864742602 
3.710000000003405, -2.432003631591507 
3.720000000003426, -2.4316470055989803 
3.730000000003447, -2.431787788363853 
3.740000000003468, -2.4321283351637453 
3.750000000003489, -2.4323281257412575 
3.7600000000035103, -2.4322738369196175 
3.7700000000035314, -2.431961413863207 
3.7800000000035525, -2.4313899654962703 
3.7900000000035736, -2.4305419269021504 
3.8000000000035947, -2.4294452570586285 
3.810000000003616, -2.4283343004235207 
3.820000000003637, -2.427648219253882 
3.830000000003658, -2.4274861656220126 
3.840000000003679, -2.4274735915896555 
3.8500000000037002, -2.4273364398127515 
3.8600000000037213, -2.4270286030220505 
3.8700000000037424, -2.426587809776354 
3.8800000000037635, -2.4260961870272344 
3.8900000000037847, -2.4256832938253554 
3.9000000000038058, -2.425431753854676 
3.910000000003827, -2.4252890686710105 
3.920000000003848, -2.4251415737695363 
3.930000000003869, -2.4248940723040877 
3.94000000000389, -2.424473619755114 
3.9500000000039113, -2.4237986488872223 
3.9600000000039324, -2.4227641411398855 
3.9700000000039535, -2.4213613396147493 
3.9800000000039746, -2.420057880986783 
3.9900000000039957, -2.4197046654956935 
4.000000000004016, -2.420213335779226 
4.010000000003993, -2.420737070863861 
4.02000000000397, -2.4209078498130343 
4.030000000003946, -2.4207626906658843 
4.040000000003923, -2.4204010281485564 
4.0500000000039, -2.41990355129225 
4.0600000000038765, -2.4193522577223994 
4.070000000003853, -2.418840767979032 
4.08000000000383, -2.4184451237674622 
4.090000000003807, -2.4181631975748097 
4.100000000003783, -2.4179005231985147 
4.11000000000376, -2.417551258891616 
4.120000000003737, -2.417042472851904 
4.130000000003713, -2.4163292011035127 
4.14000000000369, -2.415480259438683 
4.150000000003667, -2.4148791863354755 
4.1600000000036434, -2.4149717442242524 
4.17000000000362, -2.415525409987724 
4.180000000003597, -2.415987407305296 
4.1900000000035735, -2.4161333484911465 
4.20000000000355, -2.4159741193869215 
4.210000000003527, -2.4155571228786052 
4.220000000003504, -2.4149099056033094 
4.23000000000348, -2.4140663758889893 
4.240000000003457, -2.413149523440519 
4.250000000003434, -2.4124247215307983 
4.26000000000341, -2.4120715226337994 
4.270000000003387, -2.411927594211229 
4.280000000003364, -2.411747080050993 
4.2900000000033405, -2.4114313503066884 
4.300000000003317, -2.4109788196124233 
4.310000000003294, -2.4104490882331353 
4.320000000003271, -2.4099941586129545 
4.330000000003247, -2.409773246886609 
4.340000000003224, -2.4097490622728226 
4.350000000003201, -2.4097438460424674 
4.360000000003177, -2.409624057902137 
4.370000000003154, -2.4093225523542836 
4.380000000003131, -2.408786023117829 
4.390000000003107, -2.40793793653475 
4.400000000003084, -2.406707579145565 
4.410000000003061, -2.405237466186977 
4.4200000000030375, -2.404160355244089 
4.430000000003014, -2.404004831866769 
4.440000000002991, -2.4043245378604357 
4.450000000002968, -2.4045176164344007 
4.460000000002944, -2.404437639761525 
4.470000000002921, -2.4041407166327375 
4.480000000002898, -2.4037038146605885 
4.490000000002874, -2.4032113789497123 
4.500000000002851, -2.4027585927680617 
4.510000000002828, -2.402407010727539 
4.520000000002804, -2.4021478552794315 
4.530000000002781, -2.4019098554389737 
4.540000000002758, -2.4016000981965933 
4.5500000000027345, -2.4011368771882675 
4.560000000002711, -2.400439569811197 
4.570000000002688, -2.399449325248514 
4.580000000002665, -2.3983358151132297 
4.590000000002641, -2.3977528499484664 
4.600000000002618, -2.398133504774259 
4.610000000002595, -2.398886806172806 
4.620000000002571, -2.3993753976605268 
4.630000000002548, -2.3994755357806623 
4.640000000002525, -2.3992681240680893 
4.6500000000025015, -2.398834635982742 
4.660000000002478, -2.3982336805190365 
4.670000000002455, -2.3975373247569873 
4.6800000000024315, -2.3968729748294813 
4.690000000002408, -2.396392740544564 
4.700000000002385, -2.3961153288335013 
4.710000000002362, -2.395894011759581 
4.720000000002338, -2.395592251270722 
4.730000000002315, -2.3951519077560643 
4.740000000002292, -2.3945700054886228 
4.750000000002268, -2.393947702871753 
4.760000000002245, -2.393555888433876 
4.770000000002222, -2.393584496418556 
4.7800000000021985, -2.3938351959950817 
4.790000000002175, -2.3940062503972963 
4.800000000002152, -2.39396386859016 
4.810000000002129, -2.3936822193582046 
4.820000000002105, -2.393148435001169 
4.830000000002082, -2.392332281636132 
4.840000000002059, -2.3912283721032295 
4.850000000002035, -2.390010204738616 
4.860000000002012, -2.3891353848443817 
4.870000000001989, -2.3888779095775723 
4.880000000001965, -2.3889134262254834 
4.890000000001942, -2.388868707516456 
4.900000000001919, -2.3886423583599417 
4.9100000000018955, -2.3882604117472117 
4.920000000001872, -2.387786602692244 
4.930000000001849, -2.3873278145131027 
4.940000000001826, -2.3869952300009927 
4.950000000001802, -2.3868000509047764 
4.960000000001779, -2.3866556014565914 
4.970000000001756, -2.3864609000144967 
