t, s[1].omega / s[0].omega 
0, -4.199993234114475 
0.009999999999999995, -4.1991382293129424 
0.019999999999999934, -4.197951577700861 
0.029999999999999874, -4.197032354188681 
0.04000000000000012, -4.19675044474069 
0.050000000000000405, -4.19633063714365 
0.06000000000000069, -4.195642969506157 
0.07000000000000098, -4.194805241669364 
0.08000000000000126, -4.194015810541996 
0.09000000000000155, -4.193431125921784 
0.10000000000000184, -4.192837357365978 
0.11000000000000212, -4.192103281161598 
0.12000000000000241, -4.191356948102216 
0.130000000000002, -4.190765936090651 
0.1400000000000009, -4.19021899219122 
0.1499999999999998, -4.189545903348806 
0.1599999999999987, -4.1886372503790295 
0.1699999999999976, -4.1876826693168105 
0.1799999999999965, -4.187302669751922 
0.1899999999999954, -4.187055857603215 
0.1999999999999943, -4.186502585405329 
0.2099999999999932, -4.185598220401262 
0.2199999999999921, -4.184353681491471 
0.229999999999991, -4.183515725080875 
0.2399999999999899, -4.1833317318421495 
0.2499999999999888, -4.182931041197611 
0.2599999999999877, -4.182232930414455 
0.2699999999999866, -4.181352740095642 
0.2799999999999855, -4.180522396684756 
0.2899999999999844, -4.1799601956905565 
0.2999999999999833, -4.179399369542439 
0.3099999999999822, -4.178689397194098 
0.3199999999999811, -4.177943558884527 
0.32999999999998, -4.177315637340006 
0.3399999999999789, -4.176749300647159 
0.3499999999999778, -4.1760881364419635 
0.35999999999997667, -4.175225230447947 
0.36999999999997557, -4.174340737564075 
0.37999999999997447, -4.17392741883093 
0.38999999999997337, -4.173616289776376 
0.39999999999997227, -4.173039296829108 
0.40999999999997117, -4.172121532175298 
0.41999999999997006, -4.170863567839221 
0.42999999999996896, -4.170080082963098 
0.43999999999996786, -4.169963848966241 
0.44999999999996676, -4.169589973436134 
0.45999999999996566, -4.168890680246013 
0.46999999999996456, -4.167969405977248 
0.47999999999996346, -4.167082009515655 
0.48999999999996235, -4.166537831468505 
0.49999999999996125, -4.16602149460462 
0.5099999999999602, -4.165339822271108 
0.519999999999959, -4.164588050388021 
0.529999999999958, -4.163920315222666 
0.5399999999999568, -4.1633399770266415 
0.5499999999999557, -4.162703066435235 
0.5599999999999546, -4.1618929138060565 
0.5699999999999535, -4.161044472150148 
0.5799999999999524, -4.160566673883065 
0.5899999999999513, -4.160207832583454 
0.5999999999999502, -4.159631723399415 
0.6099999999999491, -4.158738461732114 
0.619999999999948, -4.157506566444618 
0.6299999999999469, -4.1567203423221475 
0.6399999999999458, -4.156639333554528 
0.6499999999999447, -4.156305212129562 
0.6599999999999436, -4.155620952256359 
0.6699999999999425, -4.154671076020095 
0.6799999999999414, -4.153706347146301 
0.6899999999999403, -4.153161140665564 
0.6999999999999392, -4.152702343854239 
0.7099999999999381, -4.152058653545269 
0.719999999999937, -4.151303764612366 
0.7299999999999359, -4.150592526938353 
0.7399999999999348, -4.149993291045953 
0.7499999999999337, -4.149386425364167 
0.7599999999999326, -4.148631808583319 
0.7699999999999315, -4.147803890436563 
0.7799999999999304, -4.147248220455134 
0.7899999999999293, -4.146849896951607 
0.7999999999999282, -4.1462926516129945 
0.8099999999999271, -4.145454701585822 
0.819999999999926, -4.144282664380692 
0.8299999999999249, -4.143431688295509 
0.8399999999999238, -4.143342799906019 
0.8499999999999227, -4.143063781060994 
0.8599999999999216, -4.142416921489366 
0.8699999999999205, -4.141464882081821 
0.8799999999999194, -4.14040960167788 
0.8899999999999183, -4.13981959291329 
0.8999999999999172, -4.13942979939935 
0.9099999999999161, -4.138840596057105 
0.919999999999915, -4.138094604259783 
0.9299999999999139, -4.137339234759126 
0.9399999999999128, -4.136705309217658 
0.9499999999999117, -4.136126708149591 
0.9599999999999106, -4.1354306475956975 
0.9699999999999095, -4.134625706913054 
0.9799999999999084, -4.133988911987175 
0.9899999999999073, -4.13354710550646 
0.9999999999999062, -4.133017261010453 
1.0099999999999052, -4.132253337975599 
1.019999999999904, -4.131171876206198 
1.029999999999903, -4.130220520225974 
1.039999999999902, -4.130057723417025 
1.0499999999999008, -4.129845650431204 
1.0599999999998997, -4.129262032908756 
1.0699999999998986, -4.128346130082687 
1.0799999999998975, -4.1272144978632905 
1.0899999999998964, -4.126505248760079 
1.0999999999998953, -4.126182394931883 
1.1099999999998942, -4.125671641931549 
1.119999999999893, -4.124955818268424 
1.129999999999892, -4.124165909587016 
1.1399999999998909, -4.123473899700543 
1.1499999999998898, -4.122908984600946 
1.1599999999998887, -4.122274831687574 
1.1699999999998876, -4.121507732217639 
1.1799999999998865, -4.120799709502551 
1.1899999999998854, -4.120298210100189 
1.1999999999998843, -4.119792298072378 
1.2099999999998832, -4.11910859382206 
1.219999999999882, -4.118142152904776 
1.229999999999881, -4.117109012426634 
1.2399999999998799, -4.116780079059766 
1.2499999999998788, -4.1166303175678145 
1.2599999999998777, -4.116135707116344 
1.2699999999998766, -4.1152973379308495 
1.2799999999998755, -4.114146705460434 
1.2899999999998744, -4.113235523229909 
1.2999999999998733, -4.112934243859042 
1.3099999999998722, -4.112531798077086 
1.319999999999871, -4.111876019189884 
1.32999999999987, -4.111077296370102 
1.3399999999998689, -4.1103097799552675 
1.3499999999998678, -4.109722437668993 
1.3599999999998666, -4.109149235838281 
1.3699999999998655, -4.108440001147654 
1.3799999999998644, -4.107689783423888 
1.3899999999998633, -4.107107422684994 
1.3999999999998622, -4.106606802458137 
1.4099999999998611, -4.105998192698361 
1.41999999999986, -4.105157706901535 
1.429999999999859, -4.104117498849281 
1.4399999999998578, -4.103536630977849 
1.4499999999998567, -4.103402220650374 
1.4599999999998556, -4.103017823722109 
1.4699999999998545, -4.102291231009961 
1.4799999999998534, -4.101208177441203 
1.4899999999998523, -4.100078033862481 
1.4999999999998512, -4.099666133466085 
1.5099999999998501, -4.0993947101472745 
1.519999999999849, -4.098837261415233 
1.529999999999848, -4.098070507621922 
1.5399999999998468, -4.097238858767305 
1.5499999999998457, -4.096571691228048 
1.5599999999998446, -4.096040294244163 
1.5699999999998435, -4.095407207429474 
1.5799999999998424, -4.0946612358776955 
1.5899999999998413, -4.093990544385688 
1.5999999999998402, -4.093460191765121 
1.6099999999998391, -4.092908779382249 
1.619999999999838, -4.09218904998139 
1.629999999999837, -4.091231038634676 
1.6399999999998358, -4.090398333962172 
1.6499999999998347, -4.090159519138907 
1.6599999999998336, -4.089890033560003 
1.6699999999998325, -4.089298593424365 
1.6799999999998314, -4.088356851073196 
1.6899999999998303, -4.087127209348504 
1.6999999999998292, -4.086403181655171 
1.709999999999828, -4.086225350510662 
1.719999999999827, -4.085813304726906 
1.729999999999826, -4.085127359672417 
1.7399999999998248, -4.084282682854814 
1.7499999999998237, -4.0834930387704444 
1.7599999999998226, -4.082940510499696 
1.7699999999998215, -4.082391080739374 
1.7799999999998204, -4.081699463600592 
1.7899999999998193, -4.0809693342250535 
1.7999999999998182, -4.080368114922477 
1.809999999999817, -4.079837637385361 
1.819999999999816, -4.079219585709914 
1.8299999999998149, -4.078395158153792 
1.8399999999998138, -4.077444392322509 
1.8499999999998127, -4.076940277771443 
1.8599999999998116, -4.076736385794418 
1.8699999999998105, -4.076294514540882 
1.8799999999998094, -4.075528264313097 
1.8899999999998083, -4.074391642886072 
1.8999999999998072, -4.073285282703093 
1.909999999999806, -4.072992551359214 
1.919999999999805, -4.072765252655485 
1.9299999999998039, -4.0722142941845805 
1.9399999999998028, -4.071428227962621 
1.9499999999998017, -4.07054966812403 
1.9599999999998006, -4.069869386491051 
1.9699999999997995, -4.069372691353851 
1.9799999999997984, -4.068773508991008 
1.9899999999997973, -4.068049678953964 
1.9999999999997962, -4.067362033529024 
2.0099999999998173, -4.06679778075737 
2.0199999999998384, -4.066245206632571 
2.0299999999998595, -4.065556361144051 
2.0399999999998806, -4.06466178913646 
2.0499999999999017, -4.063858989599619 
2.059999999999923, -4.063556575985981 
2.069999999999944, -4.063257457354622 
2.079999999999965, -4.0626732630000175 
2.089999999999986, -4.061746821197711 
2.100000000000007, -4.060505360159685 
2.1100000000000283, -4.05975472495859 
2.1200000000000494, -4.059637848797359 
2.1300000000000705, -4.05928524202608 
2.1400000000000916, -4.0586257697589865 
2.1500000000001127, -4.057764075760515 
2.160000000000134, -4.0569106966776465 
2.170000000000155, -4.056346519181924 
2.180000000000176, -4.055847002785066 
2.190000000000197, -4.05520004683636 
2.2000000000002182, -4.054470991382329 
2.2100000000002393, -4.05382470314072 
2.2200000000002604, -4.053275969473623 
2.2300000000002815, -4.052691357179092 
2.2400000000003026, -4.051938109549424 
2.2500000000003237, -4.051032313269644 
2.260000000000345, -4.050421921870017 
2.270000000000366, -4.050169651771424 
2.280000000000387, -4.049764960863847 
2.290000000000408, -4.049064303942677 
2.3000000000004293, -4.047998716917356 
2.3100000000004504, -4.046802782364331 
2.3200000000004715, -4.046404293784715 
2.3300000000004926, -4.046275745936344 
2.3400000000005137, -4.045811843195025 
2.3500000000005348, -4.045069236073173 
2.360000000000556, -4.044160070287156 
2.370000000000577, -4.0433795586739425 
2.380000000000598, -4.042891296980007 
2.390000000000619, -4.042363249200905 
2.4000000000006403, -4.041682371702434 
2.4100000000006614, -4.040964088719361 
2.4200000000006825, -4.040348879393197 
2.4300000000007036, -4.039804052543525 
2.4400000000007247, -4.039185083702402 
2.450000000000746, -4.038382957367947 
2.460000000000767, -4.037519411791522 
2.470000000000788, -4.037057189984179 
2.480000000000809, -4.036782852893137 
2.49000000000083, -4.036292813611145 
2.5000000000008513, -4.03549597006692 
2.5100000000008724, -4.034331571024388 
2.5200000000008935, -4.033296805187375 
2.5300000000009146, -4.033112100453401 
2.5400000000009357, -4.032913374230732 
2.550000000000957, -4.032366976839463 
2.560000000000978, -4.03156238543356 
2.570000000000999, -4.030635978790938 
2.58000000000102, -4.0299415417574735 
2.5900000000010412, -4.0294864948317075 
2.6000000000010624, -4.028927548089476 
2.6100000000010835, -4.028226970088243 
2.6200000000011046, -4.027524593410693 
2.6300000000011257, -4.026931224375095 
2.6400000000011468, -4.026384117948185 
2.650000000001168, -4.025734780314091 
2.660000000001189, -4.02490289878758 
2.67000000000121, -4.0241045421010595 
2.680000000001231, -4.0237279502962915 
2.6900000000012523, -4.023416049979119 
2.7000000000012734, -4.022863694141981 
2.7100000000012945, -4.0219920163590395 
2.7200000000013156, -4.0207775343863235 
2.7300000000013367, -4.019926341903792 
2.740000000001358, -4.019833692757133 
2.750000000001379, -4.019568738543269 
2.7600000000014, -4.018966265143069 
2.770000000001421, -4.018119685400306 
2.780000000001442, -4.017198790524282 
2.7900000000014633, -4.01657470719651 
2.8000000000014844, -4.016127939849175 
2.8100000000015055, -4.015545449074657 
2.8200000000015266, -4.014835720794535 
2.8300000000015477, -4.014148196691531 
2.840000000001569, -4.013569784919894 
2.85000000000159, -4.013018526158378 
2.860000000001611, -4.01234694921792 
2.870000000001632, -4.01150120300286 
2.8800000000016532, -4.010761091532928 
2.8900000000016743, -4.010426545823735 
2.9000000000016954, -4.010085251812051 
2.9100000000017165, -4.009492755291995 
2.9200000000017377, -4.008571060760086 
2.9300000000017588, -4.007342625496356 
2.94000000000178, -4.006627838938806 
2.950000000001801, -4.006564051780886 
2.960000000001822, -4.006255573528014 
2.970000000001843, -4.005620389611654 
2.9800000000018643, -4.00475101456061 
2.9900000000018854, -4.003844448099917 
3.0000000000019065, -4.00326374246281 
3.0100000000019276, -4.002816275235157 
3.0200000000019487, -4.002220262157927 
3.03000000000197, -4.001507973946016 
3.040000000001991, -4.000831599619206 
3.050000000002012, -4.000262962377503 
3.060000000002033, -3.99970922434117 
3.070000000002054, -3.999025559293755 
3.0800000000020753, -3.998175105502898 
3.0900000000020964, -3.997469797270493 
3.1000000000021175, -3.997154552171974 
3.1100000000021386, -3.9968000108834096 
3.1200000000021597, -3.9961894278534738 
3.130000000002181, -3.995244856172323 
3.140000000002202, -3.994016849491117 
3.150000000002223, -3.993364922981894 
3.160000000002244, -3.99330731876164 
3.1700000000022652, -3.992981646828583 
3.1800000000022863, -3.9923354485099574 
3.1900000000023074, -3.991460983058073 
3.2000000000023285, -3.9905655676172804 
3.2100000000023496, -3.9900009938455034 
3.2200000000023707, -3.9895525203546236 
3.230000000002392, -3.9889531707459795 
3.240000000002413, -3.9882421749052464 
3.250000000002434, -3.9875722012148436 
3.260000000002455, -3.987009321958601 
3.2700000000024763, -3.986457044148043 
3.2800000000024974, -3.9857721944982303 
3.2900000000025185, -3.9849208513086074 
3.3000000000025396, -3.984220620269152 
3.3100000000025607, -3.9839130784628565 
3.3200000000025818, -3.9835639750470415 
3.330000000002603, -3.98295770534914 
3.340000000002624, -3.9820182112747617 
3.350000000002645, -3.9807914350290523 
3.360000000002666, -3.980124282746521 
3.3700000000026873, -3.9800657360292133 
3.3800000000027084, -3.9797491875434234 
3.3900000000027295, -3.9791128294816174 
3.4000000000027506, -3.9782496636390023 
3.4100000000027717, -3.977357506579454 
3.420000000002793, -3.976783732121895 
3.430000000002814, -3.976336508450123 
3.440000000002835, -3.9757436952226355 
3.450000000002856, -3.9750367147254217 
3.460000000002877, -3.9743679085754047 
3.4700000000028983, -3.9738073619458567 
3.4800000000029194, -3.9732612977148314 
3.4900000000029405, -3.972586491588126 
3.5000000000029616, -3.9717373566342324 
3.5100000000029827, -3.971010762769242 
3.520000000003004, -3.9706995905791005 
3.530000000003025, -3.970375243796563 
3.540000000003046, -3.9697959647431724 
3.550000000003067, -3.968889660440277 
3.5600000000030882, -3.96766834389499 
3.5700000000031094, -3.9669092902101197 
3.5800000000031305, -3.966837211265582 
3.5900000000031516, -3.9665553409903476 
3.6000000000031727, -3.9659493030125446 
3.6100000000031938, -3.9651134731487323 
3.620000000003215, -3.9642202677697504 
3.630000000003236, -3.963612768208219 
3.640000000003257, -3.9631666766245077 
3.650000000003278, -3.9625900336439757 
3.6600000000032993, -3.9618903688471363 
3.6700000000033204, -3.961217189643348 
3.6800000000033415, -3.960655365329687 
3.6900000000033626, -3.960119696196498 
3.7000000000033837, -3.959466256580284 
3.710000000003405, -3.958626999167108 
3.720000000003426, -3.957845157367384 
3.730000000003447, -3.957507647752913 
3.740000000003468, -3.9572261465233334 
3.750000000003489, -3.956696860382931 
3.7600000000035103, -3.9558510840250514 
3.7700000000035314, -3.954657781757711 
3.7800000000035525, -3.9537424526752183 
3.7900000000035736, -3.953616908978275 
3.8000000000035947, -3.953392565715633 
3.810000000003616, -3.952837613167793 
3.820000000003637, -3.952045345907107 
3.830000000003658, -3.9511567699385752 
3.840000000003679, -3.950493340638824 
3.8500000000037002, -3.950040745326872 
3.8600000000037213, -3.949489212514802 
3.8700000000037424, -3.948802542358048 
3.8800000000037635, -3.948119525823961 
3.8900000000037847, -3.947551489935981 
3.9000000000038058, -3.9470286080665424 
3.910000000003827, -3.946407183773174 
3.920000000003848, -3.9455931883407622 
3.930000000003869, -3.9447402594533054 
3.94000000000389, -3.944329833484525 
3.9500000000039113, -3.9441024593657596 
3.9600000000039324, -3.9436473436521893 
3.9700000000039535, -3.9428868518189377 
3.9800000000039746, -3.941764516486136 
3.9900000000039957, -3.940672938883716 
4.000000000004016, -3.9404045328479773 
4.010000000003993, -3.9402491926809815 
4.02000000000397, -3.939767470707504 
4.030000000003946, -3.9390349584847826 
4.040000000003923, -3.938168102002847 
4.0500000000039, -3.9374370965819 
4.0600000000038765, -3.9369577126645963 
4.070000000003853, -3.93643723385408 
4.08000000000383, -3.9357731002726952 
4.090000000003807, -3.935076696844921 
4.100000000003783, -3.934494170406745 
4.11000000000376, -3.9339836825636048 
4.120000000003737, -3.9334027617063922 
4.130000000003713, -3.9326353584558738 
4.14000000000369, -3.9317257308835787 
4.150000000003667, -3.9311686152279584 
4.1600000000036434, -3.9309825372209986 
4.17000000000362, -3.930628261552594 
4.180000000003597, -3.929974687597389 
4.1900000000035735, -3.9289712940826447 
4.20000000000355, -3.9277680510123005 
4.210000000003527, -3.927224583237886 
4.220000000003504, -3.9271113034967677 
4.23000000000348, -3.9267264443653254 
4.240000000003457, -3.9260701612562685 
4.250000000003434, -3.92524821046153 
4.26000000000341, -3.9244609808801605 
4.270000000003387, -3.9239221413061083 
4.280000000003364, -3.9234297469420576 
4.2900000000033405, -3.9228012757527395 
4.300000000003317, -3.922094736493275 
4.310000000003294, -3.92148344802128 
4.320000000003271, -3.9209806128696565 
4.330000000003247, -3.920444958508464 
4.340000000003224, -3.9197448622233324 
4.350000000003201, -3.9188314052369173 
4.360000000003177, -3.9180617446315664 
4.370000000003154, -3.9178403804443094 
4.380000000003131, -3.9176122506299293 
4.390000000003107, -3.917088140626425 
4.400000000003084, -3.9162368556758986 
4.410000000003061, -3.915060313312531 
4.4200000000030375, -3.914161562738271 
4.430000000003014, -3.913971771072531 
4.440000000002991, -3.913700110841139 
4.450000000002968, -3.913138942087248 
4.460000000002944, -3.9123835558717284 
4.470000000002921, -3.911577008166983 
4.480000000002898, -3.910950297977821 
4.490000000002874, -3.9104643473780265 
4.500000000002851, -3.9098838580308595 
4.510000000002828, -3.9091835822401455 
4.520000000002804, -3.9085254715034132 
4.530000000002781, -3.908015556436846 
4.540000000002758, -3.9075252573488393 
4.5500000000027345, -3.9069062227559703 
4.560000000002711, -3.906058277265921 
4.570000000002688, -3.905103427984075 
4.580000000002665, -3.9046707531822102 
4.590000000002641, -3.9045595441647607 
4.600000000002618, -3.9041964739304396 
4.610000000002595, -3.9035132973484865 
4.620000000002571, -3.902489736750944 
4.630000000002548, -3.901352154217599 
4.640000000002525, -3.9008645707334892 
4.6500000000025015, -3.9006730110002246 
4.660000000002478, -3.900229312902868 
4.670000000002455, -3.8995591824629785 
4.6800000000024315, -3.8987778728797324 
4.690000000002408, -3.8980697774557376 
4.700000000002385, -3.8975462111651686 
4.710000000002362, -3.897014569186129 
4.720000000002338, -3.8963493730547993 
4.730000000002315, -3.895640785254634 
4.740000000002292, -3.895087061015483 
4.750000000002268, -3.8946342482067484 
4.760000000002245, -3.89410211672534 
4.770000000002222, -3.89336813029347 
4.7800000000021985, -3.8923808632575634 
4.790000000002175, -3.891570649900705 
4.800000000002152, -3.8914236915820632 
4.810000000002129, -3.8912571763249098 
4.820000000002105, -3.8907603473431465 
4.830000000002082, -3.8899415531734065 
4.840000000002059, -3.8888294849424567 
4.850000000002035, -3.887928950905517 
4.860000000002012, -3.8876435410619576 
4.870000000001989, -3.887326094095871 
4.880000000001965, -3.886762244663179 
4.890000000001942, -3.886039624661824 
4.900000000001919, -3.885297061526587 
4.9100000000018955, -3.8846958612890803 
4.920000000001872, -3.8841871815468147 
4.930000000001849, -3.883583256606253 
4.940000000001826, -3.8828602702130306 
4.950000000001802, -3.8822101498324586 
4.960000000001779, -3.881759010287632 
4.970000000001756, -3.8813140043794228 
4.980000000001732, -3.880711268011023 
4.990000000001709, -3.879847008236852 
5.000000000001686, -3.8787808261523624 
5.0100000000016625, -3.878234336144817 
