t, s[1].omega / s[0].omega 
0, -1.6599970997831186 
0.009999999999999995, -1.6596415238782662 
0.019999999999999934, -1.659159524851845 
0.029999999999999874, -1.6585641957501935 
0.04000000000000012, -1.6578865794208528 
0.050000000000000405, -1.657184717650963 
0.06000000000000069, -1.6565415549801012 
0.07000000000000098, -1.6560365707823994 
0.08000000000000126, -1.6556987123637985 
0.09000000000000155, -1.6554863901096954 
0.10000000000000184, -1.6553211101498513 
0.11000000000000212, -1.6551340928659273 
0.12000000000000241, -1.6548825770028224 
0.130000000000002, -1.6545409383596854 
0.1400000000000009, -1.6540894453728927 
0.1499999999999998, -1.6535151718904622 
0.1599999999999987, -1.6528345788673882 
0.1699999999999976, -1.6521387943981232 
0.1799999999999965, -1.6516200189251833 
0.1899999999999954, -1.6514864999391292 
0.1999999999999943, -1.6517788703318712 
0.2099999999999932, -1.6523138663564279 
0.2199999999999921, -1.6528435699205315 
0.229999999999991, -1.653211911590279 
0.2399999999999899, -1.6533747285488023 
0.2499999999999888, -1.6533499667418539 
0.2599999999999877, -1.6531742948176364 
0.2699999999999866, -1.652884174161726 
0.2799999999999855, -1.6525138576794096 
0.2899999999999844, -1.6521006397136422 
0.2999999999999833, -1.6516885754860975 
0.3099999999999822, -1.6513228355343599 
0.3199999999999811, -1.6510343078100067 
0.32999999999998, -1.6508254854773512 
0.3399999999999789, -1.6506695150027437 
0.3499999999999778, -1.6505228136113874 
0.35999999999997667, -1.6503407243464783 
0.36999999999997557, -1.6500851903825946 
0.37999999999997447, -1.6497228293573134 
0.38999999999997337, -1.6492197871670875 
0.39999999999997227, -1.6485412940631545 
0.40999999999997117, -1.6476639505846227 
0.41999999999997006, -1.646608215919072 
0.42999999999996896, -1.6454846059107413 
0.43999999999996786, -1.644503855581417 
0.44999999999996676, -1.6438759111913472 
0.45999999999996566, -1.6436444612072876 
0.46999999999996456, -1.6436601257045715 
0.47999999999996346, -1.6437275065534878 
0.48999999999996235, -1.6437261468658249 
0.49999999999996125, -1.6436165613919649 
0.5099999999999602, -1.643399917099209 
0.519999999999959, -1.6430895986698815 
0.529999999999958, -1.6427046393451767 
0.5399999999999568, -1.6422789187053854 
0.5499999999999557, -1.6418753584373529 
0.5599999999999546, -1.6415825654279317 
0.5699999999999535, -1.6414723585193507 
0.5799999999999524, -1.6415447700445918 
0.5899999999999513, -1.6417242331749466 
0.5999999999999502, -1.6419104870661971 
0.6099999999999491, -1.642025630813285 
0.619999999999948, -1.6420269983384652 
0.6299999999999469, -1.641898602239943 
0.6399999999999458, -1.6416392903304142 
0.6499999999999447, -1.6412555873404258 
0.6599999999999436, -1.6407606012142857 
0.6699999999999425, -1.6401781588476425 
0.6799999999999414, -1.6395495454498417 
0.6899999999999403, -1.6389363199866716 
0.6999999999999392, -1.6384085869710152 
0.7099999999999381, -1.6380141494168086 
0.719999999999937, -1.6377484422114932 
0.7299999999999359, -1.63755841479492 
0.7399999999999348, -1.637377542836365 
0.7499999999999337, -1.6371538734885498 
0.7599999999999326, -1.636853026394989 
0.7699999999999315, -1.636448390399568 
0.7799999999999304, -1.6359145983726275 
0.7899999999999293, -1.6352355325745094 
0.7999999999999282, -1.6344372381390713 
0.8099999999999271, -1.6336414475351835 
0.819999999999926, -1.6330778501572003 
0.8299999999999249, -1.6329565176965666 
0.8399999999999238, -1.6332708200763772 
0.8499999999999227, -1.6337929110559546 
0.8599999999999216, -1.6342722303138042 
0.8699999999999205, -1.634574962038905 
0.8799999999999194, -1.6346769186352006 
0.8899999999999183, -1.6346052722559192 
0.8999999999999172, -1.634398366441793 
0.9099999999999161, -1.6340917913467545 
0.919999999999915, -1.6337199081805664 
0.9299999999999139, -1.6333225139249437 
0.9399999999999128, -1.6329469008134652 
0.9499999999999117, -1.6326374176205682 
0.9599999999999106, -1.6324163763747535 
0.9699999999999095, -1.6322729208253688 
0.9799999999999084, -1.632169740172036 
0.9899999999999073, -1.6320599363497148 
0.9999999999999062, -1.631900780574663 
1.0099999999999052, -1.6316579629318047 
1.019999999999904, -1.6313026821174883 
1.029999999999903, -1.6308078306067606 
1.039999999999902, -1.6301491074496095 
1.0499999999999008, -1.6293159802108952 
1.0599999999998997, -1.6283356539428184 
1.0699999999998986, -1.6273028275304402 
1.0799999999998975, -1.6263817844319213 
1.0899999999998964, -1.6257350213698782 
1.0999999999998953, -1.625407970300437 
1.1099999999998942, -1.6253003247202973 
1.119999999999893, -1.6252618177958076 
1.129999999999892, -1.6251866754846038 
1.1399999999998909, -1.6250296107616253 
1.1499999999998898, -1.624780079801803 
1.1599999999998887, -1.624440090500336 
1.1699999999998876, -1.624019002026613 
1.1799999999998865, -1.6235448257880933 
1.1899999999998854, -1.6230852898982497 
1.1999999999998843, -1.6227534376063275 
1.2099999999998832, -1.6226594428507881 
1.219999999999882, -1.6228248700510797 
1.229999999999881, -1.6231556980917907 
1.2399999999998799, -1.6235101990031542 
1.2499999999998788, -1.6237775525989786 
1.2599999999998777, -1.6239031933198578 
1.2699999999998766, -1.623875161945217 
1.2799999999998755, -1.623703387368772 
1.2899999999998744, -1.623406229298444 
1.2999999999998733, -1.623005751349131 
1.3099999999998722, -1.6225292976164536 
1.319999999999871, -1.6220136724828287 
1.32999999999987, -1.621506447154428 
1.3399999999998689, -1.6210582615321063 
1.3499999999998678, -1.62070464412318 
1.3599999999998666, -1.62044721439644 
1.3699999999998655, -1.6202517985444025 
1.3799999999998644, -1.6200672564101464 
1.3899999999998633, -1.6198462756747893 
1.3999999999998622, -1.6195517468743552 
1.4099999999998611, -1.619151195244772 
1.41999999999986, -1.6186100788012308 
1.429999999999859, -1.6178940094359118 
1.4399999999998578, -1.6169909149597923 
1.4499999999998567, -1.6159610028096298 
1.4599999999998556, -1.6149879345540128 
1.4699999999998545, -1.6143371209156403 
1.4799999999998534, -1.6141665480653593 
1.4899999999998523, -1.6143778498574943 
1.4999999999998512, -1.6147191832176813 
1.5099999999998501, -1.6149872676276449 
1.519999999999849, -1.6150995075022596 
1.529999999999848, -1.6150537068526123 
1.5399999999998468, -1.61487629874127 
1.5499999999998457, -1.6145969679307992 
1.5599999999998446, -1.6142449950455213 
1.5699999999998435, -1.6138564939392857 
1.5799999999998424, -1.6134819728644256 
1.5899999999998413, -1.6131807179575457 
1.5999999999998402, -1.6129954632480803 
1.6099999999998391, -1.6129259461003351 
1.619999999999838, -1.6129292240296251 
1.629999999999837, -1.6129445592523777 
1.6399999999998358, -1.6129175601617434 
1.6499999999998347, -1.6128097056378476 
1.6599999999998336, -1.6125965404938103 
1.6699999999998325, -1.61226253698853 
1.6799999999998314, -1.6117981303661317 
1.6899999999998303, -1.6112015422070332 
1.6999999999998292, -1.6104864305435236 
1.709999999999828, -1.6096941861234868 
1.719999999999827, -1.608903177476114 
1.729999999999826, -1.6082170653184125 
1.7399999999998248, -1.6077185166895045 
1.7499999999998237, -1.6074156848667223 
1.7599999999998226, -1.6072403447565748 
1.7699999999998215, -1.6071010905865204 
1.7799999999998204, -1.606929995731201 
1.7899999999998193, -1.6066901571155086 
1.7999999999998182, -1.6063621859049104 
1.809999999999817, -1.6059327604960134 
1.819999999999816, -1.6053959708213583 
1.8299999999998149, -1.6047732741552836 
1.8399999999998138, -1.6041502038624387 
1.8499999999998127, -1.6036945271754726 
1.8599999999998116, -1.6035854872017008 
1.8699999999998105, -1.6038655992818591 
1.8799999999998094, -1.6043859629417927 
1.8899999999998083, -1.6049256196183908 
1.8999999999998072, -1.6053288234467125 
1.909999999999806, -1.605538422172857 
1.919999999999805, -1.6055609074289072 
1.9299999999998039, -1.6054271333113828 
1.9399999999998028, -1.605171314174375 
1.9499999999998017, -1.604825748692629 
1.9599999999998006, -1.604423969801059 
1.9699999999997995, -1.6040053223262665 
1.9799999999997984, -1.603613801320127 
1.9899999999997973, -1.6032872277907937 
1.9999999999997962, -1.603042154448588 
2.0099999999998173, -1.602866205593251 
2.0199999999998384, -1.6027240680562937 
2.0299999999998595, -1.6025720159284789 
2.0399999999998806, -1.6023698398864785 
2.0499999999999017, -1.602083708628561 
2.059999999999923, -1.6016824719537226 
2.069999999999944, -1.6011340103133462 
2.079999999999965, -1.6004080889679446 
2.089999999999986, -1.59949204818775 
2.100000000000007, -1.5984230701982958 
2.1100000000000283, -1.597324018639827 
2.1200000000000494, -1.5963942431661269 
2.1300000000000705, -1.5958062583513233 
2.1400000000000916, -1.5955753753938176 
2.1500000000001127, -1.5955604169830306 
2.160000000000134, -1.5955911985630549 
2.170000000000155, -1.5955625944737555 
2.180000000000176, -1.595437321628332 
2.190000000000197, -1.5952129146291063 
2.2000000000002182, -1.594897953132239 
2.2100000000002393, -1.594506368078629 
2.2200000000002604, -1.594066375783188 
2.2300000000002815, -1.5936368081724668 
2.2400000000003026, -1.5933112669908425 
2.2500000000003237, -1.5931823168948143 
2.260000000000345, -1.5932761167706933 
2.270000000000366, -1.5935258316791274 
2.280000000000387, -1.5938168483784982 
2.290000000000408, -1.5940492479328106 
2.3000000000004293, -1.5941651074328074 
2.3100000000004504, -1.594143383013774 
2.3200000000004715, -1.5939850303511078 
2.3300000000004926, -1.5937014725365306 
2.3400000000005137, -1.593309479815001 
2.3500000000005348, -1.592831603339234 
2.360000000000556, -1.5922998914383992 
2.370000000000577, -1.5917587714113037 
2.380000000000598, -1.5912610346206282 
2.390000000000619, -1.5908525090704158 
2.4000000000006403, -1.5905504448933683 
2.4100000000006614, -1.5903329090961322 
2.4200000000006825, -1.5901515061090326 
2.4300000000007036, -1.58995506284147 
2.4400000000007247, -1.5897028277702208 
2.450000000000746, -1.5893626059699109 
2.460000000000767, -1.5889031159482354 
2.470000000000788, -1.5882905774486773 
2.480000000000809, -1.5874986269477147 
2.49000000000083, -1.5865416524321019 
2.5000000000008513, -1.5855288049549 
2.5100000000008724, -1.5846855057046603 
2.5200000000008935, -1.5842488102661796 
2.5300000000009146, -1.5842726714143192 
2.5400000000009357, -1.584578749077005 
2.550000000000957, -1.5849227756849926 
2.560000000000978, -1.5851507617344809 
2.570000000000999, -1.585216759166325 
2.58000000000102, -1.5851327958361545 
2.5900000000010412, -1.5849273667876482 
2.6000000000010624, -1.5846289880218962 
2.6100000000010835, -1.5842667121041236 
2.6200000000011046, -1.5838783158232415 
2.6300000000011257, -1.5835162094868067 
2.6400000000011468, -1.5832384590810316 
2.650000000001168, -1.5830820284738274 
2.660000000001189, -1.5830395966337063 
2.67000000000121, -1.5830641688884357 
2.680000000001231, -1.5830947404472793 
2.6900000000012523, -1.5830786523713871 
2.7000000000012734, -1.5829795469608774 
2.7100000000012945, -1.582775133489447 
2.7200000000013156, -1.5824523004906141 
2.7300000000013367, -1.5820043731998599 
2.740000000001358, -1.5814325622290193 
2.750000000001379, -1.5807521696613762 
2.7600000000014, -1.5800022148965949 
2.770000000001421, -1.5792521700027182 
2.780000000001442, -1.578592209345775 
2.7900000000014633, -1.5780964697633373 
2.8000000000014844, -1.577778504637932 
2.8100000000015055, -1.5775845588849575 
2.8200000000015266, -1.5774339349811008 
2.8300000000015477, -1.5772609501464365 
2.840000000001569, -1.5770261749470884 
2.85000000000159, -1.576706622226625 
2.860000000001611, -1.5762845804365022 
2.870000000001632, -1.5757460226051265 
2.8800000000016532, -1.5750953551359914 
2.8900000000016743, -1.5743902576101287 
2.9000000000016954, -1.5737770360924934 
2.9100000000017165, -1.5734603836549872 
2.9200000000017377, -1.573564627893061 
2.9300000000017588, -1.5740107053178582 
2.94000000000178, -1.574575984577366 
2.950000000001801, -1.5750576414884334 
2.960000000001822, -1.5753566242080779 
2.970000000001843, -1.5754598995103979 
2.9800000000018643, -1.5753943229681748 
2.9900000000018854, -1.5751957318375356 
3.0000000000019065, -1.5748976963930454 
3.0100000000019276, -1.5745323851900537 
3.0200000000019487, -1.5741360382459266 
3.03000000000197, -1.5737516652069723 
3.040000000001991, -1.573422220466846 
3.050000000002012, -1.5731749990823651 
3.060000000002033, -1.5730089780338992 
3.070000000002054, -1.5728960062957342 
3.0800000000020753, -1.5727937601685034 
3.0900000000020964, -1.572659841779266 
3.1000000000021175, -1.5724588807093125 
3.1100000000021386, -1.5721620656419335 
3.1200000000021597, -1.5717437195790376 
3.130000000002181, -1.5711801183486183 
3.140000000002202, -1.5704546010618734 
3.150000000002223, -1.5695719624001097 
3.160000000002244, -1.5685813251051208 
3.1700000000022652, -1.5675939448132536 
3.1800000000022863, -1.5667635582476067 
3.1900000000023074, -1.5662085964916108 
3.2000000000023285, -1.5659308529713836 
3.2100000000023496, -1.5658244851514678 
3.2200000000023707, -1.5657626090073555 
3.230000000002392, -1.56566121841874 
3.240000000002413, -1.5654835928281603 
3.250000000002434, -1.5652188028336098 
3.260000000002455, -1.5648649433961537 
3.2700000000024763, -1.5644260065449478 
3.2800000000024974, -1.5639232809442167 
3.2900000000025185, -1.5634181205249633 
3.3000000000025396, -1.563025965074642 
3.3100000000025607, -1.5628803279781533 
3.3200000000025818, -1.563040701065981 
3.330000000002603, -1.5634332704922145 
3.340000000002624, -1.5639010057047205 
3.350000000002645, -1.5643008894656423 
3.360000000002666, -1.5645538203484481 
3.3700000000026873, -1.5646384718771773 
3.3800000000027084, -1.5645660089957278 
3.3900000000027295, -1.564359955777881 
3.4000000000027506, -1.5640465970623445 
3.4100000000027717, -1.5636536267282173 
3.420000000002793, -1.563213141183858 
3.430000000002814, -1.5627641610580487 
3.440000000002835, -1.5623493894391394 
3.450000000002856, -1.5620040711075531 
3.460000000002877, -1.5617419712339977 
3.4700000000028983, -1.5615485036970136 
3.4800000000029194, -1.561387312656546 
3.4900000000029405, -1.5612151998598849 
3.5000000000029616, -1.5609933492957586 
3.5100000000029827, -1.5606888916436727 
3.520000000003004, -1.5602704197210262 
3.530000000003025, -1.5597042799028533 
3.540000000003046, -1.558958069439855 
3.550000000003067, -1.558018054944541 
3.5600000000030882, -1.5569242928006433 
3.5700000000031094, -1.5558081858913093 
3.5800000000031305, -1.554879713008596 
3.5900000000031516, -1.5543163836290366 
3.6000000000031727, -1.5541296565573934 
3.6100000000031938, -1.5541692081653766 
3.620000000003215, -1.55425526136317 
3.630000000003236, -1.5542763897040066 
3.640000000003257, -1.5541936574968362 
3.650000000003278, -1.5540062934495327 
3.6600000000032993, -1.553725468327658 
3.6700000000033204, -1.5533656889731045 
3.6800000000033415, -1.552949991457087 
3.6900000000033626, -1.552523375570819 
3.7000000000033837, -1.552162009617051 
3.710000000003405, -1.5519556181645027 
3.720000000003426, -1.5519564225962847 
3.730000000003447, -1.552137192673507 
3.740000000003468, -1.5524066144684585 
3.750000000003489, -1.5526629052061738 
3.7600000000035103, -1.5528330805338615 
3.7700000000035314, -1.5528805779273989 
3.7800000000035525, -1.5527955801708537 
3.7900000000035736, -1.5525832798730035 
3.8000000000035947, -1.5522563999399657 
3.810000000003616, -1.551832840135332 
3.820000000003637, -1.5513373640642951 
3.830000000003658, -1.5508049165501068 
3.840000000003679, -1.5502812667693018 
3.8500000000037002, -1.5498157702938076 
3.8600000000037213, -1.549444738618802 
3.8700000000037424, -1.5491736553776954 
3.8800000000037635, -1.5489736186310112 
3.8900000000037847, -1.548796915111514 
3.9000000000038058, -1.5485969500559835 
3.910000000003827, -1.548336759140523 
3.920000000003848, -1.547985645357227 
3.930000000003869, -1.5475123540686684 
3.94000000000389, -1.5468827851623241 
3.9500000000039113, -1.5460698384118043 
3.9600000000039324, -1.5450837686128804 
3.9700000000039535, -1.544020464740281 
3.9800000000039746, -1.5430843223722068 
3.9900000000039957, -1.5425066380415018 
4.000000000004016, -1.542374075119322 
4.010000000003993, -1.5425563363946886 
4.02000000000397, -1.5428301454069866 
4.030000000003946, -1.5430319868187785 
4.040000000003923, -1.5430976222101895 
4.0500000000039, -1.5430253614750993 
4.0600000000038765, -1.5428357900438578 
4.070000000003853, -1.542552324706216 
4.08000000000383, -1.5421988674107616 
4.090000000003807, -1.5418071439309493 
4.100000000003783, -1.541426023496391 
4.11000000000376, -1.541120297131807 
4.120000000003737, -1.5409473957794204 
4.130000000003713, -1.5409230553505855 
4.14000000000369, -1.5410092017374766 
4.150000000003667, -1.5411365280227929 
4.1600000000036434, -1.5412370721230366 
4.17000000000362, -1.5412622937033171 
4.180000000003597, -1.5411847335494604 
4.1900000000035735, -1.540992351462424 
4.20000000000355, -1.5406828153993801 
4.210000000003527, -1.5402607722303105 
4.220000000003504, -1.5397387275838141 
4.23000000000348, -1.5391409804063751 
4.240000000003457, -1.5385083305881058 
4.250000000003434, -1.5378981962843103 
4.26000000000341, -1.5373727404643893 
4.270000000003387, -1.5369736349386216 
4.280000000003364, -1.5366989566557208 
4.2900000000033405, -1.5365051633338154 
4.300000000003317, -1.5363333054882804 
4.310000000003294, -1.5361333447386087 
4.320000000003271, -1.5358701717398286 
4.330000000003247, -1.535516899392983 
4.340000000003224, -1.535046970001948 
4.350000000003201, -1.534433189440294 
4.360000000003177, -1.5336610781618056 
4.370000000003154, -1.532763594184724 
4.380000000003131, -1.5318670451956762 
4.390000000003107, -1.5311909269471105 
4.400000000003084, -1.5309314211351515 
4.410000000003061, -1.531097358644666 
4.4200000000030375, -1.531499604511124 
4.430000000003014, -1.5319093973638174 
4.440000000002991, -1.5321875856841163 
4.450000000002968, -1.5322945821935328 
4.460000000002944, -1.5322446916628212 
4.470000000002921, -1.5320679484317592 
4.480000000002898, -1.5317938282602914 
4.490000000002874, -1.5314502795540128 
4.500000000002851, -1.5310703060926643 
4.510000000002828, -1.5306987370772944 
4.520000000002804, -1.530389415411817 
4.530000000002781, -1.5301864983598643 
4.540000000002758, -1.530100596078196 
4.5500000000027345, -1.5301021789977152 
4.560000000002711, -1.5301379863298334 
4.570000000002688, -1.5301536442443502 
4.580000000002665, -1.5301069680380004 
4.590000000002641, -1.5299701731110886 
4.600000000002618, -1.5297265786995324 
4.610000000002595, -1.5293671028197948 
4.620000000002571, -1.5288893197518272 
4.630000000002548, -1.528300046333816 
4.640000000002525, -1.5276212814654222 
4.6500000000025015, -1.526897246713454 
4.660000000002478, -1.5261959679231385 
4.670000000002455, -1.5255950638052915 
4.6800000000024315, -1.525148746831088 
4.690000000002408, -1.5248568074699864 
4.700000000002385, -1.524667105493426 
4.710000000002362, -1.5245098649481954 
4.720000000002338, -1.5243285980906198 
4.730000000002315, -1.5240872862903476 
4.740000000002292, -1.523762118172236 
4.750000000002268, -1.5233320917105426 
4.760000000002245, -1.5227768971696818 
4.770000000002222, -1.5220882601262342 
4.7800000000021985, -1.5213004758549056 
4.790000000002175, -1.520531132119658 
4.800000000002152, -1.5199816036003981 
4.810000000002129, -1.5198332069711795 
4.820000000002105, -1.520095461736372 
4.830000000002082, -1.5205881986730416 
4.840000000002059, -1.5210849165563172 
4.850000000002035, -1.5214410580439508 
4.860000000002012, -1.521611800995223 
4.870000000001989, -1.5216104542014386 
4.880000000001965, -1.5214693495348108 
4.890000000001942, -1.5212210740315901 
4.900000000001919, -1.520895239502259 
4.9100000000018955, -1.5205232808029443 
4.920000000001872, -1.5201447094739708 
4.930000000001849, -1.5198070224164442 
4.940000000001826, -1.5195531134867375 
