t, s[1].omega / s[0].omega 
0, -1.6299971243812306 
0.009999999999999995, -1.629634245902158 
0.019999999999999934, -1.6291254583341839 
0.029999999999999874, -1.628483560270262 
0.04000000000000012, -1.6277399431100918 
0.050000000000000405, -1.6269557646921373 
0.06000000000000069, -1.6262235289640814 
0.07000000000000098, -1.6256405473706246 
0.08000000000000126, -1.6252546774261027 
0.09000000000000155, -1.6250303782461049 
0.10000000000000184, -1.6248787142924381 
0.11000000000000212, -1.6247147039662295 
0.12000000000000241, -1.6244831532010093 
0.130000000000002, -1.6241502542841837 
0.1400000000000009, -1.6236877407583041 
0.1499999999999998, -1.6230681740256692 
0.1599999999999987, -1.622284321806656 
0.1699999999999976, -1.621404939915815 
0.1799999999999965, -1.6206431745855572 
0.1899999999999954, -1.6203173654941154 
0.1999999999999943, -1.6206084380697134 
0.2099999999999932, -1.6213564971056182 
0.2199999999999921, -1.6222047192512874 
0.229999999999991, -1.6228788698810388 
0.2399999999999899, -1.6232800877109068 
0.2499999999999888, -1.6234225741017494 
0.2599999999999877, -1.6233583664405615 
0.2699999999999866, -1.623139670625919 
0.2799999999999855, -1.6228106241060367 
0.2899999999999844, -1.6224130601792068 
0.2999999999999833, -1.6219948481244615 
0.3099999999999822, -1.621610124085797 
0.3199999999999811, -1.621305047826624 
0.32999999999998, -1.6210976940076178 
0.3399999999999789, -1.6209700043075563 
0.3499999999999778, -1.6208777261439522 
0.35999999999997667, -1.6207685546430142 
0.36999999999997557, -1.6205955155502116 
0.37999999999997447, -1.620319504696175 
0.38999999999997337, -1.6199043081672742 
0.39999999999997227, -1.6193116449218699 
0.40999999999997117, -1.6185034632717437 
0.41999999999997006, -1.6174588861767762 
0.42999999999996896, -1.6162119708667393 
0.43999999999996786, -1.614899740595439 
0.44999999999996676, -1.6137642059169344 
0.45999999999996566, -1.6130333169474942 
0.46999999999996456, -1.6127448182601594 
0.47999999999996346, -1.6127304154945077 
0.48999999999996235, -1.6127792546078403 
0.49999999999996125, -1.6127625659853462 
0.5099999999999602, -1.6126356512579285 
0.519999999999959, -1.612394385900696 
0.529999999999958, -1.612046032839136 
0.5399999999999568, -1.6116045495471787 
0.5499999999999557, -1.6111065887532998 
0.5599999999999546, -1.6106386422419856 
0.5699999999999535, -1.6103412664290861 
0.5799999999999524, -1.6103422572445094 
0.5899999999999513, -1.610650423539352 
0.5999999999999502, -1.611136972555522 
0.6099999999999491, -1.6116299666922185 
0.619999999999948, -1.6120049169555202 
0.6299999999999469, -1.6122055791298853 
0.6399999999999458, -1.6122231596746128 
0.6499999999999447, -1.612071638355215 
0.6599999999999436, -1.6117729027464047 
0.6699999999999425, -1.6113518730123215 
0.6799999999999414, -1.6108386818312201 
0.6899999999999403, -1.6102740922824978 
0.6999999999999392, -1.6097123295045672 
0.7099999999999381, -1.6092140333762213 
0.719999999999937, -1.6088257698127957 
0.7299999999999359, -1.6085553789072673 
0.7399999999999348, -1.6083656259352128 
0.7499999999999337, -1.6081956094229448 
0.7599999999999326, -1.6079877817353694 
0.7699999999999315, -1.6076971033076108 
0.7799999999999304, -1.6072837183255164 
0.7899999999999293, -1.606702612173308 
0.7999999999999282, -1.605902598265684 
0.8099999999999271, -1.6048494020603847 
0.819999999999926, -1.6035899776748912 
0.8299999999999249, -1.6023394520022438 
0.8399999999999238, -1.601465975386052 
0.8499999999999227, -1.601241788421874 
0.8599999999999216, -1.6015783275987172 
0.8699999999999205, -1.602128078206635 
0.8799999999999194, -1.6025925664646976 
0.8899999999999183, -1.6028497896154739 
0.8999999999999172, -1.602897753740363 
0.9099999999999161, -1.6027753967219653 
0.919999999999915, -1.60252368811222 
0.9299999999999139, -1.6021788827184047 
0.9399999999999128, -1.601781515884566 
0.9499999999999117, -1.6013883975065972 
0.9599999999999106, -1.6010712919911316 
0.9699999999999095, -1.6008893751722675 
0.9799999999999084, -1.6008526293366276 
0.9899999999999073, -1.6009152482921425 
0.9999999999999062, -1.6010045612539305 
1.0099999999999052, -1.6010532448471957 
1.019999999999904, -1.6010133488453229 
1.029999999999903, -1.6008549090195305 
1.039999999999902, -1.600559279177654 
1.0499999999999008, -1.6001142056952034 
1.0599999999998997, -1.5995138347845355 
1.0699999999998986, -1.5987650652150014 
1.0799999999998975, -1.5979004486117983 
1.0899999999998964, -1.596993148349001 
1.0999999999998953, -1.5961577837091843 
1.1099999999998942, -1.5955127983653852 
1.119999999999893, -1.5951102175466312 
1.129999999999892, -1.5948997157720077 
1.1399999999998909, -1.5947735945926866 
1.1499999999998898, -1.5946364325773899 
1.1599999999998887, -1.5944316913206966 
1.1699999999998876, -1.5941297094191431 
1.1799999999998865, -1.5937094688151905 
1.1899999999998854, -1.593152348515646 
1.1999999999998843, -1.5924573025170767 
1.2099999999998832, -1.5916857294416 
1.219999999999882, -1.5910176687820698 
1.229999999999881, -1.5907274495815718 
1.2399999999998799, -1.5909936547495118 
1.2499999999998788, -1.591710318314624 
1.2599999999998777, -1.5925687210228416 
1.2699999999998766, -1.5932961468188205 
1.2799999999998755, -1.5937698020823543 
1.2899999999998744, -1.5939829998314206 
1.2999999999998733, -1.593978115895425 
1.3099999999998722, -1.5938052554643791 
1.319999999999871, -1.5935084611712396 
1.32999999999987, -1.5931275030398075 
1.3399999999998689, -1.592705256216939 
1.3499999999998678, -1.5922916797110473 
1.3599999999998666, -1.591936491439604 
1.3699999999998655, -1.591671704421927 
1.3799999999998644, -1.591497393847475 
1.3899999999998633, -1.59138244847317 
1.3999999999998622, -1.5912786077796746 
1.4099999999998611, -1.5911366767771016 
1.41999999999986, -1.590914598385587 
1.429999999999859, -1.5905757360673634 
1.4399999999998578, -1.5900832306062864 
1.4499999999998567, -1.5893976829341399 
1.4599999999998556, -1.588484882424178 
1.4699999999998545, -1.5873406210856054 
1.4799999999998534, -1.5860342902918099 
1.4899999999998523, -1.5847461046089104 
1.4999999999998512, -1.5837286826196353 
1.5099999999998501, -1.5831539315429062 
1.519999999999849, -1.582978879279127 
1.529999999999848, -1.5830056207184562 
1.5399999999998468, -1.58304687755022 
1.5499999999998457, -1.5830049283392815 
1.5599999999998446, -1.5828513096936185 
1.5699999999998435, -1.582586294005027 
1.5799999999998424, -1.5822172822340925 
1.5899999999998413, -1.5817591437503054 
1.5999999999998402, -1.5812529375282556 
1.6099999999998391, -1.580792662452483 
1.619999999999838, -1.5805238256160568 
1.629999999999837, -1.580569869307605 
1.6399999999998358, -1.5809284282726273 
1.6499999999998347, -1.581461743570303 
1.6599999999998336, -1.5819943662865354 
1.6699999999998325, -1.5824015939029648 
1.6799999999998314, -1.5826285163167633 
1.6899999999998303, -1.5826685855245266 
1.6999999999998292, -1.5825384596370928 
1.709999999999828, -1.5822626085001046 
1.719999999999827, -1.5818678987331816 
1.729999999999826, -1.581385150112906 
1.7399999999998248, -1.5808537956698516 
1.7499999999998237, -1.5803241391525584 
1.7599999999998226, -1.5798510193012145 
1.7699999999998215, -1.5794767081309804 
1.7799999999998204, -1.5792106729249338 
1.7899999999998193, -1.579022894191491 
1.7999999999998182, -1.578859452979501 
1.809999999999817, -1.5786656767192184 
1.819999999999816, -1.578396671469947 
1.8299999999998149, -1.5780128733217484 
1.8399999999998138, -1.5774706615519674 
1.8499999999998127, -1.5767184767572557 
1.8599999999998116, -1.5757097822212063 
1.8699999999998105, -1.574447983110393 
1.8799999999998094, -1.5730640641360085 
1.8899999999998083, -1.571858445597606 
1.8999999999998072, -1.5711688385834506 
1.909999999999806, -1.5710943146301353 
1.919999999999805, -1.5714119120033125 
1.9299999999998039, -1.5718041563678904 
1.9399999999998028, -1.5720738598921369 
1.9499999999998017, -1.5721638039488997 
1.9599999999998006, -1.572087638898704 
1.9699999999997995, -1.5718767692081759 
1.9799999999997984, -1.5715612596355544 
1.9899999999997973, -1.5711725663145717 
1.9999999999997962, -1.5707569124815368 
2.0099999999998173, -1.570386302168372 
2.0199999999998384, -1.570146086116226 
2.0299999999998595, -1.5700906611890781 
2.0399999999998806, -1.5702036804546187 
2.0499999999999017, -1.5704080688489603 
2.059999999999923, -1.5706117826542383 
2.069999999999944, -1.5707432000389505 
2.079999999999965, -1.5707598351018874 
2.089999999999986, -1.570641703622702 
2.100000000000007, -1.5703822392944615 
2.1100000000000283, -1.569982659350703 
2.1200000000000494, -1.5694512131011968 
2.1300000000000705, -1.5688072234652082 
2.1400000000000916, -1.5680886145493225 
2.1500000000001127, -1.567358230656955 
2.160000000000134, -1.5666986110113856 
2.170000000000155, -1.5661844685779005 
2.180000000000176, -1.565841717348364 
2.190000000000197, -1.5656305789769274 
2.2000000000002182, -1.5654742983549947 
2.2100000000002393, -1.5653012478837334 
2.2200000000002604, -1.5650621531565225 
2.2300000000002815, -1.5647227890061597 
2.2400000000003026, -1.5642508073487118 
2.2500000000003237, -1.5636101971490928 
2.260000000000345, -1.5627741633939478 
2.270000000000366, -1.5617702129320923 
2.280000000000387, -1.5607535877699301 
2.290000000000408, -1.5600291065190193 
2.3000000000004293, -1.5598875410145072 
2.3100000000004504, -1.5603380208733697 
2.3200000000004715, -1.5610866233269038 
2.3300000000004926, -1.5617976527621125 
2.3400000000005137, -1.5622888100376895 
2.3500000000005348, -1.5625266670226927 
2.360000000000556, -1.5625476544532373 
2.370000000000577, -1.5624021403115695 
2.380000000000598, -1.5621341187375313 
2.390000000000619, -1.5617818941589179 
2.4000000000006403, -1.5613874017979463 
2.4100000000006614, -1.5610040618074692 
2.4200000000006825, -1.5606914395638585 
2.4300000000007036, -1.5604924208745952 
2.4400000000007247, -1.5604099158536584 
2.450000000000746, -1.5604062671310706 
2.460000000000767, -1.5604238812544984 
2.470000000000788, -1.5604070745390115 
2.480000000000809, -1.5603126033644485 
2.49000000000083, -1.5601095844910167 
2.5000000000008513, -1.5597750384294478 
2.5100000000008724, -1.5592906628327916 
2.5200000000008935, -1.5586441429046738 
2.5300000000009146, -1.557836867216077 
2.5400000000009357, -1.55689859913913 
2.550000000000957, -1.5559046382026303 
2.560000000000978, -1.5549785650814498 
2.570000000000999, -1.5542541605547806 
2.58000000000102, -1.5537994943279785 
2.5900000000010412, -1.5535713660564556 
2.6000000000010624, -1.5534563860200425 
2.6100000000010835, -1.5533476983002763 
2.6200000000011046, -1.553180619511293 
2.6300000000011257, -1.5529236705014706 
2.6400000000011468, -1.552558512515463 
2.650000000001168, -1.5520691044826624 
2.660000000001189, -1.5514477101987376 
2.67000000000121, -1.550724690480814 
2.680000000001231, -1.5500191493782294 
2.6900000000012523, -1.5495593890693073 
2.7000000000012734, -1.5495777212707236 
2.7100000000012945, -1.550109533067475 
2.7200000000013156, -1.5509369855879513 
2.7300000000013367, -1.5517636883825627 
2.740000000001358, -1.552393722810264 
2.750000000001379, -1.5527646600361034 
2.7600000000014, -1.552894823563322 
2.770000000001421, -1.552830146118152 
2.780000000001442, -1.55261703480114 
2.7900000000014633, -1.5522957845364223 
2.8000000000014844, -1.5519047202230725 
2.8100000000015055, -1.5514870796834743 
2.8200000000015266, -1.551092541998556 
2.8300000000015477, -1.5507672480542607 
2.840000000001569, -1.5505362841747343 
2.85000000000159, -1.5503925605042084 
2.860000000001611, -1.550301010281658 
2.870000000001632, -1.5502135122263336 
2.8800000000016532, -1.5500833655452024 
2.8900000000016743, -1.549871457427008 
2.9000000000016954, -1.5495443251050622 
2.9100000000017165, -1.5490696447379564 
2.9200000000017377, -1.5484149884042906 
2.9300000000017588, -1.5475546182109332 
2.94000000000178, -1.546488512991791 
2.950000000001801, -1.5452737457663774 
2.960000000001822, -1.5440516481951032 
2.970000000001843, -1.5430262689761407 
2.9800000000018643, -1.542360532635452 
2.9900000000018854, -1.5420615607236066 
3.0000000000019065, -1.5419900962780566 
3.0100000000019276, -1.5419795067903657 
3.0200000000019487, -1.5419222583454093 
3.03000000000197, -1.5417736613638897 
3.040000000001991, -1.5415216267848861 
3.050000000002012, -1.5411636813145841 
3.060000000002033, -1.5407014987814225 
3.070000000002054, -1.5401537165024022 
3.0800000000020753, -1.5395859949358015 
3.0900000000020964, -1.539138416689124 
3.1000000000021175, -1.5389942707013078 
3.1100000000021386, -1.5392595802461626 
3.1200000000021597, -1.5398594856972077 
3.130000000002181, -1.5405863710199366 
3.140000000002202, -1.5412384286053389 
3.150000000002223, -1.5417011452967446 
3.160000000002244, -1.5419434848837579 
3.1700000000022652, -1.5419816529295773 
3.1800000000022863, -1.5418489413075323 
3.1900000000023074, -1.5415805934981253 
3.2000000000023285, -1.5412104319198179 
3.2100000000023496, -1.5407741344388532 
3.2200000000023707, -1.540313708041894 
3.230000000002392, -1.539876885470706 
3.240000000002413, -1.5395073967028314 
3.250000000002434, -1.539229592821998 
3.260000000002455, -1.5390375889302064 
3.2700000000024763, -1.5388975147509576 
3.2800000000024974, -1.538761713004316 
3.2900000000025185, -1.5385836470079655 
3.3000000000025396, -1.5383234573693867 
3.3100000000025607, -1.5379444224106802 
3.3200000000025818, -1.5374070497854533 
3.330000000002603, -1.53666781802713 
3.340000000002624, -1.5356895297524527 
3.350000000002645, -1.534470792319007 
3.360000000002666, -1.533094257719043 
3.3700000000026873, -1.5317612078274927 
3.3800000000027084, -1.5307383857363996 
3.3900000000027295, -1.5301926032762014 
3.4000000000027506, -1.5300648406173696 
3.4100000000027717, -1.5301442920167412 
3.420000000002793, -1.530236509551905 
3.430000000002814, -1.5302406134146185 
3.440000000002835, -1.5301283294815542 
3.450000000002856, -1.529902300481414 
3.460000000002877, -1.5295721685525987 
3.4700000000028983, -1.5291509410247845 
3.4800000000029194, -1.528667530184314 
3.4900000000029405, -1.5281899375104682 
3.5000000000029616, -1.527838089157695 
3.5100000000029827, -1.5277466170907519 
3.520000000003004, -1.5279745690339455 
3.530000000003025, -1.528448620865253 
3.540000000003046, -1.5290108586313425 
3.550000000003067, -1.5295121985379903 
3.5600000000030882, -1.5298632403135373 
3.5700000000031094, -1.5300323949899 
3.5800000000031305, -1.5300237530168574 
3.5900000000031516, -1.5298574625806771 
3.6000000000031727, -1.5295588713639583 
3.6100000000031938, -1.5291555209166499 
3.620000000003215, -1.528679360135793 
3.630000000003236, -1.528170469983084 
3.640000000003257, -1.527677111789686 
3.650000000003278, -1.5272475002819612 
3.6600000000032993, -1.5269139468105 
3.6700000000033204, -1.526677956828677 
3.6800000000033415, -1.526508438918264 
3.6900000000033626, -1.5263561304591682 
3.7000000000033837, -1.5261717007220734 
3.710000000003405, -1.5259135507831032 
3.720000000003426, -1.5255442310934104 
3.730000000003447, -1.5250230127038604 
3.740000000003468, -1.5243024982099345 
3.750000000003489, -1.5233372372045715 
3.7600000000035103, -1.522114343023005 
3.7700000000035314, -1.520709556107271 
3.7800000000035525, -1.5193355555110482 
3.7900000000035736, -1.5182931537036537 
3.8000000000035947, -1.5177823313060215 
3.810000000003616, -1.5177439401499109 
3.820000000003637, -1.5179362308523967 
3.830000000003658, -1.5181334961827713 
3.840000000003679, -1.5182211705259996 
3.8500000000037002, -1.5181720259803906 
3.8600000000037213, -1.5179960189817354 
3.8700000000037424, -1.5177107447119917 
3.8800000000037635, -1.5173344589091557 
3.8900000000037847, -1.5168946666509493 
3.9000000000038058, -1.5164461339975601 
3.910000000003827, -1.5160835328889122 
3.920000000003848, -1.5159197925608658 
3.930000000003869, -1.5160206345287444 
3.94000000000389, -1.5163502861819649 
3.9500000000039113, -1.5167916952840483 
3.9600000000039324, -1.5172159782624903 
3.9700000000039535, -1.5175323382667085 
3.9800000000039746, -1.517696914028599 
3.9900000000039957, -1.517699802129238 
4.000000000004016, -1.517549679119188 
4.010000000003993, -1.517263658683954 
4.02000000000397, -1.5168632608238224 
4.030000000003946, -1.5163752829420087 
4.040000000003923, -1.5158352919779206 
4.0500000000039, -1.515289719494262 
4.0600000000038765, -1.5147912992274823 
4.070000000003853, -1.5143849208160352 
4.08000000000383, -1.5140886567675358 
4.090000000003807, -1.5138835669739197 
4.100000000003783, -1.5137230153427974 
4.11000000000376, -1.5135536739459678 
4.120000000003737, -1.513329764643434 
4.130000000003713, -1.5130132664072453 
4.14000000000369, -1.5125662772446289 
4.150000000003667, -1.511944283011142 
4.1600000000036434, -1.511097999656471 
4.17000000000362, -1.509993502642854 
4.180000000003597, -1.508660310775018 
4.1900000000035735, -1.507254714296137 
4.20000000000355, -1.5060660535304433 
4.210000000003527, -1.505373586697898 
4.220000000003504, -1.505231394589821 
4.23000000000348, -1.5054377979789946 
4.240000000003457, -1.5057252589374213 
4.250000000003434, -1.505923179844014 
4.26000000000341, -1.50597399052376 
4.270000000003387, -1.505880908462514 
4.280000000003364, -1.505664889138178 
4.2900000000033405, -1.5053472890160502 
4.300000000003317, -1.5049510932765071 
4.310000000003294, -1.5045137469398961 
4.320000000003271, -1.5041033529193957 
4.330000000003247, -1.5038187772257197 
4.340000000003224, -1.50375118035732 
4.350000000003201, -1.5039230557901886 
4.360000000003177, -1.5042663674552696 
4.370000000003154, -1.504664784322776 
4.380000000003131, -1.5050121438838158 
4.390000000003107, -1.5052412346120025 
4.400000000003084, -1.5053225796642908 
4.410000000003061, -1.5052518262419339 
4.4200000000030375, -1.5050381321950796 
4.430000000003014, -1.5046974422228414 
4.440000000002991, -1.504250734867987 
4.450000000002968, -1.503726091004078 
4.460000000002944, -1.5031621741146222 
4.470000000002921, -1.5026087791503022 
4.480000000002898, -1.5021193486648392 
4.490000000002874, -1.5017340058419753 
4.500000000002851, -1.5014608504385483 
4.510000000002828, -1.501270772361728 
4.520000000002804, -1.501112326979832 
4.530000000002781, -1.5009330712483313 
4.540000000002758, -1.5006899843142487 
4.5500000000027345, -1.5003465032297973 
4.560000000002711, -1.499864221495012 
4.570000000002688, -1.4991974746985626 
4.580000000002665, -1.4982983559880307 
4.590000000002641, -1.4971422666864111 
4.600000000002618, -1.4957813146012604 
4.610000000002595, -1.494402678998439 
4.620000000002571, -1.4933082065763181 
4.630000000002548, -1.4927432834744399 
4.640000000002525, -1.4927029656039401 
4.6500000000025015, -1.4929560762568754 
4.660000000002478, -1.4932471799481624 
4.670000000002455, -1.4934298435123683 
4.6800000000024315, -1.493462048866384 
4.690000000002408, -1.4933527774643678 
4.700000000002385, -1.4931239096280116 
4.710000000002362, -1.4927965990999716 
4.720000000002338, -1.4923943799821169 
4.730000000002315, -1.4919566955938945 
4.740000000002292, -1.4915543429655238 
4.750000000002268, -1.4912869222556462 
4.760000000002245, -1.491241905911314 
4.770000000002222, -1.4914353826187494 
4.7800000000021985, -1.4917949088720692 
4.790000000002175, -1.492203676992776 
4.800000000002152, -1.4925572261836604 
4.810000000002129, -1.4927902291026292 
4.820000000002105, -1.4928746054556392 
4.830000000002082, -1.4928070077431004 
4.840000000002059, -1.4925974034120935 
4.850000000002035, -1.492262421795679 
4.860000000002012, -1.4918235369421953 
4.870000000001989, -1.4913089519308618 
4.880000000001965, -1.4907568024154836 
4.890000000001942, -1.4902154833785546 
4.900000000001919, -1.4897363723585122 
4.9100000000018955, -1.4893578781323817 
4.920000000001872, -1.489088093617313 
4.930000000001849, -1.4888997879505301 
4.940000000001826, -1.4887438217808344 
