t, s[1].omega / s[0].omega 
0, -5.799989072462806 
0.009999999999999995, -5.798500578062647 
0.019999999999999934, -5.7966193990612656 
0.029999999999999874, -5.79626553694826 
0.04000000000000012, -5.795433389682378 
0.050000000000000405, -5.794054759757226 
0.06000000000000069, -5.792686159722045 
0.07000000000000098, -5.791912554987369 
0.08000000000000126, -5.79085154151666 
0.09000000000000155, -5.789630876056725 
0.10000000000000184, -5.788576617649191 
0.11000000000000212, -5.787556130378272 
0.12000000000000241, -5.786337657338711 
0.130000000000002, -5.785339818758622 
0.1400000000000009, -5.784395748651362 
0.1499999999999998, -5.78314074172526 
0.1599999999999987, -5.781756951340073 
0.1699999999999976, -5.781185157848039 
0.1799999999999965, -5.780290152659415 
0.1899999999999954, -5.778708377309013 
0.1999999999999943, -5.777080730657962 
0.2099999999999932, -5.776953340856149 
0.2199999999999921, -5.776079587667441 
0.229999999999991, -5.774448733691485 
0.2399999999999899, -5.77290625406172 
0.2499999999999888, -5.77248892065777 
0.2599999999999877, -5.7715013062457645 
0.2699999999999866, -5.770111219739549 
0.2799999999999855, -5.768955548328963 
0.2899999999999844, -5.7681014873074785 
0.2999999999999833, -5.7669681377163435 
0.3099999999999822, -5.76581231076263 
0.3199999999999811, -5.764821119462887 
0.32999999999998, -5.763721125006689 
0.3399999999999789, -5.762496183274754 
0.3499999999999778, -5.761618399988799 
0.35999999999997667, -5.7606549792975335 
0.36999999999997557, -5.759261491916697 
0.37999999999997447, -5.757965446899513 
0.38999999999997337, -5.757538250101555 
0.39999999999997227, -5.756576823887351 
0.40999999999997117, -5.754834621726279 
0.41999999999997006, -5.753404185428587 
0.42999999999996896, -5.753256980100192 
0.43999999999996786, -5.752293808129734 
0.44999999999996676, -5.7506501646767605 
0.45999999999996566, -5.7493488292121855 
0.46999999999996456, -5.748790266659983 
0.47999999999996346, -5.747728731445052 
0.48999999999996235, -5.746396427159455 
0.49999999999996125, -5.745349332615786 
0.5099999999999602, -5.744414703255307 
0.519999999999959, -5.743253249475719 
0.529999999999958, -5.742175408457819 
0.5399999999999568, -5.741204219070394 
0.5499999999999557, -5.740032410429546 
0.5599999999999546, -5.73881873997707 
0.5699999999999535, -5.738050990036016 
0.5799999999999524, -5.737073894880036 
0.5899999999999513, -5.735559286002127 
0.5999999999999502, -5.734303182359098 
0.6099999999999491, -5.733997825305511 
0.619999999999948, -5.733023317300378 
0.6299999999999469, -5.731234338663733 
0.6399999999999458, -5.729848508726423 
0.6499999999999447, -5.729639958708365 
0.6599999999999436, -5.728655620293875 
0.6699999999999425, -5.72709602751681 
0.6799999999999414, -5.725890509151764 
0.6899999999999403, -5.725214097088456 
0.6999999999999392, -5.7241285545405525 
0.7099999999999381, -5.722874012483773 
0.719999999999937, -5.721865337552867 
0.7299999999999359, -5.72087463306288 
0.7399999999999348, -5.719701173107456 
0.7499999999999337, -5.718696507132704 
0.7599999999999326, -5.717737869207569 
0.7699999999999315, -5.716508072638431 
0.7799999999999304, -5.715271320803688 
0.7899999999999293, -5.714623788890559 
0.7999999999999282, -5.713671437019749 
0.8099999999999271, -5.712087389307557 
0.819999999999926, -5.710710763259002 
0.8299999999999249, -5.710537320881776 
0.8399999999999238, -5.709620228819402 
0.8499999999999227, -5.7079156600999905 
0.8599999999999216, -5.706419829370113 
0.8699999999999205, -5.706129458866647 
0.8799999999999194, -5.705174322268293 
0.8899999999999183, -5.703741695390361 
0.8999999999999172, -5.702546538341105 
0.9099999999999161, -5.701783332772687 
0.919999999999915, -5.700698873541743 
0.9299999999999139, -5.699514559886529 
0.9399999999999128, -5.698518602792405 
0.9499999999999117, -5.697495438404776 
0.9599999999999106, -5.696299473545717 
0.9699999999999095, -5.695360458524606 
0.9799999999999084, -5.694435763827667 
0.9899999999999073, -5.693175987069793 
0.9999999999999062, -5.691819684217803 
1.0099999999999052, -5.691309023155652 
1.019999999999904, -5.690450515538286 
1.029999999999903, -5.688904881083804 
1.039999999999902, -5.687209822207994 
1.0499999999999008, -5.687117454001735 
1.0599999999998997, -5.68633122024978 
1.0699999999998986, -5.684815570675269 
1.0799999999998975, -5.683181266949655 
1.0899999999998964, -5.682744565173957 
1.0999999999998953, -5.681847566074103 
1.1099999999998942, -5.680545553457918 
1.119999999999893, -5.679340678186278 
1.129999999999892, -5.6785076607869795 
1.1399999999998909, -5.677432351209983 
1.1499999999998898, -5.676298614284288 
1.1599999999998887, -5.675319209283875 
1.1699999999998876, -5.674288374382207 
1.1799999999998865, -5.673041202945737 
1.1899999999998854, -5.672142737277425 
1.1999999999998843, -5.671300813133439 
1.2099999999998832, -5.670072435912827 
1.219999999999882, -5.66848124929571 
1.229999999999881, -5.668034024755554 
1.2399999999998799, -5.667372306263567 
1.2499999999998788, -5.66600006255578 
1.2599999999998777, -5.664005515267182 
1.2699999999998766, -5.663710178793742 
1.2799999999998755, -5.663120172619962 
1.2899999999998744, -5.661833912168559 
1.2999999999998733, -5.660195127536744 
1.3099999999998722, -5.659500670781505 
1.319999999999871, -5.658669249661406 
1.32999999999987, -5.657478309374223 
1.3399999999998689, -5.656286482570257 
1.3499999999998678, -5.655389550124588 
1.3599999999998666, -5.654326103359306 
1.3699999999998655, -5.6532064612224335 
1.3799999999998644, -5.65226544638937 
1.3899999999998633, -5.651261064699705 
1.3999999999998622, -5.6499537610985575 
1.4099999999998611, -5.648987972471471 
1.41999999999986, -5.64830830174268 
1.429999999999859, -5.647204014653964 
1.4399999999998578, -5.645449789661187 
1.4499999999998567, -5.644674119610318 
1.4599999999998556, -5.644342549157211 
1.4699999999998545, -5.643235909407592 
1.4799999999998534, -5.641340469248156 
1.4899999999998523, -5.640365511941032 
1.4999999999998512, -5.6399767780019 
1.5099999999998501, -5.638909416770186 
1.519999999999849, -5.637436388493465 
1.529999999999848, -5.636429470472901 
1.5399999999998468, -5.6356390394013065 
1.5499999999998457, -5.634530437989361 
1.5599999999998446, -5.633381712717401 
1.5699999999998435, -5.6324325482680555 
1.5799999999998424, -5.631392152591756 
1.5899999999998413, -5.630226480658755 
1.5999999999998402, -5.629338125476038 
1.6099999999998391, -5.6284111342197765 
1.619999999999838, -5.6271218515850405 
1.629999999999837, -5.625840474730575 
1.6399999999998358, -5.6253770961316985 
1.6499999999998347, -5.624506741939581 
1.6599999999998336, -5.622936242833573 
1.6699999999998325, -5.6212940161136755 
1.6799999999998314, -5.6212297993929745 
1.6899999999998303, -5.620456836836832 
1.6999999999998292, -5.618973632644038 
1.709999999999828, -5.617355341505519 
1.719999999999827, -5.616908137898104 
1.729999999999826, -5.616043455442741 
1.7399999999998248, -5.614784632759458 
1.7499999999998237, -5.613584975945004 
1.7599999999998226, -5.612758309428825 
1.7699999999998215, -5.611713517312504 
1.7799999999998204, -5.610598210269205 
1.7899999999998193, -5.609635143334777 
1.7999999999998182, -5.6086410770420025 
1.809999999999817, -5.607400808858797 
1.819999999999816, -5.606472439851209 
1.8299999999998149, -5.605704084927632 
1.8399999999998138, -5.604573519167692 
1.8499999999998127, -5.602928223587179 
1.8599999999998116, -5.602306339339949 
1.8699999999998105, -5.601841683584421 
1.8799999999998094, -5.600668690551182 
1.8899999999998083, -5.598696539863932 
1.8999999999998072, -5.597955800854729 
1.909999999999806, -5.59760005157836 
1.919999999999805, -5.5965089622502235 
1.9299999999998039, -5.594933902937061 
1.9399999999998028, -5.593968910273891 
1.9499999999998017, -5.593260354248415 
1.9599999999998006, -5.592169583637 
1.9699999999997995, -5.5909748057836826 
1.9799999999997984, -5.590032145293314 
1.9899999999997973, -5.589051277886464 
1.9999999999997962, -5.5879109684903785 
2.0099999999998173, -5.586969096466981 
2.0199999999998384, -5.58605376864874 
2.0299999999998595, -5.5848522022906835 
2.0399999999998806, -5.583596641296105 
2.0499999999999017, -5.58302915701437 
2.059999999999923, -5.582181104110662 
2.069999999999944, -5.58071449550384 
2.079999999999965, -5.579063187386966 
2.089999999999986, -5.5789701525645885 
2.100000000000007, -5.578269334510601 
2.1100000000000283, -5.576831620432769 
2.1200000000000494, -5.575045518435902 
2.1300000000000705, -5.574667567277432 
2.1400000000000916, -5.573925347457826 
2.1500000000001127, -5.572690263579007 
2.160000000000134, -5.57137192457442 
2.170000000000155, -5.57058451261872 
2.180000000000176, -5.569629732861421 
2.190000000000197, -5.568499406094353 
2.2000000000002182, -5.5674838929030654 
2.2100000000002393, -5.566551933815498 
2.2200000000002604, -5.565398737014197 
2.2300000000002815, -5.564353809347814 
2.2400000000003026, -5.563577723002902 
2.2500000000003237, -5.562569733877954 
2.260000000000345, -5.561081833452841 
2.270000000000366, -5.560122952268889 
2.280000000000387, -5.559745842405849 
2.290000000000408, -5.558747594288089 
2.3000000000004293, -5.556953751923787 
2.3100000000004504, -5.555707942753207 
2.3200000000004715, -5.555590752871955 
2.3300000000004926, -5.55468354823463 
2.3400000000005137, -5.5531644472759405 
2.3500000000005348, -5.551859647874828 
2.360000000000556, -5.551313592021499 
2.370000000000577, -5.55035151858991 
2.380000000000598, -5.549133539873385 
2.390000000000619, -5.548080024457747 
2.4000000000006403, -5.54720718661706 
2.4100000000006614, -5.546115977049128 
2.4200000000006825, -5.545078558455486 
2.4300000000007036, -5.5441852841350805 
2.4400000000007247, -5.543150561411105 
2.450000000000746, -5.5418427662146446 
2.460000000000767, -5.541050403801283 
2.470000000000788, -5.540361131303708 
2.480000000000809, -5.539202812450724 
2.49000000000083, -5.537418748032725 
2.5000000000008513, -5.536864121890527 
2.5100000000008724, -5.536511270933813 
2.5200000000008935, -5.5353956848901404 
2.5300000000009146, -5.533525196758773 
2.5400000000009357, -5.532606504252013 
2.550000000000957, -5.532223932413247 
2.560000000000978, -5.5311975988210555 
2.570000000000999, -5.529793174770758 
2.58000000000102, -5.528777765206096 
2.5900000000010412, -5.5280132894462195 
2.6000000000010624, -5.526950161778624 
2.6100000000010835, -5.525842190047651 
2.6200000000011046, -5.524910088041964 
2.6300000000011257, -5.523918964588739 
2.6400000000011468, -5.522752168978408 
2.650000000001168, -5.521882344298374 
2.660000000001189, -5.521043322540898 
2.67000000000121, -5.5198669941315455 
2.680000000001231, -5.518398540694711 
2.6900000000012523, -5.517926727656591 
2.7000000000012734, -5.517297207459927 
2.7100000000012945, -5.516019424607119 
2.7200000000013156, -5.514050717905252 
2.7300000000013367, -5.513673395800242 
2.740000000001358, -5.513265292728205 
2.750000000001379, -5.512119898838928 
2.7600000000014, -5.5104430533720095 
2.770000000001421, -5.509600369889431 
2.780000000001442, -5.508970356885443 
2.7900000000014633, -5.5078988914375895 
2.8000000000014844, -5.506670276292725 
2.8100000000015055, -5.505747025158634 
2.8200000000015266, -5.504835316585471 
2.8300000000015477, -5.503730822960648 
2.840000000001569, -5.502757368004993 
2.85000000000159, -5.501866010730919 
2.860000000001611, -5.500759016047748 
2.870000000001632, -5.499519983207639 
2.8800000000016532, -5.498867599918851 
2.8900000000016743, -5.49808026104236 
2.9000000000016954, -5.4967731360506695 
2.9100000000017165, -5.495071229984685 
2.9200000000017377, -5.494855817687203 
2.9300000000017588, -5.494313525592479 
2.94000000000178, -5.493040179275925 
2.950000000001801, -5.491120336044615 
2.960000000001822, -5.4905872042581185 
2.970000000001843, -5.490078901385113 
2.9800000000018643, -5.48896960678491 
2.9900000000018854, -5.487556134528302 
3.0000000000019065, -5.486678132311041 
3.0100000000019276, -5.485880170752534 
3.0200000000019487, -5.484799691299916 
3.03000000000197, -5.483720282356539 
3.040000000001991, -5.482817870482239 
3.050000000002012, -5.481805882634411 
3.060000000002033, -5.480663943633539 
3.070000000002054, -5.47983946906424 
3.0800000000020753, -5.47898815857319 
3.0900000000020964, -5.477772429746421 
3.1000000000021175, -5.476358337539365 
3.1100000000021386, -5.4759617396254034 
3.1200000000021597, -5.475295604199018 
3.130000000002181, -5.473973132434204 
3.140000000002202, -5.4720253338291 
3.150000000002223, -5.471748144147462 
3.160000000002244, -5.471307685003337 
3.1700000000022652, -5.470150756327411 
3.1800000000022863, -5.468492320225965 
3.1900000000023074, -5.467686639562293 
3.2000000000023285, -5.4670520351311085 
3.2100000000023496, -5.465989331324968 
3.2200000000023707, -5.464781024028723 
3.230000000002392, -5.463868349046175 
3.240000000002413, -5.462965327178448 
3.250000000002434, -5.461870786914401 
3.260000000002455, -5.4609120887984925 
3.2700000000024763, -5.460037232264088 
3.2800000000024974, -5.458949504946236 
3.2900000000025185, -5.45769369959011 
3.3000000000025396, -5.457048595749438 
3.3100000000025607, -5.456310288865839 
3.3200000000025818, -5.4550616080799195 
3.330000000002603, -5.453298704081423 
3.340000000002624, -5.45300012006686 
3.350000000002645, -5.452566812962974 
3.360000000002666, -5.45139565337754 
3.3700000000026873, -5.449519640070617 
3.3800000000027084, -5.448765280624345 
3.3900000000027295, -5.448348249605566 
3.4000000000027506, -5.447321054587087 
3.4100000000027717, -5.445953742800669 
3.420000000002793, -5.444980004614918 
3.430000000002814, -5.444222260259852 
3.440000000002835, -5.443180537534106 
3.450000000002856, -5.442106868430409 
3.460000000002877, -5.441198381841048 
3.4700000000028983, -5.440232801976208 
3.4800000000029194, -5.43907309485682 
3.4900000000029405, -5.438219466560744 
3.5000000000029616, -5.4374380892110725 
3.5100000000029827, -5.4363297456151205 
3.520000000003004, -5.434806711826654 
3.530000000003025, -5.434247560218429 
3.540000000003046, -5.433781082083082 
3.550000000003067, -5.43266964433573 
3.5600000000030882, -5.430764923212475 
3.5700000000031094, -5.4299274968819375 
3.5800000000031305, -5.429740395635259 
3.5900000000031516, -5.428787546934514 
3.6000000000031727, -5.427276956927706 
3.6100000000031938, -5.426109301432291 
3.620000000003215, -5.425560149984657 
3.630000000003236, -5.424612715103949 
3.640000000003257, -5.42344648189957 
3.650000000003278, -5.422439578671502 
3.6600000000032993, -5.421589868087173 
3.6700000000033204, -5.420528470755658 
3.6800000000033415, -5.419524993262747 
3.6900000000033626, -5.418684565821472 
3.7000000000033837, -5.41771067332615 
3.710000000003405, -5.416408429466072 
3.720000000003426, -5.4155412287429785 
3.730000000003447, -5.415003054963599 
3.740000000003468, -5.414011656023336 
3.750000000003489, -5.4123244278687626 
3.7600000000035103, -5.4112159530041115 
3.7700000000035314, -5.411160297195286 
3.7800000000035525, -5.41033078344405 
3.7900000000035736, -5.408796961861656 
3.8000000000035947, -5.407254952218505 
3.810000000003616, -5.40694611546361 
3.820000000003637, -5.406169623601736 
3.830000000003658, -5.404970856577466 
3.840000000003679, -5.40375454219435 
3.8500000000037002, -5.402995928883195 
3.8600000000037213, -5.402071079980248 
3.8700000000037424, -5.400995605580112 
3.8800000000037635, -5.400043613543076 
3.8900000000037847, -5.399160406949637 
3.9000000000038058, -5.398053539379018 
3.910000000003827, -5.396983263417512 
3.920000000003848, -5.396309156839773 
3.930000000003869, -5.395438699897832 
3.94000000000389, -5.394076407038581 
3.9500000000039113, -5.3926994652180795 
3.9600000000039324, -5.39252943473616 
3.9700000000039535, -5.391855819146863 
3.9800000000039746, -5.3904792276232225 
3.9900000000039957, -5.38857366398782 
4.000000000004016, -5.388311869090315 
4.010000000003993, -5.387814007523902 
4.02000000000397, -5.386688662501151 
4.030000000003946, -5.385211163953244 
4.040000000003923, -5.384393129841259 
4.0500000000039, -5.383679324817035 
4.0600000000038765, -5.382637211760274 
4.070000000003853, -5.381537743809391 
4.08000000000383, -5.380649682871841 
4.090000000003807, -5.379718450007517 
4.100000000003783, -5.378614277309628 
4.11000000000376, -5.37774259387211 
4.120000000003737, -5.376932005584619 
4.130000000003713, -5.375848088411849 
4.14000000000369, -5.374455597646874 
4.150000000003667, -5.373884980784283 
4.1600000000036434, -5.373341440249602 
4.17000000000362, -5.372224223785848 
4.180000000003597, -5.370352299152958 
4.1900000000035735, -5.3696217140624025 
4.20000000000355, -5.369471948937536 
4.210000000003527, -5.368538429864511 
4.220000000003504, -5.366976616617327 
4.23000000000348, -5.365732641341102 
4.240000000003457, -5.365305385196966 
4.250000000003434, -5.364425382608634 
4.26000000000341, -5.363246963775255 
4.270000000003387, -5.362178984889212 
4.280000000003364, -5.361389966190032 
4.2900000000033405, -5.360398364265267 
4.300000000003317, -5.359363701610826 
4.310000000003294, -5.358495624917486 
4.320000000003271, -5.35759175839993 
4.330000000003247, -5.356400960309495 
4.340000000003224, -5.355393810365493 
4.350000000003201, -5.354837994750988 
4.360000000003177, -5.353960119193134 
4.370000000003154, -5.3524891509506904 
4.380000000003131, -5.351066191941841 
4.390000000003107, -5.351033003094862 
4.400000000003084, -5.350384933119235 
4.410000000003061, -5.349033252267809 
4.4200000000030375, -5.347209024845849 
4.430000000003014, -5.346829911484962 
4.440000000002991, -5.346282538592601 
4.450000000002968, -5.345195116927575 
4.460000000002944, -5.34386182197686 
4.470000000002921, -5.343019641268269 
4.480000000002898, -5.342242049965568 
4.490000000002874, -5.341205015730479 
4.500000000002851, -5.340182478570524 
4.510000000002828, -5.3393160266687705 
4.520000000002804, -5.338354093775177 
4.530000000002781, -5.337211523898135 
4.540000000002758, -5.336415684693646 
4.5500000000027345, -5.335674731332867 
4.560000000002711, -5.334592297473828 
4.570000000002688, -5.333052013786603 
4.580000000002665, -5.332475623987753 
4.590000000002641, -5.33211894269748 
4.600000000002618, -5.331108487779149 
4.610000000002595, -5.3293137671605795 
4.620000000002571, -5.328162046203339 
4.630000000002548, -5.32808294455832 
4.640000000002525, -5.3272709956365105 
4.6500000000025015, -5.325921985258406 
4.660000000002478, -5.324607458290279 
4.670000000002455, -5.324039005367583 
4.6800000000024315, -5.323194736715441 
4.690000000002408, -5.322101707494338 
4.700000000002385, -5.321071372341958 
4.710000000002362, -5.320244049246334 
4.720000000002338, -5.319250151704464 
4.730000000002315, -5.318207117409965 
4.740000000002292, -5.317409423632331 
4.750000000002268, -5.316554208078139 
4.760000000002245, -5.315359098592522 
4.770000000002222, -5.31412938790068 
4.7800000000021985, -5.313736599892983 
4.790000000002175, -5.31304786754677 
4.800000000002152, -5.311751928317664 
4.810000000002129, -5.309877052647343 
4.820000000002105, -5.309645634773172 
4.830000000002082, -5.309305217557929 
4.840000000002059, -5.30824060530164 
4.850000000002035, -5.306591404672364 
4.860000000002012, -5.305646691368398 
4.870000000001989, -5.30518192444911 
4.880000000001965, -5.304244462030544 
4.890000000001942, -5.303061315389913 
4.900000000001919, -5.302075309509256 
4.9100000000018955, -5.301291449326215 
4.920000000001872, -5.3002873908779895 
4.930000000001849, -5.299290303932063 
4.940000000001826, -5.298451934206592 
4.950000000001802, -5.297542479788188 
4.960000000001779, -5.296339684320483 
4.970000000001756, -5.295403681924253 
4.980000000001732, -5.294870773185837 
4.990000000001709, -5.293987012093383 
5.000000000001686, -5.292495175391749 
5.0100000000016625, -5.291108271952389 
5.020000000001639, -5.291109103696563 
5.030000000001616, -5.290480259383317 
