t, s[1].omega / s[0].omega 
0, -0.5299977468624683 
0.009999999999999995, -0.5297685086275823 
0.019999999999999934, -0.5295310074407752 
0.029999999999999874, -0.529284001978717 
0.04000000000000012, -0.5290260760718575 
0.050000000000000405, -0.5287562382685155 
0.06000000000000069, -0.5284742835481961 
0.07000000000000098, -0.528180858935708 
0.08000000000000126, -0.5278773461702972 
0.09000000000000155, -0.5275657269362837 
0.10000000000000184, -0.527248553082836 
0.11000000000000212, -0.5269290703216155 
0.12000000000000241, -0.5266114778004547 
0.130000000000002, -0.5263012480189178 
0.1400000000000009, -0.5260053639684471 
0.1499999999999998, -0.5257322444644911 
0.1599999999999987, -0.5254910554294934 
0.1699999999999976, -0.5252901472490905 
0.1799999999999965, -0.5251346826626819 
0.1899999999999954, -0.5250242037591676 
0.1999999999999943, -0.524951587050392 
0.2099999999999932, -0.5249046636160966 
0.2199999999999921, -0.5248701527701631 
0.229999999999991, -0.5248375975711045 
0.2399999999999899, -0.5248009354758233 
0.2499999999999888, -0.5247574714539014 
0.2599999999999877, -0.5247059150724629 
0.2699999999999866, -0.5246450477835926 
0.2799999999999855, -0.5245733749689006 
0.2899999999999844, -0.524489313429027 
0.2999999999999833, -0.5243914241743444 
0.3099999999999822, -0.5242784773597569 
0.3199999999999811, -0.5241493573453879 
0.32999999999998, -0.5240029013752964 
0.3399999999999789, -0.5238377718277769 
0.3499999999999778, -0.5236524458908318 
0.35999999999997667, -0.5234453857505527 
0.36999999999997557, -0.5232154139864662 
0.37999999999997447, -0.5229622406921209 
0.38999999999997337, -0.522686972790358 
0.39999999999997227, -0.522392342674306 
0.40999999999997117, -0.5220824311073845 
0.41999999999997006, -0.5217618854686157 
0.42999999999996896, -0.5214349382551956 
0.43999999999996786, -0.5211046749038588 
0.44999999999996676, -0.520772847709552 
0.45999999999996566, -0.5204402061308289 
0.46999999999996456, -0.5201070719970603 
0.47999999999996346, -0.5197738741259144 
0.48999999999996235, -0.5194415062214284 
0.49999999999996125, -0.5191115316726475 
0.5099999999999602, -0.5187863348343641 
0.519999999999959, -0.5184693107166731 
0.529999999999958, -0.5181651356819643 
0.5399999999999568, -0.5178801009578846 
0.5499999999999557, -0.5176224220282298 
0.5599999999999546, -0.5174023495080158 
0.5699999999999535, -0.5172317992118449 
0.5799999999999524, -0.517123130070934 
0.5899999999999513, -0.517086746504829 
0.5999999999999502, -0.5171275851836934 
0.6099999999999491, -0.5172413955614276 
0.619999999999948, -0.5174127264756606 
0.6299999999999469, -0.5176166620670566 
0.6399999999999458, -0.5178246011139621 
0.6499999999999447, -0.5180115116950984 
0.6599999999999436, -0.5181608583223369 
0.6699999999999425, -0.5182653095322055 
0.6799999999999414, -0.5183243394141114 
0.6899999999999403, -0.5183410591462511 
0.6999999999999392, -0.5183198099897889 
0.7099999999999381, -0.518264817439803 
0.719999999999937, -0.5181795855973539 
0.7299999999999359, -0.5180666614511439 
0.7399999999999348, -0.5179275510232368 
0.7499999999999337, -0.5177627093650988 
0.7599999999999326, -0.5175716111758957 
0.7699999999999315, -0.5173529548975997 
0.7799999999999304, -0.5171050701285852 
0.7899999999999293, -0.5168265715370766 
0.7999999999999282, -0.5165172062288219 
0.8099999999999271, -0.5161786792280199 
0.819999999999926, -0.5158150977161668 
0.8299999999999249, -0.5154327050356962 
0.8399999999999238, -0.515038870196669 
0.8499999999999227, -0.5146407140459626 
0.8599999999999216, -0.5142439687260787 
0.8699999999999205, -0.5138524980958499 
0.8799999999999194, -0.5134685074765218 
0.8899999999999183, -0.5130931597985872 
0.8999999999999172, -0.5127272624932411 
0.9099999999999161, -0.5123718276920994 
0.919999999999915, -0.5120284754699 
0.9299999999999139, -0.5116997437846798 
0.9399999999999128, -0.5113893802818363 
0.9499999999999117, -0.5111026544597145 
0.9599999999999106, -0.5108466719190223 
0.9699999999999095, -0.5106306020064774 
0.9799999999999084, -0.5104656404256522 
0.9899999999999073, -0.510364422393207 
0.9999999999999062, -0.510339521977824 
1.0099999999999052, -0.5104007370810947 
1.019999999999904, -0.5105512612299037 
1.029999999999903, -0.5107837124322274 
1.039999999999902, -0.5110780268537826 
1.0499999999999008, -0.5114034163018932 
1.0599999999998997, -0.511724854385123 
1.0699999999998986, -0.5120115025741654 
1.0799999999998975, -0.5122428644057437 
1.0899999999998964, -0.5124101665105228 
1.0999999999998953, -0.5125137762322589 
1.1099999999998942, -0.5125592249366562 
1.119999999999893, -0.5125538580540273 
1.129999999999892, -0.5125047716904313 
1.1399999999998909, -0.5124178169386703 
1.1499999999998898, -0.5122972354956874 
1.1599999999998887, -0.512145598819002 
1.1699999999998876, -0.5119638880051559 
1.1799999999998865, -0.5117516779786333 
1.1899999999998854, -0.5115074702598694 
1.1999999999998843, -0.5112292561448026 
1.2099999999998832, -0.5109153679825151 
1.219999999999882, -0.5105655592570968 
1.229999999999881, -0.5101820500268507 
1.2399999999998799, -0.509770091563126 
1.2499999999998788, -0.5093376420065616 
1.2599999999998777, -0.5088941140573316 
1.2699999999998766, -0.5084486677750041 
1.2799999999998755, -0.5080087767837507 
1.2899999999998744, -0.5075795835695023 
1.2999999999998733, -0.5071640835134813 
1.3099999999998722, -0.5067638155514064 
1.319999999999871, -0.5063796734640755 
1.32999999999987, -0.5060125994422615 
1.3399999999998689, -0.5056641022434689 
1.3499999999998678, -0.5053366483086086 
1.3599999999998666, -0.5050339951219556 
1.3699999999998655, -0.5047615050782587 
1.3799999999998644, -0.5045264233236513 
1.3899999999998633, -0.5043380327052859 
1.3999999999998622, -0.5042075102100515 
1.4099999999998611, -0.5041472081467664 
1.41999999999986, -0.5041690143371482 
1.429999999999859, -0.5042815256276907 
1.4399999999998578, -0.5044861846107863 
1.4499999999998567, -0.5047733943114132 
1.4599999999998556, -0.5051206279406186 
1.4699999999998545, -0.5054946892426674 
1.4799999999998534, -0.5058585152760431 
1.4899999999998523, -0.5061798700263862 
1.4999999999998512, -0.5064376654059145 
1.5099999999998501, -0.5066233522255237 
1.519999999999849, -0.5067381674390501 
1.529999999999848, -0.5067888655492574 
1.5399999999998468, -0.5067840686744358 
1.5499999999998457, -0.5067319851120786 
1.5599999999998446, -0.5066393033349994 
1.5699999999998435, -0.5065108027471508 
1.5799999999998424, -0.5063493175619919 
1.5899999999998413, -0.5061558641895181 
1.5999999999998402, -0.5059298848044271 
1.6099999999998391, -0.5056696539041442 
1.619999999999838, -0.5053729384803528 
1.629999999999837, -0.5050379728972633 
1.6399999999998358, -0.5046646724310664 
1.6499999999998347, -0.5042557766894675 
1.6599999999998336, -0.503817417821481 
1.6699999999998325, -0.503358675569432 
1.6799999999998314, -0.5028901177325957 
1.6899999999998303, -0.5024218898970789 
1.6999999999998292, -0.5019621628837584 
1.709999999999828, -0.5015164728841582 
1.719999999999827, -0.5010879602779441 
1.729999999999826, -0.5006781398192262 
1.7399999999998248, -0.5002877874327664 
1.7499999999998237, -0.4999176945237881 
1.7599999999998226, -0.499569230050201 
1.7699999999998215, -0.4992447587641604 
1.7799999999998204, -0.49894798513760963 
1.7899999999998193, -0.498684261310525 
1.7999999999998182, -0.49846084186437256 
1.809999999999817, -0.49828699649449126 
1.819999999999816, -0.49817380174746295 
1.8299999999998149, -0.4981333332911274 
1.8399999999998138, -0.49817691948281284 
1.8499999999998127, -0.49831221742115 
1.8599999999998116, -0.4985393204010228 
1.8699999999998105, -0.49884699433151153 
1.8799999999998094, -0.4992111102937459 
1.8899999999998083, -0.4995973526192151 
1.8999999999998072, -0.4999683660423219 
1.909999999999806, -0.5002924631583376 
1.919999999999805, -0.5005496255723403 
1.9299999999998039, -0.5007324714193395 
1.9399999999998028, -0.5008432086920707 
1.9499999999998017, -0.5008892658133824 
1.9599999999998006, -0.5008796668165092 
1.9699999999997995, -0.5008228175595555 
1.9799999999997984, -0.5007254644881654 
1.9899999999997973, -0.5005923549356986 
1.9999999999997962, -0.5004262379423684 
2.0099999999998173, -0.5002280229791881 
2.0199999999998384, -0.4999970568572407 
2.0299999999998595, -0.49973157168257576 
2.0399999999998806, -0.49942939499264616 
2.0499999999999017, -0.4990889719144736 
2.059999999999923, -0.4987105964843906 
2.069999999999944, -0.498297509844521 
2.079999999999965, -0.4978563475433401 
2.089999999999986, -0.49739653506079434 
2.100000000000007, -0.4969287093237602 
2.1100000000000283, -0.4964627958807227 
2.1200000000000494, -0.49600654914245423 
2.1300000000000705, -0.4955650287111827 
2.1400000000000916, -0.4951409492204345 
2.1500000000001127, -0.4947355047884761 
2.160000000000134, -0.4943492609313197 
2.170000000000155, -0.4939828890767667 
2.180000000000176, -0.4936377047830134 
2.190000000000197, -0.49331606857971233 
2.2000000000002182, -0.4930217209804404 
2.2100000000002393, -0.49276008720370595 
2.2200000000002604, -0.49253852853028873 
2.2300000000002815, -0.49236644203304153 
2.2400000000003026, -0.4922550161049193 
2.2500000000003237, -0.4922163468708917 
2.260000000000345, -0.49226156718520453 
2.270000000000366, -0.4923977714597571 
2.280000000000387, -0.4926240305223041 
2.290000000000408, -0.49292774484453294 
2.3000000000004293, -0.4932835239147468 
2.3100000000004504, -0.49365656714100775 
2.3200000000004715, -0.4940102973254281 
2.3300000000004926, -0.4943149389009869 
2.3400000000005137, -0.4945527977922245 
2.3500000000005348, -0.4947184170210951 
2.360000000000556, -0.4948151033246172 
2.370000000000577, -0.4948505899577677 
2.380000000000598, -0.49483368482840584 
2.390000000000619, -0.4947723448435621 
2.4000000000006403, -0.49467283561168685 
2.4100000000006614, -0.494539500956576 
2.4200000000006825, -0.494374813311863 
2.4300000000007036, -0.49417955433097616 
2.4400000000007247, -0.49395310568738404 
2.450000000000746, -0.4936939081693697 
2.460000000000767, -0.49340016995393016 
2.470000000000788, -0.4930708485810861 
2.480000000000809, -0.49270677307656907 
2.49000000000083, -0.49231155444510755 
2.5000000000008513, -0.49189181170691876 
2.5100000000008724, -0.4914564143222793 
2.5200000000008935, -0.4910149186813803 
2.5300000000009146, -0.49057584357660594 
2.5400000000009357, -0.4901455010301758 
2.550000000000957, -0.48972772522662894 
2.560000000000978, -0.48932435369716093 
2.570000000000999, -0.4889360566024282 
2.58000000000102, -0.48856315291731434 
2.5900000000010412, -0.4882062436815252 
2.6000000000010624, -0.4878666617689622 
2.6100000000010835, -0.48754681392859933 
2.6200000000011046, -0.4872504881900338 
2.6300000000011257, -0.48698315573469164 
2.6400000000011468, -0.48675223335560636 
2.650000000001168, -0.4865671926942069 
2.660000000001189, -0.4864393015806899 
2.67000000000121, -0.4863806761662059 
2.680000000001231, -0.48640228058527085 
2.6900000000012523, -0.4865106921481937 
2.7000000000012734, -0.48670405937561956 
2.7100000000012945, -0.4869687225919419 
2.7200000000013156, -0.48727881695087555 
2.7300000000013367, -0.4876005700260292 
2.740000000001358, -0.48790034561525103 
2.750000000001379, -0.48815257771835074 
2.7600000000014, -0.4883436473916548 
2.770000000001421, -0.48847081422833244 
2.780000000001442, -0.48853835376702587 
2.7900000000014633, -0.4885535826569953 
2.8000000000014844, -0.48852415035224805 
2.8100000000015055, -0.48845666586810027 
2.8200000000015266, -0.4883561940426861 
2.8300000000015477, -0.4882261782964763 
2.840000000001569, -0.48806853613174495 
2.85000000000159, -0.4878838367090984 
2.860000000001611, -0.4876715709957457 
2.870000000001632, -0.4874305752803175 
2.8800000000016532, -0.48715966853485515 
2.8900000000016743, -0.4868584943662255 
2.9000000000016954, -0.4865284104986653 
2.9100000000017165, -0.4861730989549703 
2.9200000000017377, -0.4857985234485983 
2.9300000000017588, -0.4854120763836861 
2.94000000000178, -0.48502118082898005 
2.950000000001801, -0.48463194443311675 
2.960000000001822, -0.4842484199988809 
2.970000000001843, -0.4838726488979068 
2.9800000000018643, -0.4835052622364834 
2.9900000000018854, -0.48314625570596725 
3.0000000000019065, -0.4827956506612522 
3.0100000000019276, -0.48245394756304494 
3.0200000000019487, -0.4821224213552545 
3.03000000000197, -0.4818033552198395 
3.040000000001991, -0.481500286357886 
3.050000000002012, -0.4812182839160409 
3.060000000002033, -0.48096421262488176 
3.070000000002054, -0.48074685319258215 
3.0800000000020753, -0.48057664679413453 
3.0900000000020964, -0.4804647278826157 
3.1000000000021175, -0.4804208958137692 
3.1100000000021386, -0.4804504332562988 
3.1200000000021597, -0.48055039958582374 
3.130000000002181, -0.4807070865756386 
3.140000000002202, -0.4808968622953037 
3.150000000002223, -0.48109137801479057 
3.160000000002244, -0.48126513705089946 
3.1700000000022652, -0.4814013233644287 
3.1800000000022863, -0.48149310700228043 
3.1900000000023074, -0.4815410989456006 
3.2000000000023285, -0.4815496352810154 
3.2100000000023496, -0.4815239492188688 
3.2200000000023707, -0.48146872974935356 
3.230000000002392, -0.4813876491644475 
3.240000000002413, -0.4812833289024443 
3.250000000002434, -0.4811574275874502 
3.260000000002455, -0.4810107410229718 
3.2700000000024763, -0.48084331840119077 
3.2800000000024974, -0.4806546466596437 
3.2900000000025185, -0.48044396384434834 
3.3000000000025396, -0.48021073504502976 
3.3100000000025607, -0.47995524832142744 
3.3200000000025818, -0.47967916783390924 
3.330000000002603, -0.4793857780198711 
3.340000000002624, -0.4790796796645303 
3.350000000002645, -0.47876592678023 
3.360000000002666, -0.47844892214078694 
3.3700000000026873, -0.4781315695463266 
3.3800000000027084, -0.4778150419222584 
3.3900000000027295, -0.4774991661077178 
3.4000000000027506, -0.4771831247646694 
3.4100000000027717, -0.4768661210985873 
3.420000000002793, -0.4765478061517935 
3.430000000002814, -0.4762284655034422 
3.440000000002835, -0.47590907547177375 
3.450000000002856, -0.4755913489731511 
3.460000000002877, -0.4752778428627721 
3.4700000000028983, -0.4749721351265106 
3.4800000000029194, -0.47467901563987186 
3.4900000000029405, -0.4744045614403672 
3.5000000000029616, -0.47415588298566946 
3.5100000000029827, -0.47394026364166375 
3.520000000003004, -0.4737634736820291 
3.530000000003025, -0.4736273927382711 
3.540000000003046, -0.4735278032817978 
3.550000000003067, -0.47345394880298997 
3.5600000000030882, -0.4733911772856791 
3.5700000000031094, -0.47332601191369994 
3.5800000000031305, -0.47325064349801654 
3.5900000000031516, -0.47316392517477646 
3.6000000000031727, -0.47306886701548584 
3.6100000000031938, -0.47296916030632696 
3.620000000003215, -0.47286700855272035 
3.630000000003236, -0.47276271777018586 
3.640000000003257, -0.4726552844467483 
3.650000000003278, -0.4725431479751586 
3.6600000000032993, -0.472424699955618 
3.6700000000033204, -0.47229850155776243 
3.6800000000033415, -0.4721633143705741 
3.6900000000033626, -0.47201807163409965 
3.7000000000033837, -0.4718618887363302 
3.710000000003405, -0.47169417111531775 
3.720000000003426, -0.4715148250305273 
3.730000000003447, -0.4713245040143842 
3.740000000003468, -0.4711247441954748 
3.750000000003489, -0.4709178088071533 
3.7600000000035103, -0.47070614792102583 
3.7700000000035314, -0.47049159409459584 
3.7800000000035525, -0.47027463774766637 
3.7900000000035736, -0.4700541652615374 
3.8000000000035947, -0.46982781647980393 
3.810000000003616, -0.46959277091957485 
3.820000000003637, -0.46934656195991026 
3.830000000003658, -0.4690875800413921 
3.840000000003679, -0.46881516436558446 
3.8500000000037002, -0.468529398282074 
3.8600000000037213, -0.46823079993360145 
3.8700000000037424, -0.4679200559816185 
3.8800000000037635, -0.4675978601590744 
3.8900000000037847, -0.4672648449101011 
3.9000000000038058, -0.46692154598539154 
3.910000000003827, -0.46656830948515404 
3.920000000003848, -0.46620504266554186 
3.930000000003869, -0.4658307636352698 
3.94000000000389, -0.465443096449129 
3.9500000000039113, -0.4650382197165002 
3.9600000000039324, -0.4646120905258038 
3.9700000000039535, -0.4641634165957824 
3.9800000000039746, -0.463697357317905 
3.9900000000039957, -0.4632272457070442 
4.000000000004016, -0.4627720686856619 
4.010000000003993, -0.4623505969733742 
4.02000000000397, -0.4619757831156561 
4.030000000003946, -0.4616524004626542 
4.040000000003923, -0.4613781031156103 
4.0500000000039, -0.46114618900658855 
4.0600000000038765, -0.46094833832545473 
4.070000000003853, -0.4607764933414143 
4.08000000000383, -0.4606238116566672 
4.090000000003807, -0.4604849606063574 
4.100000000003783, -0.46035605615416236 
4.11000000000376, -0.4602344689084016 
4.120000000003737, -0.46011862474516524 
4.130000000003713, -0.460007847471193 
4.14000000000369, -0.4599022227991873 
4.150000000003667, -0.45980240311733 
4.1600000000036434, -0.4597092388873665 
4.17000000000362, -0.4596231576348174 
4.180000000003597, -0.45954335106893673 
4.1900000000035735, -0.4594670396458354 
4.20000000000355, -0.4593892197425803 
4.210000000003527, -0.45930318935373143 
4.220000000003504, -0.4592017711328286 
4.23000000000348, -0.45907873828451634 
4.240000000003457, -0.4589298256939774 
4.250000000003434, -0.45875297488363553 
4.26000000000341, -0.4585478824153036 
4.270000000003387, -0.4583151844914754 
4.280000000003364, -0.45805561172891485 
4.2900000000033405, -0.4577692980286713 
4.300000000003317, -0.4574552754682242 
4.310000000003294, -0.45711110620656814 
4.320000000003271, -0.45673259665789556 
4.330000000003247, -0.4563135961951471 
4.340000000003224, -0.4558460051966108 
4.350000000003201, -0.4553203124639504 
4.360000000003177, -0.45472719197182904 
4.370000000003154, -0.4540606707935537 
4.380000000003131, -0.45332269725974206 
4.390000000003107, -0.4525274301251125 
4.400000000003084, -0.45170224351126587 
4.410000000003061, -0.4508832883257073 
4.4200000000030375, -0.45010688766726703 
4.430000000003014, -0.449401120274972 
4.440000000002991, -0.4487815029186709 
4.450000000002968, -0.44825150789362833 
4.460000000002944, -0.4478060236086033 
4.470000000002921, -0.44743540941570803 
4.480000000002898, -0.4471287255761783 
4.490000000002874, -0.44687575514895855 
4.500000000002851, -0.44666801098877756 
4.510000000002828, -0.44649907949082407 
4.520000000002804, -0.44636460189908345 
4.530000000002781, -0.4462620845779086 
4.540000000002758, -0.44619062566803747 
4.5500000000027345, -0.44615056048284873 
4.560000000002711, -0.44614296093964134 
4.570000000002688, -0.4461688848131802 
4.580000000002665, -0.4462282924338085 
4.590000000002641, -0.4463186821126494 
4.600000000002618, -0.4464337593684222 
4.610000000002595, -0.44656274803681173 
4.620000000002571, -0.4466910111797632 
4.630000000002548, -0.44680220908503976 
4.640000000002525, -0.44688137034366077 
4.6500000000025015, -0.44691759600690145 
4.660000000002478, -0.4469052776453209 
4.670000000002455, -0.44684359076434027 
4.6800000000024315, -0.446734874552188 
4.690000000002408, -0.4465827562987682 
4.700000000002385, -0.44639059987265695 
4.710000000002362, -0.4461604548408554 
4.720000000002338, -0.4458924300652275 
4.730000000002315, -0.44558435482054237 
4.740000000002292, -0.44523165762505296 
4.750000000002268, -0.4448275274373656 
4.760000000002245, -0.44436358309787105 
4.770000000002222, -0.4438313964574978 
4.7800000000021985, -0.44322513543210107 
4.790000000002175, -0.4425450976305313 
4.800000000002152, -0.44180097880823094 
4.810000000002129, -0.44101295771393356 
4.820000000002105, -0.44020913923836985 
4.830000000002082, -0.4394198718590081 
4.840000000002059, -0.4386714851252451 
4.850000000002035, -0.43798219253810533 
4.860000000002012, -0.43736124209439053 
4.870000000001989, -0.43681055880019964 
4.880000000001965, -0.43632740361779243 
4.890000000001942, -0.4359068915782414 
