t, s[1].omega / s[0].omega 
0, -1.7799969909206452 
0.009999999999999995, -1.7796107376713497 
0.019999999999999934, -1.7790577455915462 
0.029999999999999874, -1.7783504554347076 
0.04000000000000012, -1.77752829452122 
0.050000000000000405, -1.77667899864581 
0.06000000000000069, -1.775937282946742 
0.07000000000000098, -1.7754217361932216 
0.08000000000000126, -1.775141256913562 
0.09000000000000155, -1.7749915379457544 
0.10000000000000184, -1.7748495517965868 
0.11000000000000212, -1.7746383200166882 
0.12000000000000241, -1.7743217321339741 
0.130000000000002, -1.773880465900954 
0.1400000000000009, -1.773307730025742 
0.1499999999999998, -1.772641510935426 
0.1599999999999987, -1.7720280552199745 
0.1699999999999976, -1.7717281752039677 
0.1799999999999965, -1.7719322978002978 
0.1899999999999954, -1.772539305993686 
0.1999999999999943, -1.7732455658925521 
0.2099999999999932, -1.7738029788303944 
0.2199999999999921, -1.7741143037281772 
0.229999999999991, -1.7741818953229334 
0.2399999999999899, -1.7740434557427336 
0.2499999999999888, -1.7737400625272568 
0.2599999999999877, -1.7733095724935262 
0.2699999999999866, -1.772792805252502 
0.2799999999999855, -1.7722423298521324 
0.2899999999999844, -1.771723307487528 
0.2999999999999833, -1.7712975580159074 
0.3099999999999822, -1.7709927716751181 
0.3199999999999811, -1.7707813297799035 
0.32999999999998, -1.7705969718747472 
0.3399999999999789, -1.7703718778578117 
0.3499999999999778, -1.7700534393310243 
0.35999999999997667, -1.76959593802696 
0.36999999999997557, -1.7689488075789774 
0.37999999999997447, -1.7680653649864735 
0.38999999999997337, -1.7669619432628179 
0.39999999999997227, -1.7658368670854814 
0.40999999999997117, -1.7651097381284893 
0.41999999999997006, -1.7651195377557218 
0.42999999999996896, -1.7657282950047548 
0.43999999999996786, -1.7664792296413734 
0.44999999999996676, -1.7670373188027735 
0.45999999999996566, -1.767309071066488 
0.46999999999996456, -1.7673288984947688 
0.47999999999996346, -1.7671589946212456 
0.48999999999996235, -1.766854025223181 
0.49999999999996125, -1.7664621297133127 
0.5099999999999602, -1.7660366323219232 
0.519999999999959, -1.7656394631614298 
0.529999999999958, -1.765324090043471 
0.5399999999999568, -1.7651094394824995 
0.5499999999999557, -1.7649713375750467 
0.5599999999999546, -1.7648571932608685 
0.5699999999999535, -1.7647083835220734 
0.5799999999999524, -1.7644739446668356 
0.5899999999999513, -1.7641094450168147 
0.5999999999999502, -1.763567822928288 
0.6099999999999491, -1.762794499050719 
0.619999999999948, -1.7617416932618266 
0.6299999999999469, -1.7604219641826162 
0.6399999999999458, -1.7590019036036515 
0.6499999999999447, -1.75783451866163 
0.6599999999999436, -1.7572451166698269 
0.6699999999999425, -1.7572117941405174 
0.6799999999999414, -1.7574199102440016 
0.6899999999999403, -1.757589181070578 
0.6999999999999392, -1.7576076958645426 
0.7099999999999381, -1.757468946767029 
0.719999999999937, -1.7571983149750903 
0.7299999999999359, -1.7568266967754051 
0.7399999999999348, -1.756397506752871 
0.7499999999999337, -1.755984637748599 
0.7599999999999326, -1.7556874303373402 
0.7699999999999315, -1.7555757216252121 
0.7799999999999304, -1.7556313414037341 
0.7899999999999293, -1.7557631823932298 
0.7999999999999282, -1.7558709836112396 
0.8099999999999271, -1.7558844761729069 
0.819999999999926, -1.7557647165985615 
0.8299999999999249, -1.755490834878748 
0.8399999999999238, -1.755048917161799 
0.8499999999999227, -1.754429213195047 
0.8599999999999216, -1.7536344837178617 
0.8699999999999205, -1.7527016493928944 
0.8799999999999194, -1.751730413287423 
0.8899999999999183, -1.7508842443946033 
0.8999999999999172, -1.7503115935338438 
0.9099999999999161, -1.7500268724729158 
0.919999999999915, -1.7499055937011192 
0.9299999999999139, -1.7498022732590548 
0.9399999999999128, -1.749630092559909 
0.9499999999999117, -1.7493542206463748 
0.9599999999999106, -1.7489618370565485 
0.9699999999999095, -1.7484518920123029 
0.9799999999999084, -1.7478569563392732 
0.9899999999999073, -1.7472920543827755 
0.9999999999999062, -1.7469687693389708 
1.0099999999999052, -1.7470676244457224 
1.019999999999904, -1.7475483962626686 
1.029999999999903, -1.7481734442304488 
1.039999999999902, -1.7487096732306717 
1.0499999999999008, -1.7490403280226836 
1.0599999999998997, -1.749144429358165 
1.0699999999998986, -1.7490442245813056 
1.0799999999998975, -1.7487723725182591 
1.0899999999998964, -1.7483611840736177 
1.0999999999998953, -1.7478453934051068 
1.1099999999998942, -1.7472707290970881 
1.119999999999893, -1.746699489876735 
1.129999999999892, -1.7462022725199027 
1.1399999999998909, -1.7458295330027336 
1.1499999999998898, -1.7455784260657754 
1.1599999999998887, -1.7453922467680705 
1.1699999999998876, -1.7451974028767723 
1.1799999999998865, -1.744934182192284 
1.1899999999998854, -1.7445573953233158 
1.1999999999998843, -1.7440228918249392 
1.2099999999998832, -1.743283308213524 
1.219999999999882, -1.7423170232495166 
1.229999999999881, -1.7412154833609321 
1.2399999999998799, -1.7402849716178181 
1.2499999999998788, -1.739942952359152 
1.2599999999998777, -1.7403165985772708 
1.2699999999998766, -1.7410761975328004 
1.2799999999998755, -1.741793717540975 
1.2899999999998744, -1.7422525560688378 
1.2999999999998733, -1.7424300629920544 
1.3099999999998722, -1.7423791912597313 
1.319999999999871, -1.7421600332015053 
1.32999999999987, -1.7418229356829689 
1.3399999999998689, -1.7414152831253944 
1.3499999999998678, -1.7409920067844542 
1.3599999999998666, -1.7406135785427206 
1.3699999999998655, -1.7403251817184908 
1.3799999999998644, -1.740134258109192 
1.3899999999998633, -1.7400084831539169 
1.3999999999998622, -1.7398931548050043 
1.4099999999998611, -1.7397319578036967 
1.41999999999986, -1.7394769822227432 
1.429999999999859, -1.7390851839000185 
1.4399999999998578, -1.7385096236582473 
1.4499999999998567, -1.7376972440203502 
1.4599999999998556, -1.7366074137438567 
1.4699999999998545, -1.735268715346729 
1.4799999999998534, -1.733865709869735 
1.4899999999998523, -1.732746689756193 
1.4999999999998512, -1.7321984922115423 
1.5099999999998501, -1.732169443576272 
1.519999999999849, -1.732355701292434 
1.529999999999848, -1.7325001163475329 
1.5399999999998468, -1.7325011680968412 
1.5499999999998457, -1.7323523625232116 
1.5599999999998446, -1.7320761300561454 
1.5699999999998435, -1.7317005410398152 
1.5799999999998424, -1.7312669405233987 
1.5899999999998413, -1.730848874142969 
1.5999999999998402, -1.7305495483083067 
1.6099999999998391, -1.7304472461198865 
1.619999999999838, -1.730529984037719 
1.629999999999837, -1.7307040297218865 
1.6399999999998358, -1.7308611438073858 
1.6499999999998347, -1.730924735005349 
1.6599999999998336, -1.7308540084700574 
1.6699999999998325, -1.7306302245791383 
1.6799999999998314, -1.7302442179482103 
1.6899999999998303, -1.729691712023684 
1.6999999999998292, -1.728978143819313 
1.709999999999828, -1.7281338822087497 
1.719999999999827, -1.72723595776677 
1.729999999999826, -1.7264148526287457 
1.7399999999998248, -1.7258067681715665 
1.7499999999998237, -1.725457846889008 
1.7599999999998226, -1.725287730736706 
1.7699999999998215, -1.725166873864215 
1.7799999999998204, -1.7250005173328762 
1.7899999999998193, -1.724741992323667 
1.7999999999998182, -1.7243691769865197 
1.809999999999817, -1.7238689520604276 
1.819999999999816, -1.723248720682853 
1.8299999999998149, -1.7225828495388338 
1.8399999999998138, -1.7220650009677416 
1.8499999999998127, -1.7219510792770223 
1.8599999999998116, -1.7223368766815095 
1.8699999999998105, -1.7230331000716643 
1.8799999999998094, -1.7237395561451874 
1.8899999999998083, -1.7242570602422471 
1.8999999999998072, -1.724524116058895 
1.909999999999806, -1.724557138870431 
1.919999999999805, -1.7243968080770145 
1.9299999999998039, -1.7240841722626967 
1.9399999999998028, -1.7236573810615856 
1.9499999999998017, -1.7231581380251164 
1.9599999999998006, -1.7226384885222437 
1.9699999999997995, -1.7221585290489176 
1.9799999999997984, -1.7217698506409647 
1.9899999999997973, -1.721490639533068 
1.9999999999997962, -1.7212923361535388 
2.0099999999998173, -1.7211151699059823 
2.0199999999998384, -1.720897489615668 
2.0299999999998595, -1.7205891275512653 
2.0399999999998806, -1.7201445737270507 
2.0499999999999017, -1.719511738853879 
2.059999999999923, -1.7186345056232255 
2.069999999999944, -1.7174929660592109 
2.079999999999965, -1.7162022969996227 
2.089999999999986, -1.7151038303854418 
2.100000000000007, -1.7146186998666846 
2.1100000000000283, -1.7148413806940297 
2.1200000000000494, -1.7154327074402933 
2.1300000000000705, -1.715991747665629 
2.1400000000000916, -1.7163262031760849 
2.1500000000001127, -1.716418129571834 
2.160000000000134, -1.7163135100834235 
2.170000000000155, -1.7160634423188728 
2.180000000000176, -1.7157124379822122 
2.190000000000197, -1.7153077874539275 
2.2000000000002182, -1.7149102942415417 
2.2100000000002393, -1.7145870479599719 
2.2200000000002604, -1.7143806035304052 
2.2300000000002815, -1.7142830478218518 
2.2400000000003026, -1.7142439297152545 
2.2500000000003237, -1.714198945323129 
2.260000000000345, -1.7140917647212877 
2.270000000000366, -1.7138796343955616 
2.280000000000387, -1.7135279690591267 
2.290000000000408, -1.713003138231662 
2.3000000000004293, -1.7122715277366836 
2.3100000000004504, -1.7113124053113373 
2.3200000000004715, -1.7101522603366281 
2.3300000000004926, -1.7089152455537018 
2.3400000000005137, -1.7078358214999276 
2.3500000000005348, -1.7071431308673877 
2.360000000000556, -1.706871135383936 
2.370000000000577, -1.7068431581399224 
2.380000000000598, -1.7068517280782445 
2.390000000000619, -1.7067808262565136 
2.4000000000006403, -1.7065953774789382 
2.4100000000006614, -1.7062946218545352 
2.4200000000006825, -1.705888525975293 
2.4300000000007036, -1.7054036824845933 
2.4400000000007247, -1.7049107915867747 
2.450000000000746, -1.7045435342211719 
2.460000000000767, -1.7044470082664855 
2.470000000000788, -1.7046578232036036 
2.480000000000809, -1.70505913342706 
2.49000000000083, -1.705476111926973 
2.5000000000008513, -1.7057804257537565 
2.5100000000008724, -1.7059143471157452 
2.5200000000008935, -1.7058671609156977 
2.5300000000009146, -1.7056489987337542 
2.5400000000009357, -1.7052766990233423 
2.550000000000957, -1.7047710657696744 
2.560000000000978, -1.704162364623786 
2.570000000000999, -1.7034998692681025 
2.58000000000102, -1.7028568849916854 
2.5900000000010412, -1.7023167994831006 
2.6000000000010624, -1.7019327575939998 
2.6100000000010835, -1.7016895730624686 
2.6200000000011046, -1.7015150976050915 
2.6300000000011257, -1.7013291727913065 
2.6400000000011468, -1.7010737495395596 
2.650000000001168, -1.7007088923819136 
2.660000000001189, -1.7001980238716494 
2.67000000000121, -1.6995049432410245 
2.680000000001231, -1.6986223285282016 
2.6900000000012523, -1.6976489538766408 
2.7000000000012734, -1.696868811276813 
2.7100000000012945, -1.6966474272186658 
2.7200000000013156, -1.6970891113804778 
2.7300000000013367, -1.6978970766831174 
2.740000000001358, -1.6986736967702374 
2.750000000001379, -1.6992005734429299 
2.7600000000014, -1.6994423624107475 
2.770000000001421, -1.6994449355522203 
2.780000000001442, -1.6992673300972054 
2.7900000000014633, -1.698960116820451 
2.8000000000014844, -1.698568183052751 
2.8100000000015055, -1.6981406499736067 
2.8200000000015266, -1.6977342022683939 
2.8300000000015477, -1.6974002853818622 
2.840000000001569, -1.6971630300230534 
2.85000000000159, -1.6970079704892942 
2.860000000001611, -1.6968905045627174 
2.870000000001632, -1.6967553411366183 
2.8800000000016532, -1.6965520010577406 
2.8900000000016743, -1.696237417645251 
2.9000000000016954, -1.6957690369122964 
2.9100000000017165, -1.695098370118283 
2.9200000000017377, -1.6941760272336464 
2.9300000000017588, -1.6929822261754925 
2.94000000000178, -1.6915934170535671 
2.950000000001801, -1.6902496089677577 
2.960000000001822, -1.6892923350180051 
2.970000000001843, -1.6889058013617384 
2.9800000000018643, -1.6889469064527192 
2.9900000000018854, -1.6891209091353196 
3.0000000000019065, -1.6892235074216249 
3.0100000000019276, -1.6891853601870976 
3.0200000000019487, -1.6890077315215843 
3.03000000000197, -1.688711171618559 
3.040000000001991, -1.6883211489885366 
3.050000000002012, -1.6878789581950358 
3.060000000002033, -1.6874613304931245 
3.070000000002054, -1.6871767338164403 
3.0800000000020753, -1.6871079321905653 
3.0900000000020964, -1.68724284114731 
3.1000000000021175, -1.6874813784016276 
3.1100000000021386, -1.6877063691524146 
3.1200000000021597, -1.6878350551600092 
3.130000000002181, -1.6878254021783416 
3.140000000002202, -1.6876617707813946 
3.150000000002223, -1.6873410518828895 
3.160000000002244, -1.68686615451922 
3.1700000000022652, -1.6862476088816671 
3.1800000000022863, -1.6855128166234277 
3.1900000000023074, -1.6847199698618922 
3.2000000000023285, -1.6839647729273923 
3.2100000000023496, -1.6833564960332563 
3.2200000000023707, -1.682955925146511 
3.230000000002392, -1.682729256354516 
3.240000000002413, -1.6825792606584442 
3.250000000002434, -1.6824134721899342 
3.260000000002455, -1.682174411143389 
3.2700000000024763, -1.6818289896074206 
3.2800000000024974, -1.6813512548571203 
3.2900000000025185, -1.68072105776965 
3.3000000000025396, -1.6799537894590184 
3.3100000000025607, -1.6791676586980777 
3.3200000000025818, -1.6786295761367875 
3.330000000002603, -1.6786272127130364 
3.340000000002624, -1.6791878937975937 
3.350000000002645, -1.6800225360094376 
3.360000000002666, -1.6807921215846662 
3.3700000000026873, -1.6813154135274062 
3.3800000000027084, -1.6815626400684014 
3.3900000000027295, -1.6815736206854777 
3.4000000000027506, -1.681401853126087 
3.4100000000027717, -1.6810948685491536 
3.420000000002793, -1.6806951705077637 
3.430000000002814, -1.6802483727683541 
3.440000000002835, -1.6798074985027251 
3.450000000002856, -1.679424778323397 
3.460000000002877, -1.6791329925469494 
3.4700000000028983, -1.67893024672045 
3.4800000000029194, -1.678780538050388 
3.4900000000029405, -1.6786302232592132 
3.5000000000029616, -1.6784267044098762 
3.5100000000029827, -1.678124830538906 
3.520000000003004, -1.6776809224287763 
3.530000000003025, -1.6770445722606997 
3.540000000003046, -1.6761601569690714 
3.550000000003067, -1.674993419106837 
3.5600000000030882, -1.673598920528066 
3.5700000000031094, -1.6722038138328998 
3.5800000000031305, -1.6711761472102729 
3.5900000000031516, -1.670762384260946 
3.6000000000031727, -1.6708526254707636 
3.6100000000031938, -1.6711243145665198 
3.620000000003215, -1.671329245129607 
3.630000000003236, -1.6713760351843963 
3.640000000003257, -1.6712643746023812 
3.650000000003278, -1.6710205843109942 
3.6600000000032993, -1.6706736826863893 
3.6700000000033204, -1.6702596490376937 
3.6800000000033415, -1.669838088021838 
3.6900000000033626, -1.6694986640780733 
3.7000000000033837, -1.6693281634197086 
3.710000000003405, -1.6693494547117982 
3.720000000003426, -1.6695010024491441 
3.730000000003447, -1.6696818813879157 
3.740000000003468, -1.66980497925924 
3.750000000003489, -1.6698163194697824 
3.7600000000035103, -1.6696889193020077 
3.7700000000035314, -1.669410802801563 
3.7800000000035525, -1.6689771785634204 
3.7900000000035736, -1.6683896133222895 
3.8000000000035947, -1.667662890804115 
3.810000000003616, -1.6668389071635423 
3.820000000003637, -1.6660007526377576 
3.830000000003658, -1.6652662444431148 
3.840000000003679, -1.664737110619561 
3.8500000000037002, -1.6644286291560129 
3.8600000000037213, -1.6642606779017157 
3.8700000000037424, -1.6641245597540781 
3.8800000000037635, -1.6639416122612283 
3.8900000000037847, -1.6636692719073731 
3.9000000000038058, -1.663282051645576 
3.910000000003827, -1.662758864161748 
3.920000000003848, -1.6620923309522013 
3.930000000003869, -1.661331830221803 
3.94000000000389, -1.6606488379526254 
3.9500000000039113, -1.6603287250960554 
3.9600000000039324, -1.6605721155579722 
3.9700000000039535, -1.661274225471189 
3.9800000000039746, -1.6621102323933994 
3.9900000000039957, -1.662801140295659 
4.000000000004016, -1.6632301126939217 
4.010000000003993, -1.6633973771111958 
4.02000000000397, -1.6633482605120968 
4.030000000003946, -1.6631330241915308 
4.040000000003923, -1.6627956275110183 
4.0500000000039, -1.662377468333928 
4.0600000000038765, -1.6619250471082654 
4.070000000003853, -1.661491550111561 
4.08000000000383, -1.6611258185758946 
4.090000000003807, -1.6608536404024385 
4.100000000003783, -1.6606654312454832 
4.11000000000376, -1.6605204498943642 
4.120000000003737, -1.660364781064538 
4.130000000003713, -1.6601480068874384 
4.14000000000369, -1.6598266617789441 
4.150000000003667, -1.6593572235266738 
4.1600000000036434, -1.6586890004209844 
4.17000000000362, -1.6577683319042245 
4.180000000003597, -1.6565689920882598 
4.1900000000035735, -1.6551613103700056 
4.20000000000355, -1.6537865185768343 
4.210000000003527, -1.652803382913445 
4.220000000003504, -1.652424428589039 
4.23000000000348, -1.6525187585167207 
4.240000000003457, -1.6527737585356026 
4.250000000003434, -1.652958820349723 
4.26000000000341, -1.652990796685307 
4.270000000003387, -1.6528699475733895 
4.280000000003364, -1.6526206912985841 
4.2900000000033405, -1.652270089924436 
4.300000000003317, -1.6518526918889402 
4.310000000003294, -1.6514275739605995 
4.320000000003271, -1.6510859412153143 
4.330000000003247, -1.6509192422429753 
4.340000000003224, -1.6509557591594877 
4.350000000003201, -1.6511350318196019 
4.360000000003177, -1.6513518790450536 
4.370000000003154, -1.6515136241657278 
4.380000000003131, -1.6515629000733703 
4.390000000003107, -1.6514722644451474 
4.400000000003084, -1.6512315390009344 
4.410000000003061, -1.650838937284894 
4.4200000000030375, -1.6502988723419967 
4.430000000003014, -1.649626706229456 
4.440000000002991, -1.6488595785698543 
4.450000000002968, -1.6480681308819078 
4.460000000002944, -1.647353930722316 
4.470000000002921, -1.646812613238583 
4.480000000002898, -1.646473850280758 
4.490000000002874, -1.646280101863134 
4.500000000002851, -1.646134037195154 
4.510000000002828, -1.6459555016395644 
4.520000000002804, -1.645696439377317 
4.530000000002781, -1.6453266157264808 
4.540000000002758, -1.6448192035748233 
4.5500000000027345, -1.6441531603717732 
4.560000000002711, -1.6433462330701556 
4.570000000002688, -1.6425231553631172 
4.580000000002665, -1.6419570207359016 
4.590000000002641, -1.6419370524436876 
4.600000000002618, -1.6424921152486303 
4.610000000002595, -1.6433352835576094 
4.620000000002571, -1.644124009909548 
4.630000000002548, -1.6446702664183435 
4.640000000002525, -1.6449401134204347 
4.6500000000025015, -1.6449726752675353 
4.660000000002478, -1.6448223070144323 
4.670000000002455, -1.6445372922795347 
4.6800000000024315, -1.6441599334664836 
4.690000000002408, -1.6437346485521882 
4.700000000002385, -1.643313230542495 
4.710000000002362, -1.6429478874430703 
4.720000000002338, -1.642672713177983 
4.730000000002315, -1.6424881972500942 
4.740000000002292, -1.6423617731618882 
4.750000000002268, -1.642242842872919 
4.760000000002245, -1.6420801989910174 
4.770000000002222, -1.6418300353991824 
4.7800000000021985, -1.6414528771448438 
4.790000000002175, -1.6409066516234732 
4.800000000002152, -1.6401448611381575 
4.810000000002129, -1.6391293956840762 
4.820000000002105, -1.6378689403382765 
4.830000000002082, -1.6364815153058714 
4.840000000002059, -1.635226372376691 
4.850000000002035, -1.634395336759077 
4.860000000002012, -1.6340844802671242 
4.870000000001989, -1.6341208195137817 
4.880000000001965, -1.6342480791256473 
4.890000000001942, -1.634303020930836 
4.900000000001919, -1.6342312065640976 
4.9100000000018955, -1.6340325401807163 
4.920000000001872, -1.6337217827272803 
4.930000000001849, -1.6333186415792067 
4.940000000001826, -1.6328596802549575 
