t, s[1].omega / s[0].omega 
0, -0.04999782162208247 
0.009999999999999995, -0.04980260901292978 
0.019999999999999934, -0.0496487905632739 
0.029999999999999874, -0.049526974057029084 
0.04000000000000012, -0.049423893361612944 
0.050000000000000405, -0.04932522380128286 
0.06000000000000069, -0.04921818849600583 
0.07000000000000098, -0.04909313295318997 
0.08000000000000126, -0.0489437894677935 
0.09000000000000155, -0.048766552488595426 
0.10000000000000184, -0.04855935887987182 
0.11000000000000212, -0.04832068989158554 
0.12000000000000241, -0.04804900548715152 
0.130000000000002, -0.04774276723730027 
0.1400000000000009, -0.0474011227196999 
0.1499999999999998, -0.04702521117541865 
0.1599999999999987, -0.04661978963864884 
0.1699999999999976, -0.04619448696245902 
0.1799999999999965, -0.04576375554395816 
0.1899999999999954, -0.045344934199778364 
0.1999999999999943, -0.044954806356989147 
0.2099999999999932, -0.044605960553778946 
0.2199999999999921, -0.044304342433284634 
0.229999999999991, -0.04404865512116612 
0.2399999999999899, -0.04383144210911433 
0.2499999999999888, -0.04364125650132035 
0.2599999999999877, -0.04346520109013287 
0.2699999999999866, -0.043291138923989295 
0.2799999999999855, -0.043109050666991985 
0.2899999999999844, -0.042911375201770866 
0.2999999999999833, -0.0426925476205587 
0.3099999999999822, -0.04244814540536274 
0.3199999999999811, -0.042174042597359934 
0.32999999999998, -0.04186587527066227 
0.3399999999999789, -0.041519056427730495 
0.3499999999999778, -0.041129553618839174 
0.35999999999997667, -0.04069554467556814 
0.36999999999997557, -0.04021972172202098 
0.37999999999997447, -0.03971138102812777 
0.38999999999997337, -0.03918689979484213 
0.39999999999997227, -0.03866751565541436 
0.40999999999997117, -0.03817477155803174 
0.41999999999997006, -0.037725552330214414 
0.42999999999996896, -0.03732885218406678 
0.43999999999996786, -0.03698517108892072 
0.44999999999996676, -0.036688037646939814 
0.45999999999996566, -0.0364265791381598 
0.46999999999996456, -0.03618818409123327 
0.47999999999996346, -0.035960624051959225 
0.48999999999996235, -0.03573330390255411 
0.49999999999996125, -0.0354975993742318 
0.5099999999999602, -0.03524648415577837 
0.519999999999959, -0.034973772387901905 
0.529999999999958, -0.03467330299704217 
0.5399999999999568, -0.03433835292924423 
0.5499999999999557, -0.03396157081083649 
0.5599999999999546, -0.03353577226049796 
0.5699999999999535, -0.033055899085853095 
0.5799999999999524, -0.03252205974711579 
0.5899999999999513, -0.03194267930099341 
0.5999999999999502, -0.031335823187671225 
0.6099999999999491, -0.030726890381875184 
0.619999999999948, -0.030142828658275715 
0.6299999999999469, -0.029605485390635962 
0.6399999999999458, -0.02912724335284886 
0.6499999999999447, -0.02871026996354593 
0.6599999999999436, -0.028348550282630575 
0.6699999999999425, -0.028031056953123985 
0.6799999999999414, -0.0277447705659808 
0.6899999999999403, -0.027476902186253333 
0.6999999999999392, -0.027216125092056807 
0.7099999999999381, -0.02695289247658675 
0.719999999999937, -0.02667907446016666 
0.7299999999999359, -0.026387208092670967 
0.7399999999999348, -0.026069643375195666 
0.7499999999999337, -0.02571785491881286 
0.7599999999999326, -0.02532224267199302 
0.7699999999999315, -0.024872868037940497 
0.7799999999999304, -0.02436161542933523 
0.7899999999999293, -0.023785891700730366 
0.7999999999999282, -0.023152862593041508 
0.8099999999999271, -0.022481783818909418 
0.819999999999926, -0.021801803968818843 
0.8299999999999249, -0.021145029472520074 
0.8399999999999238, -0.020538118470462153 
0.8499999999999227, -0.01999666876638458 
0.8599999999999216, -0.019524257371691483 
0.8699999999999205, -0.01911499070615515 
0.8799999999999194, -0.01875732899321777 
0.8899999999999183, -0.01843754302119993 
0.8999999999999172, -0.018142111935540987 
0.9099999999999161, -0.01785897760770182 
0.919999999999915, -0.017577839467822317 
0.9299999999999139, -0.017289768668728656 
0.9399999999999128, -0.016986429580458675 
0.9499999999999117, -0.016659168054397315 
0.9599999999999106, -0.016298222512482842 
0.9699999999999095, -0.015892400008110583 
0.9799999999999084, -0.015429740232444691 
0.9899999999999073, -0.01489980858964402 
0.9999999999999062, -0.014297902441996089 
1.0099999999999052, -0.013630166287029006 
1.019999999999904, -0.012916759593306648 
1.029999999999903, -0.012189753214421582 
1.039999999999902, -0.011485231482865519 
1.0499999999999008, -0.010833441926970342 
1.0599999999998997, -0.010252210832120976 
1.0699999999998986, -0.009745888867304684 
1.0799999999998975, -0.009308378197678402 
1.0899999999998964, -0.008927507595901114 
1.0999999999998953, -0.008588842749565164 
1.1099999999998942, -0.008278221839735169 
1.119999999999893, -0.007983021353189661 
1.129999999999892, -0.0076924196938238515 
1.1399999999998909, -0.00739697692338879 
1.1499999999998898, -0.007087822461200534 
1.1599999999998887, -0.006755700509652664 
1.1699999999998876, -0.006390125055568202 
1.1799999999998865, -0.0059790029276209945 
1.1899999999998854, -0.00550929849532403 
1.1999999999998843, -0.004969466114669896 
1.2099999999998832, -0.004354002677828856 
1.219999999999882, -0.0036690422741469586 
1.229999999999881, -0.0029358286660887134 
1.2399999999998799, -0.0021883805688207875 
1.2499999999998788, -0.001464842401161904 
1.2599999999998777, -0.0007968679987717586 
1.2699999999998766, -0.0002027506964823846 
1.2799999999998755, 0.00004237127816821778 
1.2899999999998744, 0.00005129863306796952 
1.2999999999998733, 0.0000017908992853089565 
1.3099999999998722, 0.00000107181880184891 
1.319999999999871, 0.0000011672176896493942 
1.32999999999987, -3.0155706109696377e-7 
1.3399999999998689, 4.292213124479904e-7 
1.3499999999998678, -8.290671535454334e-8 
1.3599999999998666, 7.033899565617972e-7 
1.3699999999998655, 6.532565578874381e-7 
1.3799999999998644, 0.000001789393638779697 
1.3899999999998633, 0.0000019131222361028956 
1.3999999999998622, 0.000039631879398255795 
1.4099999999998611, 0.00014818194721443254 
1.41999999999986, 0.0003325613968702607 
1.429999999999859, 0.0005857249045524911 
1.4399999999998578, 0.0008853783549936732 
1.4499999999998567, 0.0011967932076599607 
1.4599999999998556, 0.0014818185181862237 
1.4699999999998545, 0.0017094568760566357 
1.4799999999998534, 0.0018623671951671634 
1.4899999999998523, 0.0019373218623757519 
1.4999999999998512, 0.001941590038848225 
1.5099999999998501, 0.0018882468273583887 
1.519999999999849, 0.001792301882654276 
1.529999999999848, 0.001668237618572696 
1.5399999999998468, 0.0015288538098240149 
1.5499999999998457, 0.001385100448305578 
1.5599999999998446, 0.0012465645259349884 
1.5699999999998435, 0.0011223191689805783 
1.5799999999998424, 0.0010218863806463715 
1.5899999999998413, 0.0009560516477238768 
1.5999999999998402, 0.000937145933759622 
1.6099999999998391, 0.0009781907349245274 
1.619999999999838, 0.00109019089252314 
1.629999999999837, 0.0012773551955060558 
1.6399999999998358, 0.0015315997145654834 
1.6499999999998347, 0.001829712616098995 
1.6599999999998336, 0.0021366353684286916 
1.6699999999998325, 0.002414684620074928 
1.6799999999998314, 0.002633900424701367 
1.6899999999998303, 0.002778087255415522 
1.6999999999998292, 0.002844910279477727 
1.709999999999828, 0.00284215944816939 
1.719999999999827, 0.0027831126313995506 
1.729999999999826, 0.0026827750514413383 
1.7399999999998248, 0.0025555181186144435 
1.7499999999998237, 0.002413996549467129 
1.7599999999998226, 0.0022690279826944153 
1.7699999999998215, 0.0021301058482092834 
1.7799999999998204, 0.0020062566234154864 
1.7899999999998193, 0.0019069915682903217 
1.7999999999998182, 0.0018430845384143045 
1.809999999999817, 0.0018267801366631225 
1.819999999999816, 0.001870822759726254 
1.8299999999998149, 0.001985620399873672 
1.8399999999998138, 0.0021744202158157488 
1.8499999999998127, 0.0024279930866200903 
1.8599999999998116, 0.0027222453733885795 
1.8699999999998105, 0.003021981709922037 
1.8799999999998094, 0.0032902610136329017 
1.8899999999998083, 0.0034984056894326655 
1.8999999999998072, 0.003631513727568461 
1.909999999999806, 0.0036881943174747315 
1.919999999999805, 0.0036767486782266433 
1.9299999999998039, 0.0036106228337220853 
1.9399999999998028, 0.00350477875375717 
1.9499999999998017, 0.003373441668233968 
1.9599999999998006, 0.0032290907230873725 
1.9699999999997995, 0.003082383982642099 
1.9799999999997984, 0.0029426951764106933 
1.9899999999997973, 0.0028189756297319077 
1.9999999999997962, 0.0027206890588679197 
2.0099999999998173, 0.0026585431322879594 
2.0199999999998384, 0.0026446116330969445 
2.0299999999998595, 0.0026912383773961485 
2.0399999999998806, 0.002808079247931292 
2.0499999999999017, 0.0029972726212098393 
2.059999999999923, 0.0032483766060378517 
2.069999999999944, 0.003536489960821168 
2.079999999999965, 0.0038264893645728556 
2.089999999999986, 0.0040824331897354234 
2.100000000000007, 0.004277131244616679 
2.1100000000000283, 0.004397082058035797 
2.1200000000000494, 0.004441862408526456 
2.1300000000000705, 0.004420262981102511 
2.1400000000000916, 0.004345861568083324 
2.1500000000001127, 0.004233541087489112 
2.160000000000134, 0.004097349469869496 
2.170000000000155, 0.003949563163109954 
2.180000000000176, 0.0038006556330079087 
2.190000000000197, 0.0036598557056991576 
2.2000000000002182, 0.003536010748722785 
2.2100000000002393, 0.003438498769136955 
2.2200000000002604, 0.003377905008009471 
2.2300000000002815, 0.0033660480428986243 
2.2400000000003026, 0.0034147536942789186 
2.2500000000003237, 0.0035327885543313176 
2.260000000000345, 0.0037210691100492523 
2.270000000000366, 0.003967917455963981 
2.280000000000387, 0.004247734417089049 
2.290000000000408, 0.0045256822403848375 
2.3000000000004293, 0.004767044759072336 
2.3100000000004504, 0.004946274556409483 
2.3200000000004715, 0.005051333029184674 
2.3300000000004926, 0.00508276104031191 
2.3400000000005137, 0.005049806966559663 
2.3500000000005348, 0.004966144534873604 
2.360000000000556, 0.004846546589361995 
2.370000000000577, 0.004704857897565746 
2.380000000000598, 0.004553129288030249 
2.390000000000619, 0.004401627419888337 
2.4000000000006403, 0.004259412511363943 
2.4100000000006614, 0.004135199549888373 
2.4200000000006825, 0.004038242412313422 
2.4300000000007036, 0.0039789480192581805 
2.4400000000007247, 0.003968799052050536 
2.450000000000746, 0.0040189976936237095 
2.460000000000767, 0.0041373093848661915 
2.470000000000788, 0.004323355783582675 
2.480000000000809, 0.004564244696572831 
2.49000000000083, 0.004833816563783393 
2.5000000000008513, 0.0050977242626627315 
2.5100000000008724, 0.005322660108249297 
2.5200000000008935, 0.005484819540639053 
2.5300000000009146, 0.005573644786340247 
2.5400000000009357, 0.005590613333852147 
2.550000000000957, 0.005545392741794216 
2.560000000000978, 0.005451719663478168 
2.570000000000999, 0.00532423194319436 
2.58000000000102, 0.005176551318505592 
2.5900000000010412, 0.005020484799090305 
2.6000000000010624, 0.0048660733625575745 
2.6100000000010835, 0.004722187085527211 
2.6200000000011046, 0.00459738154028541 
2.6300000000011257, 0.0045007494178230505 
2.6400000000011468, 0.004442466432583841 
2.650000000001168, 0.0044336064987703355 
2.660000000001189, 0.004484659842808376 
2.67000000000121, 0.004602309842014372 
2.680000000001231, 0.004784853071856454 
2.6900000000012523, 0.005018245522726462 
2.7000000000012734, 0.005275921350968451 
2.7100000000012945, 0.005524207355906513 
2.7200000000013156, 0.005731335955429789 
2.7300000000013367, 0.005875289338523198 
2.740000000001358, 0.005946968173893253 
2.750000000001379, 0.0059487401204056664 
2.7600000000014, 0.005890650275317032 
2.770000000001421, 0.005786469920539791 
2.780000000001442, 0.005650683801347232 
2.7900000000014633, 0.005496677003672036 
2.8000000000014844, 0.005335999467760197 
2.8100000000015055, 0.005178451394112473 
2.8200000000015266, 0.005032694152984047 
2.8300000000015477, 0.004907099551276114 
2.840000000001569, 0.004810565432527399 
2.85000000000159, 0.0047529894705325305 
2.860000000001611, 0.004744975928009264 
2.870000000001632, 0.004796236770171571 
2.8800000000016532, 0.004912326592211257 
2.8900000000016743, 0.005090227887421479 
2.9000000000016954, 0.005314839636438168 
2.9100000000017165, 0.005559347058968421 
2.9200000000017377, 0.005790900816523994 
2.9300000000017588, 0.005979349617766766 
2.94000000000178, 0.006104453667212918 
2.950000000001801, 0.006158516140299485 
2.960000000001822, 0.006144735306968054 
2.970000000001843, 0.00607349240464383 
2.9800000000018643, 0.0059585709783175605 
2.9900000000018854, 0.005814291473831845 
3.0000000000019065, 0.0056537947320751 
3.0100000000019276, 0.005488365311488191 
3.0200000000019487, 0.00532755172406949 
3.03000000000197, 0.0051797919442701686 
3.040000000001991, 0.005053253848963751 
3.050000000002012, 0.00495661240478874 
3.060000000002033, 0.004899449538113457 
3.070000000002054, 0.004891854642176833 
3.0800000000020753, 0.004942720336109814 
3.0900000000020964, 0.005056460348831849 
3.1000000000021175, 0.0052287902660182635 
3.1100000000021386, 0.005443667997598287 
3.1200000000021597, 0.00567417718552411 
3.130000000002181, 0.0058884006668940125 
3.140000000002202, 0.006057824782142738 
3.150000000002223, 0.006163933523828458 
3.160000000002244, 0.006200351455311724 
3.1700000000022652, 0.006171040690821824 
3.1800000000022863, 0.006086680122847894 
3.1900000000023074, 0.005961049537966994 
3.2000000000023285, 0.005808300227306538 
3.2100000000023496, 0.0056413266290822935 
3.2200000000023707, 0.005471144371854579 
3.230000000002392, 0.005307043937017834 
3.240000000002413, 0.0051572300511373344 
3.250000000002434, 0.005029652242112452 
3.260000000002455, 0.004932742393394776 
3.2700000000024763, 0.0048757408310190495 
3.2800000000024974, 0.004868195247761416 
3.2900000000025185, 0.00491816437886471 
3.3000000000025396, 0.005028941321747086 
3.3100000000025607, 0.0051950502825861295 
3.3200000000025818, 0.005399632942837336 
3.330000000002603, 0.005615797433936425 
3.340000000002624, 0.005812621330821591 
3.350000000002645, 0.005963199762674443 
3.360000000002666, 0.006050650162135638 
3.3700000000026873, 0.006069820847899246 
3.3800000000027084, 0.006025368938400374 
3.3900000000027295, 0.005928237082527739 
3.4000000000027506, 0.005792191243946728 
3.4100000000027717, 0.00563121400243736 
3.420000000002793, 0.005457955843007579 
3.430000000002814, 0.005283164428055392 
3.440000000002835, 0.0051158708059714005 
3.450000000002856, 0.00496404237660011 
3.460000000002877, 0.00483540309294454 
3.4700000000028983, 0.004738131253627266 
3.4800000000029194, 0.004681113630912558 
3.4900000000029405, 0.00467334922815135 
3.5000000000029616, 0.004722074290066854 
3.5100000000029827, 0.004829509268513071 
3.520000000003004, 0.004989081585218767 
3.530000000003025, 0.0051832389068581265 
3.540000000003046, 0.005385210514062075 
3.550000000003067, 0.005565085561868488 
3.5600000000030882, 0.005697496551172262 
3.5700000000031094, 0.005767078061128859 
3.5800000000031305, 0.005769795939688177 
3.5900000000031516, 0.005710935288472376 
3.6000000000031727, 0.005601673826284451 
3.6100000000031938, 0.0054557585603081694 
3.620000000003215, 0.005287007769564827 
3.630000000003236, 0.005107834139511876 
3.640000000003257, 0.004928722587160215 
3.650000000003278, 0.004758448605326884 
3.6600000000032993, 0.004604744772369572 
3.6700000000033204, 0.004475110598952967 
3.6800000000033415, 0.0043774713564495756 
3.6900000000033626, 0.0043203633625315385 
3.7000000000033837, 0.00431224989061031 
3.710000000003405, 0.004359579718772283 
3.720000000003426, 0.004463570386997377 
3.730000000003447, 0.004616656780592695 
3.740000000003468, 0.004800702621242511 
3.750000000003489, 0.0049891211421524626 
3.7600000000035103, 0.005152987677686006 
3.7700000000035314, 0.00526836727014463 
3.7800000000035525, 0.0053212791153810935 
3.7900000000035736, 0.005308698246027209 
3.8000000000035947, 0.005236475039602397 
3.810000000003616, 0.0051159985479900145 
3.820000000003637, 0.004960995220120597 
3.830000000003658, 0.0047851260369263775 
3.840000000003679, 0.0046005749184782445 
3.8500000000037002, 0.0044175733085142065 
3.8600000000037213, 0.004244650574213052 
3.8700000000037424, 0.00408931414613818 
3.8800000000037635, 0.00395884932907214 
3.8900000000037847, 0.0038609406749668756 
3.9000000000038058, 0.003803792394983569 
3.910000000003827, 0.003795363830798047 
3.920000000003848, 0.0038413714517858315 
3.930000000003869, 0.0039421148463323185 
3.94000000000389, 0.004089141839508812 
3.9500000000039113, 0.00426382335332126 
3.9600000000039324, 0.00443978449878103 
3.9700000000039535, 0.004589024938619712 
3.9800000000039746, 0.004688913388660743 
3.9900000000039957, 0.004726713241037922 
4.000000000004016, 0.0047003029847759855 
4.010000000003993, 0.004616041102874189 
4.02000000000397, 0.004485508346092252 
4.030000000003946, 0.004322411073267965 
4.040000000003923, 0.004140261370391588 
4.0500000000039, 0.003951025677489592 
4.0600000000038765, 0.0037646951461233194 
4.070000000003853, 0.003589568150297915 
4.08000000000383, 0.0034329440833163138 
4.090000000003807, 0.003301913620917277 
4.100000000003783, 0.003203944637502841 
4.11000000000376, 0.003146942145634786 
4.120000000003737, 0.0031384101517232268 
4.130000000003713, 0.0031834039972287232 
4.14000000000369, 0.0032813992839204756 
4.150000000003667, 0.0034231567659083603 
4.1600000000036434, 0.0035896228571896316 
4.17000000000362, 0.0037546292676771792 
4.180000000003597, 0.003891008577090113 
4.1900000000035735, 0.003977288823967776 
4.20000000000355, 0.0040018358054968286 
4.210000000003527, 0.003963331403622051 
4.220000000003504, 0.0038685908410983324 
4.23000000000348, 0.003729369967115101 
4.240000000003457, 0.0035593563534065615 
4.250000000003434, 0.0033719221574626175 
4.26000000000341, 0.0031788294969200374 
4.270000000003387, 0.0029898462166933113 
4.280000000003364, 0.00281306049512491 
4.2900000000033405, 0.002655588122068414 
4.300000000003317, 0.002524353755856253 
4.310000000003294, 0.002426643685083136 
4.320000000003271, 0.002370109783067215 
4.330000000003247, 0.0023618634950847974 
4.340000000003224, 0.002406382052290274 
4.350000000003201, 0.002502414699554748 
4.360000000003177, 0.002640024906415344 
4.370000000003154, 0.0027997786007226367 
4.380000000003131, 0.002955679044195751 
4.390000000003107, 0.003081277706091658 
4.400000000003084, 0.0031561092213470894 
4.410000000003061, 0.0031695032564425995 
4.4200000000030375, 0.00312085234327913 
4.430000000003014, 0.003017382592602684 
4.440000000002991, 0.002871010432462914 
4.450000000002968, 0.0026954059908369356 
4.460000000002944, 0.002503810629633036 
4.470000000002921, 0.0023077970357988256 
4.480000000002898, 0.0021169304127692913 
4.490000000002874, 0.0019391149188194242 
4.500000000002851, 0.0017813139682762997 
4.510000000002828, 0.0016503230199094118 
4.520000000002804, 0.0015532916640148915 
4.530000000002781, 0.0014976759254984502 
4.540000000002758, 0.0014902687726257974 
4.5500000000027345, 0.001535060326682503 
4.560000000002711, 0.0016301706162422137 
4.570000000002688, 0.001765042626650698 
4.580000000002665, 0.0019198820666481084 
4.590000000002641, 0.002068803247188973 
4.600000000002618, 0.0021859461665126134 
4.610000000002595, 0.0022516963907779435 
4.620000000002571, 0.002256215127901498 
4.630000000002548, 0.0021995208076441607 
4.640000000002525, 0.002089209619269304 
4.6500000000025015, 0.0019373455416163321 
4.660000000002478, 0.001757582392053337 
4.670000000002455, 0.0015630400711555304 
4.6800000000024315, 0.0013651184956588202 
4.690000000002408, 0.001173204353094144 
4.700000000002385, 0.000995048754417389 
4.710000000002362, 0.0008374998193863446 
4.720000000002338, 0.0007072675410109155 
4.730000000002315, 0.0006114177987609954 
4.740000000002292, 0.0005572770617811235 
