t, s[1].omega / s[0].omega 
0, -6.799985814862448 
0.009999999999999995, -6.798255492832736 
0.019999999999999934, -6.796659903318978 
0.029999999999999874, -6.795656424476908 
0.04000000000000012, -6.794139086173091 
0.050000000000000405, -6.792469049205765 
0.06000000000000069, -6.791302361851075 
0.07000000000000098, -6.789879074395048 
0.08000000000000126, -6.788339913847038 
0.09000000000000155, -6.787030179216613 
0.10000000000000184, -6.785596862273782 
0.11000000000000212, -6.7841527715482455 
0.12000000000000241, -6.7828190927996275 
0.130000000000002, -6.781325430510135 
0.1400000000000009, -6.779912914737691 
0.1499999999999998, -6.778656739190677 
0.1599999999999987, -6.777103841488743 
0.1699999999999976, -6.775567181627656 
0.1799999999999965, -6.774512781378727 
0.1899999999999954, -6.773014265088901 
0.1999999999999943, -6.771153961351513 
0.2099999999999932, -6.77023998585683 
0.2199999999999921, -6.768925979904455 
0.229999999999991, -6.767065653858974 
0.2399999999999899, -6.765846205469205 
0.2499999999999888, -6.764661257269699 
0.2599999999999877, -6.763045228026451 
0.2699999999999866, -6.761593927917973 
0.2799999999999855, -6.760361950708362 
0.2899999999999844, -6.75887496007139 
0.2999999999999833, -6.757439686013275 
0.3099999999999822, -6.7561187116685515 
0.3199999999999811, -6.754643529430621 
0.32999999999998, -6.753287080248269 
0.3399999999999789, -6.7519340590631955 
0.3499999999999778, -6.750378162268765 
0.35999999999997667, -6.749111784653382 
0.36999999999997557, -6.747819366759259 
0.37999999999997447, -6.7461334164822135 
0.38999999999997337, -6.744828254577529 
0.39999999999997227, -6.743738141876105 
0.40999999999997117, -6.742087372809744 
0.41999999999997006, -6.7404017016594935 
0.42999999999996896, -6.739514040718023 
0.43999999999996786, -6.738069442339034 
0.44999999999996676, -6.736256897742267 
0.45999999999996566, -6.7351756790327615 
0.46999999999996456, -6.73386538303741 
0.47999999999996346, -6.732254576536086 
0.48999999999996235, -6.7309362438713 
0.49999999999996125, -6.729621588745772 
0.5099999999999602, -6.7281389963239935 
0.519999999999959, -6.726784325536092 
0.529999999999958, -6.725414640132423 
0.5399999999999568, -6.7239504403420955 
0.5499999999999557, -6.722662762429353 
0.5599999999999546, -6.721262937316081 
0.5699999999999535, -6.719691748275298 
0.5799999999999524, -6.718540956485373 
0.5899999999999513, -6.717201352836365 
0.5999999999999502, -6.7154245735312355 
0.6099999999999491, -6.7143029159472265 
0.619999999999948, -6.713167346762061 
0.6299999999999469, -6.711429397864379 
0.6399999999999458, -6.709907422107198 
0.6499999999999447, -6.7089616225069815 
0.6599999999999436, -6.707461720632821 
0.6699999999999425, -6.705762927432327 
0.6799999999999414, -6.704673586110678 
0.6899999999999403, -6.703305129281034 
0.6999999999999392, -6.7017521615043325 
0.7099999999999381, -6.700474024314879 
0.719999999999937, -6.699109428845178 
0.7299999999999359, -6.697663181740118 
0.7399999999999348, -6.696349566583474 
0.7499999999999337, -6.694937666585024 
0.7599999999999326, -6.693504208753159 
0.7699999999999315, -6.6922666370938275 
0.7799999999999304, -6.690825877978204 
0.7899999999999293, -6.689247147566773 
0.7999999999999282, -6.688185914518876 
0.8099999999999271, -6.686825964749469 
0.819999999999926, -6.684991371309215 
0.8299999999999249, -6.68395503012577 
0.8399999999999238, -6.682815518240199 
0.8499999999999227, -6.681074055751138 
0.8599999999999216, -6.679603266274246 
0.8699999999999205, -6.678611025593154 
0.8799999999999194, -6.67711958631403 
0.8899999999999183, -6.675509126634135 
0.8999999999999172, -6.674373217973361 
0.9099999999999161, -6.672991232937866 
0.919999999999915, -6.671500068139883 
0.9299999999999139, -6.6702225989130195 
0.9399999999999128, -6.6688341312360055 
0.9499999999999117, -6.66742708337668 
0.9599999999999106, -6.666138390705638 
0.9699999999999095, -6.6646989475913845 
0.9799999999999084, -6.663281270368278 
0.9899999999999073, -6.66209806240016 
0.9999999999999062, -6.660644286230318 
1.0099999999999052, -6.659014388224958 
1.019999999999904, -6.6580345408267 
1.029999999999903, -6.656707548287301 
1.039999999999902, -6.654844508106687 
1.0499999999999008, -6.653771248026873 
1.0599999999998997, -6.652681594807885 
1.0699999999998986, -6.651012661567184 
1.0799999999998975, -6.649493403879324 
1.0899999999998964, -6.648474568955412 
1.0999999999998953, -6.647032091520627 
1.1099999999998942, -6.64547613831475 
1.119999999999893, -6.644291136481963 
1.129999999999892, -6.64291900490926 
1.1399999999998909, -6.641476966141312 
1.1499999999998898, -6.640193888065317 
1.1599999999998887, -6.638796181015484 
1.1699999999998876, -6.6374122829913755 
1.1799999999998865, -6.636155994587559 
1.1899999999998854, -6.634709989717895 
1.1999999999998843, -6.633256333501855 
1.2099999999998832, -6.632150939668369 
1.219999999999882, -6.630735904431651 
1.229999999999881, -6.628996315036313 
1.2399999999998799, -6.628057193222533 
1.2499999999998788, -6.626832851911319 
1.2599999999998777, -6.625020544840875 
1.2699999999998766, -6.623749109099816 
1.2799999999998755, -6.622750600202421 
1.2899999999998744, -6.621207705379916 
1.2999999999998733, -6.619610920360462 
1.3099999999998722, -6.618554434417339 
1.319999999999871, -6.617178638605772 
1.32999999999987, -6.615667776670516 
1.3399999999998689, -6.614433440901808 
1.3499999999998678, -6.613080811020947 
1.3599999999998666, -6.611672191255967 
1.3699999999998655, -6.610392674270093 
1.3799999999998644, -6.6089997293247595 
1.3899999999998633, -6.607600021601624 
1.3999999999998622, -6.60639894805522 
1.4099999999998611, -6.604987553850468 
1.41999999999986, -6.603417754109847 
1.429999999999859, -6.602396179813144 
1.4399999999998578, -6.601093680502598 
1.4499999999998567, -6.599287082927091 
1.4599999999998556, -6.5982025986524135 
1.4699999999998545, -6.597155467441179 
1.4799999999998534, -6.595512727006245 
1.4899999999998523, -6.593934372389076 
1.4999999999998512, -6.593004506088482 
1.5099999999998501, -6.591610280003993 
1.519999999999849, -6.589998737731314 
1.529999999999848, -6.588849636309296 
1.5399999999998468, -6.587543863681141 
1.5499999999998457, -6.5860838522516 
1.5599999999998446, -6.5848021641462395 
1.5699999999998435, -6.583475473355678 
1.5799999999998424, -6.5820737764015975 
1.5899999999998413, -6.5808156970943 
1.5999999999998402, -6.579456384159029 
1.6099999999998391, -6.577978777544411 
1.619999999999838, -6.576843219578639 
1.629999999999837, -6.575532174063116 
1.6399999999998358, -6.573845159146051 
1.6499999999998347, -6.572762330383286 
1.6599999999998336, -6.571662644997382 
1.6699999999998325, -6.569992757395932 
1.6799999999998314, -6.5684645533859625 
1.6899999999998303, -6.567615431358888 
1.6999999999998292, -6.566208917502348 
1.709999999999828, -6.5644741431817195 
1.719999999999827, -6.563432323074233 
1.729999999999826, -6.562188118561342 
1.7399999999998248, -6.560659608062657 
1.7499999999998237, -6.559366652127539 
1.7599999999998226, -6.558122959314846 
1.7699999999998215, -6.556708926938571 
1.7799999999998204, -6.555398370711748 
1.7899999999998193, -6.554107038518403 
1.7999999999998182, -6.552676615077362 
1.809999999999817, -6.551443977346826 
1.819999999999816, -6.550164251241531 
1.8299999999998149, -6.548610302085836 
1.8399999999998138, -6.547422373791022 
1.8499999999998127, -6.546295296763899 
1.8599999999998116, -6.544702211250273 
1.8699999999998105, -6.543184111564517 
1.8799999999998094, -6.542345165820455 
1.8899999999998083, -6.540964165508607 
1.8999999999998072, -6.539129966401857 
1.909999999999806, -6.538163492480552 
1.919999999999805, -6.537009846472765 
1.9299999999998039, -6.535419824084639 
1.9399999999998028, -6.53406244783707 
1.9499999999998017, -6.532936048767498 
1.9599999999998006, -6.531527442517413 
1.9699999999997995, -6.530135126665686 
1.9799999999997984, -6.528915248135445 
1.9899999999997973, -6.527534880597995 
1.9999999999997962, -6.5262143053628545 
2.0099999999998173, -6.524967360871315 
2.0199999999998384, -6.523532078246527 
2.0299999999998595, -6.522226438215817 
2.0399999999998806, -6.521081090085252 
2.0499999999999017, -6.519622393064642 
2.059999999999923, -6.518077865064489 
2.069999999999944, -6.517170055931231 
2.079999999999965, -6.51586586091216 
2.089999999999986, -6.514035889649945 
2.100000000000007, -6.513014632760671 
2.1100000000000283, -6.511983622614132 
2.1200000000000494, -6.510393666719599 
2.1300000000000705, -6.508870127054796 
2.1400000000000916, -6.507899381486124 
2.1500000000001127, -6.506543799084698 
2.160000000000134, -6.505029813461173 
2.170000000000155, -6.5038583416836175 
2.180000000000176, -6.502563269356467 
2.190000000000197, -6.501168856137907 
2.2000000000002182, -6.499916185191284 
2.2100000000002393, -6.498595030826633 
2.2200000000002604, -6.497215010114071 
2.2300000000002815, -6.496023889665554 
2.2400000000003026, -6.494696926763683 
2.2500000000003237, -6.493167418797587 
2.260000000000345, -6.492108088349342 
2.270000000000366, -6.490903761732881 
2.280000000000387, -6.489219518019164 
2.290000000000408, -6.487972033018643 
2.3000000000004293, -6.487064055168183 
2.3100000000004504, -6.485579209524458 
2.3200000000004715, -6.483828536808441 
2.3300000000004926, -6.482975643295772 
2.3400000000005137, -6.481748219863431 
2.3500000000005348, -6.480135379284316 
2.360000000000556, -6.4788999744424185 
2.370000000000577, -6.477749978191118 
2.380000000000598, -6.476336208078787 
2.390000000000619, -6.474994739644569 
2.4000000000006403, -6.47378396988655 
2.4100000000006614, -6.472411253993722 
2.4200000000006825, -6.471126898770923 
2.4300000000007036, -6.469889745943419 
2.4400000000007247, -6.468456454697761 
2.450000000000746, -6.4672025438085186 
2.460000000000767, -6.466064695059908 
2.470000000000788, -6.464596756121045 
2.480000000000809, -6.463101499059164 
2.49000000000083, -6.462217158764018 
2.5000000000008513, -6.46091282249923 
2.5100000000008724, -6.459093998381074 
2.5200000000008935, -6.458108643988865 
2.5300000000009146, -6.457090558519944 
2.5400000000009357, -6.4555229827302245 
2.550000000000957, -6.454012533346257 
2.560000000000978, -6.453055809222216 
2.570000000000999, -6.451727593475143 
2.58000000000102, -6.450234884438307 
2.5900000000010412, -6.449069437046434 
2.6000000000010624, -6.447800396323329 
2.6100000000010835, -6.446425486274616 
2.6200000000011046, -6.445185807622165 
2.6300000000011257, -6.443892533204888 
2.6400000000011468, -6.442516104673788 
2.650000000001168, -6.441346037085975 
2.660000000001189, -6.440062857922021 
2.67000000000121, -6.438529914057087 
2.680000000001231, -6.437453387429393 
2.6900000000012523, -6.4363260759027785 
2.7000000000012734, -6.434717952108308 
2.7100000000012945, -6.433306143553469 
2.7200000000013156, -6.432495159868566 
2.7300000000013367, -6.4311321194266995 
2.740000000001358, -6.429340257293832 
2.750000000001379, -6.42840291891346 
2.7600000000014, -6.427290120234017 
2.770000000001421, -6.425757995566739 
2.780000000001442, -6.424409537810613 
2.7900000000014633, -6.423321856795565 
2.8000000000014844, -6.421967012444936 
2.8100000000015055, -6.420603216343837 
2.8200000000015266, -6.4194152208244635 
2.8300000000015477, -6.418080629955196 
2.840000000001569, -6.416783343264162 
2.85000000000159, -6.415585766131739 
2.860000000001611, -6.414212464018142 
2.870000000001632, -6.41286250643918 
2.8800000000016532, -6.411799976994897 
2.8900000000016743, -6.4104695659636 
2.9000000000016954, -6.408824068954123 
2.9100000000017165, -6.407904797212844 
2.9200000000017377, -6.406807598853464 
2.9300000000017588, -6.4051427874687565 
2.94000000000178, -6.403728146279034 
2.950000000001801, -6.402919816944009 
2.960000000001822, -6.401570393532289 
2.970000000001843, -6.399905614923411 
2.9800000000018643, -6.398880499573753 
2.9900000000018854, -6.39771009176239 
3.0000000000019065, -6.396264414659337 
3.0100000000019276, -6.394986060681166 
3.0200000000019487, -6.393810504113818 
3.03000000000197, -6.3924607765908865 
3.040000000001991, -6.391191512960404 
3.050000000002012, -6.3899747815668775 
3.060000000002033, -6.388587882902775 
3.070000000002054, -6.38737318076088 
3.0800000000020753, -6.38621577917358 
3.0900000000020964, -6.384768825374935 
3.1000000000021175, -6.383398921918296 
3.1100000000021386, -6.382472990635476 
3.1200000000021597, -6.381150373908107 
3.130000000002181, -6.379380943989024 
3.140000000002202, -6.378491590461453 
3.150000000002223, -6.3774720114893055 
3.160000000002244, -6.37588794591063 
3.1700000000022652, -6.374394591402883 
3.1800000000022863, -6.373519535805279 
3.1900000000023074, -6.372224034146605 
3.2000000000023285, -6.3707046827733995 
3.2100000000023496, -6.369575491023651 
3.2200000000023707, -6.368371052894284 
3.230000000002392, -6.367002469809004 
3.240000000002413, -6.3657611186589556 
3.250000000002434, -6.364535027838034 
3.260000000002455, -6.363181156427966 
3.2700000000024763, -6.361992779455211 
3.2800000000024974, -6.360774605933978 
3.2900000000025185, -6.359314789977543 
3.3000000000025396, -6.358152795881489 
3.3100000000025607, -6.35709005298275 
3.3200000000025818, -6.355622274093172 
3.330000000002603, -6.354075635046905 
3.340000000002624, -6.35330447358737 
3.350000000002645, -6.352087108174809 
3.360000000002666, -6.350325302542847 
3.3700000000026873, -6.3492153030225635 
3.3800000000027084, -6.34828269181223 
3.3900000000027295, -6.346855309041444 
3.4000000000027506, -6.345343680944017 
3.4100000000027717, -6.3443419838849335 
3.420000000002793, -6.343094720883891 
3.430000000002814, -6.341694748761802 
3.440000000002835, -6.340502540303406 
3.450000000002856, -6.339273760268788 
3.460000000002877, -6.337945178302471 
3.4700000000028983, -6.336750213162314 
3.4800000000029194, -6.3355077529218224 
3.4900000000029405, -6.334100474596573 
3.5000000000029616, -6.332991465612393 
3.5100000000029827, -6.331836103049949 
3.520000000003004, -6.330313949380972 
3.530000000003025, -6.3290372953835305 
3.540000000003046, -6.328166837363083 
3.550000000003067, -6.326811312059309 
3.5600000000030882, -6.325034282576987 
3.5700000000031094, -6.32420831263268 
3.5800000000031305, -6.323169169993613 
3.5900000000031516, -6.3216131228611 
3.6000000000031727, -6.32020404254641 
3.6100000000031938, -6.319270277540399 
3.620000000003215, -6.317978467742943 
3.630000000003236, -6.31654439678948 
3.640000000003257, -6.315413256975707 
3.650000000003278, -6.31418854817502 
3.6600000000032993, -6.312862132247382 
3.6700000000033204, -6.311663876625299 
3.6800000000033415, -6.310424151165863 
3.6900000000033626, -6.30906933262086 
3.7000000000033837, -6.307946746166744 
3.710000000003405, -6.306749539324799 
3.720000000003426, -6.305250438332795 
3.730000000003447, -6.304107677075061 
3.740000000003468, -6.303134193708308 
3.750000000003489, -6.301702670271891 
3.7600000000035103, -6.300038861890421 
3.7700000000035314, -6.299309741058898 
3.7800000000035525, -6.298187806387125 
3.7900000000035736, -6.296530338753153 
3.8000000000035947, -6.2952573782839325 
3.810000000003616, -6.294355726909218 
3.820000000003637, -6.293024271245466 
3.830000000003658, -6.291555621971382 
3.840000000003679, -6.290487600350981 
3.8500000000037002, -6.2892748435029695 
3.8600000000037213, -6.287933911614523 
3.8700000000037424, -6.28673748051065 
3.8800000000037635, -6.285519638626633 
3.8900000000037847, -6.284194458181845 
3.9000000000038058, -6.283044871514938 
3.910000000003827, -6.281842370941152 
3.920000000003848, -6.280396429015166 
3.930000000003869, -6.279277442087816 
3.94000000000389, -6.278244623323933 
3.9500000000039113, -6.276801129699524 
3.9600000000039324, -6.275251894457959 
3.9700000000039535, -6.274516283221198 
3.9800000000039746, -6.273353380510539 
3.9900000000039957, -6.271642764916644 
4.000000000004016, -6.270466560154299 
4.010000000003993, -6.2695953885667315 
4.02000000000397, -6.268240120383457 
4.030000000003946, -6.266726115949997 
4.040000000003923, -6.265718055075962 
4.0500000000039, -6.264530454372252 
4.0600000000038765, -6.263166854894023 
4.070000000003853, -6.261966941191957 
4.08000000000383, -6.260785933146542 
4.090000000003807, -6.259474969697901 
4.100000000003783, -6.258295693327977 
4.11000000000376, -6.257110730169929 
4.120000000003737, -6.255719079697318 
4.130000000003713, -6.254570264154176 
4.14000000000369, -6.253514510832768 
4.150000000003667, -6.2521105258550245 
4.1600000000036434, -6.250614451864989 
4.17000000000362, -6.2498377906794484 
4.180000000003597, -6.24868001448557 
4.1900000000035735, -6.2469715579217695 
4.20000000000355, -6.245804951427358 
4.210000000003527, -6.244983853645681 
4.220000000003504, -6.243636065123461 
4.23000000000348, -6.242055860719388 
4.240000000003457, -6.241093227909948 
4.250000000003434, -6.239953999865071 
4.26000000000341, -6.238570441845611 
4.270000000003387, -6.237344545597539 
4.280000000003364, -6.236214432263805 
4.2900000000033405, -6.2349178469428574 
4.300000000003317, -6.233701893313916 
4.310000000003294, -6.232543683497242 
4.320000000003271, -6.231206985289136 
4.330000000003247, -6.2300048624467665 
4.340000000003224, -6.228944259745657 
4.350000000003201, -6.227612056603919 
4.360000000003177, -6.226122068522512 
4.370000000003154, -6.225281828399192 
4.380000000003131, -6.224171044523615 
4.390000000003107, -6.22252432174312 
4.400000000003084, -6.2212580485413325 
4.410000000003061, -6.220509978105919 
4.4200000000030375, -6.219215753939493 
4.430000000003014, -6.217562460427211 
4.440000000002991, -6.2165945912652685 
4.450000000002968, -6.2155397730204 
4.460000000002944, -6.2141580755652095 
4.470000000002921, -6.212863913340863 
4.480000000002898, -6.211793850934636 
4.490000000002874, -6.210529358533697 
4.500000000002851, -6.2092679298888145 
4.510000000002828, -6.208127929846618 
4.520000000002804, -6.206856592205147 
4.530000000002781, -6.205596447502922 
4.540000000002758, -6.204526342676692 
4.5500000000027345, -6.203280947105312 
4.560000000002711, -6.2018000380818235 
4.570000000002688, -6.200850974369254 
4.580000000002665, -6.199815676339196 
4.590000000002641, -6.198291866145278 
4.600000000002618, -6.196836661817312 
4.610000000002595, -6.196154100503479 
4.620000000002571, -6.194966785845501 
4.630000000002548, -6.193291627749459 
4.640000000002525, -6.192196542692459 
4.6500000000025015, -6.191271867099692 
4.660000000002478, -6.18993886992959 
4.670000000002455, -6.188534989418692 
4.6800000000024315, -6.1875058633273206 
4.690000000002408, -6.186308217305689 
4.700000000002385, -6.185007179964178 
4.710000000002362, -6.183850792890164 
4.720000000002338, -6.182658479598055 
4.730000000002315, -6.1813627716244035 
4.740000000002292, -6.180254254270613 
4.750000000002268, -6.179092912014832 
4.760000000002245, -6.177672367085206 
4.770000000002222, -6.176551608832506 
4.7800000000021985, -6.175594427840954 
4.790000000002175, -6.174236086803256 
4.800000000002152, -6.172611840566672 
4.810000000002129, -6.1718871354233915 
4.820000000002105, -6.1708589353525225 
4.830000000002082, -6.169280306614056 
4.840000000002059, -6.167891592637169 
4.850000000002035, -6.167118702804416 
4.860000000002012, -6.165900017448026 
4.870000000001989, -6.16440965116068 
4.880000000001965, -6.163323912099784 
4.890000000001942, -6.162238030583773 
4.900000000001919, -6.160937472618164 
4.9100000000018955, -6.159711015091996 
4.920000000001872, -6.158592798765507 
4.930000000001849, -6.157318285744434 
4.940000000001826, -6.156133725467297 
4.950000000001802, -6.155027856334394 
4.960000000001779, -6.153723935048186 
4.970000000001756, -6.15242003970153 
4.980000000001732, -6.151487092505136 
4.990000000001709, -6.150302176463329 
5.000000000001686, -6.148693527268293 
5.0100000000016625, -6.147683800751606 
5.020000000001639, -6.146852028779693 
5.030000000001616, -6.1454783866756895 
