t, s[1].omega / s[0].omega 
0, -3.249995071519603 
0.009999999999999995, -3.249371199693651 
0.019999999999999934, -3.2484848147575107 
0.029999999999999874, -3.2474836439382826 
0.04000000000000012, -3.2468570267735357 
0.050000000000000405, -3.246668838547395 
0.06000000000000069, -3.2464501023469956 
0.07000000000000098, -3.246042386501414 
0.08000000000000126, -3.2454932699077412 
0.09000000000000155, -3.2448966749920922 
0.10000000000000184, -3.2443581433554676 
0.11000000000000212, -3.243922103706687 
0.12000000000000241, -3.24351423924195 
0.130000000000002, -3.2430184361570036 
0.1400000000000009, -3.2423777607991355 
0.1499999999999998, -3.24167035049783 
0.1599999999999987, -3.241205302216412 
0.1699999999999976, -3.2410619313927524 
0.1799999999999965, -3.2409089024032296 
0.1899999999999954, -3.240560138678327 
0.1999999999999943, -3.23997015486923 
0.2099999999999932, -3.2390914377132076 
0.2199999999999921, -3.2379933465595068 
0.229999999999991, -3.237227887333229 
0.2399999999999899, -3.237109440677469 
0.2499999999999888, -3.237047278113233 
0.2599999999999877, -3.2367447832819045 
0.2699999999999866, -3.2362404144480896 
0.2799999999999855, -3.2356156164979715 
0.2899999999999844, -3.234978453025785 
0.2999999999999833, -3.2344575064067747 
0.3099999999999822, -3.23405873767175 
0.3199999999999811, -3.233637816823247 
0.32999999999998, -3.2331006884130105 
0.3399999999999789, -3.232467261543969 
0.3499999999999778, -3.231914836273531 
0.35999999999997667, -3.231600577195111 
0.36999999999997557, -3.2313713875801673 
0.37999999999997447, -3.231036648457132 
0.38999999999997337, -3.230510360167311 
0.39999999999997227, -3.2297220829821898 
0.40999999999997117, -3.228660534412666 
0.41999999999997006, -3.227769734734733 
0.42999999999996896, -3.227624732788763 
0.43999999999996786, -3.2277091382422674 
0.44999999999996676, -3.227535846935467 
0.45999999999996566, -3.2271008516522044 
0.46999999999996456, -3.2264777204876522 
0.47999999999996346, -3.225751486186982 
0.48999999999996235, -3.2250952943753184 
0.49999999999996125, -3.2246579274024265 
0.5099999999999602, -3.2243063977762496 
0.519999999999959, -3.223866386264632 
0.529999999999958, -3.223309520465757 
0.5399999999999568, -3.2227252036926486 
0.5499999999999557, -3.2222684327689763 
0.5599999999999546, -3.221941661438836 
0.5699999999999535, -3.2216064203698394 
0.5799999999999524, -3.2211506229196667 
0.5899999999999513, -3.220493600357062 
0.5999999999999502, -3.2195817380869527 
0.6099999999999491, -3.2186499448591244 
0.619999999999948, -3.218335969700308 
0.6299999999999469, -3.2184645060483055 
0.6399999999999458, -3.2184155398500707 
0.6499999999999447, -3.21807224878478 
0.6599999999999436, -3.2174884442002956 
0.6699999999999425, -3.2167129482179972 
0.6799999999999414, -3.215890573262392 
0.6899999999999403, -3.215321739567655 
0.6999999999999392, -3.215016229463528 
0.7099999999999381, -3.21468648638731 
0.719999999999937, -3.214220597973379 
0.7299999999999359, -3.213656872907621 
0.7399999999999348, -3.2131087483321936 
0.7499999999999337, -3.2126685852298187 
0.7599999999999326, -3.2122993316676443 
0.7699999999999315, -3.211895944119483 
0.7799999999999304, -3.2113618688012893 
0.7899999999999293, -3.2106299284821147 
0.7999999999999282, -3.209766064270538 
0.8099999999999271, -3.209224492359413 
0.819999999999926, -3.209221246512135 
0.8299999999999249, -3.2092373031091066 
0.8399999999999238, -3.2089923639243567 
0.8499999999999227, -3.208485230748683 
0.8599999999999216, -3.2077299366330214 
0.8699999999999205, -3.206785106893272 
0.8799999999999194, -3.2059800126547193 
0.8899999999999183, -3.2056308717357593 
0.8999999999999172, -3.205429826311562 
0.9099999999999161, -3.205087117173226 
0.919999999999915, -3.2045898981225305 
0.9299999999999139, -3.2040144294854516 
0.9399999999999128, -3.2034687413707887 
0.9499999999999117, -3.2030181405893656 
0.9599999999999106, -3.2026256988374664 
0.9699999999999095, -3.202184266373588 
0.9799999999999084, -3.2016061823686357 
0.9899999999999073, -3.200874709288839 
0.9999999999999062, -3.2001962253397975 
1.0099999999999052, -3.1999290835626337 
1.019999999999904, -3.1998961083849062 
1.029999999999903, -3.1997264335132827 
1.039999999999902, -3.19931873988108 
1.0499999999999008, -3.19865519753922 
1.0599999999998997, -3.1977150252785056 
1.0699999999998986, -3.1966804483154827 
1.0799999999998975, -3.1961080771428607 
1.0899999999998964, -3.195999110775488 
1.0999999999998953, -3.195828766595269 
1.1099999999998942, -3.1954479842708223 
1.119999999999893, -3.1949110805277985 
1.129999999999892, -3.1943060383763067 
1.1399999999998909, -3.1937410557428403 
1.1499999999998898, -3.1932895847956186 
1.1599999999998887, -3.192896350295052 
1.1699999999998876, -3.192436552064747 
1.1799999999998865, -3.191845197190959 
1.1899999999998854, -3.191171301655898 
1.1999999999998843, -3.1906621465762806 
1.2099999999998832, -3.190454784470662 
1.219999999999882, -3.190296323655978 
1.229999999999881, -3.1899822884727156 
1.2399999999998799, -3.189448924283916 
1.2499999999998788, -3.1886419904403014 
1.2599999999998777, -3.1875665633328008 
1.2699999999998766, -3.1866562275209995 
1.2799999999998755, -3.186443857855115 
1.2899999999998744, -3.186463765482727 
1.2999999999998733, -3.186262068616906 
1.3099999999998722, -3.1858282335073342 
1.319999999999871, -3.1852381721330465 
1.32999999999987, -3.1845829025932035 
1.3399999999998689, -3.1839970422493833 
1.3499999999998678, -3.183567564940417 
1.3599999999998666, -3.183188774614328 
1.3699999999998655, -3.1827237240601063 
1.3799999999998644, -3.182140316998057 
1.3899999999998633, -3.1815335132959643 
1.3999999999998622, -3.181105329828638 
1.4099999999998611, -3.1808579534960613 
1.41999999999986, -3.1805927422614535 
1.429999999999859, -3.1801822565837496 
1.4399999999998578, -3.179556863695873 
1.4499999999998567, -3.1786486327187053 
1.4599999999998556, -3.177577885768826 
1.4699999999998545, -3.17698831161115 
1.4799999999998534, -3.1770443803080646 
1.4899999999998523, -3.1770659487359776 
1.4999999999998512, -3.176801742619293 
1.5099999999998501, -3.1763047186551727 
1.519999999999849, -3.1756443067514155 
1.529999999999848, -3.174923055409952 
1.5399999999998468, -3.174331825985774 
1.5499999999998457, -3.1739479083839477 
1.5599999999998446, -3.1735922778947017 
1.5699999999998435, -3.1731301387509863 
1.5799999999998424, -3.172562242253264 
1.5899999999998413, -3.1720001306285357 
1.5999999999998402, -3.171586338733178 
1.6099999999998391, -3.171282779830328 
1.619999999999838, -3.1709474143012115 
1.629999999999837, -3.1704781069816197 
1.6399999999998358, -3.169797826460079 
1.6499999999998347, -3.168862472250617 
1.6599999999998336, -3.167946071597349 
1.6699999999998325, -3.1676754870690154 
1.6799999999998314, -3.167816990564778 
1.6899999999998303, -3.1677708033196237 
1.6999999999998292, -3.1674351307122928 
1.709999999999828, -3.166867164836407 
1.719999999999827, -3.166119575262206 
1.729999999999826, -3.1653265908209853 
1.7399999999998248, -3.164756905967937 
1.7499999999998237, -3.1644374294633986 
1.7599999999998226, -3.1641096931112114 
1.7699999999998215, -3.163654681511496 
1.7799999999998204, -3.1630995647213647 
1.7899999999998193, -3.1625545651562623 
1.7999999999998182, -3.162124198290556 
1.809999999999817, -3.1617754479166997 
1.819999999999816, -3.1614000957269486 
1.8299999999998149, -3.1609014833037197 
1.8399999999998138, -3.16020512005287 
1.8499999999998127, -3.1593152239267517 
1.8599999999998116, -3.1586019984544498 
1.8699999999998105, -3.1585054474158363 
1.8799999999998094, -3.158607782223026 
1.8899999999998083, -3.1584763750825253 
1.8999999999998072, -3.1580722798692595 
1.909999999999806, -3.157429722595645 
1.919999999999805, -3.1565846335692194 
1.9299999999998039, -3.155727128231637 
1.9399999999998028, -3.1552097384089093 
1.9499999999998017, -3.1549671886021633 
1.9599999999998006, -3.154670354096152 
1.9699999999997995, -3.1542243206432135 
1.9799999999997984, -3.153675155648292 
1.9899999999997973, -3.153126309471658 
1.9999999999997962, -3.1526680812915955 
2.0099999999998173, -3.1522880984054504 
2.0199999999998384, -3.1518946704895194 
2.0299999999998595, -3.1513896992250987 
2.0399999999998806, -3.1507086179123585 
2.0499999999999017, -3.1498996336984875 
2.059999999999923, -3.1493389329178227 
2.069999999999944, -3.1492787376654774 
2.079999999999965, -3.1492971594050516 
2.089999999999986, -3.149089572207892 
2.100000000000007, -3.1486276527591794 
2.1100000000000283, -3.1479152178868817 
2.1200000000000494, -3.1469755558906263 
2.1300000000000705, -3.1460723560548787 
2.1400000000000916, -3.145632288923302 
2.1500000000001127, -3.14547289581309 
2.160000000000134, -3.145209945771941 
2.170000000000155, -3.144774275111255 
2.180000000000176, -3.144224667397917 
2.190000000000197, -3.14365825092769 
2.2000000000002182, -3.1431674020722795 
2.2100000000002393, -3.1427661503869837 
2.2200000000002604, -3.1423700439593274 
2.2300000000002815, -3.1418753912067494 
2.2400000000003026, -3.1412276319084738 
2.2500000000003237, -3.1404967914283386 
2.260000000000345, -3.1400111946951474 
2.270000000000366, -3.1399131435998724 
2.280000000000387, -3.1398475288719374 
2.290000000000408, -3.139582709521325 
2.3000000000004293, -3.1390798123097334 
2.3100000000004504, -3.1383142412267278 
2.3200000000004715, -3.13729999055527 
2.3300000000004926, -3.1363739021825747 
2.3400000000005137, -3.1360208669273595 
2.3500000000005348, -3.13594546822102 
2.360000000000556, -3.1357205655727163 
2.370000000000577, -3.1352978787275183 
2.380000000000598, -3.134744233718596 
2.390000000000619, -3.134151657722985 
2.4000000000006403, -3.1336233843038017 
2.4100000000006614, -3.133205023054567 
2.4200000000006825, -3.132816626913422 
2.4300000000007036, -3.132343653009556 
2.4400000000007247, -3.1317359149528565 
2.450000000000746, -3.1310637076387886 
2.460000000000767, -3.130595096519065 
2.470000000000788, -3.1304322381348757 
2.480000000000809, -3.130297616192901 
2.49000000000083, -3.1299964089017287 
2.5000000000008513, -3.129473922251111 
2.5100000000008724, -3.1286834923017586 
2.5200000000008935, -3.1276291506848635 
2.5300000000009146, -3.1266960277602194 
2.5400000000009357, -3.1264178126175106 
2.550000000000957, -3.126422365384183 
2.560000000000978, -3.126241541020277 
2.570000000000999, -3.12583697455257 
2.58000000000102, -3.1252797726307655 
2.5900000000010412, -3.1246565533292583 
2.6000000000010624, -3.1240836139748978 
2.6100000000010835, -3.123645431769607 
2.6200000000011046, -3.1232708272091974 
2.6300000000011257, -3.122827445496841 
2.6400000000011468, -3.122261013865816 
2.650000000001168, -3.121629183940134 
2.660000000001189, -3.121145727141387 
2.67000000000121, -3.12091242087644 
2.680000000001231, -3.1207243015419874 
2.6900000000012523, -3.120405289627373 
2.7000000000012734, -3.1198856101324175 
2.7100000000012945, -3.1191042687145765 
2.7200000000013156, -3.118050847940091 
2.7300000000013367, -3.117113352283093 
2.740000000001358, -3.116874079752815 
2.750000000001379, -3.116948726282233 
2.7600000000014, -3.116819907070618 
2.770000000001421, -3.1164419050046406 
2.780000000001442, -3.115886586776414 
2.7900000000014633, -3.1152331306597385 
2.8000000000014844, -3.114606365817176 
2.8100000000015055, -3.1141373496257416 
2.8200000000015266, -3.1137777182547883 
2.8300000000015477, -3.1133702514045956 
2.840000000001569, -3.1128460430910727 
2.85000000000159, -3.1122446589733013 
2.860000000001611, -3.111733784398105 
2.870000000001632, -3.111430476063355 
2.8800000000016532, -3.111198825566125 
2.8900000000016743, -3.1108756917731757 
2.9000000000016954, -3.1103779554882616 
2.9100000000017165, -3.1096369574530387 
2.9200000000017377, -3.108623572319288 
2.9300000000017588, -3.107675857221996 
2.94000000000178, -3.1074195315183264 
2.950000000001801, -3.107545294442584 
2.960000000001822, -3.1074773640862516 
2.970000000001843, -3.1071379116846396 
2.9800000000018643, -3.106595359068653 
2.9900000000018854, -3.105918980296801 
3.0000000000019065, -3.105230886788825 
3.0100000000019276, -3.1047105850578847 
3.0200000000019487, -3.1043594749549124 
3.03000000000197, -3.1039934469800428 
3.040000000001991, -3.103514692215817 
3.050000000002012, -3.102942569734412 
3.060000000002033, -3.1024045066430883 
3.070000000002054, -3.1020323145240827 
3.0800000000020753, -3.1017594532919284 
3.0900000000020964, -3.101439195924003 
3.1000000000021175, -3.100976240598594 
3.1100000000021386, -3.100297840468703 
3.1200000000021597, -3.0993565451756044 
3.130000000002181, -3.0983978152687386 
3.140000000002202, -3.098058160714769 
3.150000000002223, -3.098200855863918 
3.160000000002244, -3.098201093270803 
3.1700000000022652, -3.09791528598688 
3.1800000000022863, -3.0974015172549962 
3.1900000000023074, -3.096718209687176 
3.2000000000023285, -3.0959696373396914 
3.2100000000023496, -3.0953700861589506 
3.2200000000023707, -3.09500779388462 
3.230000000002392, -3.0946864917722534 
3.240000000002413, -3.0942596387177232 
3.250000000002434, -3.093722572135621 
3.260000000002455, -3.093167012432859 
3.2700000000024763, -3.0927284190889623 
3.2800000000024974, -3.0924091279869574 
3.2900000000025185, -3.092090744912046 
3.3000000000025396, -3.091667996903502 
3.3100000000025607, -3.091063486535901 
3.3200000000025818, -3.0902167897457065 
3.330000000002603, -3.089263910034602 
3.340000000002624, -3.0887829805839653 
3.350000000002645, -3.0888857247645256 
3.360000000002666, -3.088954271304127 
3.3700000000026873, -3.0887390293238655 
3.3800000000027084, -3.088273905745372 
3.3900000000027295, -3.0876079800559104 
3.4000000000027506, -3.086815676714374 
3.4100000000027717, -3.086111136831364 
3.420000000002793, -3.0856975834545284 
3.430000000002814, -3.0854162787903308 
3.440000000002835, -3.085050594583513 
3.450000000002856, -3.0845595117032794 
3.460000000002877, -3.084003690695594 
3.4700000000028983, -3.0835066094030728 
3.4800000000029194, -3.0831307678993087 
3.4900000000029405, -3.082804184963295 
3.5000000000029616, -3.082419363306919 
3.5100000000029827, -3.0818905191740127 
3.520000000003004, -3.0811500253461857 
3.530000000003025, -3.0802383806606715 
3.540000000003046, -3.079593489968473 
3.550000000003067, -3.0795743414841263 
3.5600000000030882, -3.079693482054077 
3.5700000000031094, -3.0795647593366486 
3.5800000000031305, -3.079170053278126 
3.5900000000031516, -3.0785507258804894 
3.6000000000031727, -3.0777501134297145 
3.6100000000031938, -3.0769367298497228 
3.620000000003215, -3.076411039576526 
3.630000000003236, -3.07614370050545 
3.640000000003257, -3.07584829476067 
3.650000000003278, -3.0754181029186403 
3.6600000000032993, -3.0748845930679716 
3.6700000000033204, -3.0743468964459715 
3.6800000000033415, -3.073905807802824 
3.6900000000033626, -3.073552057722889 
3.7000000000033837, -3.073193983683578 
3.710000000003405, -3.0727353333201264 
3.720000000003426, -3.072101875531253 
3.730000000003447, -3.071271887835777 
3.740000000003468, -3.070498028936206 
3.750000000003489, -3.0702677066276745 
3.7600000000035103, -3.0703847766679746 
3.7700000000035314, -3.070351105798949 
3.7800000000035525, -3.0700485001295905 
3.7900000000035736, -3.0695048750462073 
3.8000000000035947, -3.0687431090500206 
3.810000000003616, -3.067858060550922 
3.820000000003637, -3.0671620718423154 
3.830000000003658, -3.0668415824703974 
3.840000000003679, -3.0666148371352078 
3.8500000000037002, -3.066263516921043 
3.8600000000037213, -3.065777771207869 
3.8700000000037424, -3.0652286325791716 
3.8800000000037635, -3.0647246731389584 
3.8900000000037847, -3.0643203645696575 
3.9000000000038058, -3.063966678706259 
3.910000000003827, -3.0635657465691124 
3.920000000003848, -3.063031572889762 
3.930000000003869, -3.0623110117287844 
3.94000000000389, -3.0614940187441007 
3.9500000000039113, -3.061006413774802 
3.9600000000039324, -3.0610192407058276 
3.9700000000039535, -3.0610665597043027 
3.9800000000039746, -3.0608749082968894 
3.9900000000039957, -3.0604324219511656 
4.000000000004016, -3.0597546766797388 
4.010000000003993, -3.0588724586430933 
4.02000000000397, -3.0580038402123373 
4.030000000003946, -3.057518601583158 
4.040000000003923, -3.057320688542854 
4.0500000000039, -3.0570646898462885 
4.0600000000038765, -3.0566538110997508 
4.070000000003853, -3.0561299266077073 
4.08000000000383, -3.055584866930439 
4.090000000003807, -3.0551138158728395 
4.100000000003783, -3.0547315729552484 
4.11000000000376, -3.054365252035106 
4.120000000003737, -3.05391614506372 
4.130000000003713, -3.053312151334104 
4.14000000000369, -3.052545450930993 
4.150000000003667, -3.0518535222792447 
4.1600000000036434, -3.0516331380910446 
4.17000000000362, -3.0516957614289533 
4.180000000003597, -3.051622939064047 
4.1900000000035735, -3.0513027871407603 
4.20000000000355, -3.0507421266343235 
4.210000000003527, -3.0499423089742197 
4.220000000003504, -3.048990088420997 
4.23000000000348, -3.0482485902754646 
4.240000000003457, -3.0479604923846355 
4.250000000003434, -3.04779341497263 
4.26000000000341, -3.047485539080097 
4.270000000003387, -3.0470254132804975 
4.280000000003364, -3.0464799710622428 
4.2900000000033405, -3.0459487009093547 
4.300000000003317, -3.045505427288205 
4.310000000003294, -3.0451354029479507 
4.320000000003271, -3.04474822350571 
4.330000000003247, -3.044251259340837 
4.340000000003224, -3.0435918108642603 
4.350000000003201, -3.042833755500571 
4.360000000003177, -3.0423208363683973 
4.370000000003154, -3.04225665894158 
4.380000000003131, -3.042274419508106 
4.390000000003107, -3.0420921717797547 
4.400000000003084, -3.041669791433714 
4.410000000003061, -3.041005685997373 
4.4200000000030375, -3.0401046823322533 
4.430000000003014, -3.039154773871976 
4.440000000002991, -3.0385970966199816 
4.450000000002968, -3.038431237380057 
4.460000000002944, -3.0382443594506174 
4.470000000002921, -3.037886136279626 
4.480000000002898, -3.037389638021267 
4.490000000002874, -3.0368349030838724 
4.500000000002851, -3.0363205722601943 
4.510000000002828, -3.035900302080032 
4.520000000002804, -3.0355346297019654 
4.530000000002781, -3.035122901969996 
4.540000000002758, -3.034583290867505 
4.5500000000027345, -3.0338889149823265 
4.560000000002711, -3.033185008023822 
4.570000000002688, -3.032835791831631 
4.580000000002665, -3.0328305014061714 
4.590000000002641, -3.0327804291409235 
4.600000000002618, -3.0325116115045647 
4.610000000002595, -3.032007138805167 
4.620000000002571, -3.0312543963977987 
4.630000000002548, -3.0302842746881327 
4.640000000002525, -3.0294006729265393 
4.6500000000025015, -3.0290148271203496 
4.660000000002478, -3.028901175416857 
4.670000000002455, -3.028678632475233 
4.6800000000024315, -3.028279640034102 
4.690000000002408, -3.0277583304337155 
4.700000000002385, -3.0272020045265675 
4.710000000002362, -3.02670471766477 
4.720000000002338, -3.0263027108284293 
4.730000000002315, -3.0259356276310334 
4.740000000002292, -3.025500012108988 
4.750000000002268, -3.024926222268981 
4.760000000002245, -3.0242174143449185 
4.770000000002222, -3.0235875752599326 
4.7800000000021985, -3.0233547369105542 
4.790000000002175, -3.023356299388535 
4.800000000002152, -3.023245340578497 
4.810000000002129, -3.0229118413669753 
4.820000000002105, -3.0223427652541153 
4.830000000002082, -3.0215196615771207 
4.840000000002059, -3.0205155705018423 
4.850000000002035, -3.0197281162031 
4.860000000002012, -3.0194663237811903 
4.870000000001989, -3.0193639403303787 
4.880000000001965, -3.0191074607162487 
4.890000000001942, -3.0186787141637796 
4.900000000001919, -3.0181418679205647 
4.9100000000018955, -3.0175881603066936 
4.920000000001872, -3.017106320640751 
4.930000000001849, -3.0167176596148804 
4.940000000001826, -3.0163462945050155 
4.950000000001802, -3.0158907064521525 
4.960000000001779, -3.0152924060324566 
4.970000000001756, -3.014583441668599 
