t, s[1].omega / s[0].omega 
0, -0.5099977523933259 
0.009999999999999995, -0.5097704842159119 
0.019999999999999934, -0.5095373769223717 
0.029999999999999874, -0.5092961847321767 
0.04000000000000012, -0.5090441937430719 
0.050000000000000405, -0.5087791699996335 
0.06000000000000069, -0.5084999420001727 
0.07000000000000098, -0.5082065143606711 
0.08000000000000126, -0.5078998733687997 
0.09000000000000155, -0.5075817289101341 
0.10000000000000184, -0.5072543754405201 
0.11000000000000212, -0.5069207476969562 
0.12000000000000241, -0.5065846558358051 
0.130000000000002, -0.5062511112543934 
0.1400000000000009, -0.5059265710453699 
0.1499999999999998, -0.5056188194732231 
0.1599999999999987, -0.5053361102235943 
0.1699999999999976, -0.5050852671820816 
0.1799999999999965, -0.5048689450228254 
0.1899999999999954, -0.5046832897481301 
0.1999999999999943, -0.5045181556381065 
0.2099999999999932, -0.5043612381090907 
0.2199999999999921, -0.5042042852770303 
0.229999999999991, -0.5040467866288537 
0.2399999999999899, -0.5038942537376283 
0.2499999999999888, -0.5037531143958184 
0.2599999999999877, -0.5036265427284001 
0.2699999999999866, -0.5035134127026751 
0.2799999999999855, -0.5034095871580494 
0.2899999999999844, -0.5033097937669919 
0.2999999999999833, -0.5032089872974725 
0.3099999999999822, -0.5031029587426014 
0.3199999999999811, -0.5029883963093369 
0.32999999999998, -0.5028626873218613 
0.3399999999999789, -0.5027236869738789 
0.3499999999999778, -0.5025695987200303 
0.35999999999997667, -0.5023990446208793 
0.36999999999997557, -0.5022113338986615 
0.37999999999997447, -0.5020068386215653 
0.38999999999997337, -0.501787266488354 
0.39999999999997227, -0.5015555587103866 
0.40999999999997117, -0.5013152481848827 
0.41999999999997006, -0.5010694134154072 
0.42999999999996896, -0.5008196832284266 
0.43999999999996786, -0.500565808653019 
0.44999999999996676, -0.5003060159057621 
0.45999999999996566, -0.500037902909062 
0.46999999999996456, -0.499759387328002 
0.47999999999996346, -0.49946930896980674 
0.48999999999996235, -0.49916758783474896 
0.49999999999996125, -0.49885508989015104 
0.5099999999999602, -0.4985334295286282 
0.519999999999959, -0.4982048788311474 
0.529999999999958, -0.49787245288597076 
0.5399999999999568, -0.49754015193726164 
0.5499999999999557, -0.4972132645270116 
0.5599999999999546, -0.49689854544238204 
0.5699999999999535, -0.4966039674477165 
0.5799999999999524, -0.4963376598818602 
0.5899999999999513, -0.4961057639002832 
0.5999999999999502, -0.49590952568543567 
0.6099999999999491, -0.495743073168536 
0.619999999999948, -0.49559417231761466 
0.6299999999999469, -0.4954491309447343 
0.6399999999999458, -0.4952994750204615 
0.6499999999999447, -0.49514542605456685 
0.6599999999999436, -0.49499355966729447 
0.6699999999999425, -0.49485122915072993 
0.6799999999999414, -0.494722290978471 
0.6899999999999403, -0.494606143051712 
0.6999999999999392, -0.49449908818094174 
0.7099999999999381, -0.4943962258032718 
0.719999999999937, -0.494292806528614 
0.7299999999999359, -0.4941848427259804 
0.7399999999999348, -0.49406918840843267 
0.7499999999999337, -0.49394337232277186 
0.7599999999999326, -0.4938054026017727 
0.7699999999999315, -0.49365368062047105 
0.7799999999999304, -0.49348709325344337 
0.7899999999999293, -0.4933052778236138 
0.7999999999999282, -0.4931089517935371 
0.8099999999999271, -0.4929000886628726 
0.819999999999926, -0.49268168564973064 
0.8299999999999249, -0.4924570100325589 
0.8399999999999238, -0.4922285246337593 
0.8499999999999227, -0.4919969814882855 
0.8599999999999216, -0.49176117152005505 
0.8699999999999205, -0.49151846621669454 
0.8799999999999194, -0.4912658350989946 
0.8899999999999183, -0.4910008123410896 
0.8999999999999172, -0.49072203348231264 
0.9099999999999161, -0.49042928827499754 
0.919999999999915, -0.49012327985647214 
0.9299999999999139, -0.4898053346222385 
0.9399999999999128, -0.4894772289720894 
0.9499999999999117, -0.48914118960924824 
0.9599999999999106, -0.4888000357093093 
0.9699999999999095, -0.48845736067118056 
0.9799999999999084, -0.488117574851501 
0.9899999999999073, -0.4877855477218822 
0.9999999999999062, -0.4874655678551448 
1.0099999999999052, -0.4871595609510423 
1.019999999999904, -0.4868651792395012 
1.029999999999903, -0.4865753482117233 
1.039999999999902, -0.4862810612370631 
1.0499999999999008, -0.4859771806945208 
1.0599999999998997, -0.4856674808353768 
1.0699999999998986, -0.4853643584572187 
1.0799999999998975, -0.48508295292737114 
1.0899999999998964, -0.48483429633660335 
1.0999999999998953, -0.4846219681337184 
1.1099999999998942, -0.48444288562288057 
1.119999999999893, -0.4842901318840841 
1.129999999999892, -0.4841557001737315 
1.1399999999998909, -0.48403222089825737 
1.1499999999998898, -0.48391367803425844 
1.1599999999998887, -0.48379547730426314 
1.1699999999998876, -0.48367422622514517 
1.1799999999998865, -0.4835474733918047 
1.1899999999998854, -0.48341354611215837 
1.1999999999998843, -0.48327154004972217 
1.2099999999998832, -0.4831214315563246 
1.219999999999882, -0.48296418856766987 
1.229999999999881, -0.4828016762416983 
1.2399999999998799, -0.48263616677673166 
1.2499999999998788, -0.4824694421670859 
1.2599999999998777, -0.4823017803141608 
1.2699999999998766, -0.48213133079537707 
1.2799999999998755, -0.4819542869323884 
1.2899999999998744, -0.4817658403379729 
1.2999999999998733, -0.4815614535886187 
1.3099999999998722, -0.4813378509132059 
1.319999999999871, -0.4810933774999662 
1.32999999999987, -0.48082776899228213 
1.3399999999998689, -0.48054161442867976 
1.3499999999998678, -0.4802358033074346 
1.3599999999998666, -0.47991112149877296 
1.3699999999998655, -0.4795680268875782 
1.3799999999998644, -0.4792065484592937 
1.3899999999998633, -0.47882620570824785 
1.3999999999998622, -0.4784258213267593 
1.4099999999998611, -0.4780031157252499 
1.41999999999986, -0.4775541086585108 
1.429999999999859, -0.4770727362387007 
1.4399999999998578, -0.4765516975898211 
1.4499999999998567, -0.47598579442971 
1.4599999999998556, -0.47537773928385096 
1.4699999999998545, -0.47474335423100456 
1.4799999999998534, -0.4741111965996467 
1.4899999999998523, -0.47351478651736184 
1.4999999999998512, -0.4729818375307862 
1.5099999999998501, -0.4725271624103874 
1.519999999999849, -0.47215208702755174 
1.529999999999848, -0.4718483947342296 
1.5399999999998468, -0.47160334128808507 
1.5499999999998457, -0.4714035298630395 
1.5599999999998446, -0.4712370891273168 
1.5699999999998435, -0.47109450324424096 
1.5799999999998424, -0.47096865125042 
1.5899999999998413, -0.47085450267163786 
1.5999999999998402, -0.4707487436178437 
1.6099999999998391, -0.4706494667451409 
1.619999999999838, -0.47055595450630705 
1.629999999999837, -0.4704684980499933 
1.6399999999998358, -0.47038811854049534 
1.6499999999998347, -0.47031602637818654 
1.6599999999998336, -0.4702527319398181 
1.6699999999998325, -0.4701969462035602 
1.6799999999998314, -0.47014469719720886 
1.6899999999998303, -0.4700892131605413 
1.6999999999998292, -0.47002187281775665 
1.709999999999828, -0.469933952797504 
1.719999999999827, -0.46981840630507155 
1.729999999999826, -0.4696708984788657 
1.7399999999998248, -0.46948980062111634 
1.7499999999998237, -0.4692753923398353 
1.7599999999998226, -0.46902875859862264 
1.7699999999998215, -0.4687507699530487 
1.7799999999998204, -0.46844130471386247 
1.7899999999998193, -0.4680986914849273 
1.7999999999998182, -0.46771927505430116 
1.809999999999817, -0.4672970217296671 
1.819999999999816, -0.466823169886481 
1.8299999999998149, -0.4662861248930631 
1.8399999999998138, -0.4656721335995191 
1.8499999999998127, -0.4649676667969163 
1.8599999999998116, -0.4641644254726537 
1.8699999999998105, -0.46326660336420833 
1.8799999999998094, -0.4622972488702485 
1.8899999999998083, -0.46129849381218635 
1.8999999999998072, -0.46032280312497437 
1.909999999999806, -0.45941890599289154 
1.919999999999805, -0.458620226525459 
1.9299999999998039, -0.45794098041962794 
1.9399999999998028, -0.4573792649119368 
1.9499999999998017, -0.4569232303130189 
1.9599999999998006, -0.45655691496944584 
1.9699999999997995, -0.45626425317962893 
1.9799999999997984, -0.4560312217502446 
1.9899999999997973, -0.4558466690560632 
1.9999999999997962, -0.45570239863894246 
2.0099999999998173, -0.45559291320659473 
2.0199999999998384, -0.45551504647624264 
2.0299999999998595, -0.4554675708568433 
2.0399999999998806, -0.455450763629745 
2.0499999999999017, -0.4554658315966223 
2.059999999999923, -0.45551404530958345 
2.069999999999944, -0.4555954670768145 
2.079999999999965, -0.45570733965326704 
2.089999999999986, -0.4558425478811639 
2.100000000000007, -0.4559889184300224 
2.1100000000000283, -0.456130133816676 
2.1200000000000494, -0.4562484099933596 
2.1300000000000705, -0.4563280372888562 
2.1400000000000916, -0.45635822468235654 
2.1500000000001127, -0.4563340759427489 
2.160000000000134, -0.45625564841062144 
2.170000000000155, -0.45612593976178617 
2.180000000000176, -0.45594877141501317 
2.190000000000197, -0.4557271245582095 
2.2000000000002182, -0.4554620274997494 
2.2100000000002393, -0.45515185140015346 
2.2200000000002604, -0.45479184788765326 
2.2300000000002815, -0.45437387865666573 
2.2400000000003026, -0.45388649656620095 
2.2500000000003237, -0.4533158155139085 
2.260000000000345, -0.452647852068191 
2.270000000000366, -0.45187292179120214 
2.280000000000387, -0.4509917315831726 
2.290000000000408, -0.45002093867609505 
2.3000000000004293, -0.44899445224313067 
2.3100000000004504, -0.44795795326898524 
2.3200000000004715, -0.44695831153874216 
2.3300000000004926, -0.4460331929657362 
2.3400000000005137, -0.4452055408677422 
2.3500000000005348, -0.44448383212483406 
2.360000000000556, -0.4438659144816651 
2.370000000000577, -0.44334368263258844 
2.380000000000598, -0.44290691476204325 
2.390000000000619, -0.442545785524065 
2.4000000000006403, -0.4422522435356388 
2.4100000000006614, -0.4420206344277777 
2.4200000000006825, -0.4418478994839254 
2.4300000000007036, -0.44173355552395693 
2.4400000000007247, -0.44167953595338344 
2.450000000000746, -0.44168985868361466 
2.460000000000767, -0.44176997890099495 
2.470000000000788, -0.4419255931223403 
2.480000000000809, -0.4421606408303533 
2.49000000000083, -0.4424744215821148 
2.5000000000008513, -0.442858251716664 
2.5100000000008724, -0.4432929028923608 
2.5200000000008935, -0.4437487030195994 
2.5300000000009146, -0.4441896824636717 
2.5400000000009357, -0.44458102630119034 
2.550000000000957, -0.4448966256158865 
2.560000000000978, -0.44512312860087155 
2.570000000000999, -0.44525922721854166 
2.58000000000102, -0.44531174320725136 
2.5900000000010412, -0.4452910603755888 
2.6000000000010624, -0.4452075951169766 
2.6100000000010835, -0.4450697241367301 
2.6200000000011046, -0.44488284855525356 
2.6300000000011257, -0.44464912633139636 
2.6400000000011468, -0.4443675594723694 
2.650000000001168, -0.44403435370833877 
2.660000000001189, -0.44364368001323323 
2.67000000000121, -0.44318910145201207 
2.680000000001231, -0.44266587684727454 
2.6900000000012523, -0.4420739634986471 
2.7000000000012734, -0.4414208150150908 
2.7100000000012945, -0.4407224589463115 
2.7200000000013156, -0.440001652120859 
2.7300000000013367, -0.4392834207727671 
2.740000000001358, -0.4385899457392098 
2.750000000001379, -0.4379370528454631 
2.7600000000014, -0.43733333519024653 
2.770000000001421, -0.43678141319871305 
2.780000000001442, -0.4362801426309579 
2.7900000000014633, -0.4358267703458167 
2.8000000000014844, -0.4354185690621158 
2.8100000000015055, -0.4350539117269914 
2.8200000000015266, -0.434732943702638 
2.8300000000015477, -0.4344580342293794 
2.840000000001569, -0.4342341271804632 
2.85000000000159, -0.4340690176026027 
2.860000000001611, -0.4339734657047318 
2.870000000001632, -0.4339609133323834 
2.8800000000016532, -0.4340463898418171 
2.8900000000016743, -0.4342440474853406 
2.9000000000016954, -0.43456284996478634 
2.9100000000017165, -0.43500061240236193 
2.9200000000017377, -0.43553813131349467 
2.9300000000017588, -0.43613699182222393 
2.94000000000178, -0.4367447551992834 
2.950000000001801, -0.4373075221622359 
2.960000000001822, -0.43778405900993356 
2.970000000001843, -0.4381537277376807 
2.9800000000018643, -0.43841523196820614 
2.9900000000018854, -0.43857956883895105 
3.0000000000019065, -0.4386624810406855 
3.0100000000019276, -0.43867939275898554 
3.0200000000019487, -0.4386430625204324 
3.03000000000197, -0.43856298517737996 
3.040000000001991, -0.43844559756182183 
3.050000000002012, -0.43829474435209265 
3.060000000002033, -0.43811220327913947 
3.070000000002054, -0.43789826762740036 
3.0800000000020753, -0.43765246890446735 
3.0900000000020964, -0.43737451164934243 
3.1000000000021175, -0.4370653747451986 
3.1100000000021386, -0.4367283202886484 
3.1200000000021597, -0.43636935330180837 
3.130000000002181, -0.4359967086594274 
3.140000000002202, -0.43561934340387254 
3.150000000002223, -0.43524499544461753 
3.160000000002244, -0.4348786765280053 
3.1700000000022652, -0.4345222148942159 
3.1800000000022863, -0.4341748545140752 
3.1900000000023074, -0.4338344215719915 
3.2000000000023285, -0.4334984709744242 
3.2100000000023496, -0.4331650583960817 
3.2200000000023707, -0.43283309347841303 
3.230000000002392, -0.4325024215151984 
3.240000000002413, -0.4321738152978328 
3.250000000002434, -0.43184899748313993 
3.260000000002455, -0.4315307241308132 
3.2700000000024763, -0.43122286839949997 
3.2800000000024974, -0.43093034316946144 
3.2900000000025185, -0.4306585876609067 
3.3000000000025396, -0.43041226501776403 
3.3100000000025607, -0.4301929441024136 
3.3200000000025818, -0.42999616148350644 
3.330000000002603, -0.4298095013989592 
3.340000000002624, -0.42961438945037606 
3.350000000002645, -0.4293931119605867 
3.360000000002666, -0.4291381228198835 
3.3700000000026873, -0.42885680836112294 
3.3800000000027084, -0.42856751802919907 
3.3900000000027295, -0.4282902196739077 
3.4000000000027506, -0.4280387924654356 
3.4100000000027717, -0.42781862582244595 
3.420000000002793, -0.4276283826656755 
3.430000000002814, -0.42746311598675935 
3.440000000002835, -0.4273168552306322 
3.450000000002856, -0.42718411993478106 
3.460000000002877, -0.427060553078921 
3.4700000000028983, -0.4269430458123146 
3.4800000000029194, -0.42682965641004156 
3.4900000000029405, -0.4267195059304626 
3.5000000000029616, -0.4266127257633678 
3.5100000000029827, -0.42651043781667886 
3.520000000003004, -0.42641465752550467 
3.530000000003025, -0.4263279427153316 
3.540000000003046, -0.42625262879901005 
3.550000000003067, -0.426189660349483 
3.5600000000030882, -0.42613733559140304 
3.5700000000031094, -0.42609055287729963 
3.5800000000031305, -0.4260411215588652 
3.5900000000031516, -0.4259792425512449 
3.6000000000031727, -0.42589560104823143 
3.6100000000031938, -0.4257831401380252 
3.620000000003215, -0.4256378126176923 
3.630000000003236, -0.42545822559182733 
3.640000000003257, -0.4252445928049774 
3.650000000003278, -0.4249975122411057 
3.6600000000032993, -0.424716894763222 
3.6700000000033204, -0.42440112702377186 
3.6800000000033415, -0.42404640665824855 
3.6900000000033626, -0.4236461663228492 
3.7000000000033837, -0.4231905923585721 
3.710000000003405, -0.4226664518542422 
3.720000000003426, -0.4220577830629111 
3.730000000003447, -0.42134837572001793 
3.740000000003468, -0.4205269308249548 
3.750000000003489, -0.4195945600179282 
3.7600000000035103, -0.41857163626064675 
3.7700000000035314, -0.4174989023247524 
3.7800000000035525, -0.41642969028985066 
3.7900000000035736, -0.4154162029636742 
3.8000000000035947, -0.4144972915034958 
3.810000000003616, -0.4136932930156093 
3.820000000003637, -0.41300797877258644 
3.830000000003658, -0.4124341147278147 
3.840000000003679, -0.4119592013581472 
3.8500000000037002, -0.4115696955710722 
3.8600000000037213, -0.41125348961801816 
3.8700000000037424, -0.4110010815269963 
3.8800000000037635, -0.4108059644091712 
3.8900000000037847, -0.4106646269115384 
3.9000000000038058, -0.4105763845204661 
3.910000000003827, -0.41054311236404695 
3.920000000003848, -0.4105688246051928 
3.930000000003869, -0.4106589328108802 
3.94000000000389, -0.410818929420136 
3.9500000000039113, -0.4110522502275348 
3.9600000000039324, -0.4113573029751579 
3.9700000000039535, -0.411724232038248 
3.9800000000039746, -0.4121328148853454 
3.9900000000039957, -0.4125533385551899 
4.000000000004016, -0.4129514424656036 
4.010000000003993, -0.41329559460194537 
4.02000000000397, -0.4135637717047501 
4.030000000003946, -0.4137462379145638 
4.040000000003923, -0.41384393624423604 
4.0500000000039, -0.4138644165949327 
4.0600000000038765, -0.4138176442912374 
4.070000000003853, -0.41371299022678026 
4.08000000000383, -0.41355757224387013 
4.090000000003807, -0.41335557315330707 
4.100000000003783, -0.4131081229647465 
4.11000000000376, -0.412813517517181 
4.120000000003737, -0.4124677679768484 
4.130000000003713, -0.4120656506028421 
4.14000000000369, -0.41160247418193363 
4.150000000003667, -0.4110765789343433 
4.1600000000036434, -0.4104920446153817 
4.17000000000362, -0.40986042923670096 
4.180000000003597, -0.4092002198153718 
4.1900000000035735, -0.40853361712611874 
4.20000000000355, -0.4078818763880315 
4.210000000003527, -0.4072613304984644 
4.220000000003504, -0.4066816196248465 
4.23000000000348, -0.40614621648024485 
4.240000000003457, -0.40565430285932613 
4.250000000003434, -0.4052029136122708 
4.26000000000341, -0.40478868688553266 
4.270000000003387, -0.4044090425085078 
4.280000000003364, -0.40406289963282527 
4.2900000000033405, -0.403751129697966 
4.300000000003317, -0.40347690464683117 
4.310000000003294, -0.40324601390048703 
4.320000000003271, -0.40306711342510154 
4.330000000003247, -0.4029517284693527 
4.340000000003224, -0.40291364441419397 
4.350000000003201, -0.4029671173379893 
4.360000000003177, -0.40312327560455286 
4.370000000003154, -0.4033845376670496 
4.380000000003131, -0.40373829585624216 
4.390000000003107, -0.40415332046818486 
4.400000000003084, -0.40458336190735295 
4.410000000003061, -0.40497924395638474 
4.4200000000030375, -0.405303871208602 
4.430000000003014, -0.40554094492983717 
4.440000000002991, -0.40569315599452693 
4.450000000002968, -0.40577384626033386 
4.460000000002944, -0.4057987995216371 
4.470000000002921, -0.40578159697976945 
4.480000000002898, -0.40573226476062274 
4.490000000002874, -0.4056576242866906 
4.500000000002851, -0.40556211405535336 
4.510000000002828, -0.4054485349481016 
4.520000000002804, -0.4053186083485213 
4.530000000002781, -0.40517341346072017 
4.540000000002758, -0.40501380435632095 
4.5500000000027345, -0.404840872612972 
4.560000000002711, -0.4046564394290496 
4.570000000002688, -0.4044634426616415 
4.580000000002665, -0.4042659780917125 
4.590000000002641, -0.4040687626819879 
4.600000000002618, -0.40387600013592173 
4.610000000002595, -0.40368999371636616 
4.620000000002571, -0.4035101299220848 
4.630000000002548, -0.40333278739685835 
4.640000000002525, -0.4031522767194227 
4.6500000000025015, -0.4029623673381355 
4.660000000002478, -0.40275769111357773 
4.670000000002455, -0.4025344883680183 
4.6800000000024315, -0.40229058981182114 
4.690000000002408, -0.4020248720547014 
4.700000000002385, -0.40173651327010784 
4.710000000002362, -0.401424269483012 
4.720000000002338, -0.4010858371173917 
4.730000000002315, -0.400717259795978 
4.740000000002292, -0.4003123056283151 
4.750000000002268, -0.3998617982549944 
4.760000000002245, -0.39935307475464177 
4.770000000002222, -0.3987701326966617 
4.7800000000021985, -0.39809556755038 
4.790000000002175, -0.3973156053214685 
4.800000000002152, -0.3964283242106896 
4.810000000002129, -0.39545191817285563 
4.820000000002105, -0.3944268349057598 
4.830000000002082, -0.3934075747997448 
4.840000000002059, -0.392447422663075 
4.850000000002035, -0.3915849764856562 
4.860000000002012, -0.39083890792795456 
4.870000000001989, -0.39021065766952984 
