t, s[1].omega / s[0].omega 
0, -1.539997197643649 
0.009999999999999995, -1.539635306414453 
0.019999999999999934, -1.5391151679456179 
0.029999999999999874, -1.5384495274101913 
0.04000000000000012, -1.5376676591336935 
0.050000000000000405, -1.5368250499656173 
0.06000000000000069, -1.5360077691602112 
0.07000000000000098, -1.535317033442075 
0.08000000000000126, -1.5348257363182338 
0.09000000000000155, -1.5345330756183049 
0.10000000000000184, -1.5343664421202488 
0.11000000000000212, -1.534230820161025 
0.12000000000000241, -1.534051084601621 
0.130000000000002, -1.5337776927201 
0.1400000000000009, -1.5333709852524988 
0.1499999999999998, -1.5327852149989933 
0.1599999999999987, -1.5319646839212067 
0.1699999999999976, -1.530866984550486 
0.1799999999999965, -1.5295360514055836 
0.1899999999999954, -1.528215130402234 
0.1999999999999943, -1.527360455703238 
0.2099999999999932, -1.5273571524610814 
0.2199999999999921, -1.5281374794183245 
0.229999999999991, -1.5292391273864636 
0.2399999999999899, -1.5302189738377385 
0.2499999999999888, -1.5308787830583408 
0.2599999999999877, -1.5312105246457548 
0.2699999999999866, -1.5312784665451158 
0.2799999999999855, -1.5311516008344013 
0.2899999999999844, -1.5308844307127352 
0.2999999999999833, -1.5305219773609677 
0.3099999999999822, -1.5301139784538955 
0.3199999999999811, -1.5297267509855246 
0.32999999999998, -1.5294370654018759 
0.3399999999999789, -1.5293006316685376 
0.3499999999999778, -1.5293189812015011 
0.35999999999997667, -1.52943957007545 
0.36999999999997557, -1.5295862540035818 
0.37999999999997447, -1.529689218846608 
0.38999999999997337, -1.5296976492752226 
0.39999999999997227, -1.5295785634897878 
0.40999999999997117, -1.52931068184053 
0.41999999999997006, -1.5288795912992317 
0.42999999999996896, -1.5282770626675903 
0.43999999999996786, -1.5275056564440115 
0.44999999999996676, -1.5265891239367413 
0.45999999999996566, -1.5255868339457321 
0.46999999999996456, -1.5246028085453056 
0.47999999999996346, -1.5237684821396291 
0.48999999999996235, -1.52318459708311 
0.49999999999996125, -1.5228570670890602 
0.5099999999999602, -1.5226972481370793 
0.519999999999959, -1.5225883262374948 
0.529999999999958, -1.5224421788670013 
0.5399999999999568, -1.5222074190958166 
0.5499999999999557, -1.5218504556827224 
0.5599999999999546, -1.5213369703871595 
0.5699999999999535, -1.5206265224929107 
0.5799999999999524, -1.5196918074781771 
0.5899999999999513, -1.518580504929295 
0.5999999999999502, -1.5175118290475498 
0.6099999999999491, -1.516891964028032 
0.619999999999948, -1.517072961259252 
0.6299999999999469, -1.5180052627536882 
0.6399999999999458, -1.5192590025682295 
0.6499999999999447, -1.5203933063820423 
0.6599999999999436, -1.5211920069559641 
0.6699999999999425, -1.5216341604122887 
0.6799999999999414, -1.5217829791399642 
0.6899999999999403, -1.5217132215007017 
0.6999999999999392, -1.5214859945831318 
0.7099999999999381, -1.5211496315436794 
0.719999999999937, -1.520751110171514 
0.7299999999999359, -1.5203477088525243 
0.7399999999999348, -1.5200068056343765 
0.7499999999999337, -1.519785300971334 
0.7599999999999326, -1.5197011105309304 
0.7699999999999315, -1.5197242804897073 
0.7799999999999304, -1.519794869778597 
0.7899999999999293, -1.5198483759595494 
0.7999999999999282, -1.519831430455049 
0.8099999999999271, -1.5197049959228697 
0.819999999999926, -1.5194404489876694 
0.8299999999999249, -1.5190149095417236 
0.8399999999999238, -1.5184099721569948 
0.8499999999999227, -1.5176159775728864 
0.8599999999999216, -1.5166431527556798 
0.8699999999999205, -1.5155393171871743 
0.8799999999999194, -1.5144067624624584 
0.8899999999999183, -1.5133960466777032 
0.8999999999999172, -1.5126499711691368 
0.9099999999999161, -1.512217467155227 
0.919999999999915, -1.5120232290092646 
0.9299999999999139, -1.5119323253594812 
0.9399999999999128, -1.511831576075515 
0.9499999999999117, -1.5116557406754865 
0.9599999999999106, -1.5113706678504906 
0.9699999999999095, -1.5109500990409654 
0.9799999999999084, -1.5103639585426751 
0.9899999999999073, -1.5095862865072531 
0.9999999999999062, -1.508635950626211 
1.0099999999999052, -1.5076560753781405 
1.019999999999904, -1.5069698930079067 
1.029999999999903, -1.506953861431748 
1.039999999999902, -1.507716496849958 
1.0499999999999008, -1.5089571529542658 
1.0599999999998997, -1.5102227867352105 
1.0699999999998986, -1.511211619501691 
1.0799999999998975, -1.5118350143910226 
1.0899999999998964, -1.5121290708873594 
1.0999999999998953, -1.512167046177271 
1.1099999999998942, -1.5120170863973488 
1.119999999999893, -1.5117329334010514 
1.129999999999892, -1.5113604564358687 
1.1399999999998909, -1.5109491656574845 
1.1499999999998898, -1.5105589557238792 
1.1599999999998887, -1.5102515438652744 
1.1699999999998876, -1.510066634722854 
1.1799999999998865, -1.5100022306552228 
1.1899999999998854, -1.5100175874224102 
1.1999999999998843, -1.5100534503994456 
1.2099999999998832, -1.5100520617250144 
1.219999999999882, -1.5099669662773518 
1.229999999999881, -1.509762960843117 
1.2399999999998799, -1.5094116526540535 
1.2499999999998788, -1.5088881618960965 
1.2599999999998777, -1.5081724322115613 
1.2699999999998766, -1.507257203333429 
1.2799999999998755, -1.5061638981365117 
1.2899999999998744, -1.5049640626513383 
1.2999999999998733, -1.5037921645115975 
1.3099999999998722, -1.5028191184354653 
1.319999999999871, -1.502169653770871 
1.32999999999987, -1.5018404795838916 
1.3399999999998689, -1.5017126605636673 
1.3499999999998678, -1.5016434875853828 
1.3599999999998666, -1.501534168684397 
1.3699999999998655, -1.5013342292127734 
1.3799999999998644, -1.5010170289037252 
1.3899999999998633, -1.5005588651627808 
1.3999999999998622, -1.4999329963082908 
1.4099999999998611, -1.4991262123056557 
1.41999999999986, -1.498190391355556 
1.429999999999859, -1.4973205938988143 
1.4399999999998578, -1.496866794724587 
1.4499999999998567, -1.4971384471243727 
1.4599999999998556, -1.4981098638880597 
1.4699999999998545, -1.4994099985000515 
1.4799999999998534, -1.5006236916979128 
1.4899999999998523, -1.5015205013370285 
1.4999999999998512, -1.5020567953501878 
1.5099999999998501, -1.5022832292598394 
1.519999999999849, -1.5022724101449918 
1.529999999999848, -1.5020879912829666 
1.5399999999998468, -1.5017803910194059 
1.5499999999998457, -1.501394758324053 
1.5599999999998446, -1.500981788397079 
1.5699999999998435, -1.5006017562465683 
1.5799999999998424, -1.5003127194297103 
1.5899999999998413, -1.500146719012329 
1.5999999999998402, -1.5000943075750266 
1.6099999999998391, -1.5001112392497438 
1.619999999999838, -1.5001387811193019 
1.629999999999837, -1.500121669712533 
1.6399999999998358, -1.5000159283318362 
1.6499999999998347, -1.4997878395847517 
1.6599999999998336, -1.49940958304471 
1.6699999999998325, -1.4988566600244488 
1.6799999999998314, -1.4981101905847443 
1.6899999999998303, -1.497165933621248 
1.6999999999998292, -1.4960509327114138 
1.709999999999828, -1.4948443524088764 
1.719999999999827, -1.4936864966042873 
1.729999999999826, -1.4927456545052613 
1.7399999999998248, -1.4921330009832703 
1.7499999999998237, -1.491829965597605 
1.7599999999998226, -1.4917123530630287 
1.7699999999998215, -1.491641895557231 
1.7799999999998204, -1.4915260109237347 
1.7899999999998193, -1.4913176815864342 
1.7999999999998182, -1.4909909991982986 
1.809999999999817, -1.490521578187037 
1.819999999999816, -1.4898816710807028 
1.8299999999998149, -1.48905766828594 
1.8399999999998138, -1.4881024829978189 
1.8499999999998127, -1.4872135587880804 
1.8599999999998116, -1.486742983615431 
1.8699999999998105, -1.4870011732843464 
1.8799999999998094, -1.487963586005619 
1.8899999999998083, -1.4892600985446434 
1.8999999999998072, -1.4904745233229428 
1.909999999999806, -1.4913743393554135 
1.919999999999805, -1.491914488024202 
1.9299999999998039, -1.492145130150187 
1.9399999999998028, -1.4921388099861805 
1.9499999999998017, -1.491959122014896 
1.9599999999998006, -1.4916562131532571 
1.9699999999997995, -1.491274706216519 
1.9799999999997984, -1.4908647985204362 
1.9899999999997973, -1.4904870701452868 
1.9999999999997962, -1.490201402820415 
2.0099999999998173, -1.4900425672452402 
2.0199999999998384, -1.490002934199805 
2.0299999999998595, -1.4900382158862246 
2.0399999999998806, -1.4900884513579995 
2.0499999999999017, -1.4900970611506792 
2.059999999999923, -1.4900194462533258 
2.069999999999944, -1.4898224456395777 
2.079999999999965, -1.4894801576339778 
2.089999999999986, -1.488971114879318 
2.100000000000007, -1.4882796555758913 
2.1100000000000283, -1.4874029525357704 
2.1200000000000494, -1.486364357360998 
2.1300000000000705, -1.4852306874876076 
2.1400000000000916, -1.484121821525021 
2.1500000000001127, -1.4831884808436546 
2.160000000000134, -1.4825442739821908 
2.170000000000155, -1.482194885187528 
2.180000000000176, -1.4820412742250275 
2.190000000000197, -1.4819543733686331 
2.2000000000002182, -1.4818380906858823 
2.2100000000002393, -1.4816390498256162 
2.2200000000002604, -1.4813267944673028 
2.2300000000002815, -1.4808736841035106 
2.2400000000003026, -1.4802464253822127 
2.2500000000003237, -1.4794166843923144 
2.260000000000345, -1.478404318528127 
2.270000000000366, -1.477357416908956 
2.280000000000387, -1.476604326356823 
2.290000000000408, -1.4765238654457558 
2.3000000000004293, -1.4772297772893874 
2.3100000000004504, -1.4784306268775347 
2.3200000000004715, -1.4796765949397952 
2.3300000000004926, -1.480660868349499 
2.3400000000005137, -1.4812882625903452 
2.3500000000005348, -1.4815907989877173 
2.360000000000556, -1.4816398189857511 
2.370000000000577, -1.481502377452973 
2.380000000000598, -1.4812309770592373 
2.390000000000619, -1.480869633924145 
2.4000000000006403, -1.4804658547790956 
2.4100000000006614, -1.4800795672794078 
2.4200000000006825, -1.4797775468593148 
2.4300000000007036, -1.4796090811206004 
2.4400000000007247, -1.4795802744944786 
2.450000000000746, -1.4796517584436226 
2.460000000000767, -1.4797599763088845 
2.470000000000788, -1.4798414993057787 
2.480000000000809, -1.4798461773782416 
2.49000000000083, -1.4797388111151895 
2.5000000000008513, -1.4794952318304206 
2.5100000000008724, -1.4790983313741892 
2.5200000000008935, -1.4785370907442827 
2.5300000000009146, -1.477809811981752 
2.5400000000009357, -1.4769320050850296 
2.550000000000957, -1.4759481059948678 
2.560000000000978, -1.4749416420812926 
2.570000000000999, -1.4740297997181868 
2.58000000000102, -1.4733257978691952 
2.5900000000010412, -1.4728787372255732 
2.6000000000010624, -1.4726435637970008 
2.6100000000010835, -1.472517040742892 
2.6200000000011046, -1.472399219936107 
2.6300000000011257, -1.4722232615889967 
2.6400000000011468, -1.471948755105495 
2.650000000001168, -1.4715430120669113 
2.660000000001189, -1.4709671431104296 
2.67000000000121, -1.4701748796600982 
2.680000000001231, -1.469135684561058 
2.6900000000012523, -1.467898922761151 
2.7000000000012734, -1.4666866242208667 
2.7100000000012945, -1.4659021297805355 
2.7200000000013156, -1.4658998992421428 
2.7300000000013367, -1.4666582733979319 
2.740000000001358, -1.4677829834163274 
2.750000000001379, -1.468843442024911 
2.7600000000014, -1.4696106620029834 
2.770000000001421, -1.4700468816976837 
2.780000000001442, -1.4702035926311345 
2.7900000000014633, -1.4701487399221385 
2.8000000000014844, -1.4699389588231058 
2.8100000000015055, -1.4696182814619343 
2.8200000000015266, -1.469228727441909 
2.8300000000015477, -1.468824169577859 
2.840000000001569, -1.4684764966322637 
2.85000000000159, -1.4682601061365053 
2.860000000001611, -1.4682163418357308 
2.870000000001632, -1.4683280958239369 
2.8800000000016532, -1.4685304390277514 
2.8900000000016743, -1.4687438153824062 
2.9000000000016954, -1.4689006909833275 
2.9100000000017165, -1.4689547993374865 
2.9200000000017377, -1.4688786847513178 
2.9300000000017588, -1.4686578361469442 
2.94000000000178, -1.4682862827149645 
2.950000000001801, -1.4677653794717769 
2.960000000001822, -1.4671061293548158 
2.970000000001843, -1.4663348359399415 
2.9800000000018643, -1.4655003914458598 
2.9900000000018854, -1.464677724526433 
3.0000000000019065, -1.463957274681482 
3.0100000000019276, -1.4634132041796957 
3.0200000000019487, -1.4630641397650908 
3.03000000000197, -1.462862210657496 
3.040000000001991, -1.4627244577519622 
3.050000000002012, -1.462573742364259 
3.060000000002033, -1.4623551098953786 
3.070000000002054, -1.4620281971307068 
3.0800000000020753, -1.4615521953114134 
3.0900000000020964, -1.4608748615896308 
3.1000000000021175, -1.4599336846766873 
3.1100000000021386, -1.4586831285897897 
3.1200000000021597, -1.4571659062683056 
3.130000000002181, -1.4556120422747916 
3.140000000002202, -1.4544459593619736 
3.150000000002223, -1.4540489546156823 
3.160000000002244, -1.4544289202144296 
3.1700000000022652, -1.4552212891393381 
3.1800000000022863, -1.4560161420458526 
3.1900000000023074, -1.4565889694431418 
3.2000000000023285, -1.45689262369023 
3.2100000000023496, -1.456962882648716 
3.2200000000023707, -1.4568518683933867 
3.230000000002392, -1.4566032320284465 
3.240000000002413, -1.4562520136258406 
3.250000000002434, -1.4558368275909574 
3.260000000002455, -1.4554169725119044 
3.2700000000024763, -1.455081211023394 
3.2800000000024974, -1.4549272064528018 
3.2900000000025185, -1.4550098632339847 
3.3000000000025396, -1.455301889192453 
3.3100000000025607, -1.4557091658302457 
3.3200000000025818, -1.4561217531358255 
3.330000000002603, -1.456453346846711 
3.340000000002624, -1.4566524660502125 
3.350000000002645, -1.45669636302711 
3.360000000002666, -1.456580922935931 
3.3700000000026873, -1.456312878258121 
3.3800000000027084, -1.4559058852027191 
3.3900000000027295, -1.455380378600625 
3.4000000000027506, -1.4547665116295363 
3.4100000000027717, -1.4541081385383356 
3.420000000002793, -1.4534634789109098 
3.430000000002814, -1.4528967100256742 
3.440000000002835, -1.4524579640992774 
3.450000000002856, -1.4521599108459697 
3.460000000002877, -1.4519698187274668 
3.4700000000028983, -1.4518267684721529 
3.4800000000029194, -1.4516680545533547 
3.4900000000029405, -1.4514426588625389 
3.5000000000029616, -1.4511078707200986 
3.5100000000029827, -1.450618385766649 
3.520000000003004, -1.4499170681948745 
3.530000000003025, -1.448934902407039 
3.540000000003046, -1.4476113097555614 
3.550000000003067, -1.4459493810247943 
3.5600000000030882, -1.4441015729118427 
3.5700000000031094, -1.4424129666364502 
3.5800000000031305, -1.441290051592824 
3.5900000000031516, -1.4409136758911587 
3.6000000000031727, -1.4411040997882076 
3.6100000000031938, -1.441511639290545 
3.620000000003215, -1.441868877113713 
3.630000000003236, -1.4420629733719825 
3.640000000003257, -1.4420805512887354 
3.650000000003278, -1.4419435780327248 
3.6600000000032993, -1.4416766483081545 
3.6700000000033204, -1.4412999888120988 
3.6800000000033415, -1.4408387957497326 
3.6900000000033626, -1.440344664354105 
3.7000000000033837, -1.439919179436803 
3.710000000003405, -1.4397093372716692 
3.720000000003426, -1.4398423469521828 
3.730000000003447, -1.4403328973806175 
3.740000000003468, -1.4410604559020204 
3.750000000003489, -1.4418435672058165 
3.7600000000035103, -1.442528930014402 
3.7700000000035314, -1.4430292003020553 
3.7800000000035525, -1.4433156317461606 
3.7900000000035736, -1.443395776860608 
3.8000000000035947, -1.4432941912099895 
3.810000000003616, -1.4430409714007284 
3.820000000003637, -1.4426676136524135 
3.830000000003658, -1.442208274763953 
3.840000000003679, -1.4417034587661157 
3.8500000000037002, -1.4412015139195435 
3.8600000000037213, -1.440753132307047 
3.8700000000037424, -1.4403981643386534 
3.8800000000037635, -1.4401508448492142 
3.8900000000037847, -1.4399930770747964 
3.9000000000038058, -1.4398815820702988 
3.910000000003827, -1.4397641017457647 
3.920000000003848, -1.4395923819095602 
3.930000000003869, -1.439324771026255 
3.94000000000389, -1.4389212199062897 
3.9500000000039113, -1.4383373894533134 
3.9600000000039324, -1.4375237226367514 
3.9700000000039535, -1.4364348625170418 
3.9800000000039746, -1.4350550260687374 
3.9900000000039957, -1.4334403586096154 
4.000000000004016, -1.431759908106687 
4.010000000003993, -1.4302829417206315 
4.02000000000397, -1.4292620567643533 
4.030000000003946, -1.428771875964555 
4.040000000003923, -1.4286724631853212 
4.0500000000039, -1.4287389960071 
4.0600000000038765, -1.4287993787816653 
4.070000000003853, -1.4287700270525174 
4.08000000000383, -1.4286249844547518 
4.090000000003807, -1.4283595315781366 
4.100000000003783, -1.427970595993308 
4.11000000000376, -1.4274543038310565 
4.120000000003737, -1.4268209741426394 
4.130000000003713, -1.4261309165744356 
4.14000000000369, -1.4255392802083724 
4.150000000003667, -1.4252928138955934 
4.1600000000036434, -1.4256070840500346 
4.17000000000362, -1.426485936908459 
4.180000000003597, -1.4276892222721347 
4.1900000000035735, -1.4288974056183132 
4.20000000000355, -1.4298828102896417 
4.210000000003527, -1.4305561228671309 
4.220000000003504, -1.4309250166632728 
4.23000000000348, -1.4310393251142977 
4.240000000003457, -1.4309559234422577 
4.250000000003434, -1.4307246886621925 
4.26000000000341, -1.430388046159232 
4.270000000003387, -1.4299873087635293 
4.280000000003364, -1.4295697856273057 
4.2900000000033405, -1.4291894809847514 
4.300000000003317, -1.4288959863802904 
4.310000000003294, -1.4287161075032395 
4.320000000003271, -1.4286424462075902 
4.330000000003247, -1.428637898288204 
4.340000000003224, -1.4286509670639174 
4.350000000003201, -1.4286308817714335 
4.360000000003177, -1.4285355098156933 
4.370000000003154, -1.4283318229110697 
4.380000000003131, -1.427992956029731 
4.390000000003107, -1.4274961621795312 
4.400000000003084, -1.426824230064603 
4.410000000003061, -1.4259715041255012 
4.4200000000030375, -1.4249547949128487 
4.430000000003014, -1.4238274915533249 
4.440000000002991, -1.4226893744600835 
4.450000000002968, -1.4216755315753926 
4.460000000002944, -1.4209091629904085 
4.470000000002921, -1.4204363071974329 
4.480000000002898, -1.42020084488744 
4.490000000002874, -1.4200888338003241 
4.500000000002851, -1.4199937361126047 
4.510000000002828, -1.4198463361240377 
4.520000000002804, -1.4196075451096315 
4.530000000002781, -1.4192492954338742 
4.540000000002758, -1.4187397510984363 
4.5500000000027345, -1.4180387214690466 
4.560000000002711, -1.4171102750399633 
4.570000000002688, -1.415965779743497 
4.580000000002665, -1.4147407179741973 
4.590000000002641, -1.413747842237075 
4.600000000002618, -1.413371341310132 
4.610000000002595, -1.413780278671108 
4.620000000002571, -1.4147578845834425 
4.630000000002548, -1.4158837709648657 
4.640000000002525, -1.4168288261464261 
4.6500000000025015, -1.4174620064108163 
4.660000000002478, -1.4177901626866676 
4.670000000002455, -1.4178719345029962 
4.6800000000024315, -1.4177684565346094 
4.690000000002408, -1.41752802192374 
4.700000000002385, -1.417188985803056 
4.710000000002362, -1.416791153315192 
4.720000000002338, -1.416389328113421 
4.730000000002315, -1.4160586525411005 
4.740000000002292, -1.4158779004031126 
4.750000000002268, -1.4158920372041095 
4.760000000002245, -1.4160840957342278 
4.770000000002222, -1.4163842749976312 
4.7800000000021985, -1.416705001869707 
4.790000000002175, -1.416971243756063 
4.800000000002152, -1.417132357867618 
4.810000000002129, -1.4171604704923646 
4.820000000002105, -1.41704423300351 
4.830000000002082, -1.4167832300882786 
4.840000000002059, -1.4163848596600057 
4.850000000002035, -1.415863980855605 
4.860000000002012, -1.4152451144580493 
4.870000000001989, -1.4145660839035348 
4.880000000001965, -1.413880031451937 
4.890000000001942, -1.4132506960766342 
4.900000000001919, -1.4127367104998578 
4.9100000000018955, -1.4123682299314315 
4.920000000001872, -1.4121311375606902 
4.930000000001849, -1.4119742335941277 
4.940000000001826, -1.4118339032009912 
