t, s[1].omega / s[0].omega 
0, -0.269997802187875 
0.009999999999999995, -0.2697886130167945 
0.019999999999999934, -0.2695980656947854 
0.029999999999999874, -0.269419883274743 
0.04000000000000012, -0.2692455806203725 
0.050000000000000405, -0.2690664824765966 
0.06000000000000069, -0.2688752412423792 
0.07000000000000098, -0.2686664349033107 
0.08000000000000126, -0.2684363000574668 
0.09000000000000155, -0.2681819358328079 
0.10000000000000184, -0.2679003228321334 
0.11000000000000212, -0.2675873617691312 
0.12000000000000241, -0.2672370094347326 
0.130000000000002, -0.26684057057952143 
0.1400000000000009, -0.26638633117419197 
0.1499999999999998, -0.2658599903109281 
0.1599999999999987, -0.26524665901698724 
0.1699999999999976, -0.2645351757302206 
0.1799999999999965, -0.26372449728097525 
0.1899999999999954, -0.2628297354047537 
0.1999999999999943, -0.26188354387010915 
0.2099999999999932, -0.2609299601921454 
0.2199999999999921, -0.2600128723515544 
0.229999999999991, -0.2591653714433841 
0.2399999999999899, -0.25840499894372376 
0.2499999999999888, -0.25773519933613337 
0.2599999999999877, -0.25715004213222725 
0.2699999999999866, -0.25663919211012715 
0.2799999999999855, -0.25619158984954066 
0.2899999999999844, -0.2557976179985103 
0.2999999999999833, -0.25545013636228064 
0.3099999999999822, -0.25514486367531725 
0.3199999999999811, -0.2548804591314457 
0.32999999999998, -0.25465847983151313 
0.3399999999999789, -0.25448320963036647 
0.3499999999999778, -0.25436115663379616 
0.35999999999997667, -0.25429978115469926 
0.36999999999997557, -0.25430479751350016 
0.37999999999997447, -0.25437545947302775 
0.38999999999997337, -0.25449819639150256 
0.39999999999997227, -0.25464141470002477 
0.40999999999997117, -0.2547572348755461 
0.41999999999997006, -0.2547950364175782 
0.42999999999996896, -0.25472273974788584 
0.43999999999996786, -0.2545411775253272 
0.44999999999996676, -0.25427995251813673 
0.45999999999996566, -0.2539796854724322 
0.46999999999996456, -0.25367528177766124 
0.47999999999996346, -0.2533887705425537 
0.48999999999996235, -0.2531303318735478 
0.49999999999996125, -0.2529025430901287 
0.5099999999999602, -0.25270442231473034 
0.519999999999959, -0.25253415463288953 
0.529999999999958, -0.2523906249566757 
0.5399999999999568, -0.2522742022107576 
0.5499999999999557, -0.2521871424210477 
0.5599999999999546, -0.2521338064626664 
0.5699999999999535, -0.25212071824277565 
0.5799999999999524, -0.25215632962709944 
0.5899999999999513, -0.25225021229419303 
0.5999999999999502, -0.2524113124385408 
0.6099999999999491, -0.2526450110158202 
0.619999999999948, -0.2529492252124307 
0.6299999999999469, -0.25331075489153665 
0.6399999999999458, -0.2537040979460772 
0.6499999999999447, -0.25409484633134555 
0.6599999999999436, -0.2544475076397279 
0.6699999999999425, -0.2547343111378803 
0.6799999999999414, -0.25494047711364354 
0.6899999999999403, -0.2550640034102835 
0.6999999999999392, -0.2551116187829157 
0.7099999999999381, -0.2550939266258427 
0.719999999999937, -0.25502175890485423 
0.7299999999999359, -0.25490421794481544 
0.7399999999999348, -0.2547480243019697 
0.7499999999999337, -0.25455764756846666 
0.7599999999999326, -0.2543358738944329 
0.7699999999999315, -0.2540846603073788 
0.7799999999999304, -0.25380621230269285 
0.7899999999999293, -0.25350415928484554 
0.7999999999999282, -0.2531845199503281 
0.8099999999999271, -0.25285597897003215 
0.819999999999926, -0.25252906063840685 
0.8299999999999249, -0.25221421612188827 
0.8399999999999238, -0.25191944773151104 
0.8499999999999227, -0.2516484341481605 
0.8599999999999216, -0.2513999158884904 
0.8699999999999205, -0.2511684969726478 
0.8799999999999194, -0.2509464016816617 
0.8899999999999183, -0.25072540677028304 
0.8999999999999172, -0.2504982539864556 
0.9099999999999161, -0.2502592187173357 
0.919999999999915, -0.2500039094372574 
0.9299999999999139, -0.24972858477399007 
0.9399999999999128, -0.24942926801131918 
0.9499999999999117, -0.24910082301681907 
0.9599999999999106, -0.24873606032069148 
0.9699999999999095, -0.2483249518366753 
0.9799999999999084, -0.24785419628431873 
0.9899999999999073, -0.24730770659071016 
0.9999999999999062, -0.24666895642560624 
1.0099999999999052, -0.24592604927610534 
1.019999999999904, -0.24507906223786868 
1.029999999999903, -0.24414652505254203 
1.039999999999902, -0.24316596688636008 
1.0499999999999008, -0.24218580265776796 
1.0599999999998997, -0.24125205851755513 
1.0699999999998986, -0.2403973833383481 
1.0799999999998975, -0.23963722992641573 
1.0899999999998964, -0.23897254339258195 
1.0999999999998953, -0.23839529483698377 
1.1099999999998942, -0.23789372426212446 
1.119999999999893, -0.2374559636067289 
1.129999999999892, -0.237072034226015 
1.1399999999998909, -0.23673472107488475 
1.1499999999998898, -0.2364398362166042 
1.1599999999998887, -0.23618621481006338 
1.1699999999998876, -0.2359755893612705 
1.1799999999998865, -0.2358122928393384 
1.1899999999998854, -0.2357025254982145 
1.1999999999998843, -0.23565267276078244 
1.2099999999998832, -0.23566598123174987 
1.219999999999882, -0.23573715736941328 
1.229999999999881, -0.2358458610739264 
1.2399999999998799, -0.23595302204518487 
1.2499999999998788, -0.2360064410104589 
1.2599999999998777, -0.23595880285643522 
1.2699999999998766, -0.23578967526984043 
1.2799999999998755, -0.23551464720254298 
1.2899999999998744, -0.2351741130207071 
1.2999999999998733, -0.23481245631303788 
1.3099999999998722, -0.23446304260499348 
1.319999999999871, -0.23414430946509174 
1.32999999999987, -0.233863020019069 
1.3399999999998689, -0.2336193339661859 
1.3499999999998678, -0.23341088010920613 
1.3599999999998666, -0.23323526722113913 
1.3699999999998655, -0.23309141570071623 
1.3799999999998644, -0.2329802199319972 
1.3899999999998633, -0.23290489394976097 
1.3999999999998622, -0.2328711541714441 
1.4099999999998611, -0.23288720808423818 
1.41999999999986, -0.2329633391848056 
1.429999999999859, -0.23311071200486078 
1.4399999999998578, -0.23333894346088163 
1.4499999999998567, -0.23365219376883467 
1.4599999999998556, -0.23404430014070426 
1.4699999999998545, -0.23449485517826538 
1.4799999999998534, -0.23496928995288852 
1.4899999999998523, -0.23542514347412746 
1.4999999999998512, -0.23582292207559347 
1.5099999999998501, -0.23613602566083122 
1.519999999999849, -0.23635456864469587 
1.529999999999848, -0.23648254110427747 
1.5399999999998468, -0.23653175771723262 
1.5499999999998457, -0.23651629142424618 
1.5599999999998446, -0.23644904438778114 
1.5699999999998435, -0.236340337786358 
1.5799999999998424, -0.23619777614512313 
1.5899999999998413, -0.2360267470091185 
1.5999999999998402, -0.23583120588303105 
1.6099999999998391, -0.2356146029097947 
1.619999999999838, -0.23538086670290106 
1.629999999999837, -0.23513528803723988 
1.6399999999998358, -0.23488501089989136 
1.6499999999998347, -0.23463877561241345 
1.6599999999998336, -0.23440571819768147 
1.6699999999998325, -0.23419343165081158 
1.6799999999998314, -0.2340059344057584 
1.6899999999998303, -0.2338423708636325 
1.6999999999998292, -0.23369703929241264 
1.709999999999828, -0.23356079389130469 
1.719999999999827, -0.23342325956006596 
1.729999999999826, -0.23327495889039612 
1.7399999999998248, -0.23310859478789575 
1.7499999999998237, -0.23291924119135038 
1.7599999999998226, -0.2327036902609339 
1.7699999999998215, -0.23245940287427702 
1.7799999999998204, -0.23218342613940463 
1.7899999999998193, -0.2318714690589998 
1.7999999999998182, -0.23151722989734208 
1.809999999999817, -0.23111211119127967 
1.819999999999816, -0.23064562738333425 
1.8299999999998149, -0.23010700549845495 
1.8399999999998138, -0.2294884404089877 
1.8499999999998127, -0.22878978281377566 
1.8599999999998116, -0.22802297574681352 
1.8699999999998105, -0.22721326362833333 
1.8799999999998094, -0.22639498235094985 
1.8899999999998083, -0.22560310036046052 
1.8999999999998072, -0.22486481419968934 
1.909999999999806, -0.22419517072009518 
1.919999999999805, -0.22359752543812877 
1.9299999999998039, -0.22306696175451585 
1.9399999999998028, -0.22259430494749716 
1.9499999999998017, -0.2221692917292414 
1.9599999999998006, -0.2217825009848303 
1.9699999999997995, -0.2214262411392806 
1.9799999999997984, -0.22109475529136305 
1.9899999999997973, -0.22078404251414435 
1.9999999999997962, -0.22049144865343484 
2.0099999999998173, -0.22021501879165567 
2.0199999999998384, -0.2199524459165755 
2.0299999999998595, -0.21969932380153234 
2.0399999999998806, -0.2194464346510502 
2.0499999999999017, -0.21917628108152276 
2.059999999999923, -0.21886044568725999 
2.069999999999944, -0.218461485669763 
2.079999999999965, -0.2179436565775707 
2.089999999999986, -0.21729155502082792 
2.100000000000007, -0.21652539674701524 
2.1100000000000283, -0.21569846102613352 
2.1200000000000494, -0.21487604464477603 
2.1300000000000705, -0.21411175095030682 
2.1400000000000916, -0.2134358514004681 
2.1500000000001127, -0.2128570070160903 
2.160000000000134, -0.21237021961550573 
2.170000000000155, -0.21196465983322765 
2.180000000000176, -0.21162890709755539 
2.190000000000197, -0.21135371122567087 
2.2000000000002182, -0.21113317698327347 
2.2100000000002393, -0.2109651766721084 
2.2200000000002604, -0.21085148069546666 
2.2300000000002815, -0.21079780757291017 
2.2400000000003026, -0.21081375267510505 
2.2500000000003237, -0.210912308351975 
2.260000000000345, -0.21110840202241232 
2.270000000000366, -0.21141562330930866 
2.280000000000387, -0.21184040479921212 
2.290000000000408, -0.2123740177547592 
2.3000000000004293, -0.21298537180321747 
2.3100000000004504, -0.21362057007090426 
2.3200000000004715, -0.21421428275113058 
2.3300000000004926, -0.21471002121163166 
2.3400000000005137, -0.21507726248167347 
2.3500000000005348, -0.21531481851859963 
2.360000000000556, -0.21544152095973385 
2.370000000000577, -0.21548347332775783 
2.380000000000598, -0.21546515957526746 
2.390000000000619, -0.21540584430312718 
2.4000000000006403, -0.21531942032162094 
2.4100000000006614, -0.21521564706096155 
2.4200000000006825, -0.21510161106259568 
2.4300000000007036, -0.21498298955850098 
2.4400000000007247, -0.21486506040500192 
2.450000000000746, -0.2147534932316118 
2.460000000000767, -0.21465490949850516 
2.470000000000788, -0.2145770950451832 
2.480000000000809, -0.21452865214795844 
2.49000000000083, -0.2145178661055153 
2.5000000000008513, -0.21455071744232163 
2.5100000000008724, -0.21462834343622958 
2.5200000000008935, -0.21474478136607728 
2.5300000000009146, -0.21488623372271873 
2.5400000000009357, -0.2150328779909097 
2.550000000000957, -0.21516307688273245 
2.560000000000978, -0.2152583014669605 
2.570000000000999, -0.21530651040592014 
2.58000000000102, -0.21530278113740492 
2.5900000000010412, -0.2152476749495659 
2.6000000000010624, -0.21514471297522494 
2.6100000000010835, -0.21499812714772756 
2.6200000000011046, -0.2148113862805992 
2.6300000000011257, -0.21458650761382492 
2.6400000000011468, -0.2143240067376862 
2.650000000001168, -0.21402338696965942 
2.660000000001189, -0.21368414867372304 
2.67000000000121, -0.21330726860962015 
2.680000000001231, -0.2128968747272916 
2.6900000000012523, -0.21246147912554808 
2.7000000000012734, -0.2120139263976441 
2.7100000000012945, -0.21156956330321272 
2.7200000000013156, -0.21114305906756853 
2.7300000000013367, -0.21074516550270986 
2.740000000001358, -0.21038076039560444 
2.750000000001379, -0.21004875376987991 
2.7600000000014, -0.2097435177216281 
2.770000000001421, -0.20945699701080578 
2.780000000001442, -0.20918066039368094 
2.7900000000014633, -0.2089067674350627 
2.8000000000014844, -0.20862881635685046 
2.8100000000015055, -0.20834132318549686 
2.8200000000015266, -0.20803918270671967 
2.8300000000015477, -0.20771681510404533 
2.840000000001569, -0.20736720805907183 
2.85000000000159, -0.2069809199281945 
2.860000000001611, -0.20654519359631646 
2.870000000001632, -0.20604360815341333 
2.8800000000016532, -0.2054571614959094 
2.8900000000016743, -0.20476804128665807 
2.9000000000016954, -0.20396677367137372 
2.9100000000017165, -0.203060992966919 
2.9200000000017377, -0.20208061288589488 
2.9300000000017588, -0.2010737621408057 
2.94000000000178, -0.20009358124460147 
2.950000000001801, -0.19918331621287466 
2.960000000001822, -0.19836789233467464 
2.970000000001843, -0.19765412467253887 
2.9800000000018643, -0.1970361685632431 
2.9900000000018854, -0.19650186893143892 
3.0000000000019065, -0.19603758542114183 
3.0100000000019276, -0.19563101780306397 
3.0200000000019487, -0.19527249370365146 
3.03000000000197, -0.19495534493886876 
3.040000000001991, -0.19467583774643227 
3.050000000002012, -0.19443289290285748 
3.060000000002033, -0.19422761160277202 
3.070000000002054, -0.19406240382340015 
3.0800000000020753, -0.19393928435993585 
3.0900000000020964, -0.19385673715192378 
3.1000000000021175, -0.19380478011421082 
3.1100000000021386, -0.19375917326926256 
3.1200000000021597, -0.19367859502568235 
3.130000000002181, -0.19351132528871887 
3.140000000002202, -0.1932148588899649 
3.150000000002223, -0.19277947633618933 
3.160000000002244, -0.19223672160012556 
3.1700000000022652, -0.1916439714578777 
3.1800000000022863, -0.19105834084694268 
3.1900000000023074, -0.1905190803210792 
3.2000000000023285, -0.19004454355786077 
3.2100000000023496, -0.18963793979363677 
3.2200000000023707, -0.1892946970252248 
3.230000000002392, -0.18900795181966218 
3.240000000002413, -0.188771715025361 
3.250000000002434, -0.1885824136783546 
3.260000000002455, -0.1884395742975328 
3.2700000000024763, -0.18834614749938144 
3.2800000000024974, -0.18830869258818447 
3.2900000000025185, -0.18833739384453435 
3.3000000000025396, -0.18844562878807025 
3.3100000000025607, -0.1886485243981999 
3.3200000000025818, -0.18895969701461346 
3.330000000002603, -0.1893854962774494 
3.340000000002624, -0.18991719640641025 
3.350000000002645, -0.19052415475164444 
3.360000000002666, -0.1911537074222415 
3.3700000000026873, -0.19174243636545393 
3.3800000000027084, -0.19223564883492375 
3.3900000000027295, -0.19260352517967722 
3.4000000000027506, -0.1928442054444839 
3.4100000000027717, -0.19297506504312176 
3.420000000002793, -0.1930207924501329 
3.430000000002814, -0.19300496753451754 
3.440000000002835, -0.1929465066602252 
3.450000000002856, -0.19285934988798664 
3.460000000002877, -0.19275352845887245 
3.4700000000028983, -0.19263652291169225 
3.4800000000029194, -0.19251449513540103 
3.4900000000029405, -0.19239331004740085 
3.5000000000029616, -0.19227934533980132 
3.5100000000029827, -0.19218003701069963 
3.520000000003004, -0.19210400638976227 
3.530000000003025, -0.1920605345468034 
3.540000000003046, -0.19205817537648667 
3.550000000003067, -0.1921025077599177 
3.5600000000030882, -0.19219345346204383 
3.5700000000031094, -0.19232314146129345 
3.5800000000031305, -0.19247564485410598 
3.5900000000031516, -0.19262949696995582 
3.6000000000031727, -0.1927624846760079 
3.6100000000031938, -0.1928566655423781 
3.620000000003215, -0.19290132179801384 
3.630000000003236, -0.19289298022418738 
3.640000000003257, -0.19283334549582337 
3.650000000003278, -0.1927266506921143 
3.6600000000032993, -0.19257750495173068 
3.6700000000033204, -0.19238960806424793 
3.6800000000033415, -0.19216526425781344 
3.6900000000033626, -0.19190552417073165 
3.7000000000033837, -0.19161084510462298 
3.710000000003405, -0.19128220816045302 
3.720000000003426, -0.19092254671106926 
3.730000000003447, -0.19053809392320564 
3.740000000003468, -0.19013898470420626 
3.750000000003489, -0.18973846359726193 
3.7600000000035103, -0.18935059341948596 
3.7700000000035314, -0.18898720305646696 
3.7800000000035525, -0.1886553123181838 
3.7900000000035736, -0.18835601563322715 
3.8000000000035947, -0.18808504836787832 
3.810000000003616, -0.18783455518439401 
3.820000000003637, -0.1875952486760474 
3.830000000003658, -0.18735820236157388 
3.840000000003679, -0.18711583970217208 
3.8500000000037002, -0.1868620706600938 
3.8600000000037213, -0.186591798692949 
3.8700000000037424, -0.186300092316138 
3.8800000000037635, -0.1859812463758817 
3.8900000000037847, -0.185627871960617 
3.9000000000038058, -0.18523015428565887 
3.910000000003827, -0.18477556405067763 
3.920000000003848, -0.1842495934360363 
3.930000000003869, -0.1836383415380912 
3.94000000000389, -0.1829335083035229 
3.9500000000039113, -0.1821389257310729 
3.9600000000039324, -0.1812753760531816 
3.9700000000039535, -0.18037937796025852 
3.9800000000039746, -0.1794945616734674 
3.9900000000039957, -0.17865975154231045 
4.000000000004016, -0.17790028514662143 
4.010000000003993, -0.17722595677296554 
4.02000000000397, -0.1766342368305226 
4.030000000003946, -0.17611540738139717 
4.040000000003923, -0.17565707669716035 
4.0500000000039, -0.17524712445864726 
4.0600000000038765, -0.17487517270537575 
4.070000000003853, -0.17453303733561068 
4.08000000000383, -0.174214585400904 
4.090000000003807, -0.17391525478158534 
4.100000000003783, -0.17363130210449765 
4.11000000000376, -0.17335866732559363 
4.120000000003737, -0.17309120327027805 
4.130000000003713, -0.17281801266867058 
4.14000000000369, -0.1725200381635364 
4.150000000003667, -0.17216730908735525 
4.1600000000036434, -0.17172040320927845 
4.17000000000362, -0.1711407918013988 
4.180000000003597, -0.17041030403921614 
4.1900000000035735, -0.16954896160286503 
4.20000000000355, -0.16861465973850906 
4.210000000003527, -0.16768114745926224 
4.220000000003504, -0.16681062458408547 
4.23000000000348, -0.16603899114737114 
4.240000000003457, -0.1653768828436741 
4.250000000003434, -0.16481864080774725 
4.26000000000341, -0.16435148763444365 
4.270000000003387, -0.16396172828539693 
4.280000000003364, -0.1636380026597517 
4.2900000000033405, -0.16337264526530518 
4.300000000003317, -0.16316211414369686 
4.310000000003294, -0.16300707589745195 
4.320000000003271, -0.16291238839107205 
4.330000000003247, -0.16288693177473743 
4.340000000003224, -0.16294293357011405 
4.350000000003201, -0.16309406298618176 
4.360000000003177, -0.16335122901105883 
4.370000000003154, -0.16371518603682805 
4.380000000003131, -0.16416676383557988 
4.390000000003107, -0.16465958152722351 
4.400000000003084, -0.1651241203458696 
4.410000000003061, -0.1654886055336158 
4.4200000000030375, -0.16570752167791625 
4.430000000003014, -0.16577705160250347 
4.440000000002991, -0.16572691423521946 
4.450000000002968, -0.16559930987131108 
4.460000000002944, -0.16543174709598235 
4.470000000002921, -0.1652503535405901 
4.480000000002898, -0.1650707120235386 
4.490000000002874, -0.16490136915583578 
4.500000000002851, -0.16474720209134522 
4.510000000002828, -0.16461182342764913 
4.520000000002804, -0.16449912752475299 
4.530000000002781, -0.16441428596128338 
4.540000000002758, -0.16436441470435034 
4.5500000000027345, -0.16435896650690804 
4.560000000002711, -0.1644097060229198 
4.570000000002688, -0.16452991655710075 
4.580000000002665, -0.1647323212980421 
4.590000000002641, -0.1650252558261319 
4.600000000002618, -0.1654072456690441 
4.610000000002595, -0.16586161676210912 
4.620000000002571, -0.16635458205976728 
4.630000000002548, -0.16684033980755672 
4.640000000002525, -0.16727297494688637 
4.6500000000025015, -0.16761931418114945 
4.660000000002478, -0.1678654387558458 
4.670000000002455, -0.16801460026613704 
4.6800000000024315, -0.1680802224139081 
4.690000000002408, -0.16807896209182044 
4.700000000002385, -0.16802636246785868 
4.710000000002362, -0.1679351162292933 
4.720000000002338, -0.16781497091169498 
4.730000000002315, -0.1676733976119013 
4.740000000002292, -0.16751652232686892 
4.750000000002268, -0.1673500966368077 
4.760000000002245, -0.1671803864804004 
4.770000000002222, -0.1670148277917327 
4.7800000000021985, -0.16686221694255077 
4.790000000002175, -0.16673217571949803 
4.800000000002152, -0.16663374915174825 
4.810000000002129, -0.16657328434022528 
4.820000000002105, -0.16655212531139973 
4.830000000002082, -0.16656499403692487 
