t, s[1].omega / s[0].omega 
0, -0.7099976881058743 
0.009999999999999995, -0.7097530815163353 
0.019999999999999934, -0.7094823181224653 
0.029999999999999874, -0.7091866917524243 
0.04000000000000012, -0.7088685721239234 
0.050000000000000405, -0.7085315659895646 
0.06000000000000069, -0.7081805592404834 
0.07000000000000098, -0.707821700533511 
0.08000000000000126, -0.7074624512542551 
0.09000000000000155, -0.7071117841528903 
0.10000000000000184, -0.7067805127850276 
0.11000000000000212, -0.7064816327929925 
0.12000000000000241, -0.7062304809344264 
0.130000000000002, -0.7060444748403162 
0.1400000000000009, -0.7059421899398204 
0.1499999999999998, -0.7059415701001914 
0.1599999999999987, -0.7060571762024577 
0.1699999999999976, -0.706296593590125 
0.1799999999999965, -0.706656505673067 
0.1899999999999954, -0.7071195096749062 
0.1999999999999943, -0.707653295214786 
0.2099999999999932, -0.7082137590754721 
0.2199999999999921, -0.70875234612159 
0.229999999999991, -0.7092255798563531 
0.2399999999999899, -0.7096029977501128 
0.2499999999999888, -0.7098703369210992 
0.2599999999999877, -0.7100275597298976 
0.2699999999999866, -0.7100838455244565 
0.2799999999999855, -0.7100522451993997 
0.2899999999999844, -0.7099456537957237 
0.2999999999999833, -0.7097744573859508 
0.3099999999999822, -0.7095454734009989 
0.3199999999999811, -0.7092616505397497 
0.32999999999998, -0.7089221403191426 
0.3399999999999789, -0.708522575421951 
0.3499999999999778, -0.7080556040895487 
0.35999999999997667, -0.7075119226594453 
0.36999999999997557, -0.7068822045246458 
0.37999999999997447, -0.7061603537532419 
0.38999999999997337, -0.7053481982730918 
0.39999999999997227, -0.7044608022921451 
0.40999999999997117, -0.7035300761869888 
0.41999999999997006, -0.7026033428563739 
0.42999999999996896, -0.7017348625274131 
0.43999999999996786, -0.7009725097906527 
0.44999999999996676, -0.7003457569629579 
0.45999999999996566, -0.6998607167320391 
0.46999999999996456, -0.6995033661623946 
0.47999999999996346, -0.6992475899131148 
0.48999999999996235, -0.6990635715070709 
0.49999999999996125, -0.6989237258853672 
0.5099999999999602, -0.698805547713873 
0.519999999999959, -0.6986920674520408 
0.529999999999958, -0.6985709538147934 
0.5399999999999568, -0.6984331151397869 
0.5499999999999557, -0.6982713361137143 
0.5599999999999546, -0.6980792415647044 
0.5699999999999535, -0.6978507480497715 
0.5799999999999524, -0.6975801027393385 
0.5899999999999513, -0.697262534905927 
0.5999999999999502, -0.6968953815819539 
0.6099999999999491, -0.6964792990341954 
0.619999999999948, -0.696018986317503 
0.6299999999999469, -0.6955229561408791 
0.6399999999999458, -0.6950023473737724 
0.6499999999999447, -0.694469290763046 
0.6599999999999436, -0.6939355083861607 
0.6699999999999425, -0.6934115580536421 
0.6799999999999414, -0.6929067153011664 
0.6899999999999403, -0.6924292321746919 
0.6999999999999392, -0.691986692679217 
0.7099999999999381, -0.6915862846997436 
0.719999999999937, -0.6912349109532457 
0.7299999999999359, -0.6909391267850555 
0.7399999999999348, -0.6907049280965912 
0.7499999999999337, -0.6905374301423893 
0.7599999999999326, -0.6904404779218517 
0.7699999999999315, -0.690416208187717 
0.7799999999999304, -0.6904645471514346 
0.7899999999999293, -0.690582598431624 
0.7999999999999282, -0.6907638905698128 
0.8099999999999271, -0.6909975564554056 
0.819999999999926, -0.6912677261761532 
0.8299999999999249, -0.6915536581676729 
0.8399999999999238, -0.6918311949566367 
0.8499999999999227, -0.6920757385671705 
0.8599999999999216, -0.6922660941214843 
0.8699999999999205, -0.6923877663933157 
0.8799999999999194, -0.6924343534585422 
0.8899999999999183, -0.6924066650567477 
0.8999999999999172, -0.6923103203644652 
0.9099999999999161, -0.6921530252247685 
0.919999999999915, -0.6919424193213086 
0.9299999999999139, -0.6916848145612946 
0.9399999999999128, -0.6913847485285928 
0.9499999999999117, -0.6910451518721796 
0.9599999999999106, -0.6906679729525853 
0.9699999999999095, -0.6902551868218583 
0.9799999999999084, -0.6898101471524871 
0.9899999999999073, -0.6893391619334646 
0.9999999999999062, -0.6888529663267395 
1.0099999999999052, -0.6883674932314863 
1.019999999999904, -0.6879032126646778 
1.029999999999903, -0.6874826141887135 
1.039999999999902, -0.6871261985174831 
1.0499999999999008, -0.6868481571528032 
1.0599999999998997, -0.6866531320392939 
1.0699999999998986, -0.6865350668699224 
1.0799999999998975, -0.6864786020762997 
1.0899999999998964, -0.6864627014319519 
1.0999999999998953, -0.6864652395532246 
1.1099999999998942, -0.6864668582458815 
1.119999999999893, -0.6864529972807139 
1.129999999999892, -0.6864140584861926 
1.1399999999998909, -0.6863443523380619 
1.1499999999998898, -0.6862405744540787 
1.1599999999998887, -0.6861003232554566 
1.1699999999998876, -0.6859209012505117 
1.1799999999998865, -0.6856984860248294 
1.1899999999998854, -0.6854277283905941 
1.1999999999998843, -0.6851018894881696 
1.2099999999998832, -0.6847136883818892 
1.219999999999882, -0.6842569837643302 
1.229999999999881, -0.6837291403764503 
1.2399999999998799, -0.6831334395478599 
1.2499999999998788, -0.6824804758000682 
1.2599999999998777, -0.6817876241120728 
1.2699999999998766, -0.6810765358832908 
1.2799999999998755, -0.6803696699241557 
1.2899999999998744, -0.6796872457533728 
1.2999999999998733, -0.6790454987327552 
1.3099999999998722, -0.678456280043829 
1.319999999999871, -0.677927513644097 
1.32999999999987, -0.6774639598026523 
1.3399999999998689, -0.6770679345165262 
1.3499999999998678, -0.676739858058854 
1.3599999999998666, -0.6764786442091246 
1.3699999999998655, -0.6762819887827356 
1.3799999999998644, -0.6761466046573945 
1.3899999999998633, -0.6760684143149149 
1.3999999999998622, -0.6760426740740233 
1.4099999999998611, -0.6760639807006659 
1.41999999999986, -0.6761261084145016 
1.429999999999859, -0.676221650935499 
1.4399999999998578, -0.6763415152407457 
1.4499999999998567, -0.6764744445900488 
1.4599999999998556, -0.6766069065344886 
1.4699999999998545, -0.6767237420486105 
1.4799999999998534, -0.6768097585734758 
1.4899999999998523, -0.676851937077061 
1.4999999999998512, -0.6768414221608288 
1.5099999999998501, -0.6767744383718439 
1.519999999999849, -0.6766518321564291 
1.529999999999848, -0.6764776414374043 
1.5399999999998468, -0.6762574271420813 
1.5499999999998457, -0.675996966388859 
1.5599999999998446, -0.6757015751178778 
1.5699999999998435, -0.6753760699062644 
1.5799999999998424, -0.6750252751997506 
1.5899999999998413, -0.6746549725867188 
1.5999999999998402, -0.6742731754038924 
1.6099999999998391, -0.6738915140911204 
1.619999999999838, -0.6735262947372674 
1.629999999999837, -0.6731984915012742 
1.6399999999998358, -0.6729317698830457 
1.6499999999998347, -0.6727480237703628 
1.6599999999998336, -0.6726611778675325 
1.6699999999998325, -0.6726717363223895 
1.6799999999998314, -0.6727652049578818 
1.6899999999998303, -0.672915703308723 
1.6999999999998292, -0.6730928674922713 
1.709999999999828, -0.6732685166830104 
1.719999999999827, -0.6734207190498622 
1.729999999999826, -0.673535007673662 
1.7399999999998248, -0.6736036462897728 
1.7499999999998237, -0.6736239364902217 
1.7599999999998226, -0.6735962752874961 
1.7699999999998215, -0.6735223805518248 
1.7799999999998204, -0.673403868723704 
1.7899999999998193, -0.6732412102716016 
1.7999999999998182, -0.6730330187432398 
1.809999999999817, -0.672775646061879 
1.819999999999816, -0.6724631407482347 
1.8299999999998149, -0.672087742553928 
1.8399999999998138, -0.6716411669071406 
1.8499999999998127, -0.6711168493113793 
1.8599999999998116, -0.6705129363525758 
1.8699999999998105, -0.6698351613389312 
1.8799999999998094, -0.669098245243734 
1.8899999999998083, -0.6683247514547889 
1.8999999999998072, -0.6675415338990149 
1.909999999999806, -0.6667752249498022 
1.919999999999805, -0.6660485400287511 
1.9299999999998039, -0.665378390472469 
1.9399999999998028, -0.6647757156246825 
1.9499999999998017, -0.664246343235116 
1.9599999999998006, -0.6637921800211247 
1.9699999999997995, -0.6634123145705624 
1.9799999999997984, -0.6631038890889808 
1.9899999999997973, -0.662862750410514 
1.9999999999997962, -0.6626839357565432 
2.0099999999998173, -0.6625620347079546 
2.0199999999998384, -0.6624914376373661 
2.0299999999998595, -0.6624664551745842 
2.0399999999998806, -0.6624812803276365 
2.0499999999999017, -0.6625297655410045 
2.059999999999923, -0.6626050077894123 
2.069999999999944, -0.662698795358737 
2.079999999999965, -0.6628010890663496 
2.089999999999986, -0.662899858803464 
2.100000000000007, -0.6629816477393127 
2.1100000000000283, -0.6630330216932915 
2.1200000000000494, -0.6630425714099438 
2.1300000000000705, -0.6630026841167657 
2.1400000000000916, -0.6629103129149415 
2.1500000000001127, -0.6627665079308442 
2.160000000000134, -0.6625751051352093 
2.170000000000155, -0.6623412423389017 
2.180000000000176, -0.6620702309542705 
2.190000000000197, -0.6617670115622111 
2.2000000000002182, -0.6614361960988878 
2.2100000000002393, -0.6610826101215151 
2.2200000000002604, -0.6607122346018801 
2.2300000000002815, -0.6603334186154002 
2.2400000000003026, -0.6599581209802846 
2.2500000000003237, -0.6596027134162202 
2.260000000000345, -0.6592876091728693 
2.270000000000366, -0.6590349117028474 
2.280000000000387, -0.6588638087414419 
2.290000000000408, -0.6587847840889786 
2.3000000000004293, -0.6587952430071193 
2.3100000000004504, -0.6588792516091154 
2.3200000000004715, -0.6590118558647479 
2.3300000000004926, -0.6591655508213524 
2.3400000000005137, -0.6593157223765617 
2.3500000000005348, -0.6594435349235986 
2.360000000000556, -0.6595365512695324 
2.370000000000577, -0.6595879740184689 
2.380000000000598, -0.6595952282944288 
2.390000000000619, -0.6595583541596234 
2.4000000000006403, -0.659478506155909 
2.4100000000006614, -0.6593567162911438 
2.4200000000006825, -0.6591929633243989 
2.4300000000007036, -0.6589855364250634 
2.4400000000007247, -0.6587306976483565 
2.450000000000746, -0.6584227222826169 
2.460000000000767, -0.6580544916273976 
2.470000000000788, -0.6576188522016435 
2.480000000000809, -0.657110816258353 
2.49000000000083, -0.6565302641818933 
2.5000000000008513, -0.6558842335811993 
2.5100000000008724, -0.655187593972099 
2.5200000000008935, -0.6544614095399831 
2.5300000000009146, -0.6537294742528867 
2.5400000000009357, -0.6530144791382624 
2.550000000000957, -0.6523352508265037 
2.560000000000978, -0.6517056457015764 
2.570000000000999, -0.6511347992824188 
2.58000000000102, -0.6506280588458893 
2.5900000000010412, -0.6501880291825715 
2.6000000000010624, -0.649815435373011 
2.6100000000010835, -0.6495097314288614 
2.6200000000011046, -0.6492694967109044 
2.6300000000011257, -0.6490926876314408 
2.6400000000011468, -0.6489767915273442 
2.650000000001168, -0.64891889294678 
2.660000000001189, -0.648915627066111 
2.67000000000121, -0.6489629704446107 
2.680000000001231, -0.6490558164873323 
2.6900000000012523, -0.6491873217264919 
2.7000000000012734, -0.6493481182317474 
2.7100000000012945, -0.6495256761111086 
2.7200000000013156, -0.6497042930869135 
2.7300000000013367, -0.6498661873220538 
2.740000000001358, -0.6499937717154591 
2.750000000001379, -0.6500724779130531 
2.7600000000014, -0.6500929861231266 
2.770000000001421, -0.650051924036423 
2.780000000001442, -0.6499509295727393 
2.7900000000014633, -0.649794752956703 
2.8000000000014844, -0.649589279982559 
2.8100000000015055, -0.6493400619285103 
2.8200000000015266, -0.6490515281152295 
2.8300000000015477, -0.6487268035585687 
2.840000000001569, -0.6483679879837576 
2.85000000000159, -0.6479767851309022 
2.860000000001611, -0.6475554087443878 
2.870000000001632, -0.6471076722546603 
2.8800000000016532, -0.6466400689332426 
2.8900000000016743, -0.6461625026155909 
2.9000000000016954, -0.6456882610591398 
2.9100000000017165, -0.6452330081073742 
2.9200000000017377, -0.6448130070417386 
2.9300000000017588, -0.6444430831223009 
2.94000000000178, -0.644134584922593 
2.950000000001801, -0.6438932652614945 
2.960000000001822, -0.6437174740042424 
2.970000000001843, -0.6435978515627785 
2.9800000000018643, -0.6435193005214944 
2.9900000000018854, -0.6434644878912787 
3.0000000000019065, -0.6434172140394769 
3.0100000000019276, -0.643364437168196 
3.0200000000019487, -0.6432967580636426 
3.03000000000197, -0.6432078358094628 
3.040000000001991, -0.6430933311646707 
3.050000000002012, -0.6429498116265104 
3.060000000002033, -0.6427738564744171 
3.070000000002054, -0.6425614850634733 
3.0800000000020753, -0.6423080030804321 
3.0900000000020964, -0.6420083700929978 
3.1000000000021175, -0.6416581578312743 
3.1100000000021386, -0.6412550085118931 
3.1200000000021597, -0.6408002025996224 
3.130000000002181, -0.6402996639988746 
3.140000000002202, -0.639763771681124 
3.150000000002223, -0.63920586952455 
3.160000000002244, -0.6386400776061342 
3.1700000000022652, -0.6380793429814976 
3.1800000000022863, -0.6375343830018623 
3.1900000000023074, -0.6370135887411796 
3.2000000000023285, -0.6365235424593397 
3.2100000000023496, -0.6360697338324026 
3.2200000000023707, -0.6356572015868923 
3.230000000002392, -0.6352909911953468 
3.240000000002413, -0.6349764165233583 
3.250000000002434, -0.6347191460752881 
3.260000000002455, -0.6345251326924753 
3.2700000000024763, -0.6344003890422572 
3.2800000000024974, -0.6343505855170268 
3.2900000000025185, -0.6343804141690941 
3.3000000000025396, -0.6344926338218869 
3.3100000000025607, -0.6346867214164146 
3.3200000000025818, -0.6349571634638796 
3.330000000002603, -0.6352916915731488 
3.340000000002624, -0.6356701758825362 
3.350000000002645, -0.6360652031838934 
3.360000000002666, -0.6364451235184229 
3.3700000000026873, -0.6367792506212654 
3.3800000000027084, -0.6370434389145719 
3.3900000000027295, -0.6372236748409936 
3.4000000000027506, -0.6373163533477089 
3.4100000000027717, -0.637325752722788 
3.420000000002793, -0.637260359764467 
3.430000000002814, -0.637129556396612 
3.440000000002835, -0.6369413597008298 
3.450000000002856, -0.63670119529441 
3.460000000002877, -0.6364113775636024 
3.4700000000028983, -0.6360709736597447 
3.4800000000029194, -0.6356758649577949 
3.4900000000029405, -0.6352189884001971 
3.5000000000029616, -0.6346909168981505 
3.5100000000029827, -0.6340811239905686 
3.520000000003004, -0.6333804272031456 
3.530000000003025, -0.6325850288414567 
3.540000000003046, -0.6317019055091816 
3.550000000003067, -0.6307537992056582 
3.5600000000030882, -0.6297804538807001 
3.5700000000031094, -0.6288330763074284 
3.5800000000031305, -0.6279626552421057 
3.5900000000031516, -0.6272073707636071 
3.6000000000031727, -0.6265852396739604 
3.6100000000031938, -0.6260943706079971 
3.620000000003215, -0.6257186514452353 
3.630000000003236, -0.6254349688445986 
3.640000000003257, -0.6252191059979549 
3.650000000003278, -0.6250493012678738 
3.6600000000032993, -0.6249077109080179 
3.6700000000033204, -0.624780482048658 
3.6800000000033415, -0.6246571174235651 
3.6900000000033626, -0.6245296207685045 
3.7000000000033837, -0.6243917237452189 
3.710000000003405, -0.6242383621773188 
3.720000000003426, -0.6240654761785673 
3.730000000003447, -0.6238701167634931 
3.740000000003468, -0.623650726191845 
3.750000000003489, -0.6234073500562223 
3.7600000000035103, -0.6231415285677149 
3.7700000000035314, -0.6228557819354443 
3.7800000000035525, -0.622552885912135 
3.7900000000035736, -0.6222353086635694 
3.8000000000035947, -0.6219050787941695 
3.810000000003616, -0.621564062546456 
3.820000000003637, -0.6212144076954776 
3.830000000003658, -0.6208589201472979 
3.840000000003679, -0.6205013025972013 
3.8500000000037002, -0.6201463318752723 
3.8600000000037213, -0.6198000917472692 
3.8700000000037424, -0.6194703303546824 
3.8800000000037635, -0.6191669315185746 
3.8900000000037847, -0.6189024075163936 
3.9000000000038058, -0.618692237063099 
3.910000000003827, -0.6185547752289631 
3.920000000003848, -0.6185103554556435 
3.930000000003869, -0.6185791329710012 
3.94000000000389, -0.6187773039128374 
3.9500000000039113, -0.6191117804945112 
3.9600000000039324, -0.6195743894164156 
3.9700000000039535, -0.6201379941753739 
3.9800000000039746, -0.620757627514928 
3.9900000000039957, -0.6213782761204125 
4.000000000004016, -0.6219471971826769 
4.010000000003993, -0.6224252527992215 
4.02000000000397, -0.6227922012159951 
4.030000000003946, -0.6230449969824189 
4.040000000003923, -0.623191988016249 
4.0500000000039, -0.6232466461116399 
4.0600000000038765, -0.6232229167615961 
4.070000000003853, -0.62313254080528 
4.08000000000383, -0.6229838270627428 
4.090000000003807, -0.6227812261894068 
4.100000000003783, -0.6225252484587355 
4.11000000000376, -0.6222125186103734 
4.120000000003737, -0.6218359929307876 
4.130000000003713, -0.6213855815718369 
4.14000000000369, -0.6208496064060589 
4.150000000003667, -0.6202175624383419 
4.1600000000036434, -0.6194842952601431 
4.17000000000362, -0.6186547721547127 
4.180000000003597, -0.6177474388923649 
4.1900000000035735, -0.6167938134540911 
4.20000000000355, -0.6158334714148725 
4.210000000003527, -0.6149062467779876 
4.220000000003504, -0.6140450612281088 
4.23000000000348, -0.613271967816158 
4.240000000003457, -0.6125978124564847 
4.250000000003434, -0.6120242864298879 
4.26000000000341, -0.6115468171149082 
4.270000000003387, -0.6111572441846362 
4.280000000003364, -0.6108458505278536 
4.2900000000033405, -0.6106027173499851 
4.300000000003317, -0.6104185343145793 
4.310000000003294, -0.6102850170093855 
4.320000000003271, -0.6101950522803222 
4.330000000003247, -0.610142651107082 
4.340000000003224, -0.6101227512997315 
4.350000000003201, -0.6101308785470677 
4.360000000003177, -0.6101626490843473 
4.370000000003154, -0.61021310279427 
4.380000000003131, -0.6102759293822162 
4.390000000003107, -0.6103428076989412 
4.400000000003084, -0.6104032445688969 
4.410000000003061, -0.6104452890042038 
4.4200000000030375, -0.6104571533662946 
4.430000000003014, -0.6104292156248958 
4.440000000002991, -0.6103555384485727 
4.450000000002968, -0.610234267438882 
4.460000000002944, -0.6100669019546542 
4.470000000002921, -0.609856955511512 
4.480000000002898, -0.609608620761604 
4.490000000002874, -0.6093258277087374 
4.500000000002851, -0.6090118062209532 
4.510000000002828, -0.608669098901123 
4.520000000002804, -0.6082999231567279 
4.530000000002781, -0.6079067843368876 
4.540000000002758, -0.6074932286181263 
4.5500000000027345, -0.6070645598788097 
4.560000000002711, -0.6066282466668647 
4.570000000002688, -0.6061937140589803 
4.580000000002665, -0.6057714198236991 
4.590000000002641, -0.6053716066379542 
4.600000000002618, -0.6050035067147893 
4.610000000002595, -0.6046753248513373 
4.620000000002571, -0.6043941330900406 
4.630000000002548, -0.6041644949055789 
4.640000000002525, -0.6039861968086742 
4.6500000000025015, -0.6038530159678605 
4.660000000002478, -0.6037537966773803 
4.670000000002455, -0.6036751697482877 
4.6800000000024315, -0.6036043017645149 
4.690000000002408, -0.6035305759272814 
4.700000000002385, -0.6034460425474688 
4.710000000002362, -0.6033450249251453 
4.720000000002338, -0.6032233533338153 
4.730000000002315, -0.6030775720002717 
4.740000000002292, -0.602904321900606 
4.750000000002268, -0.6027000207034876 
4.760000000002245, -0.6024609302663104 
4.770000000002222, -0.6021836693422312 
4.7800000000021985, -0.601866129382935 
4.790000000002175, -0.601508554305996 
4.800000000002152, -0.6011143283223122 
4.810000000002129, -0.6006899806665473 
4.820000000002105, -0.6002442277006421 
4.830000000002082, -0.5997864071226057 
4.840000000002059, -0.5993250088126498 
4.850000000002035, -0.5988668805245079 
4.860000000002012, -0.5984172301859817 
4.870000000001989, -0.5979801566940108 
4.880000000001965, -0.5975593475130789 
4.890000000001942, -0.597158712851901 
4.900000000001919, -0.5967828937662294 
4.9100000000018955, -0.5964376712554582 
4.920000000001872, -0.5961303095553241 
