t, s[1].omega / s[0].omega 
0, -0.6299977163622238 
0.009999999999999995, -0.6297608665937474 
0.019999999999999934, -0.6295072461231683 
0.029999999999999874, -0.6292370603915064 
0.04000000000000012, -0.6289509738513592 
0.050000000000000405, -0.6286503856940834 
0.06000000000000069, -0.628337561868698 
0.07000000000000098, -0.6280156372704078 
0.08000000000000126, -0.6276885993831779 
0.09000000000000155, -0.6273613704494585 
0.10000000000000184, -0.6270400488833404 
0.11000000000000212, -0.6267322982361794 
0.12000000000000241, -0.6264478033912647 
0.130000000000002, -0.6261986428950078 
0.1400000000000009, -0.625999342434233 
0.1499999999999998, -0.6258662835597163 
0.1599999999999987, -0.6258160895047505 
0.1699999999999976, -0.6258627024189265 
0.1799999999999965, -0.626013259939391 
0.1899999999999954, -0.6262636679143866 
0.1999999999999943, -0.6265957179259967 
0.2099999999999932, -0.6269779328043631 
0.2199999999999921, -0.627371104535045 
0.229999999999991, -0.6277368650039084 
0.2399999999999899, -0.6280455400582539 
0.2499999999999888, -0.6282800273349692 
0.2599999999999877, -0.6284350976834627 
0.2699999999999866, -0.6285138894414387 
0.2799999999999855, -0.6285238594382743 
0.2899999999999844, -0.6284735720791366 
0.2999999999999833, -0.6283706684248823 
0.3099999999999822, -0.6282207850650494 
0.3199999999999811, -0.628027060552048 
0.32999999999998, -0.6277899508665017 
0.3399999999999789, -0.627507219194081 
0.3499999999999778, -0.6271741121469214 
0.35999999999997667, -0.6267838724536717 
0.36999999999997557, -0.6263288427450326 
0.37999999999997447, -0.6258024065998697 
0.38999999999997337, -0.6252017588701588 
0.39999999999997227, -0.6245309299544304 
0.40999999999997117, -0.623802839315571 
0.41999999999997006, -0.6230390262701989 
0.42999999999996896, -0.6222665894971277 
0.43999999999996786, -0.6215133654154753 
0.44999999999996676, -0.6208033092104196 
0.45999999999996566, -0.6201536719650049 
0.46999999999996456, -0.6195743765675326 
0.47999999999996346, -0.6190689974784045 
0.48999999999996235, -0.6186364447471091 
0.49999999999996125, -0.6182726654338482 
0.5099999999999602, -0.6179720260819794 
0.519999999999959, -0.617728298840789 
0.529999999999958, -0.6175352976699078 
0.5399999999999568, -0.6173872424259759 
0.5499999999999557, -0.6172789178645446 
0.5599999999999546, -0.6172056721780448 
0.5699999999999535, -0.6171632777055598 
0.5799999999999524, -0.6171476587530411 
0.5899999999999513, -0.6171544845342474 
0.5999999999999502, -0.6171786454619443 
0.6099999999999491, -0.6172136996298035 
0.619999999999948, -0.6172514908593973 
0.6299999999999469, -0.6172822318089604 
0.6399999999999458, -0.6172952839393449 
0.6499999999999447, -0.6172805698160811 
0.6599999999999436, -0.6172301523370909 
0.6699999999999425, -0.617139327309547 
0.6799999999999414, -0.6170068035894721 
0.6899999999999403, -0.616834026017044 
0.6999999999999392, -0.6166240612410554 
0.7099999999999381, -0.616380514555114 
0.719999999999937, -0.6161067673228308 
0.7299999999999359, -0.6158056162019764 
0.7399999999999348, -0.6154792715401836 
0.7499999999999337, -0.6151296358075377 
0.7599999999999326, -0.6147587855102967 
0.7699999999999315, -0.6143695744145274 
0.7799999999999304, -0.6139662374603991 
0.7899999999999293, -0.6135548134872449 
0.7999999999999282, -0.613143178302956 
0.8099999999999271, -0.6127405770303074 
0.819999999999926, -0.6123567873654728 
0.8299999999999249, -0.6120012422364085 
0.8399999999999238, -0.6116822808703826 
0.8499999999999227, -0.6114062667623538 
0.8599999999999216, -0.6111762982512474 
0.8699999999999205, -0.6109909506133618 
0.8799999999999194, -0.6108440278434157 
0.8899999999999183, -0.6107257839719255 
0.8999999999999172, -0.6106250421874944 
0.9099999999999161, -0.6105311941299452 
0.919999999999915, -0.6104354077102989 
0.9299999999999139, -0.6103309518011475 
0.9399999999999128, -0.610212900758719 
0.9499999999999117, -0.610077551041623 
0.9599999999999106, -0.6099218051577341 
0.9699999999999095, -0.6097426826997114 
0.9799999999999084, -0.609537058746631 
0.9899999999999073, -0.609301703545579 
0.9999999999999062, -0.6090336694301145 
1.0099999999999052, -0.6087309962208224 
1.019999999999904, -0.6083935632546738 
1.029999999999903, -0.6080237560758806 
1.039999999999902, -0.6076265758727168 
1.0499999999999008, -0.6072090213733098 
1.0599999999998997, -0.6067789501757594 
1.0699999999998986, -0.6063439092615535 
1.0799999999998975, -0.60591038759269 
1.0899999999998964, -0.6054836471916775 
1.0999999999998953, -0.6050679946400753 
1.1099999999998942, -0.6046672469725176 
1.119999999999893, -0.6042852062921761 
1.129999999999892, -0.6039260656129428 
1.1399999999998909, -0.6035947375106978 
1.1499999999998898, -0.6032971116296334 
1.1599999999998887, -0.603040228183472 
1.1699999999998876, -0.6028323231883363 
1.1799999999998865, -0.6026826659260823 
1.1899999999998854, -0.6026010722928974 
1.1999999999998843, -0.6025969471861498 
1.2099999999998832, -0.602677713110539 
1.219999999999882, -0.6028465811339893 
1.229999999999881, -0.6030998958640121 
1.2399999999998799, -0.6034247668462461 
1.2499999999998788, -0.6037982058240673 
1.2599999999998777, -0.6041890326776891 
1.2699999999998766, -0.6045628658909307 
1.2799999999998755, -0.6048887601318271 
1.2899999999998744, -0.6051447713197631 
1.2999999999998733, -0.6053202194193725 
1.3099999999998722, -0.6054143814109785 
1.319999999999871, -0.6054330882850397 
1.32999999999987, -0.6053850574135471 
1.3399999999998689, -0.6052790756973154 
1.3499999999998678, -0.6051222819462562 
1.3599999999998666, -0.6049193068071534 
1.3699999999998655, -0.6046719214779853 
1.3799999999998644, -0.604378939133303 
1.3899999999998633, -0.6040362671400288 
1.3999999999998622, -0.6036371718800522 
1.4099999999998611, -0.6031729795305221 
1.41999999999986, -0.6026345598033519 
1.429999999999859, -0.602014908213002 
1.4399999999998578, -0.6013127604694498 
1.4499999999998567, -0.6005363475853167 
1.4599999999998556, -0.5997055072022593 
1.4699999999998545, -0.5988503392107125 
1.4799999999998534, -0.5980060911241211 
1.4899999999998523, -0.597206177239723 
1.4999999999998512, -0.5964762976318484 
1.5099999999998501, -0.5958316564895656 
1.519999999999849, -0.5952773574692902 
1.529999999999848, -0.594810746995737 
1.5399999999998468, -0.5944243024512965 
1.5499999999998457, -0.5941081559175202 
1.5599999999998446, -0.5938519076761452 
1.5699999999998435, -0.5936457397710179 
1.5799999999998424, -0.5934809834386987 
1.5899999999998413, -0.5933503124592389 
1.5999999999998402, -0.5932477025026399 
1.6099999999998391, -0.5931682531585752 
1.619999999999838, -0.5931079273008828 
1.629999999999837, -0.593063224435018 
1.6399999999998358, -0.5930307772055581 
1.6499999999998347, -0.5930068624388551 
1.6599999999998336, -0.5929868755918012 
1.6699999999998325, -0.5929649295942732 
1.6799999999998314, -0.5929338353584626 
1.6899999999998303, -0.5928856727323726 
1.6999999999998292, -0.592812899510297 
1.709999999999828, -0.5927096042840632 
1.719999999999827, -0.5925723653422431 
1.729999999999826, -0.5924003827244555 
1.7399999999998248, -0.5921949441019534 
1.7499999999998237, -0.5919585664448044 
1.7599999999998226, -0.5916941818054916 
1.7699999999998215, -0.5914045910912751 
1.7799999999998204, -0.5910922477610595 
1.7899999999998193, -0.5907593365248867 
1.7999999999998182, -0.5904080774608558 
1.809999999999817, -0.5900411737197252 
1.819999999999816, -0.5896622954225591 
1.8299999999998149, -0.5892764431476009 
1.8399999999998138, -0.5888899933339167 
1.8499999999998127, -0.5885102769435371 
1.8599999999998116, -0.5881447653492288 
1.8699999999998105, -0.5878002644496724 
1.8799999999998094, -0.5874825981231574 
1.8899999999998083, -0.5871967559009053 
1.8999999999998072, -0.5869467743951697 
1.909999999999806, -0.5867347483682237 
1.919999999999805, -0.5865594644693756 
1.9299999999998039, -0.5864158557346033 
1.9399999999998028, -0.5862958603249157 
1.9499999999998017, -0.5861901618570092 
1.9599999999998006, -0.5860898635301337 
1.9699999999997995, -0.5859874952959994 
1.9799999999997984, -0.5858772805966735 
1.9899999999997973, -0.5857548914407648 
1.9999999999997962, -0.5856169733466449 
2.0099999999998173, -0.585460656412863 
2.0199999999998384, -0.5852831920820952 
2.0299999999998595, -0.5850818064469526 
2.0399999999998806, -0.5848538309339337 
2.0499999999999017, -0.5845971260896106 
2.059999999999923, -0.5843107206531589 
2.069999999999944, -0.5839954511101545 
2.079999999999965, -0.5836542855936007 
2.089999999999986, -0.5832920761396473 
2.100000000000007, -0.5829147497068451 
2.1100000000000283, -0.5825282700439114 
2.1200000000000494, -0.5821378251313818 
2.1300000000000705, -0.5817475201064057 
2.1400000000000916, -0.5813605489660295 
2.1500000000001127, -0.5809796227162296 
2.160000000000134, -0.5806074348075895 
2.170000000000155, -0.5802470598649767 
2.180000000000176, -0.5799022862365162 
2.190000000000197, -0.5795779217858776 
2.2000000000002182, -0.5792800964083235 
2.2100000000002393, -0.5790165427933702 
2.2200000000002604, -0.5787967853742937 
2.2300000000002815, -0.5786321082158394 
2.2400000000003026, -0.5785351059472075 
2.2500000000003237, -0.5785185637101871 
2.260000000000345, -0.578593415644739 
2.270000000000366, -0.5787657024256625 
2.280000000000387, -0.5790329137080639 
2.290000000000408, -0.5793808614388514 
2.3000000000004293, -0.579782902417358 
2.3100000000004504, -0.5802030903936879 
2.3200000000004715, -0.5806030986695055 
2.3300000000004926, -0.5809503205075309 
2.3400000000005137, -0.5812235406086245 
2.3500000000005348, -0.5814141397117757 
2.360000000000556, -0.5815235149391544 
2.370000000000577, -0.5815589398783633 
2.380000000000598, -0.5815297973380413 
2.390000000000619, -0.5814450114876364 
2.4000000000006403, -0.5813116385684798 
2.4100000000006614, -0.5811342402767697 
2.4200000000006825, -0.580914680833114 
2.4300000000007036, -0.5806521341618361 
2.4400000000007247, -0.5803432485582193 
2.450000000000746, -0.5799825622182879 
2.460000000000767, -0.5795633789287133 
2.470000000000788, -0.5790793449771058 
2.480000000000809, -0.578526805419564 
2.49000000000083, -0.5779075677914178 
2.5000000000008513, -0.5772310887431804 
2.5100000000008724, -0.5765148109125461 
2.5200000000008935, -0.5757819592477386 
2.5300000000009146, -0.5750574324104935 
2.5400000000009357, -0.5743634983037874 
2.550000000000957, -0.5737169260166863 
2.560000000000978, -0.573128157532431 
2.570000000000999, -0.572602084651829 
2.58000000000102, -0.5721395806748171 
2.5900000000010412, -0.571739082830333 
2.6000000000010624, -0.5713978645775841 
2.6100000000010835, -0.5711129128338002 
2.6200000000011046, -0.5708814629790502 
2.6300000000011257, -0.5707012783335472 
2.6400000000011468, -0.5705707424402806 
2.650000000001168, -0.5704887961221587 
2.660000000001189, -0.5704547128487066 
2.67000000000121, -0.570467673863909 
2.680000000001231, -0.5705260918779741 
2.6900000000012523, -0.570626665712242 
2.7000000000012734, -0.5707632646639145 
2.7100000000012945, -0.5709259520933734 
2.7200000000013156, -0.5711006809463128 
2.7300000000013367, -0.5712702149102842 
2.740000000001358, -0.5714164227316167 
2.750000000001379, -0.571523331586379 
2.7600000000014, -0.571579733488848 
2.770000000001421, -0.5715802850845193 
2.780000000001442, -0.5715248725397821 
2.7900000000014633, -0.5714168490598666 
2.8000000000014844, -0.5712610228284329 
2.8100000000015055, -0.571062009154593 
2.8200000000015266, -0.5708231456577673 
2.8300000000015477, -0.5705458906618827 
2.840000000001569, -0.5702295374752282 
2.85000000000159, -0.5698711147936337 
2.860000000001611, -0.5694654387868661 
2.870000000001632, -0.5690054066184753 
2.8800000000016532, -0.5684827657500972 
2.8900000000016743, -0.5678897204096897 
2.9000000000016954, -0.5672217091446468 
2.9100000000017165, -0.5664812493960638 
2.9200000000017377, -0.5656817375767343 
2.9300000000017588, -0.5648489866005919 
2.94000000000178, -0.5640183769115772 
2.950000000001801, -0.5632276832076455 
2.960000000001822, -0.5625085794325968 
2.970000000001843, -0.5618807482010327 
2.9800000000018643, -0.5613505715406946 
2.9900000000018854, -0.5609136102301552 
3.0000000000019065, -0.56055871084681 
3.0100000000019276, -0.5602718825396183 
3.0200000000019487, -0.5600390578445487 
3.03000000000197, -0.5598476443104594 
3.040000000001991, -0.559687147843756 
3.050000000002012, -0.5595492188850991 
3.060000000002033, -0.5594274075858905 
3.070000000002054, -0.5593168197791475 
3.0800000000020753, -0.5592137824121864 
3.0900000000020964, -0.5591155595037632 
3.1000000000021175, -0.5590201015331541 
3.1100000000021386, -0.5589257660876907 
3.1200000000021597, -0.5588309403940454 
3.130000000002181, -0.558733561268814 
3.140000000002202, -0.5586306627238703 
3.150000000002223, -0.5585182001879307 
3.160000000002244, -0.5583913662531792 
3.1700000000022652, -0.558245375699146 
3.1800000000022863, -0.5580764027059077 
3.1900000000023074, -0.5578822447101656 
3.2000000000023285, -0.5576624612917336 
3.2100000000023496, -0.5574180391358133 
3.2200000000023707, -0.5571508358120585 
3.230000000002392, -0.5568630671014405 
3.240000000002413, -0.5565569966799797 
3.250000000002434, -0.5562348710905831 
3.260000000002455, -0.5558990692463252 
3.2700000000024763, -0.5555523974955676 
3.2800000000024974, -0.5551984293216256 
3.2900000000025185, -0.5548417433190774 
3.3000000000025396, -0.5544878674017737 
3.3100000000025607, -0.5541427568825913 
3.3200000000025818, -0.5538118249381718 
3.330000000002603, -0.5534989375069859 
3.340000000002624, -0.5532061189389005 
3.350000000002645, -0.5529344282541682 
3.360000000002666, -0.5526853847018961 
3.3700000000026873, -0.5524614711233294 
3.3800000000027084, -0.5522649479270204 
3.3900000000027295, -0.552095924587724 
3.4000000000027506, -0.5519513148785234 
3.4100000000027717, -0.551825323920211 
3.420000000002793, -0.55171086945974 
3.430000000002814, -0.551600994828258 
3.440000000002835, -0.551489728730522 
3.450000000002856, -0.5513723369227298 
3.460000000002877, -0.5512451628872803 
3.4700000000028983, -0.5511052911193309 
3.4800000000029194, -0.5509502123295513 
3.4900000000029405, -0.5507776088007627 
3.5000000000029616, -0.5505853340141676 
3.5100000000029827, -0.5503716189411708 
3.520000000003004, -0.5501354708155896 
3.530000000003025, -0.549877128497549 
3.540000000003046, -0.5495983417555996 
3.550000000003067, -0.5493022430438381 
3.5600000000030882, -0.5489927514756676 
3.5700000000031094, -0.5486737248416766 
3.5800000000031305, -0.5483482515655925 
3.5900000000031516, -0.5480183897143924 
3.6000000000031727, -0.5476853804820206 
3.6100000000031938, -0.5473501204908092 
3.620000000003215, -0.5470136332662919 
3.630000000003236, -0.5466774027982527 
3.640000000003257, -0.5463435813705056 
3.650000000003278, -0.5460151605726291 
3.6600000000032993, -0.545696190208376 
3.6700000000033204, -0.5453920827337136 
3.6800000000033415, -0.5451099813120089 
3.6900000000033626, -0.5448591025709986 
3.7000000000033837, -0.5446508808401276 
3.710000000003405, -0.5444986355894996 
3.720000000003426, -0.5444163891732903 
3.730000000003447, -0.5444164785084882 
3.740000000003468, -0.544505914423598 
3.750000000003489, -0.5446822085111529 
3.7600000000035103, -0.5449304386105762 
3.7700000000035314, -0.5452238176266518 
3.7800000000035525, -0.5455288281296429 
3.7900000000035736, -0.5458131842356849 
3.8000000000035947, -0.5460527532781823 
3.810000000003616, -0.5462343952265447 
3.820000000003637, -0.5463546438796211 
3.830000000003658, -0.5464163247294329 
3.840000000003679, -0.5464252119314776 
3.8500000000037002, -0.5463876873391469 
3.8600000000037213, -0.5463094201467723 
3.8700000000037424, -0.5461947348927849 
3.8800000000037635, -0.5460463558097042 
3.8900000000037847, -0.5458653440949464 
3.9000000000038058, -0.5456511648339484 
3.910000000003827, -0.5454019106384258 
3.920000000003848, -0.5451147694622791 
3.930000000003869, -0.5447868362313906 
3.94000000000389, -0.5444162891307379 
3.9500000000039113, -0.5440037497483226 
3.9600000000039324, -0.54355338064991 
3.9700000000039535, -0.5430731473287609 
3.9800000000039746, -0.5425739129531371 
3.9900000000039957, -0.5420676126259009 
4.000000000004016, -0.5415652670061986 
4.010000000003993, -0.541075623487986 
4.02000000000397, -0.5406047702128101 
4.030000000003946, -0.540156553919294 
4.040000000003923, -0.5397333894016316 
4.0500000000039, -0.5393371028646223 
4.0600000000038765, -0.5389696310314229 
4.070000000003853, -0.5386335466400467 
4.08000000000383, -0.5383324465160533 
4.090000000003807, -0.5380712382534463 
4.100000000003783, -0.5378563272079859 
4.11000000000376, -0.5376956553274621 
4.120000000003737, -0.5375984825221174 
4.130000000003713, -0.5375747348128456 
4.14000000000369, -0.5376336950642652 
4.150000000003667, -0.53778184594154 
4.1600000000036434, -0.5380199031999632 
4.17000000000362, -0.5383396036835386 
4.180000000003597, -0.5387215473064135 
4.1900000000035735, -0.539135821865034 
4.20000000000355, -0.5395464497491897 
4.210000000003527, -0.5399186669362006 
4.220000000003504, -0.5402259897550391 
4.23000000000348, -0.5404539414550099 
4.240000000003457, -0.5405994737297372 
4.250000000003434, -0.5406675245288115 
4.26000000000341, -0.540666939216083 
4.270000000003387, -0.5406072418427341 
4.280000000003364, -0.540496661156163 
4.2900000000033405, -0.5403411691945016 
4.300000000003317, -0.5401441331750039 
4.310000000003294, -0.5399062788128614 
4.320000000003271, -0.5396258282688562 
4.330000000003247, -0.5392988330595235 
4.340000000003224, -0.5389198498831362 
4.350000000003201, -0.538483171765886 
4.360000000003177, -0.5379847463384789 
4.370000000003154, -0.5374245906556718 
4.380000000003131, -0.5368089831726415 
4.390000000003107, -0.5361513201105256 
4.400000000003084, -0.5354707928969407 
4.410000000003061, -0.5347890990282083 
4.4200000000030375, -0.5341265308337653 
4.430000000003014, -0.5334990400517212 
4.440000000002991, -0.5329171115049007 
4.450000000002968, -0.5323862527130274 
4.460000000002944, -0.5319083535860089 
4.470000000002921, -0.5314832015757108 
4.480000000002898, -0.5311097448979357 
4.490000000002874, -0.5307869846477996 
4.500000000002851, -0.5305145345153776 
4.510000000002828, -0.5302929312915505 
4.520000000002804, -0.5301237613439561 
4.530000000002781, -0.5300096249375649 
4.540000000002758, -0.5299539088927386 
4.5500000000027345, -0.5299602868699289 
4.560000000002711, -0.5300318302064537 
4.570000000002688, -0.5301696270130087 
4.580000000002665, -0.5303709365802708 
4.590000000002641, -0.5306272096291074 
4.600000000002618, -0.5309227392375249 
4.610000000002595, -0.5312349952584433 
4.620000000002571, -0.5315373670284773 
4.630000000002548, -0.5318038858409071 
4.640000000002525, -0.5320141485519161 
4.6500000000025015, -0.5321563184390062 
4.660000000002478, -0.5322272043760179 
4.670000000002455, -0.5322300486031087 
4.6800000000024315, -0.532171483835264 
4.690000000002408, -0.5320588647135038 
4.700000000002385, -0.5318984640415162 
4.710000000002362, -0.5316944734070722 
4.720000000002338, -0.5314485391983322 
4.730000000002315, -0.5311595934541182 
4.740000000002292, -0.5308238678112438 
4.750000000002268, -0.5304351366763688 
4.760000000002245, -0.5299853951133594 
4.770000000002222, -0.5294662920735937 
4.7800000000021985, -0.5288715884997683 
4.790000000002175, -0.5282005082501209 
4.800000000002152, -0.5274610505088384 
4.810000000002129, -0.5266715696249011 
4.820000000002105, -0.5258591021291419 
4.830000000002082, -0.525054482261639 
4.840000000002059, -0.5242862435928877 
4.850000000002035, -0.5235759355192047 
4.860000000002012, -0.5229363208491387 
4.870000000001989, -0.5223721917518735 
4.880000000001965, -0.5218825798341612 
4.890000000001942, -0.5214631789880919 
4.900000000001919, -0.5211083167099778 
4.9100000000018955, -0.5208122913058049 
4.920000000001872, -0.5205701545546818 
