t, s[1].omega / s[0].omega 
0, -0.08999781952515704 
0.009999999999999995, -0.08979594062663075 
0.019999999999999934, -0.08962351420014342 
0.029999999999999874, -0.08947351700338113 
0.04000000000000012, -0.08933612967801714 
0.050000000000000405, -0.0892008507193586 
0.06000000000000069, -0.08905834440666592 
0.07000000000000098, -0.08890147923737635 
0.08000000000000126, -0.08872543606762609 
0.09000000000000155, -0.08852714905717825 
0.10000000000000184, -0.08830448738903411 
0.11000000000000212, -0.08805551927564721 
0.12000000000000241, -0.0877780708465591 
0.130000000000002, -0.08746970928163147 
0.1400000000000009, -0.08712824831600763 
0.1499999999999998, -0.08675281916453167 
0.1599999999999987, -0.08634536510095492 
0.1699999999999976, -0.08591206814776069 
0.1799999999999965, -0.0854638815260372 
0.1899999999999954, -0.085015421956392 
0.1999999999999943, -0.08458221602504701 
0.2099999999999932, -0.08417729386914857 
0.2199999999999921, -0.08380854452903824 
0.229999999999991, -0.08347774225625278 
0.2399999999999899, -0.08318124112211069 
0.2499999999999888, -0.08291170941509501 
0.2599999999999877, -0.08266013559155834 
0.2699999999999866, -0.08241750219305459 
0.2799999999999855, -0.08217579943158203 
0.2899999999999844, -0.08192832891166853 
0.2999999999999833, -0.08166945228558933 
0.3099999999999822, -0.08139402477576002 
0.3199999999999811, -0.08109674271901787 
0.32999999999998, -0.08077160013068403 
0.3399999999999789, -0.08041165895084852 
0.3499999999999778, -0.08000940742326665 
0.35999999999997667, -0.07955803846579883 
0.36999999999997557, -0.07905383383816524 
0.37999999999997447, -0.07849925668991295 
0.38999999999997337, -0.07790539656055415 
0.39999999999997227, -0.07729184722565999 
0.40999999999997117, -0.07668301701017208 
0.41999999999997006, -0.076102141840412 
0.42999999999996896, -0.07556591967754797 
0.43999999999996786, -0.07508206337331783 
0.44999999999996676, -0.07464999007056997 
0.45999999999996566, -0.07426333205653293 
0.46999999999996456, -0.07391276630221334 
0.47999999999996346, -0.07358824302351982 
0.48999999999996235, -0.07328031266106164 
0.49999999999996125, -0.07298062119407109 
0.5099999999999602, -0.07268178787520563 
0.519999999999959, -0.07237688823664684 
0.529999999999958, -0.07205871744722922 
0.5399999999999568, -0.07171897204350187 
0.5499999999999557, -0.07134752400117184 
0.5599999999999546, -0.07093212012564262 
0.5699999999999535, -0.07045911144953469 
0.5799999999999524, -0.06991600324006975 
0.5899999999999513, -0.06929620251203462 
0.5999999999999502, -0.06860478342741767 
0.6099999999999491, -0.06786193871307089 
0.619999999999948, -0.06710046535188022 
0.6299999999999469, -0.06635710588227638 
0.6399999999999458, -0.0656623188573778 
0.6499999999999447, -0.06503397547158282 
0.6599999999999436, -0.06447688196888376 
0.6699999999999425, -0.06398620770066148 
0.6799999999999414, -0.06355189218737264 
0.6899999999999403, -0.06316217876066292 
0.6999999999999392, -0.06280573882642951 
0.7099999999999381, -0.062472574781002696 
0.719999999999937, -0.062154082263457845 
0.7299999999999359, -0.06184259004265048 
0.7399999999999348, -0.06153056591879521 
0.7499999999999337, -0.06120957101539186 
0.7599999999999326, -0.06086902211232455 
0.7699999999999315, -0.06049495911622142 
0.7799999999999304, -0.06006940750146896 
0.7899999999999293, -0.05957155337533464 
0.7999999999999282, -0.05898231495821895 
0.8099999999999271, -0.05829275414264925 
0.819999999999926, -0.05751320932092312 
0.8299999999999249, -0.05667638370905674 
0.8399999999999238, -0.055829523211656226 
0.8499999999999227, -0.05501918967766959 
0.8599999999999216, -0.0542782152360495 
0.8699999999999205, -0.0536212536798671 
0.8799999999999194, -0.053047930756266994 
0.8899999999999183, -0.052548937540375915 
0.8999999999999172, -0.05211144069803687 
0.9099999999999161, -0.05172251817698831 
0.919999999999915, -0.05137078713038418 
0.9299999999999139, -0.05104681754122209 
0.9399999999999128, -0.050742835835719494 
0.9499999999999117, -0.05045199939643782 
0.9599999999999106, -0.050167321730662996 
0.9699999999999095, -0.04988020345681975 
0.9799999999999084, -0.04957854231754436 
0.9899999999999073, -0.04924470610287704 
0.9999999999999062, -0.048854455867640714 
1.0099999999999052, -0.048379089542362974 
1.019999999999904, -0.04779338657569051 
1.029999999999903, -0.04708887137436375 
1.039999999999902, -0.046285195063777464 
1.0499999999999008, -0.04542905559736812 
1.0599999999998997, -0.04457824419328991 
1.0699999999998986, -0.04378153544961177 
1.0799999999998975, -0.0430672143996212 
1.0899999999998964, -0.04244329722178425 
1.0999999999998953, -0.04190419494557916 
1.1099999999998942, -0.04143793668897841 
1.119999999999893, -0.04103120739599122 
1.129999999999892, -0.040671986200486045 
1.1399999999998909, -0.04035050447490783 
1.1499999999998898, -0.04005923961168993 
1.1599999999998887, -0.03979237328373449 
1.1699999999998876, -0.03954485399975348 
1.1799999999998865, -0.03931098329402353 
1.1899999999998854, -0.039082330262952276 
1.1999999999998843, -0.03884490607413314 
1.2099999999998832, -0.03857620783912474 
1.219999999999882, -0.03824426126566274 
1.229999999999881, -0.03781249645842355 
1.2399999999998799, -0.037253246706525245 
1.2499999999998788, -0.03656550283143057 
1.2599999999998777, -0.035783609657351736 
1.2699999999998766, -0.034966514510911394 
1.2799999999998755, -0.03417418159223871 
1.2899999999998744, -0.03344850223751508 
1.2999999999998733, -0.03280814389183216 
1.3099999999998722, -0.03225386916842288 
1.319999999999871, -0.03177673800820104 
1.32999999999987, -0.0313645871289204 
1.3399999999998689, -0.031005763333000452 
1.3499999999998678, -0.03069074470664504 
1.3599999999998666, -0.030412515783641347 
1.3699999999998655, -0.030166276418042072 
1.3799999999998644, -0.029948715880078247 
1.3899999999998633, -0.029756792837555605 
1.3999999999998622, -0.02958574785389751 
1.4099999999998611, -0.02942603332992913 
1.41999999999986, -0.029259293787416124 
1.429999999999859, -0.029054991260456874 
1.4399999999998578, -0.028771729832754785 
1.4499999999998567, -0.02836833188240543 
1.4599999999998556, -0.027824138516251113 
1.4699999999998545, -0.02715603274148764 
1.4799999999998534, -0.026415828048515867 
1.4899999999998523, -0.025667685379692773 
1.4999999999998512, -0.024963558376630453 
1.5099999999998501, -0.024332114609323042 
1.519999999999849, -0.023781270744876525 
1.529999999999848, -0.02330630427185123 
1.5399999999998468, -0.022897266612209446 
1.5499999999998457, -0.02254364802873154 
1.5599999999998446, -0.022236640985912444 
1.5699999999998435, -0.02196991215593858 
1.5799999999998424, -0.021739573936577467 
1.5899999999998413, -0.021543674242805816 
1.5999999999998402, -0.02138118858572701 
1.6099999999998391, -0.021250221309756227 
1.619999999999838, -0.021144964913931717 
1.629999999999837, -0.02105121567825554 
1.6399999999998358, -0.020941517411240326 
1.6499999999998347, -0.020773723732082226 
1.6599999999998336, -0.02049914843720506 
1.6699999999998325, -0.020082851710823222 
1.6799999999998314, -0.019525871054475997 
1.6899999999998303, -0.018870064777413164 
1.6999999999998292, -0.018178848625608816 
1.709999999999828, -0.017509926251348625 
1.719999999999827, -0.016899434768092872 
1.729999999999826, -0.01636144931880366 
1.7399999999998248, -0.015895340632559582 
1.7499999999998237, -0.015493595785647902 
1.7599999999998226, -0.015147120308701082 
1.7699999999998215, -0.01484800650257434 
1.7799999999998204, -0.014590640590629644 
1.7899999999998193, -0.014371899545456562 
1.7999999999998182, -0.014190818839495689 
1.809999999999817, -0.014047754224602863 
1.819999999999816, -0.013942746362997274 
1.8299999999998149, -0.013872569115433223 
1.8399999999998138, -0.013826061271218798 
1.8499999999998127, -0.0137784557577595 
1.8599999999998116, -0.01368819640828688 
1.8699999999998105, -0.013502885387088376 
1.8799999999998094, -0.013178822543643961 
1.8899999999998083, -0.01270598110901775 
1.8999999999998072, -0.01211794352143811 
1.909999999999806, -0.011475802609413041 
1.919999999999805, -0.0108399114883635 
1.9299999999998039, -0.010250992087244379 
1.9399999999998028, -0.009727337696479144 
1.9499999999998017, -0.00927135993730314 
1.9599999999998006, -0.008877500115082117 
1.9699999999997995, -0.008537882817817439 
1.9799999999997984, -0.008245403088461126 
1.9899999999997973, -0.007995059117365474 
1.9999999999997962, -0.007784303529183233 
2.0099999999998173, -0.007612828082848404 
2.0199999999998384, -0.007481827183085839 
2.0299999999998595, -0.007392450340077827 
2.0399999999998806, -0.007342888334385729 
2.0499999999999017, -0.007323592396607637 
2.059999999999923, -0.007311168340754024 
2.069999999999944, -0.007264307169975915 
2.079999999999965, -0.00712865593973019 
2.089999999999986, -0.006856032047208284 
2.100000000000007, -0.00643077957447973 
2.1100000000000283, -0.005882196170889217 
2.1200000000000494, -0.005269979436496967 
2.1300000000000705, -0.004655540602136316 
2.1400000000000916, -0.00408169326012513 
2.1500000000001127, -0.003568759836862125 
2.160000000000134, -0.0031207018082658293 
2.170000000000155, -0.0027330322178304857 
2.180000000000176, -0.002398602646675188 
2.190000000000197, -0.002110822093182276 
2.2000000000002182, -0.0018650870816305845 
2.2100000000002393, -0.001659199520455873 
2.2200000000002604, -0.0014931951037477436 
2.2300000000002815, -0.0013686291142478745 
2.2400000000003026, -0.0012870201440131114 
2.2500000000003237, -0.0012468738902526883 
2.260000000000345, -0.0012387594571944321 
2.270000000000366, -0.0012389888983282522 
2.280000000000387, -0.00120538524887264 
2.290000000000408, -0.0010823045973892224 
2.3000000000004293, -0.0008204578686204731 
2.3100000000004504, -0.00040392092227114796 
2.3200000000004715, 0.00003499158220159842 
2.3300000000004926, 0.00020476448272754977 
2.3400000000005137, 0.00037715663991091193 
2.3500000000005348, 0.0005094023816769717 
2.360000000000556, 0.0005813483183731024 
2.370000000000577, 0.0005891188820114542 
2.380000000000598, 0.0005371639174581099 
2.390000000000619, 0.0004325099253719523 
2.4000000000006403, 0.0002815875951586994 
2.4100000000006614, 0.00008883294665635302 
2.4200000000006825, 1.6812673974811632e-7 
2.4300000000007036, -5.530813833146401e-7 
2.4400000000007247, -0.0000014175930626760285 
2.450000000000746, -0.0000016946671578031846 
2.460000000000767, -3.1418797972576436e-7 
2.470000000000788, -2.645539630617738e-7 
2.480000000000809, -6.075653603677686e-8 
2.49000000000083, -7.10355301125601e-7 
2.5000000000008513, -6.323581163543905e-7 
2.5100000000008724, 3.454443340651473e-7 
2.5200000000008935, 0.000014042935366685377 
2.5300000000009146, 0.00012569554023947294 
2.5400000000009357, 0.0002978288259523645 
2.550000000000957, 0.0004693515381965064 
2.560000000000978, 0.0005988619592428247 
2.570000000000999, 0.0006673922371449173 
2.58000000000102, 0.0006717784895603209 
2.5900000000010412, 0.0006167718639787091 
2.6000000000010624, 0.000509448109068092 
2.6100000000010835, 0.000356163535901686 
2.6200000000011046, 0.00016123367914396472 
2.6300000000011257, -7.561747315607755e-7 
2.6400000000011468, -7.152015085783531e-7 
2.650000000001168, -1.5026333365844253e-7 
2.660000000001189, -0.0000011261717156389118 
2.67000000000121, -3.900296762399309e-8 
2.680000000001231, -6.22786397988574e-7 
2.6900000000012523, -3.386247741626804e-7 
2.7000000000012734, -6.052248316806701e-7 
2.7100000000012945, -3.5874038860405924e-7 
2.7200000000013156, 6.184997183765174e-7 
2.7300000000013367, 0.00001795964747041961 
2.740000000001358, 0.00013588540710221783 
2.750000000001379, 0.00031029186597121246 
2.7600000000014, 0.0004808723171455398 
2.770000000001421, 0.0006076179068723438 
2.780000000001442, 0.0006727383850313613 
2.7900000000014633, 0.000673764085311163 
2.8000000000014844, 0.0006157337182821692 
2.8100000000015055, 0.0005057645527663044 
2.8200000000015266, 0.0003501351611415974 
2.8300000000015477, 0.00015303973875260973 
2.840000000001569, 5.675599670922591e-7 
2.85000000000159, -8.281453672029961e-8 
2.860000000001611, -2.6508466786494185e-7 
2.870000000001632, -0.0000011948574718585962 
2.8800000000016532, -3.493088491033125e-7 
2.8900000000016743, -7.318679472076652e-7 
2.9000000000016954, -9.162966325840648e-7 
2.9100000000017165, -5.764481837429176e-7 
2.9200000000017377, -6.998542635888872e-7 
2.9300000000017588, 3.2690032180279194e-7 
2.94000000000178, 0.00002263962387463715 
2.950000000001801, 0.00014660766692871707 
2.960000000001822, 0.00032306246480534937 
2.970000000001843, 0.0004925496316147245 
2.9800000000018643, 0.0006164594278173676 
2.9900000000018854, 0.00067815423998889 
3.0000000000019065, 0.0006758311840197688 
3.0100000000019276, 0.0006147977579984297 
3.0200000000019487, 0.0005022027281473001 
3.03000000000197, 0.00034424266317126327 
3.040000000001991, 0.00014498939733722488 
3.050000000002012, 5.838712701544405e-7 
3.060000000002033, -7.578457232025433e-7 
3.070000000002054, -2.2987927218564394e-7 
3.0800000000020753, -3.6680358148567524e-7 
3.0900000000020964, -0.0000018880451421702352 
3.1000000000021175, -5.035915295957818e-7 
3.1100000000021386, -2.4776981610501437e-7 
3.1200000000021597, -5.29950326940242e-7 
3.130000000002181, -1.130754734651625e-7 
3.140000000002202, 0.000001730120385956788 
3.150000000002223, 0.00002815371610078556 
3.160000000002244, 0.00015793082919693556 
3.1700000000022652, 0.00033621245275942274 
3.1800000000022863, 0.0005044604882459108 
3.1900000000023074, 0.0006254677331788193 
3.2000000000023285, 0.0006837234749463782 
3.2100000000023496, 0.0006780645329561163 
3.2200000000023707, 0.000614048990776612 
3.230000000002392, 0.0004988475211683874 
3.240000000002413, 0.0003385706816422286 
3.250000000002434, 0.0001371670753633821 
3.260000000002455, -6.228871675845687e-7 
3.2700000000024763, 2.5098116117139555e-7 
3.2800000000024974, -0.000001412512437744568 
3.2900000000025185, -7.346604989374577e-7 
3.3000000000025396, -9.311686417680596e-7 
3.3100000000025607, -5.690425223162523e-7 
3.3200000000025818, -4.1259346638299674e-7 
3.330000000002603, -3.636817720710831e-7 
3.340000000002624, -6.809943526551865e-7 
3.350000000002645, 5.561823994422548e-7 
3.360000000002666, 0.00003530876094982289 
3.3700000000026873, 0.00017066034682575968 
3.3800000000027084, 0.0003505513374446582 
3.3900000000027295, 0.000517419982917825 
3.4000000000027506, 0.0006354623296025972 
3.4100000000027717, 0.0006902681812013232 
3.420000000002793, 0.0006812874008848423 
3.430000000002814, 0.0006143110539916473 
3.440000000002835, 0.0004965225720486741 
3.450000000002856, 0.0003339427620011101 
3.460000000002877, 0.0001303962937930071 
3.4700000000028983, -4.8999714210720175e-8 
3.4800000000029194, 1.3465235345951192e-7 
3.4900000000029405, -8.065201941101876e-8 
3.5000000000029616, -7.435126382123488e-7 
3.5100000000029827, -2.7945259058116275e-7 
3.520000000003004, -8.968613289617026e-8 
3.530000000003025, -5.658845237998385e-7 
3.540000000003046, -6.826694947963245e-7 
3.550000000003067, -1.0440316248020449e-7 
3.5600000000030882, 5.508391619743128e-7 
3.5700000000031094, 0.0000398517159007772 
3.5800000000031305, 0.00018054268175497298 
3.5900000000031516, 0.00036182932800851557 
3.6000000000031727, 0.000527183016740939 
3.6100000000031938, 0.0006422015406487736 
3.620000000003215, 0.0006935484100433002 
3.630000000003236, 0.0006812603128191724 
3.640000000003257, 0.0006113442262952756 
3.650000000003278, 0.0004909875511014317 
3.6600000000032993, 0.0003261177850073938 
3.6700000000033204, 0.00012043503315671081 
3.6800000000033415, -4.841286093220486e-7 
3.6900000000033626, -9.907505913341972e-7 
3.7000000000033837, -4.789443651992726e-7 
3.710000000003405, -0.0000017317053941524777 
3.720000000003426, -5.445292153704982e-7 
3.730000000003447, -4.0396556949839837e-7 
3.740000000003468, -5.954344892873315e-7 
3.750000000003489, -6.568812255165903e-7 
3.7600000000035103, 2.4943291902187095e-7 
3.7700000000035314, 3.245797768091975e-7 
3.7800000000035525, 0.00004764129328964054 
3.7900000000035736, 0.00019342818377412175 
3.8000000000035947, 0.0003758965921447528 
3.810000000003616, 0.0005396028798682952 
3.820000000003637, 0.0006515417053268954 
3.830000000003658, 0.000699422387220439 
3.840000000003679, 0.0006838423522506655 
3.8500000000037002, 0.0006110078517692856 
3.8600000000037213, 0.00048810182968923215 
3.8700000000037424, 0.0003209551637320578 
3.8800000000037635, 0.00011314295295180619 
3.8900000000037847, 2.9870289906483696e-7 
3.9000000000038058, -8.970135615756849e-7 
3.910000000003827, -3.7694191763437384e-7 
3.920000000003848, -1.1598090185055776e-8 
3.930000000003869, -2.1262462938977035e-7 
3.94000000000389, -7.162852928265671e-7 
3.9500000000039113, -0.0000011494409452039773 
3.9600000000039324, -2.0057172160725737e-7 
3.9700000000039535, 4.6851430036791785e-7 
3.9800000000039746, 6.909389986871274e-7 
3.9900000000039957, 0.000054404783033399795 
4.000000000004016, 0.0002050486529013605 
4.010000000003993, 0.0003884920699916065 
4.02000000000397, 0.0005504251390701105 
4.030000000003946, 0.0006592328422490206 
4.040000000003923, 0.0007036424415303094 
4.0500000000039, 0.0006847867118265393 
4.0600000000038765, 0.0006090551937502084 
4.070000000003853, 0.0004836183634811483 
4.08000000000383, 0.0003142073830392506 
4.090000000003807, 0.0001042720062644936 
4.100000000003783, -4.957346692157061e-7 
4.11000000000376, -9.263436018797452e-7 
4.120000000003737, -3.9005899496184783e-7 
4.130000000003713, -5.57747134568796e-7 
4.14000000000369, -0.0000013498447503591457 
4.150000000003667, -1.8394462824186478e-7 
4.1600000000036434, -6.582081584425068e-7 
4.17000000000362, 7.092128660378385e-8 
4.180000000003597, -7.498101682206618e-8 
4.1900000000035735, 2.790669187590845e-7 
4.20000000000355, 0.00006166549807039092 
4.210000000003527, 0.000216923102844597 
4.220000000003504, 0.00040113657322823757 
4.23000000000348, 0.0005611742708081435 
4.240000000003457, 0.0006668023542574573 
4.250000000003434, 0.000707737548998754 
4.26000000000341, 0.0006856229013479819 
4.270000000003387, 0.0006070157145362397 
4.280000000003364, 0.0004790663189659716 
4.2900000000033405, 0.0003074032643194459 
4.300000000003317, 0.0000953507498411762 
4.310000000003294, 1.1439321327873275e-7 
4.320000000003271, -0.0000010032522487304984 
4.330000000003247, -4.4180336328408333e-7 
4.340000000003224, -0.000001838212307124562 
4.350000000003201, -2.4070695201840354e-7 
4.360000000003177, -1.7347582355160356e-7 
4.370000000003154, -4.846158876376937e-7 
4.380000000003131, -4.796024505556219e-7 
4.390000000003107, 1.5417252753030374e-7 
4.400000000003084, 6.134155362171003e-7 
4.410000000003061, 0.0000702141155755713 
4.4200000000030375, 0.00022984211734391278 
4.430000000003014, 0.00041462520074313154 
4.440000000002991, 0.00057265056465299 
4.450000000002968, 0.0006750542645370801 
4.460000000002944, 0.0007125137507657148 
4.470000000002921, 0.0006871577767321271 
4.480000000002898, 0.0006056964361897356 
4.490000000002874, 0.0004752526146955061 
4.500000000002851, 0.0003013495771658635 
4.510000000002828, 0.00008718590779895755 
4.520000000002804, -6.973144755932183e-7 
4.530000000002781, -0.0000010468020161471368 
4.540000000002758, -4.497435177566118e-7 
4.5500000000027345, -1.3442149910320868e-7 
4.560000000002711, -0.0000018821202613400861 
4.570000000002688, -0.000002042660386524393 
4.580000000002665, -5.281481594351689e-7 
4.590000000002641, -2.97656162764651e-7 
4.600000000002618, 5.248650329221839e-7 
4.610000000002595, 0.000001781144942663282 
4.620000000002571, 0.00007940637607037207 
4.630000000002548, 0.00024316291597661137 
4.640000000002525, 0.0004283204256173067 
4.6500000000025015, 0.0005842218738476483 
4.660000000002478, 0.000683360113991952 
4.670000000002455, 0.000717344503342021 
4.6800000000024315, 0.0006887655128273352 
4.690000000002408, 0.0006044716151638404 
