t, s[1].omega / s[0].omega 
0, -0.4599977653744552 
0.009999999999999995, -0.45977596393483716 
0.019999999999999934, -0.4595557949794268 
0.029999999999999874, -0.4593329274700042 
0.04000000000000012, -0.45910187504078 
0.050000000000000405, -0.45885761793009544 
0.06000000000000069, -0.4585966373982256 
0.07000000000000098, -0.4583171423366511 
0.08000000000000126, -0.4580187051768008 
0.09000000000000155, -0.4577016806257059 
0.10000000000000184, -0.45736669148390463 
0.11000000000000212, -0.4570142935440483 
0.12000000000000241, -0.45664478769103545 
0.130000000000002, -0.45625804939652576 
0.1400000000000009, -0.455853168649921 
0.1499999999999998, -0.45542764027831983 
0.1599999999999987, -0.45497592315994995 
0.1699999999999976, -0.4544876649275034 
0.1799999999999965, -0.4539470418152257 
0.1899999999999954, -0.45333603828980495 
0.1999999999999943, -0.4526438913502721 
0.2099999999999932, -0.45187977674894314 
0.2199999999999921, -0.45107902185532484 
0.229999999999991, -0.45029456488682984 
0.2399999999999899, -0.44957774764992686 
0.2499999999999888, -0.44896190112057316 
0.2599999999999877, -0.44845756491219096 
0.2699999999999866, -0.44805757868183893 
0.2799999999999855, -0.4477454792523038 
0.2899999999999844, -0.4475024324820739 
0.2999999999999833, -0.4473112699544525 
0.3099999999999822, -0.4471581369058953 
0.3199999999999811, -0.44703273139102784 
0.32999999999998, -0.44692792110777946 
0.3399999999999789, -0.44683920811566413 
0.3499999999999778, -0.4467642652318083 
0.35999999999997667, -0.44670260246669846 
0.36999999999997557, -0.44665529758811073 
0.37999999999997447, -0.4466246165989152 
0.38999999999997337, -0.44661328292995217 
0.39999999999997227, -0.4466232112470653 
0.40999999999997117, -0.4466537880359015 
0.41999999999997006, -0.4467002199909874 
0.42999999999996896, -0.4467528231004455 
0.43999999999996786, -0.4467979964405955 
0.44999999999996676, -0.4468208430883669 
0.45999999999996566, -0.4468083846633605 
0.46999999999996456, -0.4467518948647199 
0.47999999999996346, -0.44664745810428885 
0.48999999999996235, -0.44649491383723444 
0.49999999999996125, -0.4462960104175918 
0.5099999999999602, -0.44605255887802286 
0.519999999999959, -0.4457649673247858 
0.529999999999958, -0.4454311605579354 
0.5399999999999568, -0.445045716228584 
0.5499999999999557, -0.4445990622158349 
0.5599999999999546, -0.4440767436937473 
0.5699999999999535, -0.44345911013526573 
0.5799999999999524, -0.4427223396148946 
0.5899999999999513, -0.44184234809040684 
0.5999999999999502, -0.4408030417734096 
0.6099999999999491, -0.43960815174401 
0.619999999999948, -0.4382912872750725 
0.6299999999999469, -0.4369157609570304 
0.6399999999999458, -0.435560250903935 
0.6499999999999447, -0.4342970402274172 
0.6599999999999436, -0.4331752727625212 
0.6699999999999425, -0.43221629305344234 
0.6799999999999414, -0.43141896457093615 
0.6899999999999403, -0.4307687450983032 
0.6999999999999392, -0.43024576298352885 
0.7099999999999381, -0.4298301479729788 
0.719999999999937, -0.42950482365938775 
0.7299999999999359, -0.4292566083584065 
0.7399999999999348, -0.4290764065130035 
0.7499999999999337, -0.4289590058568059 
0.7599999999999326, -0.42890274543484386 
0.7699999999999315, -0.4289091299813091 
0.7799999999999304, -0.42898231553977323 
0.7899999999999293, -0.4291282546838029 
0.7999999999999282, -0.42935317796191175 
0.8099999999999271, -0.4296610832830283 
0.819999999999926, -0.43005017513351185 
0.8299999999999249, -0.43050891180961603 
0.8399999999999238, -0.4310133707753237 
0.8499999999999227, -0.431528259514735 
0.8599999999999216, -0.4320128472055845 
0.8699999999999205, -0.4324301391157876 
0.8799999999999194, -0.4327549436529923 
0.8899999999999183, -0.4329769712812185 
0.8999999999999172, -0.43309851781851727 
0.9099999999999161, -0.4331292823540277 
0.919999999999915, -0.43308123908857005 
0.9299999999999139, -0.43296506308607813 
0.9399999999999128, -0.43278819875735686 
0.9499999999999117, -0.4325540420610574 
0.9599999999999106, -0.4322617170616211 
0.9699999999999095, -0.4319062007426595 
0.9799999999999084, -0.4314788809196476 
0.9899999999999073, -0.4309689347963099 
0.9999999999999062, -0.4303660609716752 
1.0099999999999052, -0.4296648004870315 
1.019999999999904, -0.4288696511074844 
1.029999999999903, -0.42799870477474206 
1.039999999999902, -0.427082995752344 
1.0499999999999008, -0.42616058884407126 
1.0599999999998997, -0.4252678526434037 
1.0699999999998986, -0.4244322236699297 
1.0799999999998975, -0.4236693097960894 
1.0899999999998964, -0.42298417750406214 
1.0999999999998953, -0.4223748211927337 
1.1099999999998942, -0.42183583797676105 
1.119999999999893, -0.42136126914772987 
1.129999999999892, -0.4209464264707659 
1.1399999999998909, -0.4205889514851921 
1.1499999999998898, -0.420289443589033 
1.1599999999998887, -0.42005191527785746 
1.1699999999998876, -0.41988420516236413 
1.1799999999998865, -0.4197983356800113 
1.1899999999998854, -0.4198106254458325 
1.1999999999998843, -0.4199411226596875 
1.2099999999998832, -0.4202116181478678 
1.219999999999882, -0.4206412628595769 
1.229999999999881, -0.4212390806780645 
1.2399999999998799, -0.4219941615703518 
1.2499999999998788, -0.42286740178376336 
1.2599999999998777, -0.4237916017483919 
1.2699999999998766, -0.42468499957422373 
1.2799999999998755, -0.42547436530895333 
1.2899999999998744, -0.4261146132413477 
1.2999999999998733, -0.42659388546695975 
1.3099999999998722, -0.42692493417232785 
1.319999999999871, -0.427131930651362 
1.32999999999987, -0.42724029687398585 
1.3399999999998689, -0.42727159029961675 
1.3499999999998678, -0.4272420538768998 
1.3599999999998666, -0.42716292667138334 
1.3699999999998655, -0.42704130164464144 
1.3799999999998644, -0.4268810265276559 
1.3899999999998633, -0.42668356426900866 
1.3999999999998622, -0.426448918743486 
1.4099999999998611, -0.4261767683264607 
1.41999999999986, -0.4258678464354612 
1.429999999999859, -0.4255253556016386 
1.4399999999998578, -0.4251558872450597 
1.4499999999998567, -0.4247692045618753 
1.4599999999998556, -0.4243766145548095 
1.4699999999998545, -0.4239884336208969 
1.4799999999998534, -0.42361167389136084 
1.4899999999998523, -0.4232489861687969 
1.4999999999998512, -0.4228991486811592 
1.5099999999998501, -0.4225585868859443 
1.519999999999849, -0.4222230761584349 
1.529999999999848, -0.4218889837436106 
1.5399999999998468, -0.4215538527603465 
1.5499999999998457, -0.4212164854320588 
1.5599999999998446, -0.42087680397816174 
1.5699999999998435, -0.42053570865113377 
1.5799999999998424, -0.42019502571462936 
1.5899999999998413, -0.419857509466096 
1.5999999999998402, -0.4195267338086544 
1.6099999999998391, -0.4192065589840467 
1.619999999999838, -0.4188997127942284 
1.629999999999837, -0.41860506186028645 
1.6399999999998358, -0.4183138010799966 
1.6499999999998347, -0.418006530579848 
1.6599999999998336, -0.4176554037132093 
1.6699999999998325, -0.41723500238483424 
1.6799999999998314, -0.4167386994255134 
1.6899999999998303, -0.41618832192940236 
1.6999999999998292, -0.41562697524301184 
1.709999999999828, -0.4150998644167897 
1.719999999999827, -0.41463787798755225 
1.729999999999826, -0.414252671142563 
1.7399999999998248, -0.41394096219392573 
1.7499999999998237, -0.4136916546535542 
1.7599999999998226, -0.41349157146552695 
1.7699999999998215, -0.41332871463204224 
1.7799999999998204, -0.4131935797485948 
1.7899999999998193, -0.41307937344306256 
1.7999999999998182, -0.4129817761063415 
1.809999999999817, -0.4128986161054809 
1.819999999999816, -0.4128296111352431 
1.8299999999998149, -0.4127761813025139 
1.8399999999998138, -0.41274121277127884 
1.8499999999998127, -0.4127285463600122 
1.8599999999998116, -0.4127419370027957 
1.8699999999998105, -0.41278337648187025 
1.8799999999998094, -0.41285105149339757 
1.8899999999998083, -0.4129377059336303 
1.8999999999998072, -0.41303043642694737 
1.909999999999806, -0.4131125560710798 
1.919999999999805, -0.41316708410836467 
1.9299999999998039, -0.41318035074831067 
1.9399999999998028, -0.4131440926333344 
1.9499999999998017, -0.41305539932451396 
1.9599999999998006, -0.41291506021257895 
1.9699999999997995, -0.4127253540646544 
1.9799999999997984, -0.41248806232584123 
1.9899999999997973, -0.4122029759246998 
1.9999999999997962, -0.4118668118975782 
2.0099999999998173, -0.4114723610493735 
2.0199999999998384, -0.4110078014213977 
2.0299999999998595, -0.410456400436515 
2.0399999999998806, -0.409797290431534 
2.0499999999999017, -0.40900851553330886 
2.059999999999923, -0.40807357143724987 
2.069999999999944, -0.4069911631354949 
2.079999999999965, -0.4057844624984148 
2.089999999999986, -0.4045031738148032 
2.100000000000007, -0.4032139781306051 
2.1100000000000283, -0.40198295760488445 
2.1200000000000494, -0.40085976610113405 
2.1300000000000705, -0.39987094041752735 
2.1400000000000916, -0.3990223956601783 
2.1500000000001127, -0.39830648298572713 
2.160000000000134, -0.39770917922174875 
2.170000000000155, -0.3972153063002971 
2.180000000000176, -0.39681157214582924 
2.190000000000197, -0.3964880292760668 
2.2000000000002182, -0.39623863160517236 
2.2100000000002393, -0.396061382195228 
2.2200000000002604, -0.39595834182238293 
2.2300000000002815, -0.395935576206467 
2.2400000000003026, -0.39600294418746274 
2.2500000000003237, -0.39617343625400936 
2.260000000000345, -0.3964615554495988 
2.270000000000366, -0.3968800733320415 
2.280000000000387, -0.39743465118491983 
2.290000000000408, -0.398116737363002 
2.3000000000004293, -0.3988971085090236 
2.3100000000004504, -0.39972454097568616 
2.3200000000004715, -0.4005337042378899 
2.3300000000004926, -0.4012612378168986 
2.3400000000005137, -0.4018621326836674 
2.3500000000005348, -0.4023174330193213 
2.360000000000556, -0.4026309546152749 
2.370000000000577, -0.4028199445967073 
2.380000000000598, -0.402905921736878 
2.390000000000619, -0.4029087930487735 
2.4000000000006403, -0.40284423095854827 
2.4100000000006614, -0.4027230913393766 
2.4200000000006825, -0.4025517753383035 
2.4300000000007036, -0.4023329416309621 
2.4400000000007247, -0.40206640440812047 
2.450000000000746, -0.40175030955885865 
2.460000000000767, -0.4013827572633305 
2.470000000000788, -0.40096388760141394 
2.480000000000809, -0.4004980359898528 
2.49000000000083, -0.39999506693124415 
2.5000000000008513, -0.39946988193771815 
2.5100000000008724, -0.3989398053583238 
2.5200000000008935, -0.39842080204069796 
2.5300000000009146, -0.3979242542867777 
2.5400000000009357, -0.397455615905747 
2.550000000000957, -0.39701508666495905 
2.560000000000978, -0.39659949213301104 
2.570000000000999, -0.39620433624085594 
2.58000000000102, -0.39582535183757894 
2.5900000000010412, -0.3954593749988328 
2.6000000000010624, -0.39510470544756926 
2.6100000000010835, -0.3947612171389008 
2.6200000000011046, -0.3944304266444757 
2.6300000000011257, -0.3941156089278043 
2.6400000000011468, -0.39382191540520217 
2.650000000001168, -0.39355628870133275 
2.660000000001189, -0.3933267577001471 
2.67000000000121, -0.3931404715398509 
2.680000000001231, -0.39299982723412 
2.6900000000012523, -0.3928968407281034 
2.7000000000012734, -0.39280816421658327 
2.7100000000012945, -0.39269614273715936 
2.7200000000013156, -0.3925209499337622 
2.7300000000013367, -0.3922605137830615 
2.740000000001358, -0.39192396054352135 
2.750000000001379, -0.3915463857456649 
2.7600000000014, -0.39116973177421677 
2.770000000001421, -0.3908255271025942 
2.780000000001442, -0.3905287932828208 
2.7900000000014633, -0.39028106051280975 
2.8000000000014844, -0.3900763720495238 
2.8100000000015055, -0.38990627497651764 
2.8200000000015266, -0.38976273428416625 
2.8300000000015477, -0.3896393935729686 
2.840000000001569, -0.3895319015026308 
2.85000000000159, -0.38943785046245855 
2.860000000001611, -0.38935663582625346 
2.870000000001632, -0.3892893553643592 
2.8800000000016532, -0.38923872131715564 
2.8900000000016743, -0.3892088281530469 
2.9000000000016954, -0.3892045215571513 
2.9100000000017165, -0.3892301229163252 
2.9200000000017377, -0.3892874806146013 
2.9300000000017588, -0.3893737718809699 
2.94000000000178, -0.3894799884659249 
2.950000000001801, -0.38959119338647474 
2.960000000001822, -0.3896890286318729 
2.970000000001843, -0.3897557003285971 
2.9800000000018643, -0.3897776569637526 
2.9900000000018854, -0.38974735167008545 
3.0000000000019065, -0.3896627151152761 
3.0100000000019276, -0.389525149933655 
3.0200000000019487, -0.3893371730435061 
3.03000000000197, -0.38910042699658665 
3.040000000001991, -0.38881424226177763 
3.050000000002012, -0.3884746254736912 
3.060000000002033, -0.38807352050966304 
3.070000000002054, -0.3875983713970089 
3.0800000000020753, -0.3870323637338575 
3.0900000000020964, -0.38635617204081635 
3.1000000000021175, -0.3855523112475093 
3.1100000000021386, -0.38461257954846606 
3.1200000000021597, -0.38354685103643493 
3.130000000002181, -0.382388403744096 
3.140000000002202, -0.3811904562369639 
3.150000000002223, -0.38001346947470493 
3.160000000002244, -0.37890967941670856 
3.1700000000022652, -0.37791300591306276 
3.1800000000022863, -0.3770375590267709 
3.1900000000023074, -0.37628229740542546 
3.2000000000023285, -0.37563758366809213 
3.2100000000023496, -0.3750907538103653 
3.2200000000023707, -0.3746297762707672 
3.230000000002392, -0.37424524873602827 
3.240000000002413, -0.3739313360277431 
3.250000000002434, -0.37368618399601816 
3.260000000002455, -0.3735121516220804 
3.2700000000024763, -0.37341600987047896 
3.2800000000024974, -0.3734090723882143 
3.2900000000025185, -0.3735070129233194 
3.3000000000025396, -0.3737288493564042 
3.3100000000025607, -0.3740942595987851 
3.3200000000025818, -0.3746182502823929 
3.330000000002603, -0.3753027688098036 
3.340000000002624, -0.37612688726390636 
3.350000000002645, -0.37704061125894517 
3.360000000002666, -0.37796938393609997 
3.3700000000026873, -0.3788320743457979 
3.3800000000027084, -0.3795647071305875 
3.3900000000027295, -0.38013574057150495 
3.4000000000027506, -0.38054534697607323 
3.4100000000027717, -0.3808136327486492 
3.420000000002793, -0.3809676159908787 
3.430000000002814, -0.3810327452191179 
3.440000000002835, -0.3810293630815801 
3.450000000002856, -0.3809722092480775 
3.460000000002877, -0.38087118659034924 
3.4700000000028983, -0.38073242877916025 
3.4800000000029194, -0.3805593422581577 
3.4900000000029405, -0.3803536234703862 
3.5000000000029616, -0.38011635964080687 
3.5100000000029827, -0.37984926938387337 
3.520000000003004, -0.3795559475525855 
3.530000000003025, -0.3792427122712866 
3.540000000003046, -0.37891850660178855 
3.550000000003067, -0.37859353669851153 
3.5600000000030882, -0.37827695975850767 
3.5700000000031094, -0.37797457253734673 
3.5800000000031305, -0.37768755965869694 
3.5900000000031516, -0.37741280671740973 
3.6000000000031727, -0.377144465826807 
3.6100000000031938, -0.3768759255952695 
3.620000000003215, -0.37660135073759754 
3.630000000003236, -0.3763163827165685 
3.640000000003257, -0.37601807030383705 
3.650000000003278, -0.37570434678644615 
3.6600000000032993, -0.3753733533607454 
3.6700000000033204, -0.37502275450574707 
3.6800000000033415, -0.37464902903621805 
3.6900000000033626, -0.37424660706384943 
3.7000000000033837, -0.37380667994899847 
3.710000000003405, -0.3733156047010949 
3.720000000003426, -0.3727532415772771 
3.730000000003447, -0.3720925587417993 
3.740000000003468, -0.3713032638908521 
3.750000000003489, -0.3703624812437321 
3.7600000000035103, -0.36927145919906174 
3.7700000000035314, -0.36806883757913533 
3.7800000000035525, -0.3668271893740207 
3.7900000000035736, -0.3656304792040945 
3.8000000000035947, -0.36454689897227754 
3.810000000003616, -0.3636139032171755 
3.820000000003637, -0.36283935929775246 
3.830000000003658, -0.3622116038075028 
3.840000000003679, -0.36171021198947123 
3.8500000000037002, -0.36131355325025316 
3.8600000000037213, -0.3610028109236634 
3.8700000000037424, -0.3607635577233137 
3.8800000000037635, -0.36058603265576866 
3.8900000000037847, -0.36046489084748656 
3.9000000000038058, -0.3603988292931511 
3.910000000003827, -0.3603902263164961 
3.920000000003848, -0.36044474008400396 
3.930000000003869, -0.36057064348241924 
3.94000000000389, -0.36077751471940955 
3.9500000000039113, -0.36107381675766476 
3.9600000000039324, -0.36146306052954846 
3.9700000000039535, -0.3619389179704769 
3.9800000000039746, -0.36248092176364377 
3.9900000000039957, -0.3630536297525775 
4.000000000004016, -0.36361174986663786 
4.010000000003993, -0.36411055107981216 
4.02000000000397, -0.3645167621413145 
4.030000000003946, -0.3648143163068567 
4.040000000003923, -0.3650030592368243 
4.0500000000039, -0.36509302066951527 
4.0600000000038765, -0.36509814110234495 
4.070000000003853, -0.3650317683824531 
4.08000000000383, -0.3649042822258112 
4.090000000003807, -0.36472224300173595 
4.100000000003783, -0.36448839028701957 
4.11000000000376, -0.36420211329344004 
4.120000000003737, -0.36386034350590624 
4.130000000003713, -0.36345903876002905 
4.14000000000369, -0.36299543272297913 
4.150000000003667, -0.362470885745389 
4.1600000000036434, -0.3618934932439838 
4.17000000000362, -0.36127900865263474 
4.180000000003597, -0.3606489151753549 
4.1900000000035735, -0.3600259523512098 
4.20000000000355, -0.35942907007042946 
4.210000000003527, -0.3588701133244768 
4.220000000003504, -0.3583532839378546 
4.23000000000348, -0.3578768253604914 
4.240000000003457, -0.3574356106734086 
4.250000000003434, -0.3570235005416724 
4.26000000000341, -0.356634939572298 
4.270000000003387, -0.3562657842547433 
4.280000000003364, -0.3559136135134258 
4.2900000000033405, -0.3555777988544789 
4.300000000003317, -0.3552595143257088 
4.310000000003294, -0.3549617280708696 
4.320000000003271, -0.3546890587253778 
4.330000000003247, -0.35444718374819806 
4.340000000003224, -0.35424125417871577 
4.350000000003201, -0.3540726356080128 
4.360000000003177, -0.35393370306505345 
4.370000000003154, -0.3538021365694922 
4.380000000003131, -0.35363936659973527 
4.390000000003107, -0.35339971596960884 
4.400000000003084, -0.353051290381014 
4.410000000003061, -0.35259640151886257 
4.4200000000030375, -0.3520735520687045 
4.430000000003014, -0.35153804630023033 
4.440000000002991, -0.35103773272909156 
4.450000000002968, -0.350600196124533 
4.460000000002944, -0.3502334333883904 
4.470000000002921, -0.34993296658886747 
4.480000000002898, -0.3496889933794169 
4.490000000002874, -0.3494910857465288 
4.500000000002851, -0.3493305258264768 
4.510000000002828, -0.34920114965086085 
4.520000000002804, -0.3490994728274087 
4.530000000002781, -0.3490245706747887 
4.540000000002758, -0.34897792554121815 
4.5500000000027345, -0.3489632628754059 
4.560000000002711, -0.3489862432396138 
4.570000000002688, -0.34905374733870614 
4.580000000002665, -0.34917243007057197 
4.590000000002641, -0.34934633810794063 
4.600000000002618, -0.34957381118560094 
4.610000000002595, -0.3498446180212494 
4.620000000002571, -0.35013895455626576 
4.630000000002548, -0.3504297824547672 
4.640000000002525, -0.3506884330046103 
4.6500000000025015, -0.3508911865698587 
4.660000000002478, -0.3510236548488708 
4.670000000002455, -0.35108128697564334 
4.6800000000024315, -0.3510667595658161 
4.690000000002408, -0.3509862565557755 
4.700000000002385, -0.35084624783609303 
4.710000000002362, -0.3506513597881742 
4.720000000002338, -0.35040322338386154 
4.730000000002315, -0.3500999932261273 
4.740000000002292, -0.34973637162055715 
4.750000000002268, -0.34930424563492757 
4.760000000002245, -0.34879430519075905 
4.770000000002222, -0.34819905639910703 
4.7800000000021985, -0.3475171651187037 
4.790000000002175, -0.34675789718150296 
4.800000000002152, -0.3459431739652577 
4.810000000002129, -0.3451049605428008 
4.820000000002105, -0.34427821623829524 
4.830000000002082, -0.343492716170031 
4.840000000002059, -0.342767689211247 
4.850000000002035, -0.34211093236493706 
4.860000000002012, -0.34152132786973033 
