t, s[1].omega / s[0].omega 
0, -0.5699977353095211 
0.009999999999999995, -0.5697657297712386 
0.019999999999999934, -0.5695219697056282 
0.029999999999999874, -0.5692644976299767 
0.04000000000000012, -0.568991191145799 
0.050000000000000405, -0.5687007800624949 
0.06000000000000069, -0.5683934328131357 
0.07000000000000098, -0.5680708521567748 
0.08000000000000126, -0.5677361212416877 
0.09000000000000155, -0.5673936095427765 
0.10000000000000184, -0.5670491521652794 
0.11000000000000212, -0.5667105826197768 
0.12000000000000241, -0.566388587736675 
0.130000000000002, -0.5660977438926411 
0.1400000000000009, -0.5658574290903391 
0.1499999999999998, -0.5656920379695233 
0.1599999999999987, -0.5656295816415245 
0.1699999999999976, -0.5656975451372986 
0.1799999999999965, -0.5659153333004381 
0.1899999999999954, -0.5662844631147875 
0.1999999999999943, -0.5667807742522021 
0.2099999999999932, -0.5673549341792267 
0.2199999999999921, -0.5679443919510595 
0.229999999999991, -0.5684916621565985 
0.2399999999999899, -0.5689582542713701 
0.2499999999999888, -0.5693276710802083 
0.2599999999999877, -0.5695998140206247 
0.2699999999999866, -0.569783177740397 
0.2799999999999855, -0.5698889991884136 
0.2899999999999844, -0.5699280738919366 
0.2999999999999833, -0.5699093619723222 
0.3099999999999822, -0.5698394613379983 
0.3199999999999811, -0.5697224224363796 
0.32999999999998, -0.5695596971926387 
0.3399999999999789, -0.5693501998749052 
0.3499999999999778, -0.5690905779766732 
0.35999999999997667, -0.568775883501518 
0.36999999999997557, -0.5684008651773015 
0.37999999999997447, -0.5679619686194262 
0.38999999999997337, -0.5674597401726913 
0.39999999999997227, -0.5669007802009673 
0.40999999999997117, -0.566298121452373 
0.41999999999997006, -0.5656694276040871 
0.42999999999996896, -0.5650336092603281 
0.43999999999996786, -0.5644074076771707 
0.44999999999996676, -0.5638033643816802 
0.45999999999996566, -0.5632295957773599 
0.46999999999996456, -0.5626908489625643 
0.47999999999996346, -0.562190015664241 
0.48999999999996235, -0.5617295163255515 
0.49999999999996125, -0.5613123372294478 
0.5099999999999602, -0.5609427478247866 
0.519999999999959, -0.5606268020732619 
0.529999999999958, -0.5603727018928044 
0.5399999999999568, -0.560191036141007 
0.5499999999999557, -0.5600948307673739 
0.5599999999999546, -0.5600992522085998 
0.5699999999999535, -0.5602206896226252 
0.5799999999999524, -0.5604748214735777 
0.5899999999999513, -0.560873239143676 
0.5999999999999502, -0.5614184625339843 
0.6099999999999491, -0.5620980245336312 
0.619999999999948, -0.5628797777627146 
0.6299999999999469, -0.5637118984764637 
0.6399999999999458, -0.5645303904787735 
0.6499999999999447, -0.5652729786238038 
0.6599999999999436, -0.5658933417756675 
0.6699999999999425, -0.5663686411296153 
0.6799999999999414, -0.5666979084650571 
0.6899999999999403, -0.5668945197522495 
0.6999999999999392, -0.566977781439438 
0.7099999999999381, -0.5669667498753649 
0.719999999999937, -0.5668768482493383 
0.7299999999999359, -0.5667184951030682 
0.7399999999999348, -0.5664967682425108 
0.7499999999999337, -0.5662114403886551 
0.7599999999999326, -0.5658571123350608 
0.7699999999999315, -0.5654235215360883 
0.7799999999999304, -0.5648964375790758 
0.7899999999999293, -0.5642598437433975 
0.7999999999999282, -0.5635001231175844 
0.8099999999999271, -0.5626122756340564 
0.819999999999926, -0.561606531425264 
0.8299999999999249, -0.5605119202116844 
0.8399999999999238, -0.5593735010637355 
0.8499999999999227, -0.5582432561113692 
0.8599999999999216, -0.5571688173425162 
0.8699999999999205, -0.5561852715263249 
0.8799999999999194, -0.5553125492891426 
0.8899999999999183, -0.5545574139197831 
0.8999999999999172, -0.5539175251523242 
0.9099999999999161, -0.5533854941766285 
0.919999999999915, -0.5529519559010616 
0.9299999999999139, -0.552607527014019 
0.9399999999999128, -0.5523438922650346 
0.9499999999999117, -0.5521543212163923 
0.9599999999999106, -0.5520338459277044 
0.9699999999999095, -0.5519792304925117 
0.9799999999999084, -0.5519887718096956 
0.9899999999999073, -0.5520618901467118 
0.9999999999999062, -0.5521983974790381 
1.0099999999999052, -0.5523972931620984 
1.019999999999904, -0.5526549945420065 
1.029999999999903, -0.5529631608523368 
1.039999999999902, -0.5533067491137755 
1.0499999999999008, -0.553663447909249 
1.0599999999998997, -0.5540056328439675 
1.0699999999998986, -0.5543049667144161 
1.0799999999998975, -0.5545380584227608 
1.0899999999998964, -0.5546905947854102 
1.0999999999998953, -0.5547581889258698 
1.1099999999998942, -0.5547441828005248 
1.119999999999893, -0.5546560455108843 
1.129999999999892, -0.5545019916841725 
1.1399999999998909, -0.5542885963216055 
1.1499999999998898, -0.5540194021971935 
1.1599999999998887, -0.5536941686766748 
1.1699999999998876, -0.553308406446629 
1.1799999999998865, -0.5528530003002657 
1.1899999999998854, -0.5523139585007224 
1.1999999999998843, -0.5516726617911597 
1.2099999999998832, -0.5509074500867589 
1.219999999999882, -0.5499978272414421 
1.229999999999881, -0.5489323474174918 
1.2399999999998799, -0.5477192932012522 
1.2499999999998788, -0.5463954311842522 
1.2599999999998777, -0.5450255422429863 
1.2699999999998766, -0.5436890446620526 
1.2799999999998755, -0.5424591941928207 
1.2899999999998744, -0.5413860920234196 
1.2999999999998733, -0.5404908990321157 
1.3099999999998722, -0.539770307486687 
1.319999999999871, -0.5392056310689036 
1.32999999999987, -0.5387715155526909 
1.3399999999998689, -0.5384420207818209 
1.3499999999998678, -0.5381939457790694 
1.3599999999998666, -0.5380081454578207 
1.3699999999998655, -0.5378696664871682 
1.3799999999998644, -0.5377673170921853 
1.3899999999998633, -0.5376930481208431 
1.3999999999998622, -0.5376413415199105 
1.4099999999998611, -0.5376086727756185 
1.41999999999986, -0.5375930101022188 
1.429999999999859, -0.5375932260515969 
1.4399999999998578, -0.5376082602146117 
1.4499999999998567, -0.5376359597130718 
1.4599999999998556, -0.5376717882550823 
1.4699999999998545, -0.5377079401339298 
1.4799999999998534, -0.5377335319022432 
1.4899999999998523, -0.537736176797682 
1.4999999999998512, -0.5377044561992195 
1.5099999999998501, -0.5376301706100703 
1.519999999999849, -0.5375093636068695 
1.529999999999848, -0.537341883128678 
1.5399999999998468, -0.5371300014686398 
1.5499999999998457, -0.5368768440827687 
1.5599999999998446, -0.5365851384669281 
1.5699999999998435, -0.5362564399856333 
1.5799999999998424, -0.5358907600456091 
1.5899999999998413, -0.535486442657068 
1.5999999999998402, -0.5350401404730655 
1.6099999999998391, -0.5345467760379945 
1.619999999999838, -0.5339994491724698 
1.629999999999837, -0.5333894648043895 
1.6399999999998358, -0.5327071428893575 
1.6499999999998347, -0.5319447225950077 
1.6599999999998336, -0.531102573688572 
1.6699999999998325, -0.5301975031750596 
1.6799999999998314, -0.529267566495388 
1.6899999999998303, -0.5283666200326916 
1.6999999999998292, -0.5275486837833878 
1.709999999999828, -0.5268513782360686 
1.719999999999827, -0.526288251413334 
1.729999999999826, -0.5258517420636009 
1.7399999999998248, -0.5255216778854673 
1.7499999999998237, -0.525273652231568 
1.7599999999998226, -0.5250845561777061 
1.7699999999998215, -0.5249351409499016 
1.7799999999998204, -0.524810559528056 
1.7899999999998193, -0.5246998798740539 
1.7999999999998182, -0.5245952552643496 
1.809999999999817, -0.5244911357034864 
1.819999999999816, -0.5243837010829324 
1.8299999999998149, -0.5242705670126371 
1.8399999999998138, -0.5241507059217833 
1.8499999999998127, -0.5240244101031383 
1.8599999999998116, -0.523893033110435 
1.8699999999998105, -0.5237582825814301 
1.8799999999998094, -0.5236210877444216 
1.8899999999998083, -0.5234804490144331 
1.8999999999998072, -0.5233329047911506 
1.909999999999806, -0.5231730409421731 
1.919999999999805, -0.5229948792773419 
1.9299999999998039, -0.5227934508279188 
1.9399999999998028, -0.5225658162074245 
1.9499999999998017, -0.5223112289759795 
1.9599999999998006, -0.5220306465114206 
1.9699999999997995, -0.5217260237681604 
1.9799999999997984, -0.5213997533930448 
1.9899999999997973, -0.5210544231278094 
1.9999999999997962, -0.5206929007516882 
2.0099999999998173, -0.5203186611539368 
2.0199999999998384, -0.5199361958157438 
2.0299999999998595, -0.5195512390894107 
2.0399999999998806, -0.5191704052819031 
2.0499999999999017, -0.5187997800593244 
2.059999999999923, -0.5184423737260035 
2.069999999999944, -0.5180954909428083 
2.079999999999965, -0.5177506372911987 
2.089999999999986, -0.5173985019780457 
2.100000000000007, -0.5170375304372028 
2.1100000000000283, -0.5166792176713532 
2.1200000000000494, -0.5163442306129685 
2.1300000000000705, -0.5160520028410437 
2.1400000000000916, -0.5158122134733004 
2.1500000000001127, -0.5156231010375458 
2.160000000000134, -0.5154750455852825 
2.170000000000155, -0.5153554054852365 
2.180000000000176, -0.5152520238733425 
2.190000000000197, -0.5151548674135815 
2.2000000000002182, -0.5150563086528964 
2.2100000000002393, -0.5149507306677396 
2.2200000000002604, -0.5148339507965162 
2.2300000000002815, -0.5147027525973339 
2.2400000000003026, -0.5145546743487138 
2.2500000000003237, -0.5143881056881427 
2.260000000000345, -0.5142026365687614 
2.270000000000366, -0.513999454932677 
2.280000000000387, -0.5137814512367356 
2.290000000000408, -0.5135527008995664 
2.3000000000004293, -0.5133172821909217 
2.3100000000004504, -0.51307785168362 
2.3200000000004715, -0.5128346923207354 
2.3300000000004926, -0.5125857615872659 
2.3400000000005137, -0.5123276856895604 
2.3500000000005348, -0.5120571189265479 
2.360000000000556, -0.5117718037135905 
2.370000000000577, -0.511471006144225 
2.380000000000598, -0.5111554266461918 
2.390000000000619, -0.5108269043952887 
2.4000000000006403, -0.5104882122563683 
2.4100000000006614, -0.5101431048473172 
2.4200000000006825, -0.5097966506206706 
2.4300000000007036, -0.5094557758353548 
2.4400000000007247, -0.5091298358588898 
2.450000000000746, -0.5088308564602559 
2.460000000000767, -0.5085728511069126 
2.470000000000788, -0.5083694626159466 
2.480000000000809, -0.50822950917349 
2.49000000000083, -0.5081514116786396 
2.5000000000008513, -0.5081198317213447 
2.5100000000008724, -0.5081089334507548 
2.5200000000008935, -0.5080930102304217 
2.5300000000009146, -0.508057893856378 
2.5400000000009357, -0.5080042372340176 
2.550000000000957, -0.507941251716258 
2.560000000000978, -0.507877850577368 
2.570000000000999, -0.5078178130960824 
2.58000000000102, -0.507759834905045 
2.5900000000010412, -0.5076998234291366 
2.6000000000010624, -0.5076330629995959 
2.6100000000010835, -0.5075553842692456 
2.6200000000011046, -0.5074634597011388 
2.6300000000011257, -0.5073546290145788 
2.6400000000011468, -0.5072266025938266 
2.650000000001168, -0.5070772718233297 
2.660000000001189, -0.5069047645734 
2.67000000000121, -0.5067078063037191 
2.680000000001231, -0.5064863319914952 
2.6900000000012523, -0.5062421179471575 
2.7000000000012734, -0.5059790355769005 
2.7100000000012945, -0.5057025459870694 
2.7200000000013156, -0.5054183923873505 
2.7300000000013367, -0.5051309754997649 
2.740000000001358, -0.5048422071560539 
2.750000000001379, -0.5045514124881643 
2.7600000000014, -0.5042562315884784 
2.770000000001421, -0.503953943032253 
2.780000000001442, -0.5036425584808746 
2.7900000000014633, -0.5033213654347697 
2.8000000000014844, -0.502990993058821 
2.8100000000015055, -0.5026532818793885 
2.8200000000015266, -0.5023112257327303 
2.8300000000015477, -0.5019691380899056 
2.840000000001569, -0.5016330733617881 
2.85000000000159, -0.5013114268995402 
2.860000000001611, -0.501015507772214 
2.870000000001632, -0.5007596781242838 
2.8800000000016532, -0.5005603860566616 
2.8900000000016743, -0.5004332511262655 
2.9000000000016954, -0.5003877528088492 
2.9100000000017165, -0.5004206588560508 
2.9200000000017377, -0.5005119784570301 
2.9300000000017588, -0.5006284651524883 
2.94000000000178, -0.5007356779676762 
2.950000000001801, -0.5008115046548792 
2.960000000001822, -0.5008512179943335 
2.970000000001843, -0.500861910574118 
2.9800000000018643, -0.500853232666753 
2.9900000000018854, -0.5008315257808598 
3.0000000000019065, -0.5007987785754012 
3.0100000000019276, -0.5007541169911597 
3.0200000000019487, -0.500695539397426 
3.03000000000197, -0.500620951188196 
3.040000000001991, -0.5005284972481054 
3.050000000002012, -0.5004164989400101 
3.060000000002033, -0.5002832887081612 
3.070000000002054, -0.5001271491525031 
3.0800000000020753, -0.49994648948937803 
3.0900000000020964, -0.49974031590368106 
3.1000000000021175, -0.4995089264581239 
3.1100000000021386, -0.4992545725581822 
3.1200000000021597, -0.4989816659060467 
3.130000000002181, -0.49869616072418294 
3.140000000002202, -0.4984041267022855 
3.150000000002223, -0.4981100713283399 
3.160000000002244, -0.4978158360792997 
3.1700000000022652, -0.49752059798290527 
3.1800000000022863, -0.49722185840415045 
3.1900000000023074, -0.4969167998587868 
3.2000000000023285, -0.4966033669867932 
3.2100000000023496, -0.4962807810109592 
3.2200000000023707, -0.4959495874632731 
3.230000000002392, -0.49561152273795345 
3.240000000002413, -0.49526945931018684 
3.250000000002434, -0.4949275702522066 
3.260000000002455, -0.49459173320080163 
3.2700000000024763, -0.494270085968963 
3.2800000000024974, -0.4939735114840508 
3.2900000000025185, -0.4937156250797843 
3.3000000000025396, -0.49351158161486264 
3.3100000000025607, -0.4933749120273461 
3.3200000000025818, -0.49331213635593674 
3.330000000002603, -0.4933166747844332 
3.340000000002624, -0.49336617443015085 
3.350000000002645, -0.49342790409485904 
3.360000000002666, -0.4934717846817153 
3.3700000000026873, -0.4934826284186838 
3.3800000000027084, -0.49346232325403133 
3.3900000000027295, -0.4934220408434717 
3.4000000000027506, -0.4933726558183129 
3.4100000000027717, -0.4933198491198131 
3.420000000002793, -0.4932641724121649 
3.430000000002814, -0.49320323336696975 
3.440000000002835, -0.4931337268924233 
3.450000000002856, -0.49305254679374144 
3.460000000002877, -0.49295711208268866 
3.4700000000028983, -0.49284527987131044 
3.4800000000029194, -0.4927151605787074 
3.4900000000029405, -0.49256504421302055 
3.5000000000029616, -0.4923935597504827 
3.5100000000029827, -0.49220010169551776 
3.520000000003004, -0.49198542543251245 
3.530000000003025, -0.4917521356206963 
3.540000000003046, -0.4915046694832542 
3.550000000003067, -0.49124848439357266 
3.5600000000030882, -0.49098857074087016 
3.5700000000031094, -0.4907279079869539 
3.5800000000031305, -0.49046664861541134 
3.5900000000031516, -0.49020244124037093 
3.6000000000031727, -0.4899316462724669 
3.6100000000031938, -0.4896507560708875 
3.620000000003215, -0.4893573885098041 
3.630000000003236, -0.4890506295747768 
3.640000000003257, -0.48873089423621285 
3.650000000003278, -0.4883996292008648 
3.6600000000032993, -0.4880591203207625 
3.6700000000033204, -0.4877125278526567 
3.6800000000033415, -0.48736414716599147 
3.6900000000033626, -0.48701978858011347 
3.7000000000033837, -0.4866870472667766 
3.710000000003405, -0.48637505954522453 
3.720000000003426, -0.48609316361445465 
3.730000000003447, -0.48584794212506965 
3.740000000003468, -0.4856389109679572 
3.750000000003489, -0.48545497729431925 
3.7600000000035103, -0.4852756666235417 
3.7700000000035314, -0.48507976340808473 
3.7800000000035525, -0.48485749832546043 
3.7900000000035736, -0.484616602685067 
3.8000000000035947, -0.4843766854442553 
3.810000000003616, -0.4841573253536489 
3.820000000003637, -0.48396946540404456 
3.830000000003658, -0.48381400763348487 
3.840000000003679, -0.48368509127358283 
3.8500000000037002, -0.48357417482587256 
3.8600000000037213, -0.48347285129629575 
3.8700000000037424, -0.4833741270995392 
3.8800000000037635, -0.483272660047575 
3.8900000000037847, -0.48316451272712885 
3.9000000000038058, -0.4830468082342856 
3.910000000003827, -0.4829175080941364 
3.920000000003848, -0.4827754125228684 
3.930000000003869, -0.48262037806943203 
3.94000000000389, -0.48245361909160334 
3.9500000000039113, -0.48227782042614253 
3.9600000000039324, -0.4820967374478983 
3.9700000000039535, -0.48191413204055955 
3.9800000000039746, -0.4817323009152451 
3.9900000000039957, -0.48155085548086696 
4.000000000004016, -0.48136644661604466 
4.010000000003993, -0.4811736598314037 
4.02000000000397, -0.48096663523896455 
4.030000000003946, -0.48074059893469884 
4.040000000003923, -0.48049267704452514 
4.0500000000039, -0.4802218776001837 
4.0600000000038765, -0.4799285431667168 
4.070000000003853, -0.47961367986169323 
4.08000000000383, -0.47927843657114366 
4.090000000003807, -0.4789238225807485 
4.100000000003783, -0.47855061508684454 
4.11000000000376, -0.4781593223882403 
4.120000000003737, -0.4777499980895567 
4.130000000003713, -0.4773216421864482 
4.14000000000369, -0.4768709746748316 
4.150000000003667, -0.47639078203780905 
4.1600000000036434, -0.47586909253487164 
4.17000000000362, -0.4752917447836871 
4.180000000003597, -0.47465047040115077 
4.1900000000035735, -0.47395402343606496 
4.20000000000355, -0.4732337177911723 
4.210000000003527, -0.4725358948403654 
4.220000000003504, -0.4719048799929477 
4.23000000000348, -0.4713684570235156 
4.240000000003457, -0.4709338172693295 
4.250000000003434, -0.47059239312891954 
4.26000000000341, -0.4703276075892939 
4.270000000003387, -0.47012119126090246 
4.280000000003364, -0.4699567792112188 
4.2900000000033405, -0.46982128418291724 
4.300000000003317, -0.46970497644330955 
4.310000000003294, -0.4696010144304581 
4.320000000003271, -0.46950487247011974 
4.330000000003247, -0.46941388251504695 
4.340000000003224, -0.4693269544544827 
4.350000000003201, -0.4692444218521639 
4.360000000003177, -0.4691678486114862 
4.370000000003154, -0.4690995513736027 
4.380000000003131, -0.46904162895214896 
4.390000000003107, -0.46899453206664504 
4.400000000003084, -0.4689556121537598 
4.410000000003061, -0.4689183999308291 
4.4200000000030375, -0.4688732387627412 
4.430000000003014, -0.4688092394571089 
4.440000000002991, -0.46871672431816913 
4.450000000002968, -0.4685890291431226 
4.460000000002944, -0.4684229868221383 
4.470000000002921, -0.46821820171407486 
4.480000000002898, -0.4679757157363678 
4.490000000002874, -0.4676966538979417 
4.500000000002851, -0.4673811450118845 
4.510000000002828, -0.4670275323306681 
4.520000000002804, -0.46663174151679965 
4.530000000002781, -0.46618664861466613 
4.540000000002758, -0.46568136232845997 
4.5500000000027345, -0.465100541749086 
4.560000000002711, -0.46442432761715946 
4.570000000002688, -0.46363022875236054 
4.580000000002665, -0.4626989360918473 
4.590000000002641, -0.46162506646158696 
4.600000000002618, -0.4604296344387615 
4.610000000002595, -0.45916557126803825 
4.620000000002571, -0.45790826574014265 
4.630000000002548, -0.4567337007529318 
4.640000000002525, -0.45569730412324294 
4.6500000000025015, -0.45482482764837123 
4.660000000002478, -0.45411593728977884 
4.670000000002455, -0.4535539509304082 
4.6800000000024315, -0.4531153789605532 
4.690000000002408, -0.45277642991515454 
4.700000000002385, -0.4525163885189737 
4.710000000002362, -0.4523188312602125 
4.720000000002338, -0.45217166862176883 
4.730000000002315, -0.45206669289913365 
4.740000000002292, -0.4519990039113466 
4.750000000002268, -0.4519664651464478 
4.760000000002245, -0.45196919118424306 
4.770000000002222, -0.4520089492008107 
4.7800000000021985, -0.4520882660958267 
4.790000000002175, -0.45220901428230365 
4.800000000002152, -0.4523704003554883 
4.810000000002129, -0.45256668136503997 
4.820000000002105, -0.4527854932794038 
4.830000000002082, -0.4530079982967334 
4.840000000002059, -0.45321158412894 
4.850000000002035, -0.4533744759642083 
4.860000000002012, -0.45348025311645435 
4.870000000001989, -0.4535201948795298 
4.880000000001965, -0.45349277870601645 
4.890000000001942, -0.45340123268853355 
4.900000000001919, -0.4532505935398988 
