t, s[1].omega / s[0].omega 
0, -0.38999778124328666 
0.009999999999999995, -0.3897821487703841 
0.019999999999999934, -0.389576689864647 
0.029999999999999874, -0.3893756062321593 
0.04000000000000012, -0.3891713213286067 
0.050000000000000405, -0.3889564964840321 
0.06000000000000069, -0.3887253960472754 
0.07000000000000098, -0.3884742619849447 
0.08000000000000126, -0.38820087847948204 
0.09000000000000155, -0.387903732664621 
0.10000000000000184, -0.38758110228466697 
0.11000000000000212, -0.3872302013900635 
0.12000000000000241, -0.3868463424563289 
0.130000000000002, -0.3864219851043281 
0.1400000000000009, -0.3859455591470931 
0.1499999999999998, -0.3854001439802536 
0.1599999999999987, -0.3847626193922281 
0.1699999999999976, -0.38400489586511394 
0.1799999999999965, -0.383099822982083 
0.1899999999999954, -0.3820335328984535 
0.1999999999999943, -0.38082096832612194 
0.2099999999999932, -0.3795141690823278 
0.2199999999999921, -0.37819294797570774 
0.229999999999991, -0.37694035666513925 
0.2399999999999899, -0.3758184707959814 
0.2499999999999888, -0.3748578875121724 
0.2599999999999877, -0.37406155035701427 
0.2699999999999866, -0.37341523059376935 
0.2799999999999855, -0.37289761222944107 
0.2899999999999844, -0.37248705182813485 
0.2999999999999833, -0.3721650710559453 
0.3099999999999822, -0.37191767781372703 
0.3199999999999811, -0.37173555953824905 
0.32999999999998, -0.37161382945238264 
0.3399999999999789, -0.37155167167221864 
0.3499999999999778, -0.3715519890627156 
0.35999999999997667, -0.3716209745294209 
0.36999999999997557, -0.3717673586335989 
0.37999999999997447, -0.3720009281306177 
0.38999999999997337, -0.37232983746074844 
0.39999999999997227, -0.37275644734670765 
0.40999999999997117, -0.3732721981222771 
0.41999999999997006, -0.37385340749841334 
0.42999999999996896, -0.37446108911557746 
0.43999999999996786, -0.37504716654549364 
0.44999999999996676, -0.3755658134143001 
0.45999999999996566, -0.3759844824053379 
0.46999999999996456, -0.3762889512080666 
0.47999999999996346, -0.37648109104483773 
0.48999999999996235, -0.3765725256710094 
0.49999999999996125, -0.3765781965983943 
0.5099999999999602, -0.3765119663959759 
0.519999999999959, -0.37638441536118006 
0.529999999999958, -0.37620212684230675 
0.5399999999999568, -0.3759677673668257 
0.5499999999999557, -0.37568059778820556 
0.5599999999999546, -0.3753373852560856 
0.5699999999999535, -0.37493390099748897 
0.5799999999999524, -0.3744671883595178 
0.5899999999999513, -0.37393844121005604 
0.5999999999999502, -0.3733556451879063 
0.6099999999999491, -0.3727345290207793 
0.619999999999948, -0.3720966509680686 
0.6299999999999469, -0.3714649247340803 
0.6399999999999458, -0.3708585627730049 
0.6499999999999447, -0.3702897456389501 
0.6599999999999436, -0.3697630645186799 
0.6699999999999425, -0.3692771819724311 
0.6799999999999414, -0.36882739427067157 
0.6899999999999403, -0.3684079719784491 
0.6999999999999392, -0.36801375897248645 
0.7099999999999381, -0.36764102968881807 
0.719999999999937, -0.3672878554263471 
0.7299999999999359, -0.3669542537564638 
0.7399999999999348, -0.36664230064411674 
0.7499999999999337, -0.3663562506935832 
0.7599999999999326, -0.36610255409716513 
0.7699999999999315, -0.36588945577001436 
0.7799999999999304, -0.3657256021509701 
0.7899999999999293, -0.3656168760634094 
0.7999999999999282, -0.3655609487265509 
0.8099999999999271, -0.36554057983858984 
0.819999999999926, -0.3655199241382932 
0.8299999999999249, -0.3654507341953198 
0.8399999999999238, -0.36529136914538496 
0.8499999999999227, -0.3650288586418969 
0.8599999999999216, -0.36468605829933903 
0.8699999999999205, -0.36430741958532015 
0.8799999999999194, -0.363936507319461 
0.8899999999999183, -0.36360169951593346 
0.8999999999999172, -0.3633143369323466 
0.9099999999999161, -0.3630739015262661 
0.919999999999915, -0.36287416238343095 
0.9299999999999139, -0.3627075154712876 
0.9399999999999128, -0.36256727503389713 
0.9499999999999117, -0.3624485855565651 
0.9599999999999106, -0.36234863765750436 
0.9699999999999095, -0.3622666321244774 
0.9799999999999084, -0.362203706438088 
0.9899999999999073, -0.36216286115135154 
0.9999999999999062, -0.36214877677210466 
1.0099999999999052, -0.36216728744934235 
1.019999999999904, -0.3622242217858233 
1.029999999999903, -0.36232343453455806 
1.039999999999902, -0.3624642317018763 
1.0499999999999008, -0.3626389950833606 
1.0599999999998997, -0.3628323164401355 
1.0699999999998986, -0.36302277562897073 
1.0799999999998975, -0.3631872802183053 
1.0899999999998964, -0.3633062239110417 
1.0999999999998953, -0.36336705065082514 
1.1099999999998942, -0.36336487322906275 
1.119999999999893, -0.36330060038705736 
1.129999999999892, -0.3631780331160432 
1.1399999999998909, -0.36300118894750333 
1.1499999999998898, -0.3627723819461229 
1.1599999999998887, -0.3624910260702856 
1.1699999999998876, -0.36215295225101196 
1.1799999999998865, -0.3617501431288071 
1.1899999999998854, -0.3612710667084939 
1.1999999999998843, -0.3607021236786379 
1.2099999999998832, -0.36003090338581606 
1.219999999999882, -0.35925153326525366 
1.229999999999881, -0.3583709678895385 
1.2399999999998799, -0.3574130558429053 
1.2499999999998788, -0.3564167077365638 
1.2599999999998777, -0.3554274103311072 
1.2699999999998766, -0.3544860185592705 
1.2799999999998755, -0.35362057851210993 
1.2899999999998744, -0.3528441700468773 
1.2999999999998733, -0.3521576917829178 
1.3099999999998722, -0.3515546565520809 
1.319999999999871, -0.3510256410796873 
1.32999999999987, -0.3505614085898901 
1.3399999999998689, -0.3501547236436539 
1.3499999999998678, -0.3498012810577872 
1.3599999999998666, -0.3495001902712952 
1.3699999999998655, -0.3492543243322155 
1.3799999999998644, -0.34907067770744227 
1.3899999999998633, -0.34896069961494797 
1.3999999999998622, -0.34894034262184975 
1.4099999999998611, -0.3490292391478395 
1.41999999999986, -0.34924800412355156 
1.429999999999859, -0.3496124093800244 
1.4399999999998578, -0.35012382221551924 
1.4499999999998567, -0.3507579805811058 
1.4599999999998556, -0.35145887381606844 
1.4699999999998545, -0.35214697697337516 
1.4799999999998534, -0.3527439211489139 
1.4899999999998523, -0.35320025102103353 
1.4999999999998512, -0.3535068817813812 
1.5099999999998501, -0.3536851841101588 
1.519999999999849, -0.35376809683901433 
1.529999999999848, -0.35378593797539126 
1.5399999999998468, -0.3537608967446341 
1.5499999999998457, -0.3537072687965541 
1.5599999999998446, -0.35363368352522706 
1.5699999999998435, -0.3535452833675732 
1.5799999999998424, -0.3534452777666336 
1.5899999999998413, -0.3533359503951436 
1.5999999999998402, -0.35321935249213443 
1.6099999999998391, -0.3530978698975781 
1.619999999999838, -0.3529747392318366 
1.629999999999837, -0.35285444427723983 
1.6399999999998358, -0.3527427741272156 
1.6499999999998347, -0.3526462474664426 
1.6599999999998336, -0.3525707205395928 
1.6699999999998325, -0.35251935982341903 
1.6799999999998314, -0.3524906527247616 
1.6899999999998303, -0.3524774371629926 
1.6999999999998292, -0.3524677146116271 
1.709999999999828, -0.35244719639747396 
1.719999999999827, -0.3524025468322088 
1.729999999999826, -0.35232387683540745 
1.7399999999998248, -0.352205570176631 
1.7499999999998237, -0.3520455145302723 
1.7599999999998226, -0.3518434636061716 
1.7699999999998215, -0.3515992698842529 
1.7799999999998204, -0.35131137517289496 
1.7899999999998193, -0.35097561107664654 
1.7999999999998182, -0.35058422527265276 
1.809999999999817, -0.3501251300776595 
1.819999999999816, -0.3495816539611049 
1.8299999999998149, -0.34893354336893706 
1.8399999999998138, -0.3481604217382046 
1.8499999999998127, -0.34724872290956543 
1.8599999999998116, -0.34620126458560563 
1.8699999999998105, -0.3450451079826278 
1.8799999999998094, -0.3438312125480362 
1.8899999999998083, -0.34262303359567337 
1.8999999999998072, -0.34147935236070504 
1.909999999999806, -0.3404409558162825 
1.919999999999805, -0.3395267324547829 
1.9299999999998039, -0.3387376918811637 
1.9399999999998028, -0.3380641123093156 
1.9499999999998017, -0.3374920416411618 
1.9599999999998006, -0.3370077026955985 
1.9699999999997995, -0.3365999237015266 
1.9799999999997984, -0.33626126508843635 
1.9899999999997973, -0.33598848720988206 
1.9999999999997962, -0.3357827924389264 
2.0099999999998173, -0.3356500547360489 
2.0199999999998384, -0.3356010477936765 
2.0299999999998595, -0.33565145773209526 
2.0399999999998806, -0.33582116044693894 
2.0499999999999017, -0.3361318478398732 
2.059999999999923, -0.33660177943113123 
2.069999999999944, -0.3372368089383984 
2.079999999999965, -0.33801892556872726 
2.089999999999986, -0.33889777001276494 
2.100000000000007, -0.3397940532192515 
2.1100000000000283, -0.3406197858197223 
2.1200000000000494, -0.3413068040652562 
2.1300000000000705, -0.3418252327112303 
2.1400000000000916, -0.34218153021762227 
2.1500000000001127, -0.34240290752502994 
2.160000000000134, -0.3425214254607944 
2.170000000000155, -0.34256486520305174 
2.180000000000176, -0.3425539778022313 
2.190000000000197, -0.34250308402152774 
2.2000000000002182, -0.3424216769687062 
2.2100000000002393, -0.34231596386670937 
2.2200000000002604, -0.342190092248278 
2.2300000000002815, -0.3420471325948663 
2.2400000000003026, -0.34188994949261914 
2.2500000000003237, -0.34172202182691364 
2.260000000000345, -0.3415481242762343 
2.270000000000366, -0.34137461114752987 
2.280000000000387, -0.341208962925091 
2.290000000000408, -0.34105841034331463 
2.3000000000004293, -0.3409278761089682 
2.3100000000004504, -0.34081797369503075 
2.3200000000004715, -0.34072402234051324 
2.3300000000004926, -0.3406367217014655 
2.3400000000005137, -0.34054434734316785 
2.3500000000005348, -0.3404355217541506 
2.360000000000556, -0.34030135308002074 
2.370000000000577, -0.340136206633874 
2.380000000000598, -0.33993716344153735 
2.390000000000619, -0.3397027266773999 
2.4000000000006403, -0.3394313500969087 
2.4100000000006614, -0.3391200939453173 
2.4200000000006825, -0.3387634526003399 
2.4300000000007036, -0.3383522931400822 
2.4400000000007247, -0.33787293292177945 
2.450000000000746, -0.33730669290509185 
2.460000000000767, -0.3366308060711401 
2.470000000000788, -0.3358221392801536 
2.480000000000809, -0.33486502373189564 
2.49000000000083, -0.333762288585025 
2.5000000000008513, -0.3325442919684519 
2.5100000000008724, -0.33126818372733263 
2.5200000000008935, -0.3300042744235059 
2.5300000000009146, -0.32881626648536433 
2.5400000000009357, -0.32774673254008635 
2.550000000000957, -0.3268137215860533 
2.560000000000978, -0.3260160535974545 
2.570000000000999, -0.3253415650050303 
2.58000000000102, -0.3247742021916032 
2.5900000000010412, -0.3242986122922847 
2.6000000000010624, -0.32390255013985275 
2.6100000000010835, -0.32357791341462006 
2.6200000000011046, -0.32332111796895735 
2.6300000000011257, -0.3231332673360325 
2.6400000000011468, -0.32302032695126887 
2.650000000001168, -0.32299329899302187 
2.660000000001189, -0.32306815666357036 
2.67000000000121, -0.3232649760831714 
2.680000000001231, -0.3236052983319414 
2.6900000000012523, -0.3241064725833456 
2.7000000000012734, -0.32477222708041953 
2.7100000000012945, -0.3255810597561128 
2.7200000000013156, -0.32647846746727227 
2.7300000000013367, -0.3273821326592076 
2.740000000001358, -0.3282039922314281 
2.750000000001379, -0.32887896960050167 
2.7600000000014, -0.3293816339296897 
2.770000000001421, -0.3297220879055438 
2.780000000001442, -0.32992948046199205 
2.7900000000014633, -0.33003642771988945 
2.8000000000014844, -0.3300705718760775 
2.8100000000015055, -0.33005232734034257 
2.8200000000015266, -0.3299957107474068 
2.8300000000015477, -0.329910018630726 
2.840000000001569, -0.3298013892921207 
2.85000000000159, -0.32967404287310564 
2.860000000001611, -0.3295312839137107 
2.870000000001632, -0.32937638886396076 
2.8800000000016532, -0.32921341373544505 
2.8900000000016743, -0.32904780051882543 
2.9000000000016954, -0.3288865007910592 
2.9100000000017165, -0.328737294223846 
2.9200000000017377, -0.32860718938622613 
2.9300000000017588, -0.3285002507557446 
2.94000000000178, -0.32841567117935766 
2.950000000001801, -0.3283470569980039 
2.960000000001822, -0.32828348873267565 
2.970000000001843, -0.32821206888082666 
2.9800000000018643, -0.32812086230761645 
2.9900000000018854, -0.3280009686133364 
3.0000000000019065, -0.3278470682212403 
3.0100000000019276, -0.3276566303302848 
3.0200000000019487, -0.32742843644011305 
3.03000000000197, -0.32716101285345406 
3.040000000001991, -0.32685125570899426 
3.050000000002012, -0.32649327542974727 
3.060000000002033, -0.3260774177710406 
3.070000000002054, -0.32558955936431044 
3.0800000000020753, -0.32501113268817317 
3.0900000000020964, -0.3243208577362781 
3.1000000000021175, -0.3234995032245145 
3.1100000000021386, -0.3225382791702972 
3.1200000000021597, -0.32144873029887033 
3.130000000002181, -0.3202682899007785 
3.140000000002202, -0.3190553506271091 
3.150000000002223, -0.31787406859521444 
3.160000000002244, -0.31677720209512183 
3.1700000000022652, -0.31579620558850874 
3.1800000000022863, -0.3149411935648344 
3.1900000000023074, -0.3142070926772821 
3.2000000000023285, -0.31358104762043487 
3.2100000000023496, -0.31304820967401586 
3.2200000000023707, -0.312595268179441 
3.230000000002392, -0.3122122205650281 
3.240000000002413, -0.31189311729727687 
3.250000000002434, -0.3116363653999489 
3.260000000002455, -0.3114449371987186 
3.2700000000024763, -0.3113266111655445 
3.2800000000024974, -0.3112941547202523 
3.2900000000025185, -0.31136508263590257 
3.3000000000025396, -0.3115602342132525 
3.3100000000025607, -0.3118999640443708 
3.3200000000025818, -0.31239663011742375 
3.330000000002603, -0.31304328342380733 
3.340000000002624, -0.31380219770143036 
3.350000000002645, -0.3146020951634885 
3.360000000002666, -0.31535322584587994 
3.3700000000026873, -0.315977667371929 
3.3800000000027084, -0.31643588959876234 
3.3900000000027295, -0.3167312482382433 
3.4000000000027506, -0.3168940834599125 
3.4100000000027717, -0.31696159484896946 
3.420000000002793, -0.3169653976118295 
3.430000000002814, -0.31692789527641996 
3.440000000002835, -0.3168634785409111 
3.450000000002856, -0.3167810309261546 
3.460000000002877, -0.31668613111175803 
3.4700000000028983, -0.3165826086909761 
3.4800000000029194, -0.3164735977691999 
3.4900000000029405, -0.3163623080319332 
3.5000000000029616, -0.31625265184078816 
3.5100000000029827, -0.3161497286106591 
3.520000000003004, -0.31606001143064694 
3.530000000003025, -0.31599096086550854 
3.540000000003046, -0.31594980824574675 
3.550000000003067, -0.3159415033919565 
3.5600000000030882, -0.31596629798482334 
3.5700000000031094, -0.3160179333504238 
3.5800000000031305, -0.3160835489540852 
3.5900000000031516, -0.3161458739140345 
3.6000000000031727, -0.3161870766165209 
3.6100000000031938, -0.31619259431412206 
3.620000000003215, -0.3161532788969334 
3.630000000003236, -0.3160653012334146 
3.640000000003257, -0.3159284593160572 
3.650000000003278, -0.3157439658917936 
3.6600000000032993, -0.31551248402164866 
3.6700000000033204, -0.31523267734740035 
3.6800000000033415, -0.3149002397649153 
3.6900000000033626, -0.3145073495912699 
3.7000000000033837, -0.314042692626642 
3.710000000003405, -0.3134925212822721 
3.720000000003426, -0.3128434735487905 
3.730000000003447, -0.3120876388510077 
3.740000000003468, -0.3112290781087183 
3.750000000003489, -0.31028884474174573 
3.7600000000035103, -0.30930442110053163 
3.7700000000035314, -0.30832187232697444 
3.7800000000035525, -0.3073840877433222 
3.7900000000035736, -0.3065213337372441 
3.8000000000035947, -0.3057480489316224 
3.810000000003616, -0.3050652871388549 
3.820000000003637, -0.30446572721337145 
3.830000000003658, -0.3039385232370182 
3.840000000003679, -0.30347275186619627 
3.8500000000037002, -0.30305938353610445 
3.8600000000037213, -0.30269221050904316 
3.8700000000037424, -0.3023682191201606 
3.8800000000037635, -0.3020877578368633 
3.8900000000037847, -0.3018546712809009 
3.9000000000038058, -0.3016763772806411 
3.910000000003827, -0.30156362749395776 
3.920000000003848, -0.30152936420066456 
3.930000000003869, -0.3015856940245445 
3.94000000000389, -0.30173785124569596 
3.9500000000039113, -0.30197499328353467 
3.9600000000039324, -0.30226098655376044 
3.9700000000039535, -0.3025334312833956 
3.9800000000039746, -0.3027199487225468 
3.9900000000039957, -0.3027688037492232 
4.000000000004016, -0.3026728712012551 
4.010000000003993, -0.30246693726543905 
4.02000000000397, -0.3022032327055411 
4.030000000003946, -0.3019271821049778 
4.040000000003923, -0.30166695582227093 
4.0500000000039, -0.30143491190333604 
4.0600000000038765, -0.3012334863724436 
4.070000000003853, -0.30106059139992275 
4.08000000000383, -0.3009130664116292 
4.090000000003807, -0.30078847336592346 
4.100000000003783, -0.3006859101490815 
4.11000000000376, -0.3006063681118167 
4.120000000003737, -0.30055292014221296 
4.130000000003713, -0.3005308167928845 
4.14000000000369, -0.3005473891225031 
4.150000000003667, -0.30061149856670455 
4.1600000000036434, -0.3007321742401329 
4.17000000000362, -0.3009161445555181 
4.180000000003597, -0.30116435702875743 
4.1900000000035735, -0.3014683663000898 
4.20000000000355, -0.3018083898510025 
4.210000000003527, -0.302155037207981 
4.220000000003504, -0.3024752490209687 
4.23000000000348, -0.3027402249279262 
4.240000000003457, -0.30293143078685364 
4.250000000003434, -0.303042079718045 
4.26000000000341, -0.30307454018740276 
4.270000000003387, -0.3030360515204995 
4.280000000003364, -0.3029348847024363 
4.2900000000033405, -0.3027778361183152 
4.300000000003317, -0.30256898400895904 
4.310000000003294, -0.3023093303215424 
4.320000000003271, -0.3019970642717741 
4.330000000003247, -0.3016284298044756 
4.340000000003224, -0.3011993604760768 
4.350000000003201, -0.30070798968486534 
4.360000000003177, -0.3001576924906885 
4.370000000003154, -0.29955953582878325 
4.380000000003131, -0.29893250434671204 
4.390000000003107, -0.29830051321897577 
4.400000000003084, -0.2976870653102097 
4.410000000003061, -0.29711001637681783 
4.4200000000030375, -0.2965787522203025 
4.430000000003014, -0.2960944151033724 
4.440000000002991, -0.2956522190422575 
4.450000000002968, -0.29524437125772235 
4.460000000002944, -0.2948624961881352 
4.470000000002921, -0.2944991154568658 
4.480000000002898, -0.29414824214347085 
4.490000000002874, -0.29380537125533324 
4.500000000002851, -0.2934671427730849 
4.510000000002828, -0.29313082765649373 
4.520000000002804, -0.2927936247830125 
4.530000000002781, -0.2924515959715753 
4.540000000002758, -0.29209793614566276 
4.5500000000027345, -0.2917202860954776 
4.560000000002711, -0.2912972620568987 
4.570000000002688, -0.290795822762166 
4.580000000002665, -0.29017357403966354 
4.590000000002641, -0.2893913300270433 
4.600000000002618, -0.28843588065403497 
4.610000000002595, -0.287339890934449 
4.620000000002571, -0.2861794677231471 
4.630000000002548, -0.2850461466168074 
4.640000000002525, -0.28401379319629544 
4.6500000000025015, -0.2831219928990031 
4.660000000002478, -0.28237882801820324 
4.670000000002455, -0.2817728402223159 
4.6800000000024315, -0.2812846476704486 
4.690000000002408, -0.2808945140343427 
4.700000000002385, -0.28058611112965914 
4.710000000002362, -0.2803479018088828 
4.720000000002338, -0.2801733883250268 
4.730000000002315, -0.28006098374227995 
4.740000000002292, -0.28001385824426134 
4.750000000002268, -0.280039825766899 
4.760000000002245, -0.2801510997866211 
4.770000000002222, -0.28036348937223876 
4.7800000000021985, -0.28069431517082255 
4.790000000002175, -0.2811581370624022 
4.800000000002152, -0.2817597202697805 
4.810000000002129, -0.28248520235454977 
4.820000000002105, -0.28329536182025195 
4.830000000002082, -0.28412728843564045 
4.840000000002059, -0.28490827333103136 
4.850000000002035, -0.2855769390411026 
4.860000000002012, -0.28609927032999555 
