t, s[1].omega / s[0].omega 
0, -0.9399975877618745 
0.009999999999999995, -0.9397223612346555 
0.019999999999999934, -0.9393819771991874 
0.029999999999999874, -0.9389828036815466 
0.04000000000000012, -0.9385352145148417 
0.050000000000000405, -0.9380533717487749 
0.06000000000000069, -0.9375549950398379 
0.07000000000000098, -0.9370610269269793 
0.08000000000000126, -0.9365948668520966 
0.09000000000000155, -0.9361807147389622 
0.10000000000000184, -0.9358407868432776 
0.11000000000000212, -0.9355917814179037 
0.12000000000000241, -0.935441646154396 
0.130000000000002, -0.9353878916422934 
0.1400000000000009, -0.9354181326928177 
0.1499999999999998, -0.9355125489779403 
0.1599999999999987, -0.9356472148089612 
0.1699999999999976, -0.9357971844245876 
0.1799999999999965, -0.9359387098794526 
0.1899999999999954, -0.9360505686604371 
0.1999999999999943, -0.9361148392741787 
0.2099999999999932, -0.9361175080657066 
0.2199999999999921, -0.9360491075363221 
0.229999999999991, -0.9359053058379532 
0.2399999999999899, -0.9356871660445263 
0.2499999999999888, -0.9354008591249665 
0.2599999999999877, -0.9350569429231612 
0.2699999999999866, -0.934669630495614 
0.2799999999999855, -0.9342564616378132 
0.2899999999999844, -0.9338384242515063 
0.2999999999999833, -0.9334400623302228 
0.3099999999999822, -0.9330887516280824 
0.3199999999999811, -0.9328124044687769 
0.32999999999998, -0.9326355299201554 
0.3399999999999789, -0.9325745963810682 
0.3499999999999778, -0.9326343508897553 
0.35999999999997667, -0.9328065121229688 
0.36999999999997557, -0.9330711539245098 
0.37999999999997447, -0.9333999389630533 
0.38999999999997337, -0.9337599205912266 
0.39999999999997227, -0.9341170044230326 
0.40999999999997117, -0.9344388592984851 
0.41999999999997006, -0.9346975070062674 
0.42999999999996896, -0.9348717149672057 
0.43999999999996786, -0.9349488331482767 
0.44999999999996676, -0.9349253942679567 
0.45999999999996566, -0.9348061033526973 
0.46999999999996456, -0.9346016401809253 
0.47999999999996346, -0.93432632223078 
0.48999999999996235, -0.9339966572363935 
0.49999999999996125, -0.9336312822870667 
0.5099999999999602, -0.9332521266940793 
0.519999999999959, -0.9328860524754194 
0.529999999999958, -0.9325657564353305 
0.5399999999999568, -0.932328527109371 
0.5499999999999557, -0.9322119250067432 
0.5599999999999546, -0.9322468028031772 
0.5699999999999535, -0.9324497393148382 
0.5799999999999524, -0.9328177065520225 
0.5899999999999513, -0.9333268985750625 
0.5999999999999502, -0.9339358129202454 
0.6099999999999491, -0.934591316640148 
0.619999999999948, -0.9352362152497259 
0.6299999999999469, -0.9358171943085404 
0.6399999999999458, -0.9362920143771994 
0.6499999999999447, -0.9366344405258731 
0.6599999999999436, -0.9368354653444317 
0.6699999999999425, -0.936900603271958 
0.6799999999999414, -0.9368447350298845 
0.6899999999999403, -0.9366868141544972 
0.6999999999999392, -0.9364462489602546 
0.7099999999999381, -0.9361416728829208 
0.719999999999937, -0.9357919724148676 
0.7299999999999359, -0.9354190495813253 
0.7399999999999348, -0.9350515168985598 
0.7499999999999337, -0.9347279886278533 
0.7599999999999326, -0.9344978813091422 
0.7699999999999315, -0.9344173544297018 
0.7799999999999304, -0.9345392407490969 
0.7899999999999293, -0.9348987842940645 
0.7999999999999282, -0.9355001535883705 
0.8099999999999271, -0.9363095389494231 
0.819999999999926, -0.937258297200116 
0.8299999999999249, -0.9382557091535542 
0.8399999999999238, -0.9392075767984618 
0.8499999999999227, -0.9400349387393254 
0.8599999999999216, -0.9406869696721202 
0.8699999999999205, -0.9411443559027577 
0.8799999999999194, -0.9414136959265667 
0.8899999999999183, -0.9415171843081456 
0.8999999999999172, -0.9414825499190371 
0.9099999999999161, -0.9413362572033422 
0.919999999999915, -0.9411005637155789 
0.9299999999999139, -0.9407937299112135 
0.9399999999999128, -0.9404325520965571 
0.9499999999999117, -0.9400367302753153 
0.9599999999999106, -0.9396346680652806 
0.9699999999999095, -0.9392696194429293 
0.9799999999999084, -0.9390035234813459 
0.9899999999999073, -0.9389141894250983 
0.9999999999999062, -0.939081767252999 
1.0099999999999052, -0.9395647948065067 
1.019999999999904, -0.9403737170254025 
1.029999999999903, -0.9414553028689996 
1.039999999999902, -0.9426988943702647 
1.0499999999999008, -0.9439646399614567 
1.0599999999998997, -0.945121529246071 
1.0699999999998986, -0.9460778487614023 
1.0799999999998975, -0.9467924402180795 
1.0899999999998964, -0.9472671574354612 
1.0999999999998953, -0.947529792551232 
1.1099999999998942, -0.9476174021011458 
1.119999999999893, -0.9475652006526072 
1.129999999999892, -0.9474014398779518 
1.1399999999998909, -0.9471465650771608 
1.1499999999998898, -0.9468149794257915 
1.1599999999998887, -0.9464186317670726 
1.1699999999998876, -0.9459724640372414 
1.1799999999998865, -0.9455019710744837 
1.1899999999998854, -0.945052202110755 
1.1999999999998843, -0.9446950133399146 
1.2099999999998832, -0.9445279044037121 
1.219999999999882, -0.9446565602082385 
1.229999999999881, -0.9451593274782523 
1.2399999999998799, -0.9460461652238216 
1.2499999999998788, -0.947236968319371 
1.2599999999998777, -0.9485787931450884 
1.2699999999998766, -0.9498964953418365 
1.2799999999998755, -0.9510476007855619 
1.2899999999998744, -0.9519525579860018 
1.2999999999998733, -0.9525931063860439 
1.3099999999998722, -0.9529915034058872 
1.319999999999871, -0.9531873076258268 
1.32999999999987, -0.9532210119154814 
1.3399999999998689, -0.9531258206709661 
1.3499999999998678, -0.95292517341791 
1.3599999999998666, -0.9526334099920527 
1.3699999999998655, -0.9522581160194704 
1.3799999999998644, -0.9518039254737192 
1.3899999999998633, -0.9512784440655203 
1.3999999999998622, -0.9507011615808466 
1.4099999999998611, -0.95011502373979 
1.41999999999986, -0.94959681921862 
1.429999999999859, -0.9492572362529023 
1.4399999999998578, -0.949219132429603 
1.4499999999998567, -0.9495716553267497 
1.4599999999998556, -0.9503197554728828 
1.4699999999998545, -0.9513648429975328 
1.4799999999998534, -0.9525373501573945 
1.4899999999998523, -0.9536619506730488 
1.4999999999998512, -0.9546127133064578 
1.5099999999998501, -0.9553316289668006 
1.519999999999849, -0.9558155336053169 
1.529999999999848, -0.9560914709433165 
1.5399999999998468, -0.9561957222260036 
1.5499999999998457, -0.956161362205431 
1.5599999999998446, -0.9560129024018045 
1.5699999999998435, -0.955765074479619 
1.5799999999998424, -0.9554236075409754 
1.5899999999998413, -0.9549871492355084 
1.5999999999998402, -0.9544506346561166 
1.6099999999998391, -0.9538112741604812 
1.619999999999838, -0.9530785544817537 
1.629999999999837, -0.9522882027784269 
1.6399999999998358, -0.9515156018238453 
1.6499999999998347, -0.9508773417810088 
1.6599999999998336, -0.9505070361471468 
1.6699999999998325, -0.9505040560915446 
1.6799999999998314, -0.9508806195852356 
1.6899999999998303, -0.9515469990458186 
1.6999999999998292, -0.9523500229514795 
1.709999999999828, -0.9531366231703691 
1.719999999999827, -0.9538001346000984 
1.729999999999826, -0.9542913731484546 
1.7399999999998248, -0.9546047584911037 
1.7499999999998237, -0.9547576417701226 
1.7599999999998226, -0.9547739196041709 
1.7699999999998215, -0.9546744903866022 
1.7799999999998204, -0.9544729049459271 
1.7899999999998193, -0.9541739058866978 
1.7999999999998182, -0.9537733544018495 
1.809999999999817, -0.953259139029918 
1.819999999999816, -0.9526137327127271 
1.8299999999998149, -0.9518200288210595 
1.8399999999998138, -0.9508724644853345 
1.8499999999998127, -0.9497938717455083 
1.8599999999998116, -0.9486531997034808 
1.8699999999998105, -0.9475710219650011 
1.8799999999998094, -0.9466966222966109 
1.8899999999998083, -0.9461547689731196 
1.8999999999998072, -0.9459893361873274 
1.909999999999806, -0.9461443444634664 
1.919999999999805, -0.9464964589943253 
1.9299999999998039, -0.9469116988390665 
1.9399999999998028, -0.947288179426048 
1.9499999999998017, -0.9475691525783541 
1.9599999999998006, -0.9477344814967585 
1.9699999999997995, -0.9477851574112753 
1.9799999999997984, -0.9477300174060446 
1.9899999999997973, -0.947577190061337 
1.9999999999997962, -0.947329376200283 
2.0099999999998173, -0.9469813686039213 
2.0199999999998384, -0.9465187490887216 
2.0299999999998595, -0.9459176390883807 
2.0399999999998806, -0.9451465018030433 
2.0499999999999017, -0.9441721756928659 
2.059999999999923, -0.9429728675387319 
2.069999999999944, -0.9415589243786077 
2.079999999999965, -0.939995638051777 
2.089999999999986, -0.9384125543498225 
2.100000000000007, -0.9369808619301546 
2.1100000000000283, -0.9358573328795808 
2.1200000000000494, -0.9351236174207942 
2.1300000000000705, -0.9347611481127938 
2.1400000000000916, -0.9346753992410737 
2.1500000000001127, -0.9347458903017148 
2.160000000000134, -0.9348681837462346 
2.170000000000155, -0.9349719012774873 
2.180000000000176, -0.9350188602077407 
2.190000000000197, -0.934992501454273 
2.2000000000002182, -0.9348868406416967 
2.2100000000002393, -0.9346981566098821 
2.2200000000002604, -0.9344195195068018 
2.2300000000002815, -0.9340372779595041 
2.2400000000003026, -0.9335288749019384 
2.2500000000003237, -0.9328622025008366 
2.260000000000345, -0.9319978526808738 
2.270000000000366, -0.9308966698686862 
2.280000000000387, -0.9295348308471528 
2.290000000000408, -0.9279253625934052 
2.3000000000004293, -0.9261378778760193 
2.3100000000004504, -0.9243017119274468 
2.3200000000004715, -0.9225808501728668 
2.3300000000004926, -0.9211259366670441 
2.3400000000005137, -0.9200272310880411 
2.3500000000005348, -0.9192940459631581 
2.360000000000556, -0.9188680825876743 
2.370000000000577, -0.9186570325821973 
2.380000000000598, -0.918567712631544 
2.390000000000619, -0.9185257445977548 
2.4000000000006403, -0.918480549499983 
2.4100000000006614, -0.9184011434342969 
2.4200000000006825, -0.9182687197662585 
2.4300000000007036, -0.9180695980580736 
2.4400000000007247, -0.9177898077168389 
2.450000000000746, -0.917411431377148 
2.460000000000767, -0.9169107367517458 
2.470000000000788, -0.9162586271308323 
2.480000000000809, -0.9154245130256046 
2.49000000000083, -0.9143846059728051 
2.5000000000008513, -0.9131340109195019 
2.5100000000008724, -0.9116988448205434 
2.5200000000008935, -0.9101419718644268 
2.5300000000009146, -0.908556986063142 
2.5400000000009357, -0.9070504503444633 
2.550000000000957, -0.9057184933724696 
2.560000000000978, -0.9046263882272376 
2.570000000000999, -0.903797869231121 
2.58000000000102, -0.9032166115863143 
2.5900000000010412, -0.9028375989212118 
2.6000000000010624, -0.9026027906133726 
2.6100000000010835, -0.9024550089016683 
2.6200000000011046, -0.902346293116555 
2.6300000000011257, -0.9022402909660359 
2.6400000000011468, -0.9021105120037433 
2.650000000001168, -0.901936787248099 
2.660000000001189, -0.90170172008765 
2.67000000000121, -0.9013881924038492 
2.680000000001231, -0.900978556493684 
2.6900000000012523, -0.9004559171752875 
2.7000000000012734, -0.8998075253354711 
2.7100000000012945, -0.8990294942119761 
2.7200000000013156, -0.8981310744592296 
2.7300000000013367, -0.8971364305711503 
2.740000000001358, -0.896082859916094 
2.750000000001379, -0.8950160877073625 
2.7600000000014, -0.8939842874936643 
2.770000000001421, -0.893032234889793 
2.780000000001442, -0.892196222876483 
2.7900000000014633, -0.8915000077508985 
2.8000000000014844, -0.89095228576088 
2.8100000000015055, -0.8905464475229413 
2.8200000000015266, -0.8902630093196262 
2.8300000000015477, -0.8900741680546036 
2.840000000001569, -0.8899490219195201 
2.85000000000159, -0.8898578472061869 
2.860000000001611, -0.8897745072557163 
2.870000000001632, -0.8896770491455795 
2.8800000000016532, -0.88954722405377 
2.8900000000016743, -0.8893698359749053 
2.9000000000016954, -0.889132589495428 
2.9100000000017165, -0.8888266523983226 
2.9200000000017377, -0.8884476469231947 
2.9300000000017588, -0.887996465354313 
2.94000000000178, -0.887479394229892 
2.950000000001801, -0.8869074851184344 
2.960000000001822, -0.8862955487489705 
2.970000000001843, -0.8856612173983895 
2.9800000000018643, -0.8850242445754464 
2.9900000000018854, -0.8844058779775084 
3.0000000000019065, -0.8838279639535328 
3.0100000000019276, -0.8833114741721746 
3.0200000000019487, -0.8828743857230312 
3.03000000000197, -0.8825292417451387 
3.040000000001991, -0.882281089693038 
3.050000000002012, -0.8821265693391039 
3.060000000002033, -0.8820545601646383 
3.070000000002054, -0.8820481672292818 
3.0800000000020753, -0.882087320028576 
3.0900000000020964, -0.8821511792190501 
3.1000000000021175, -0.8822198611479865 
3.1100000000021386, -0.8822754184769137 
3.1200000000021597, -0.8823022939324439 
3.130000000002181, -0.8822875288782821 
3.140000000002202, -0.8822209535912553 
3.150000000002223, -0.8820954993181006 
3.160000000002244, -0.8819076435299953 
3.1700000000022652, -0.8816578263566445 
3.1800000000022863, -0.8813505900472192 
3.1900000000023074, -0.8809943377551761 
3.2000000000023285, -0.8806008931230457 
3.2100000000023496, -0.8801851900598567 
3.2200000000023707, -0.8797652695508503 
3.230000000002392, -0.8793624006516764 
3.240000000002413, -0.8790008053697891 
3.250000000002434, -0.8787063741498583 
3.260000000002455, -0.8785040502952735 
3.2700000000024763, -0.878414192869234 
3.2800000000024974, -0.8784488778838535 
3.2900000000025185, -0.8786093098768619 
3.3000000000025396, -0.8788850825409943 
3.3100000000025607, -0.8792552378817133 
3.3200000000025818, -0.8796904919284879 
3.330000000002603, -0.8801559742001851 
3.340000000002624, -0.8806142490734288 
3.350000000002645, -0.8810287812707804 
3.360000000002666, -0.8813679003526159 
3.3700000000026873, -0.8816086458174006 
3.3800000000027084, -0.8817392215131967 
3.3900000000027295, -0.8817589816451715 
3.4000000000027506, -0.881676017744072 
3.4100000000027717, -0.8815036128896013 
3.420000000002793, -0.8812571536666891 
3.430000000002814, -0.8809525495899875 
3.440000000002835, -0.8806064514256713 
3.450000000002856, -0.8802380389448319 
3.460000000002877, -0.8798718337979128 
3.4700000000028983, -0.8795406313236068 
3.4800000000029194, -0.8792871265860127 
3.4900000000029405, -0.8791624000595455 
3.5000000000029616, -0.8792197332168031 
3.5100000000029827, -0.879503727732186 
3.520000000003004, -0.8800370743885564 
3.530000000003025, -0.880809300482901 
3.540000000003046, -0.8817721563880385 
3.550000000003067, -0.8828447021515157 
3.5600000000030882, -0.8839281203801506 
3.5700000000031094, -0.8849264564362173 
3.5800000000031305, -0.8857661972200386 
3.5900000000031516, -0.8864073437178799 
3.6000000000031727, -0.8868428098351149 
3.6100000000031938, -0.8870890065484772 
3.620000000003215, -0.8871737259884072 
3.630000000003236, -0.8871263277594215 
3.640000000003257, -0.8869721060529594 
3.650000000003278, -0.8867303792951262 
3.6600000000032993, -0.886415140559855 
3.6700000000033204, -0.886037452301648 
3.6800000000033415, -0.8856093812845834 
3.6900000000033626, -0.8851496255747062 
3.7000000000033837, -0.8846906837295373 
3.710000000003405, -0.8842860591488122 
3.720000000003426, -0.8840135356489244 
3.730000000003447, -0.8839682487420447 
3.740000000003468, -0.8842403205678628 
3.750000000003489, -0.8848796182385499 
3.7600000000035103, -0.8858629662156698 
3.7700000000035314, -0.8870861672856082 
3.7800000000035525, -0.8883923945262963 
3.7900000000035736, -0.8896236590076321 
3.8000000000035947, -0.8906656880923223 
3.810000000003616, -0.8914649947232036 
3.820000000003637, -0.8920192297030459 
3.830000000003658, -0.8923557859535054 
3.840000000003679, -0.8925121760451888 
3.8500000000037002, -0.8925236309095143 
3.8600000000037213, -0.8924173568991961 
3.8700000000037424, -0.8922109076893658 
3.8800000000037635, -0.8919124979028231 
3.8900000000037847, -0.8915221087093453 
3.9000000000038058, -0.8910331886811468 
3.910000000003827, -0.8904355217411568 
3.920000000003848, -0.8897203968355599 
3.930000000003869, -0.8888892589555315 
3.94000000000389, -0.8879657434513284 
3.9500000000039113, -0.8870074964399286 
3.9600000000039324, -0.8861092002915949 
3.9700000000039535, -0.8853864905246004 
3.9800000000039746, -0.8849389994481079 
3.9900000000039957, -0.8848087619425892 
4.000000000004016, -0.884961083815409 
4.010000000003993, -0.8853019187350606 
4.02000000000397, -0.885718442649237 
4.030000000003946, -0.8861160279086656 
4.040000000003923, -0.8864351281962678 
4.0500000000039, -0.8866492932256698 
4.0600000000038765, -0.8867541784029548 
4.070000000003853, -0.8867559659562778 
4.08000000000383, -0.8866628503407812 
4.090000000003807, -0.8864798161472216 
4.100000000003783, -0.8862056397783225 
4.11000000000376, -0.8858310484422727 
4.120000000003737, -0.8853375040562478 
4.130000000003713, -0.8846968406420463 
4.14000000000369, -0.8838729372981022 
4.150000000003667, -0.8828276036914643 
4.1600000000036434, -0.8815331110151353 
4.17000000000362, -0.8799916269565088 
4.180000000003597, -0.8782557931476532 
4.1900000000035735, -0.876437261346797 
4.20000000000355, -0.8746896534288643 
4.210000000003527, -0.8731661308853624 
4.220000000003504, -0.8719716017783398 
4.23000000000348, -0.8711358920381411 
4.240000000003457, -0.8706193863769188 
4.250000000003434, -0.8703414434985145 
4.26000000000341, -0.8702124699964676 
4.270000000003387, -0.8701557791646236 
4.280000000003364, -0.870115905485773 
4.2900000000033405, -0.8700571488459733 
4.300000000003317, -0.8699577201477531 
4.310000000003294, -0.8698032829594367 
4.320000000003271, -0.8695816104897458 
4.330000000003247, -0.8692787767149662 
4.340000000003224, -0.8688769077781713 
4.350000000003201, -0.8683537309899071 
4.360000000003177, -0.8676845690521425 
4.370000000003154, -0.8668475105035844 
4.380000000003131, -0.8658316221177685 
4.390000000003107, -0.8646460740246595 
4.400000000003084, -0.8633260515265302 
4.410000000003061, -0.8619314992389343 
4.4200000000030375, -0.8605379409553814 
4.430000000003014, -0.8592226169404688 
4.440000000002991, -0.8580508439587955 
4.450000000002968, -0.8570663013837662 
4.460000000002944, -0.8562867814659297 
4.470000000002921, -0.8557053415314829 
4.480000000002898, -0.8552957841103875 
4.490000000002874, -0.855020575207601 
4.500000000002851, -0.8548388536436363 
4.510000000002828, -0.8547125100750366 
4.520000000002804, -0.8546093749943511 
4.530000000002781, -0.8545037508383995 
4.540000000002758, -0.8543752688712628 
4.5500000000027345, -0.8542072095328799 
4.560000000002711, -0.853985213218035 
4.570000000002688, -0.8536969621868989 
4.580000000002665, -0.8533329989311905 
4.590000000002641, -0.8528883418308096 
4.600000000002618, -0.8523640870693147 
4.610000000002595, -0.8517680815371499 
4.620000000002571, -0.8511142414171375 
4.630000000002548, -0.8504208796473087 
4.640000000002525, -0.849708847969888 
4.6500000000025015, -0.8490000942219345 
4.660000000002478, -0.8483166956378476 
4.670000000002455, -0.8476800313747924 
4.6800000000024315, -0.8471097006899939 
4.690000000002408, -0.8466220123632887 
4.700000000002385, -0.8462282206547647 
4.710000000002362, -0.8459329960197124 
4.720000000002338, -0.8457337139160547 
4.730000000002315, -0.845620920243336 
4.740000000002292, -0.8455798809639233 
4.750000000002268, -0.84559271151141 
4.760000000002245, -0.8456404509679463 
4.770000000002222, -0.8457046291036432 
4.7800000000021985, -0.8457681971617825 
4.790000000002175, -0.8458159457829181 
4.800000000002152, -0.8458346301935504 
4.810000000002129, -0.8458130204036852 
4.820000000002105, -0.8457420723921019 
4.830000000002082, -0.8456153533827386 
4.840000000002059, -0.8454296730585679 
4.850000000002035, -0.8451856388168094 
4.860000000002012, -0.8448878067495438 
4.870000000001989, -0.8445443607586721 
4.880000000001965, -0.84416660596374 
4.890000000001942, -0.8437686855648993 
4.900000000001919, -0.8433677293173434 
4.9100000000018955, -0.8429842715763209 
4.920000000001872, -0.8426424433856792 
