t, s[1].omega / s[0].omega 
0, -0.4499977675330647 
0.009999999999999995, -0.4497742460228431 
0.019999999999999934, -0.4495492738188733 
0.029999999999999874, -0.4493204691376171 
0.04000000000000012, -0.4490847890462789 
0.050000000000000405, -0.44883940965917324 
0.06000000000000069, -0.4485823023625926 
0.07000000000000098, -0.4483123781338179 
0.08000000000000126, -0.44802930071318803 
0.09000000000000155, -0.44773315950000114 
0.10000000000000184, -0.44742415605075336 
0.11000000000000212, -0.44710237173503276 
0.12000000000000241, -0.44676760809896043 
0.130000000000002, -0.44641924376637415 
0.1400000000000009, -0.4460560304139255 
0.1499999999999998, -0.44567576524469776 
0.1599999999999987, -0.4452748716259828 
0.1699999999999976, -0.44484815784163534 
0.1799999999999965, -0.4443893898045075 
0.1899999999999954, -0.4438934929641441 
0.1999999999999943, -0.44336052216076133 
0.2099999999999932, -0.44279972313876526 
0.2199999999999921, -0.4422304732483493 
0.229999999999991, -0.4416781106983265 
0.2399999999999899, -0.44116650164301774 
0.2499999999999888, -0.4407117346688188 
0.2599999999999877, -0.4403199250728432 
0.2699999999999866, -0.43998884352987594 
0.2799999999999855, -0.4397112433218614 
0.2899999999999844, -0.43947800094117495 
0.2999999999999833, -0.43928024232229024 
0.3099999999999822, -0.4391104384180621 
0.3199999999999811, -0.438962780351379 
0.32999999999998, -0.4388331610033105 
0.3399999999999789, -0.43871899405574116 
0.3499999999999778, -0.43861899549378947 
0.35999999999997667, -0.4385329647186489 
0.36999999999997557, -0.43846153075557937 
0.37999999999997447, -0.4384057736423079 
0.38999999999997337, -0.43836661342994176 
0.39999999999997227, -0.4383439223792697 
0.40999999999997117, -0.43833549028265384 
0.41999999999997006, -0.43833621024998326 
0.42999999999996896, -0.43833798583844297 
0.43999999999996786, -0.4383306854598116 
0.44999999999996676, -0.4383039618469849 
0.45999999999996566, -0.4382492204874945 
0.46999999999996456, -0.43816090154064635 
0.47999999999996346, -0.43803665346230786 
0.48999999999996235, -0.4378765693381329 
0.49999999999996125, -0.43768198855778495 
0.5099999999999602, -0.4374543227587422 
0.519999999999959, -0.43719413281874697 
0.529999999999958, -0.4369004776143683 
0.5399999999999568, -0.43657046478692063 
0.5499999999999557, -0.43619895184540364 
0.5599999999999546, -0.4357784449956961 
0.5699999999999535, -0.43529940645902443 
0.5799999999999524, -0.4347513725315362 
0.5899999999999513, -0.4341253677199702 
0.5999999999999502, -0.43341777945714305 
0.6099999999999491, -0.43263485613434105 
0.619999999999948, -0.43179563605883936 
0.6299999999999469, -0.4309307535948396 
0.6399999999999458, -0.4300764655040104 
0.6499999999999447, -0.4292664064806023 
0.6599999999999436, -0.4285250663105499 
0.6699999999999425, -0.4278654131782381 
0.6799999999999414, -0.42729031502228015 
0.6899999999999403, -0.4267958455972525 
0.6999999999999392, -0.42637468775080406 
0.7099999999999381, -0.42601872179663197 
0.719999999999937, -0.42572063981983377 
0.7299999999999359, -0.4254747906311464 
0.7399999999999348, -0.42527753204455615 
0.7499999999999337, -0.4251273052043401 
0.7599999999999326, -0.425024548294562 
0.7699999999999315, -0.4249714712768752 
0.7799999999999304, -0.4249716256870671 
0.7899999999999293, -0.4250291286304376 
0.7999999999999282, -0.42514736531115194 
0.8099999999999271, -0.4253270669668671 
0.819999999999926, -0.42556393465145853 
0.8299999999999249, -0.42584648269507513 
0.8399999999999238, -0.42615529323335766 
0.8499999999999227, -0.42646485523220123 
0.8599999999999216, -0.42674810441269867 
0.8699999999999205, -0.42698206036503406 
0.8799999999999194, -0.42715200391224295 
0.8899999999999183, -0.42725251055553903 
0.8999999999999172, -0.4272856038736439 
0.9099999999999161, -0.42725759837330346 
0.919999999999915, -0.427176144763273 
0.9299999999999139, -0.4270481937514122 
0.9399999999999128, -0.4268788947038254 
0.9499999999999117, -0.4266711518992257 
0.9599999999999106, -0.4264255709733121 
0.9699999999999095, -0.4261406620829467 
0.9799999999999084, -0.4258133147102533 
0.9899999999999073, -0.4254396659902353 
0.9999999999999062, -0.42501649125835395 
1.0099999999999052, -0.42454307214248976 
1.019999999999904, -0.42402311567952733 
1.029999999999903, -0.4234658849645806 
1.039999999999902, -0.4228856786631545 
1.0499999999999008, -0.42229947562664566 
1.0599999999998997, -0.4217236150693567 
1.0699999999998986, -0.42117095243866043 
1.0799999999998975, -0.4206495296314138 
1.0899999999998964, -0.42016285355427413 
1.0999999999998953, -0.41971116978935513 
1.1099999999998942, -0.41929298973812346 
1.119999999999893, -0.4189063919144379 
1.129999999999892, -0.41854994409259794 
1.1399999999998909, -0.4182232997686892 
1.1499999999998898, -0.41792759005787666 
1.1599999999998887, -0.41766571130833086 
1.1699999999998876, -0.41744254690543714 
1.1799999999998865, -0.41726507930652856 
1.1899999999998854, -0.417142245621793 
1.1999999999998843, -0.4170842694478627 
1.2099999999998832, -0.417101102824691 
1.219999999999882, -0.4171996588087038 
1.229999999999881, -0.4173799309568462 
1.2399999999998799, -0.41763105778827736 
1.2499999999998788, -0.4179295822714425 
1.2599999999998777, -0.41824235100920476 
1.2699999999998766, -0.4185343243345624 
1.2799999999998755, -0.4187778447690068 
1.2899999999998744, -0.41895827927289203 
1.2999999999998733, -0.4190736672987251 
1.3099999999998722, -0.41913027754205706 
1.319999999999871, -0.4191376116864456 
1.32999999999987, -0.4191050298873071 
1.3399999999998689, -0.4190402453757501 
1.3499999999998678, -0.418949017295156 
1.3599999999998666, -0.41883536150472206 
1.3699999999998655, -0.41870189355615955 
1.3799999999998644, -0.41855016766413816 
1.3899999999998633, -0.41838100917294724 
1.3999999999998622, -0.41819488565760965 
1.4099999999998611, -0.41799235232074183 
1.41999999999986, -0.4177745492155626 
1.429999999999859, -0.4175436307387189 
1.4399999999998578, -0.41730291711891027 
1.4499999999998567, -0.4170565633346784 
1.4599999999998556, -0.4168087170720455 
1.4699999999998545, -0.41656243307485097 
1.4799999999998534, -0.4163188247455503 
1.4899999999998523, -0.41607686611057293 
1.4999999999998512, -0.4158339172009896 
1.5099999999998501, -0.41558666904060637 
1.519999999999849, -0.41533204835548104 
1.529999999999848, -0.4150677502314357 
1.5399999999998468, -0.41479232944483463 
1.5499999999998457, -0.4145049815630789 
1.5599999999998446, -0.4142051981475115 
1.5699999999998435, -0.41389242527325 
1.5799999999998424, -0.41356576856061017 
1.5899999999998413, -0.41322372036063015 
1.5999999999998402, -0.4128638506488646 
1.6099999999998391, -0.4124824108093469 
1.619999999999838, -0.4120738790559854 
1.629999999999837, -0.4116306843340521 
1.6399999999998358, -0.4111436991847618 
1.6499999999998347, -0.41060438086434276 
1.6599999999998336, -0.4100090515967997 
1.6699999999998325, -0.4093641460616217 
1.6799999999998314, -0.4086891052636978 
1.6899999999998303, -0.4080136337647122 
1.6999999999998292, -0.40736970748806633 
1.709999999999828, -0.4067828377373509 
1.719999999999827, -0.40626722126790515 
1.729999999999826, -0.4058259275008528 
1.7399999999998248, -0.40545419098543406 
1.7499999999998237, -0.40514330855437786 
1.7599999999998226, -0.4048836722203668 
1.7699999999998215, -0.40466658901375724 
1.7799999999998204, -0.40448512578529366 
1.7899999999998193, -0.4043343517924728 
1.7999999999998182, -0.40421127843299054 
1.809999999999817, -0.4041146737976473 
1.819999999999816, -0.4040448201807914 
1.8299999999998149, -0.4040031938228174 
1.8399999999998138, -0.4039919759548921 
1.8499999999998127, -0.4040132665453939 
1.8599999999998116, -0.4040679089257007 
1.8699999999998105, -0.40415400014868663 
1.8799999999998094, -0.4042654668838607 
1.8899999999998083, -0.40439139696949544 
1.8999999999998072, -0.40451683171723724 
1.909999999999806, -0.40462517921509855 
1.919999999999805, -0.40470147428466285 
1.9299999999998039, -0.4047350899995362 
1.9399999999998028, -0.4047208040606411 
1.9499999999998017, -0.404658107900561 
1.9599999999998006, -0.40454947818633535 
1.9699999999997995, -0.4043984914944484 
1.9799999999997984, -0.4042083239662103 
1.9899999999997973, -0.40398077093034546 
1.9999999999997962, -0.40371569529146134 
2.0099999999998173, -0.4034107819854988 
2.0199999999998384, -0.40306156354537875 
2.0299999999998595, -0.4026618210138956 
2.0399999999998806, -0.4022045945482948 
2.0499999999999017, -0.4016840562337629 
2.059999999999923, -0.40109823949366674 
2.069999999999944, -0.40045198504587276 
2.079999999999965, -0.39975871996351764 
2.089999999999986, -0.3990395949134933 
2.100000000000007, -0.39831967038048643 
2.1100000000000283, -0.3976226606645388 
2.1200000000000494, -0.39696662724843457 
2.1300000000000705, -0.39636218500345427 
2.1400000000000916, -0.3958131708637277 
2.1500000000001127, -0.39531868610632187 
2.160000000000134, -0.394875370558447 
2.170000000000155, -0.3944792501337756 
2.180000000000176, -0.39412698778923927 
2.190000000000197, -0.3938166402292123 
2.2000000000002182, -0.3935480972050588 
2.2100000000002393, -0.3933233458799265 
2.2200000000002604, -0.3931466252887036 
2.2300000000002815, -0.3930244412645384 
2.2400000000003026, -0.3929653018114068 
2.2500000000003237, -0.39297890985600104 
2.260000000000345, -0.3930744550884805 
2.270000000000366, -0.39325770219581757 
2.280000000000387, -0.3935269976346044 
2.290000000000408, -0.3938692784308392 
2.3000000000004293, -0.39425834749902766 
2.3100000000004504, -0.39465787752401327 
2.3200000000004715, -0.3950294701296734 
2.3300000000004926, -0.39534238143420863 
2.3400000000005137, -0.3955797577382735 
2.3500000000005348, -0.39573874046275054 
2.360000000000556, -0.39582607401057196 
2.370000000000577, -0.3958527464489868 
2.380000000000598, -0.3958300701513549 
2.390000000000619, -0.3957676995054979 
2.4000000000006403, -0.3956730328131682 
2.4100000000006614, -0.395551312458584 
2.4200000000006825, -0.3954059808463896 
2.4300000000007036, -0.3952391024096783 
2.4400000000007247, -0.39505181693318725 
2.450000000000746, -0.39484485293147975 
2.460000000000767, -0.39461912080129136 
2.470000000000788, -0.39437633242699394 
2.480000000000809, -0.394119479032917 
2.49000000000083, -0.3938529131699744 
2.5000000000008513, -0.3935818345222016 
2.5100000000008724, -0.3933112287515247 
2.5200000000008935, -0.39304464098989195 
2.5300000000009146, -0.3927833319998407 
2.5400000000009357, -0.3925261987013763 
2.550000000000957, -0.3922704365084178 
2.560000000000978, -0.392012561434542 
2.570000000000999, -0.3917493195243644 
2.58000000000102, -0.3914781883035568 
2.5900000000010412, -0.3911974400205543 
2.6000000000010624, -0.3909059109677654 
2.6100000000010835, -0.3906026508078019 
2.6200000000011046, -0.3902865625474892 
2.6300000000011257, -0.389956060880987 
2.6400000000011468, -0.3896087167600533 
2.650000000001168, -0.3892408351302331 
2.660000000001189, -0.38884694931926467 
2.67000000000121, -0.3884193539307721 
2.680000000001231, -0.3879480905804386 
2.6900000000012523, -0.38742218948342394 
2.7000000000012734, -0.38683305857975386 
2.7100000000012945, -0.3861799468646017 
2.7200000000013156, -0.3854751691041659 
2.7300000000013367, -0.3847450556204933 
2.740000000001358, -0.38402431224785527 
2.750000000001379, -0.3833462998050978 
2.7600000000014, -0.3827348045568224 
2.770000000001421, -0.38220101566443165 
2.780000000001442, -0.38174533849146275 
2.7900000000014633, -0.38136140999167983 
2.8000000000014844, -0.3810399887616171 
2.8100000000015055, -0.38077168407550294 
2.8200000000015266, -0.38054847244239115 
2.8300000000015477, -0.3803643477551671 
2.840000000001569, -0.38021547617029455 
2.85000000000159, -0.3801001147458921 
2.860000000001611, -0.3800184246646194 
2.870000000001632, -0.37997220032869305 
2.8800000000016532, -0.37996444481911007 
2.8900000000016743, -0.3799986526339738 
2.9000000000016954, -0.38007764105003167 
2.9100000000017165, -0.3802018655390149 
2.9200000000017377, -0.3803674318796241 
2.9300000000017588, -0.3805644567472887 
2.94000000000178, -0.38077678254198094 
2.950000000001801, -0.380983860048663 
2.960000000001822, -0.38116460807432995 
2.970000000001843, -0.3813017591385764 
2.9800000000018643, -0.38138474153967494 
2.9900000000018854, -0.3814100641093256 
3.0000000000019065, -0.38137963979113126 
3.0100000000019276, -0.38129829093690343 
3.0200000000019487, -0.3811715063494854 
3.03000000000197, -0.38100391128675304 
3.040000000001991, -0.3807984326752275 
3.050000000002012, -0.38055596425076965 
3.060000000002033, -0.38027537213551543 
3.070000000002054, -0.37995380410085716 
3.0800000000020753, -0.3795873894631471 
3.0900000000020964, -0.37917247009650434 
3.1000000000021175, -0.37870739588929364 
3.1100000000021386, -0.3781945787999523 
3.1200000000021597, -0.37764202557760557 
3.130000000002181, -0.3770633511807608 
3.140000000002202, -0.3764757681647785 
3.150000000002223, -0.37589665968946 
3.160000000002244, -0.3753402268221912 
3.1700000000022652, -0.37481556988040243 
3.1800000000022863, -0.37432660295406334 
3.1900000000023074, -0.37387327471604465 
3.2000000000023285, -0.37345324984930806 
3.2100000000023496, -0.37306341620243194 
3.2200000000023707, -0.3727009578176671 
3.230000000002392, -0.37236401225756305 
3.240000000002413, -0.3720520470694948 
3.250000000002434, -0.37176608900894237 
3.260000000002455, -0.37150888067571225 
3.2700000000024763, -0.37128495612136336 
3.2800000000024974, -0.3711005264423268 
3.2900000000025185, -0.37096294853950074 
3.3000000000025396, -0.37087944446191645 
3.3100000000025607, -0.3708547553514389 
3.3200000000025818, -0.3708877776666962 
3.330000000002603, -0.3709681576822961 
3.340000000002624, -0.3710750551039381 
3.350000000002645, -0.37118053520259864 
3.360000000002666, -0.3712576874192992 
3.3700000000026873, -0.37128942682081145 
3.3800000000027084, -0.37127238788211514 
3.3900000000027295, -0.37121406023336223 
3.4000000000027506, -0.3711264545649274 
3.4100000000027717, -0.3710207668811425 
3.420000000002793, -0.37090498136369787 
3.430000000002814, -0.37078381372826646 
3.440000000002835, -0.37065965194305694 
3.450000000002856, -0.3705335699414528 
3.460000000002877, -0.37040606923145336 
3.4700000000028983, -0.3702775394659773 
3.4800000000029194, -0.3701485397669429 
3.4900000000029405, -0.3700199982980156 
3.5000000000029616, -0.3698933790001885 
3.5100000000029827, -0.3697707978755368 
3.520000000003004, -0.3696549994084922 
3.530000000003025, -0.36954905476839006 
3.540000000003046, -0.3694556701237913 
3.550000000003067, -0.36937614370847416 
3.5600000000030882, -0.3693092620913271 
3.5700000000031094, -0.3692506400032618 
3.5800000000031305, -0.36919297838153137 
3.5900000000031516, -0.3691273397046656 
3.6000000000031727, -0.36904498959824833 
3.6100000000031938, -0.3689390215332173 
3.620000000003215, -0.36880513768662104 
3.630000000003236, -0.36864146053873637 
3.640000000003257, -0.3684476912252667 
3.650000000003278, -0.3682240560871546 
3.6600000000032993, -0.3679703492065522 
3.6700000000033204, -0.3676851829941644 
3.6800000000033415, -0.36736543808381367 
3.6900000000033626, -0.36700589308931153 
3.7000000000033837, -0.3665991009474616 
3.710000000003405, -0.36613573804862326 
3.720000000003426, -0.365605827750103 
3.730000000003447, -0.36500126646082376 
3.740000000003468, -0.36431966015154915 
3.750000000003489, -0.36356842342446827 
3.7600000000035103, -0.3627669066420758 
3.7700000000035314, -0.3619443729564759 
3.7800000000035525, -0.3611338168766315 
3.7900000000035736, -0.3603644461824219 
3.8000000000035947, -0.359656419696316 
3.810000000003616, -0.35901953452824437 
3.820000000003637, -0.3584550890502349 
3.830000000003658, -0.3579590682466885 
3.840000000003679, -0.3575251579094193 
3.8500000000037002, -0.3571469338217917 
3.8600000000037213, -0.3568191966657567 
3.8700000000037424, -0.356538686673617 
3.8800000000037635, -0.35630443478255397 
3.8900000000037847, -0.35611792745990956 
3.9000000000038058, -0.35598315512466056 
3.910000000003827, -0.35590649947377456 
3.920000000003848, -0.35589628968208065 
3.930000000003869, -0.3559617278303497 
3.94000000000389, -0.356110808059909 
3.9500000000039113, -0.3563469875400455 
3.9600000000039324, -0.3566649506704883 
3.9700000000039535, -0.35704693719117375 
3.9800000000039746, -0.3574622124527684 
3.9900000000039957, -0.357871873231549 
4.000000000004016, -0.35823824014452466 
4.010000000003993, -0.358534347872001 
4.02000000000397, -0.35874847587617265 
4.030000000003946, -0.3588823548989007 
4.040000000003923, -0.35894578767383356 
4.0500000000039, -0.3589513013995482 
4.0600000000038765, -0.358910712541581 
4.070000000003853, -0.35883364210973023 
4.08000000000383, -0.35872725984699616 
4.090000000003807, -0.35859658520322796 
4.100000000003783, -0.3584449644896466 
4.11000000000376, -0.35827458272984203 
4.120000000003737, -0.3580869950152623 
4.130000000003713, -0.3578836944317232 
4.14000000000369, -0.35766669313825034 
4.150000000003667, -0.35743900088844616 
4.1600000000036434, -0.3572047911976005 
4.17000000000362, -0.3569690417584965 
4.180000000003597, -0.35673660444286104 
4.1900000000035735, -0.3565109663346898 
4.20000000000355, -0.3562932153563921 
4.210000000003527, -0.35608170533653133 
4.220000000003504, -0.3558725874706262 
4.23000000000348, -0.3556609384492175 
4.240000000003457, -0.35544195627217035 
4.250000000003434, -0.35521175749355194 
4.26000000000341, -0.35496759575627834 
4.270000000003387, -0.35470760277222896 
4.280000000003364, -0.35443027430267976 
4.2900000000033405, -0.35413388867260875 
4.300000000003317, -0.3538159461574518 
4.310000000003294, -0.35347263675113344 
4.320000000003271, -0.3530983216286377 
4.330000000003247, -0.3526850701730698 
4.340000000003224, -0.35222245411705905 
4.350000000003201, -0.35169807158280036 
4.360000000003177, -0.35109954449166486 
4.370000000003154, -0.3504186118525389 
4.380000000003131, -0.349656840108578 
4.390000000003107, -0.34883042184616725 
4.400000000003084, -0.3479702822280163 
4.410000000003061, -0.34711568602980686 
4.4200000000030375, -0.34630409959192987 
4.430000000003014, -0.34556276428729726 
4.440000000002991, -0.3449055557367129 
4.450000000002968, -0.34433476169872784 
4.460000000002944, -0.34384518655266305 
4.470000000002921, -0.34342823617993423 
4.480000000002898, -0.3430748876681153 
4.490000000002874, -0.3427774415356447 
4.500000000002851, -0.34253038009327236 
4.510000000002828, -0.3423307015587641 
4.520000000002804, -0.34217799383962577 
4.530000000002781, -0.3420743777575896 
4.540000000002758, -0.34202432336123095 
4.5500000000027345, -0.3420342229306169 
4.560000000002711, -0.34211148968395866 
4.570000000002688, -0.342262878362663 
4.580000000002665, -0.34249180053445527 
4.590000000002641, -0.3427948096224712 
4.600000000002618, -0.3431582611169957 
4.610000000002595, -0.3435570894270777 
4.620000000002571, -0.3439576787614311 
4.630000000002548, -0.34432494446617185 
4.640000000002525, -0.3446307317460491 
4.6500000000025015, -0.34485928422484646 
4.660000000002478, -0.3450075605729636 
4.670000000002455, -0.34508160478247274 
4.6800000000024315, -0.3450918217854384 
4.690000000002408, -0.3450492717134475 
4.700000000002385, -0.3449635917186643 
4.710000000002362, -0.3448422135447857 
4.720000000002338, -0.3446903327501117 
4.730000000002315, -0.344511234835883 
4.740000000002292, -0.3443067902165706 
4.750000000002268, -0.3440780713137489 
4.760000000002245, -0.34382609447868384 
4.770000000002222, -0.34355264455722223 
4.7800000000021985, -0.3432610159407883 
4.790000000002175, -0.3429563698371412 
4.800000000002152, -0.34264539908795394 
4.810000000002129, -0.34233522400846755 
4.820000000002105, -0.34203184964607697 
4.830000000002082, -0.3417388196249026 
4.840000000002059, -0.341456643401045 
4.850000000002035, -0.3411831711361894 
4.860000000002012, -0.34091462681989365 
