t, s[1].omega / s[0].omega 
0, -2.324996411369576 
0.009999999999999995, -2.3245508751931685 
0.019999999999999934, -2.323935288679781 
0.029999999999999874, -2.3231752364322125 
0.04000000000000012, -2.3223772213513394 
0.050000000000000405, -2.321743689658986 
0.06000000000000069, -2.3213999859976493 
0.07000000000000098, -2.3212334797992034 
0.08000000000000126, -2.3210598622437493 
0.09000000000000155, -2.3207923155234407 
0.10000000000000184, -2.3204221364783733 
0.11000000000000212, -2.3199771108860197 
0.12000000000000241, -2.3195242331357213 
0.130000000000002, -2.3191602933578412 
0.1400000000000009, -2.318932612667893 
0.1499999999999998, -2.3187875154187227 
0.1599999999999987, -2.3186311876673495 
0.1699999999999976, -2.3183917245840955 
0.1799999999999965, -2.3180228847982702 
0.1899999999999954, -2.3174847535486047 
0.1999999999999943, -2.3167384877266213 
0.2099999999999932, -2.315794516663996 
0.2199999999999921, -2.314836712071769 
0.229999999999991, -2.31422882450616 
0.2399999999999899, -2.314108312926664 
0.2499999999999888, -2.3141881622448106 
0.2599999999999877, -2.314182239307371 
0.2699999999999866, -2.314011753469528 
0.2799999999999855, -2.313699235095538 
0.2899999999999844, -2.3132881570256902 
0.2999999999999833, -2.312833172560514 
0.3099999999999822, -2.3124010093659773 
0.3199999999999811, -2.3120432184175033 
0.32999999999998, -2.3117626712416444 
0.3399999999999789, -2.3115127847499504 
0.3499999999999778, -2.3112278287960835 
0.35999999999997667, -2.3108510455455606 
0.36999999999997557, -2.3103358283798867 
0.37999999999997447, -2.309646785825948 
0.38999999999997337, -2.308819883597486 
0.39999999999997227, -2.3080906947944433 
0.40999999999997117, -2.3078129191903125 
0.41999999999997006, -2.3079894555570024 
0.42999999999996896, -2.3082544601745747 
0.43999999999996786, -2.3083496996329886 
0.44999999999996676, -2.3082305468764455 
0.45999999999996566, -2.307933320337464 
0.46999999999996456, -2.307501636790595 
0.47999999999996346, -2.30698063718295 
0.48999999999996235, -2.306432882525894 
0.49999999999996125, -2.3059408250736833 
0.5099999999999602, -2.3055659302146663 
0.519999999999959, -2.3052881362263355 
0.529999999999958, -2.305023262528773 
0.5399999999999568, -2.3046972862816277 
0.5499999999999557, -2.3042711371332247 
0.5599999999999546, -2.303735501297616 
0.5699999999999535, -2.303143188133679 
0.5799999999999524, -2.3026655384344155 
0.5899999999999513, -2.3024942672790445 
0.5999999999999502, -2.3025869082482275 
0.6099999999999491, -2.302713987263693 
0.619999999999948, -2.3027122400807576 
0.6299999999999469, -2.3025348519276267 
0.6399999999999458, -2.302184106952673 
0.6499999999999447, -2.3016695272973577 
0.6599999999999436, -2.3010088231961587 
0.6699999999999425, -2.300263104943478 
0.6799999999999414, -2.2995757307799023 
0.6899999999999403, -2.299107205995738 
0.6999999999999392, -2.29885818096728 
0.7099999999999381, -2.298676504683201 
0.719999999999937, -2.298438216615821 
0.7299999999999359, -2.2981029176033916 
0.7399999999999348, -2.2976771342097635 
0.7499999999999337, -2.2972051123563215 
0.7599999999999326, -2.2967824415995226 
0.7699999999999315, -2.296507563382544 
0.7799999999999304, -2.296375479922229 
0.7899999999999293, -2.296284579173024 
0.7999999999999282, -2.296135779601168 
0.8099999999999271, -2.295871285313669 
0.819999999999926, -2.2954564301107645 
0.8299999999999249, -2.294858897178416 
0.8399999999999238, -2.2940561461674998 
0.8499999999999227, -2.2931012207410384 
0.8599999999999216, -2.292225453007875 
0.8699999999999205, -2.2917370200622686 
0.8799999999999194, -2.2916387600775474 
0.8899999999999183, -2.2916427343202255 
0.8999999999999172, -2.2915456924406294 
0.9099999999999161, -2.291307171717369 
0.919999999999915, -2.290951904619006 
0.9299999999999139, -2.290522966515892 
0.9399999999999128, -2.2900821951238424 
0.9499999999999117, -2.2896985202155546 
0.9599999999999106, -2.2894040427488034 
0.9699999999999095, -2.28917153382567 
0.9799999999999084, -2.288939102764851 
0.9899999999999073, -2.2886442038140418 
0.9999999999999062, -2.288236059343003 
1.0099999999999052, -2.2876678676350926 
1.019999999999904, -2.2869032723866143 
1.029999999999903, -2.2859918284110776 
1.039999999999902, -2.285202767163705 
1.0499999999999008, -2.284900314853321 
1.0599999999998997, -2.2850531457989107 
1.0699999999998986, -2.2852810441202625 
1.0799999999998975, -2.2853397910915527 
1.0899999999998964, -2.2851958748753 
1.0999999999998953, -2.284889454852542 
1.1099999999998942, -2.284467094859866 
1.119999999999893, -2.283978639437091 
1.129999999999892, -2.283486945055501 
1.1399999999998909, -2.2830581176910885 
1.1499999999998898, -2.282725164112784 
1.1599999999998887, -2.282456411933297 
1.1699999999998876, -2.2821795226176738 
1.1799999999998865, -2.2818314582771735 
1.1899999999998854, -2.2813715556004697 
1.1999999999998843, -2.280780753924475 
1.2099999999998832, -2.2801061639951374 
1.219999999999882, -2.279545174743776 
1.229999999999881, -2.279354774588072 
1.2399999999998799, -2.279514411286558 
1.2499999999998788, -2.2797384392975237 
1.2599999999998777, -2.2798164352819574 
1.2699999999998766, -2.2796972462171263 
1.2799999999998755, -2.2793981687230223 
1.2899999999998744, -2.278946253777373 
1.2999999999998733, -2.278371862926414 
1.3099999999998722, -2.2777305951468305 
1.319999999999871, -2.277125637274439 
1.32999999999987, -2.276670902742988 
1.3399999999998689, -2.2763814011256036 
1.3499999999998678, -2.2761556749952407 
1.3599999999998666, -2.2758900260441304 
1.3699999999998655, -2.2755366159558683 
1.3799999999998644, -2.2750878968170256 
1.3899999999998633, -2.274577323818364 
1.3999999999998622, -2.274111048802791 
1.4099999999998611, -2.2738337671900846 
1.41999999999986, -2.273771512920197 
1.429999999999859, -2.2737909219762993 
1.4399999999998578, -2.273749172114668 
1.4499999999998567, -2.2735753138063464 
1.4599999999998556, -2.273244953924891 
1.4699999999998545, -2.2727452243558135 
1.4799999999998534, -2.2720677479978773 
1.4899999999998523, -2.271240611131295 
1.4999999999998512, -2.2703963168993857 
1.5099999999998501, -2.269769032342947 
1.519999999999849, -2.2694726320262086 
1.529999999999848, -2.269355673508047 
1.5399999999998468, -2.2692184235901776 
1.5499999999998457, -2.2689775652962454 
1.5599999999998446, -2.2686299659159177 
1.5699999999998435, -2.268204411377787 
1.5799999999998424, -2.2677599255612044 
1.5899999999998413, -2.2673815938001844 
1.5999999999998402, -2.2671220179655496 
1.6099999999998391, -2.266950045303755 
1.619999999999838, -2.2667866693511938 
1.629999999999837, -2.266560618019849 
1.6399999999998358, -2.2662221918782017 
1.6499999999998347, -2.265730281298473 
1.6599999999998336, -2.26504311638889 
1.6699999999998325, -2.264148052153769 
1.6799999999998314, -2.2631659694470487 
1.6899999999998303, -2.2624269950587657 
1.6999999999998292, -2.262187008151409 
1.709999999999828, -2.262267901626328 
1.719999999999827, -2.2623376317588617 
1.729999999999826, -2.2622504017765044 
1.7399999999998248, -2.2620055889805775 
1.7499999999998237, -2.261641847387801 
1.7599999999998226, -2.2612061328206723 
1.7699999999998215, -2.26075799834147 
1.7799999999998204, -2.260359766509008 
1.7899999999998193, -2.2600431437801434 
1.7999999999998182, -2.259788521769189 
1.809999999999817, -2.25953880284347 
1.819999999999816, -2.2592320161619233 
1.8299999999998149, -2.258817984022267 
1.8399999999998138, -2.2582533683039663 
1.8499999999998127, -2.2575135668186617 
1.8599999999998116, -2.25667396204478 
1.8699999999998105, -2.2560184230771956 
1.8799999999998094, -2.2558546498080365 
1.8899999999998083, -2.256081416536806 
1.8999999999998072, -2.2563324484068814 
1.909999999999806, -2.256399396863517 
1.919999999999805, -2.2562603037715014 
1.9299999999998039, -2.2559544681800676 
1.9399999999998028, -2.255525100673474 
1.9499999999998017, -2.255018050538033 
1.9599999999998006, -2.2544948646731777 
1.9699999999997995, -2.2540299182848367 
1.9799999999997984, -2.2536725227932797 
1.9899999999997973, -2.2534003292415647 
1.9999999999997962, -2.2531372047751153 
2.0099999999998173, -2.2528143271947143 
2.0199999999998384, -2.252391200390933 
2.0299999999998595, -2.25185100893058 
2.0399999999998806, -2.251229831374567 
2.0499999999999017, -2.250685259577716 
2.059999999999923, -2.250446594422484 
2.069999999999944, -2.250540921799717 
2.079999999999965, -2.250737861000281 
2.089999999999986, -2.2508265600652106 
2.100000000000007, -2.2507345691104 
2.1100000000000283, -2.2504645268740586 
2.1200000000000494, -2.2500352322287958 
2.1300000000000705, -2.2494683691834316 
2.1400000000000916, -2.2488066882841182 
2.1500000000001127, -2.2481445040473274 
2.160000000000134, -2.247615630323561 
2.170000000000155, -2.2472830955536747 
2.180000000000176, -2.2470654038864644 
2.190000000000197, -2.2468384850275815 
2.2000000000002182, -2.2465340561888896 
2.2100000000002393, -2.246134853097197 
2.2200000000002604, -2.2456575782952335 
2.2300000000002815, -2.2451724295209092 
2.2400000000003026, -2.244808698530257 
2.2500000000003237, -2.244650863256068 
2.260000000000345, -2.2446312286700576 
2.270000000000366, -2.244609390038307 
2.280000000000387, -2.2444887125504724 
2.290000000000408, -2.244227650771113 
2.3000000000004293, -2.2438071120738927 
2.3100000000004504, -2.243211410866894 
2.3200000000004715, -2.2424402460641977 
2.3300000000004926, -2.24156309749924 
2.3400000000005137, -2.240778106139436 
2.3500000000005348, -2.2403060989654944 
2.360000000000556, -2.2401317102748743 
2.370000000000577, -2.2400406765842735 
2.380000000000598, -2.239877133999399 
2.390000000000619, -2.239601093612664 
2.4000000000006403, -2.2392260399432655 
2.4100000000006614, -2.2387902744239394 
2.4200000000006825, -2.238362402926401 
2.4300000000007036, -2.2380222136554084 
2.4400000000007247, -2.2377963599466604 
2.450000000000746, -2.237634838511383 
2.460000000000767, -2.237460011225604 
2.470000000000788, -2.2372087944628616 
2.480000000000809, -2.236836247042908 
2.49000000000083, -2.236301735929536 
2.5000000000008513, -2.2355662112429355 
2.5100000000008724, -2.2346362409744893 
2.5200000000008935, -2.2336760602966605 
2.5300000000009146, -2.233029869367081 
2.5400000000009357, -2.2328748297345147 
2.550000000000957, -2.2329727656180407 
2.560000000000978, -2.2330210657263514 
2.570000000000999, -2.2329095918239856 
2.58000000000102, -2.2326481926005206 
2.5900000000010412, -2.2322758863389804 
2.6000000000010624, -2.231839825996235 
2.6100000000010835, -2.2314001594498993 
2.6200000000011046, -2.231016751021432 
2.6300000000011257, -2.2307152614050465 
2.6400000000011468, -2.230470866119357 
2.650000000001168, -2.230225752045515 
2.660000000001189, -2.2299200882844357 
2.67000000000121, -2.2295052612758006 
2.680000000001231, -2.228937966170533 
2.6900000000012523, -2.2281913072559605 
2.7000000000012734, -2.227331988611415 
2.7100000000012945, -2.2266312276751017 
2.7200000000013156, -2.226410717014762 
2.7300000000013367, -2.2266093984426063 
2.740000000001358, -2.2268675400385867 
2.750000000001379, -2.226956289132591 
2.7600000000014, -2.226840884449869 
2.770000000001421, -2.226558197762969 
2.780000000001442, -2.2261521223687 
2.7900000000014633, -2.2256679293089325 
2.8000000000014844, -2.225163363355755 
2.8100000000015055, -2.22470658097693 
2.8200000000015266, -2.224345885482795 
2.8300000000015477, -2.224069376602153 
2.840000000001569, -2.223811109801715 
2.85000000000159, -2.2235025121649152 
2.860000000001611, -2.223098155301966 
2.870000000001632, -2.222571592172644 
2.8800000000016532, -2.2219337178495935 
2.8900000000016743, -2.2213039516270663 
2.9000000000016954, -2.220930582432662 
2.9100000000017165, -2.220951281713229 
2.9200000000017377, -2.221184825961852 
2.9300000000017588, -2.221364549490998 
2.94000000000178, -2.2213664833866336 
2.950000000001801, -2.221180341004326 
2.960000000001822, -2.2208300615837375 
2.970000000001843, -2.2203424028899965 
2.9800000000018643, -2.2197526736879936 
2.9900000000018854, -2.219127128965399 
3.0000000000019065, -2.2185711052076824 
3.0100000000019276, -2.2181721705987885 
3.0200000000019487, -2.2179106977272873 
3.03000000000197, -2.217683632586613 
3.040000000001991, -2.2174048973842 
3.050000000002012, -2.217036644406156 
3.060000000002033, -2.216573654386081 
3.070000000002054, -2.2160523508776855 
3.0800000000020753, -2.21558628192665 
3.0900000000020964, -2.215327833965216 
3.1000000000021175, -2.215303437828753 
3.1100000000021386, -2.215370785161835 
3.1200000000021597, -2.215376574123367 
3.130000000002181, -2.2152462735943454 
3.140000000002202, -2.2149591633556325 
3.150000000002223, -2.2145103368780124 
3.160000000002244, -2.213899137629416 
3.1700000000022652, -2.2131486173332306 
3.1800000000022863, -2.212352946338144 
3.1900000000023074, -2.2116939306665646 
3.2000000000023285, -2.2113082052932516 
3.2100000000023496, -2.211126605864758 
3.2200000000023707, -2.2109757775753183 
3.230000000002392, -2.210750394593769 
3.240000000002413, -2.210425491606596 
3.250000000002434, -2.210014076940051 
3.260000000002455, -2.209560055669274 
3.2700000000024763, -2.209148926790789 
3.2800000000024974, -2.2088685708410565 
3.2900000000025185, -2.2087232379122494 
3.3000000000025396, -2.2086300048400194 
3.3100000000025607, -2.208496867211573 
3.3200000000025818, -2.208264152573373 
3.330000000002603, -2.207895809415672 
3.340000000002624, -2.207360982086891 
3.350000000002645, -2.2066326482035032 
3.360000000002666, -2.205727069540038 
3.3700000000026873, -2.204791912431228 
3.3800000000027084, -2.2041161734618973 
3.3900000000027295, -2.2038583822659996 
3.4000000000027506, -2.2038405871350273 
3.4100000000027717, -2.203808025141506 
3.420000000002793, -2.2036521651129113 
3.430000000002814, -2.2033698213778568 
3.440000000002835, -2.2029906590191053 
3.450000000002856, -2.2025601987631753 
3.460000000002877, -2.202143931254341 
3.4700000000028983, -2.2018047655956563 
3.4800000000029194, -2.201557373789045 
3.4900000000029405, -2.2013600137973297 
3.5000000000029616, -2.2011484031980246 
3.5100000000029827, -2.2008652044801518 
3.520000000003004, -2.200464836784336 
3.530000000003025, -2.1999037480946 
3.540000000003046, -2.199144118639137 
3.550000000003067, -2.198211450551764 
3.5600000000030882, -2.1973126650722703 
3.5700000000031094, -2.1968033770682953 
3.5800000000031305, -2.196788070050581 
3.5900000000031516, -2.19697155438682 
3.6000000000031727, -2.197062869902839 
3.6100000000031938, -2.1969743985035084 
3.620000000003215, -2.1967264168955927 
3.630000000003236, -2.196361044120604 
3.640000000003257, -2.195924088922842 
3.650000000003278, -2.19547150721874 
3.6600000000032993, -2.19506288983614 
3.6700000000033204, -2.194733823456285 
3.6800000000033415, -2.1944726814523277 
3.6900000000033626, -2.1942271030575737 
3.7000000000033837, -2.193935772383342 
3.710000000003405, -2.1935491711601247 
3.720000000003426, -2.1930264999982767 
3.730000000003447, -2.1923406857070327 
3.740000000003468, -2.1915376575390035 
3.750000000003489, -2.190840582392668 
3.7600000000035103, -2.1905658807486406 
3.7700000000035314, -2.190732506230277 
3.7800000000035525, -2.1910212723742095 
3.7900000000035736, -2.19117141894053 
3.8000000000035947, -2.19111635129896 
3.810000000003616, -2.1908819811916116 
3.820000000003637, -2.1905096837441835 
3.830000000003658, -2.1900403614450683 
3.840000000003679, -2.1895244179555458 
3.8500000000037002, -2.189028656259109 
3.8600000000037213, -2.1886181535885285 
3.8700000000037424, -2.1883115284696815 
3.8800000000037635, -2.188059592064833 
3.8900000000037847, -2.1877876334324022 
3.9000000000038058, -2.1874403425123408 
3.910000000003827, -2.186985117172636 
3.920000000003848, -2.1864117001525103 
3.930000000003869, -2.185774183246758 
3.94000000000389, -2.185255514087929 
3.9500000000039113, -2.1850781299722692 
3.9600000000039324, -2.185228337300532 
3.9700000000039535, -2.1854590209597284 
3.9800000000039746, -2.185568383257871 
3.9900000000039957, -2.185493499312818 
4.000000000004016, -2.1852430081032272 
4.010000000003993, -2.1848409714826085 
4.02000000000397, -2.1843137721668606 
4.030000000003946, -2.183703442854992 
4.040000000003923, -2.1830887542414565 
4.0500000000039, -2.182576939175216 
4.0600000000038765, -2.182228141359761 
4.070000000003853, -2.1819905548494587 
4.08000000000383, -2.1817600098273893 
4.090000000003807, -2.1814653797586963 
4.100000000003783, -2.1810784786753636 
4.11000000000376, -2.1806000013770546 
4.120000000003737, -2.180076966195394 
4.130000000003713, -2.179635580444203 
4.14000000000369, -2.1794214651129677 
4.150000000003667, -2.179434439175469 
4.1600000000036434, -2.179520059990716 
4.17000000000362, -2.179531585183429 
4.180000000003597, -2.179402606920788 
4.1900000000035735, -2.179117072862804 
4.20000000000355, -2.1786734549063227 
4.210000000003527, -2.178074957927925 
4.220000000003504, -2.177347558331697 
4.23000000000348, -2.1765805393764146 
4.240000000003457, -2.175937988639837 
4.250000000003434, -2.1755446643007117 
4.26000000000341, -2.1753454626577127 
4.270000000003387, -2.175184311357569 
4.280000000003364, -2.174958091127918 
4.2900000000033405, -2.174636984633463 
4.300000000003317, -2.174228397201877 
4.310000000003294, -2.1737701545692656 
4.320000000003271, -2.1733456104482163 
4.330000000003247, -2.173054923585796 
4.340000000003224, -2.1729212819069055 
4.350000000003201, -2.1728635962024976 
4.360000000003177, -2.17277809468236 
4.370000000003154, -2.1725969114867656 
4.380000000003131, -2.1722843035879853 
4.390000000003107, -2.171815545340246 
4.400000000003084, -2.1711684661053536 
4.410000000003061, -2.170344398855513 
4.4200000000030375, -2.1694308831202305 
4.430000000003014, -2.1686505530067266 
4.440000000002991, -2.168219245385214 
4.450000000002968, -2.1680914933796673 
4.460000000002944, -2.168039247863086 
4.470000000002921, -2.167907779444223 
4.480000000002898, -2.1676596694632355 
4.490000000002874, -2.167309305714059 
4.500000000002851, -2.1668912461249734 
4.510000000002828, -2.1664642213513616 
4.520000000002804, -2.166103397849029 
4.530000000002781, -2.165850792259975 
4.540000000002758, -2.1656788001606784 
4.5500000000027345, -2.1655189377020716 
4.560000000002711, -2.165305872032149 
4.570000000002688, -2.1649917842337545 
4.580000000002665, -2.1645377706714806 
4.590000000002641, -2.163904583701454 
4.600000000002618, -2.1630691400315802 
4.610000000002595, -2.162097323248871 
4.620000000002571, -2.161236848996354 
4.630000000002548, -2.1607939768460156 
4.640000000002525, -2.1607668264323516 
4.6500000000025015, -2.160862391272869 
4.660000000002478, -2.1608584049712016 
4.670000000002455, -2.1607007650257732 
4.6800000000024315, -2.160410966362668 
4.690000000002408, -2.160026856760991 
4.700000000002385, -2.159595918466233 
4.710000000002362, -2.1591789085243054 
4.720000000002338, -2.158829951233728 
4.730000000002315, -2.1585627884376626 
4.740000000002292, -2.158343608905209 
4.750000000002268, -2.1581144968633876 
4.760000000002245, -2.1578200635625793 
4.770000000002222, -2.1574149405311585 
4.7800000000021985, -2.1568564232343084 
4.790000000002175, -2.1561107327851294 
4.800000000002152, -2.1552128269188833 
4.810000000002129, -2.1543772365643075 
4.820000000002105, -2.1539454241427967 
4.830000000002082, -2.153997474926678 
4.840000000002059, -2.154235443039893 
4.850000000002035, -2.1543728863771032 
4.860000000002012, -2.154321797442262 
4.870000000001989, -2.1541020078570137 
4.880000000001965, -2.153755642498558 
4.890000000001942, -2.1533260777525314 
4.900000000001919, -2.1528644251523246 
4.9100000000018955, -2.1524298465658225 
4.920000000001872, -2.152068899994906 
4.930000000001849, -2.151787418686653 
4.940000000001826, -2.1515437207984545 
4.950000000001802, -2.151275912496098 
4.960000000001779, -2.1509312524447495 
4.970000000001756, -2.150469176256826 
