t, s[1].omega / s[0].omega 
0, -1.509997224598576 
0.009999999999999995, -1.50967092679732 
0.019999999999999934, -1.5092514885319679 
0.029999999999999874, -1.5087502885881614 
0.04000000000000012, -1.5081898627283619 
0.050000000000000405, -1.5076068889647467 
0.06000000000000069, -1.5070504770000013 
0.07000000000000098, -1.50657073118046 
0.08000000000000126, -1.506198583847369 
0.09000000000000155, -1.5059298141229234 
0.10000000000000184, -1.5057284636656125 
0.11000000000000212, -1.5055469477251697 
0.12000000000000241, -1.505344312801825 
0.130000000000002, -1.5050914062839182 
0.1400000000000009, -1.504766580860399 
0.1499999999999998, -1.5043500606511038 
0.1599999999999987, -1.5038228426734135 
0.1699999999999976, -1.5031747625402985 
0.1799999999999965, -1.5024255470700854 
0.1899999999999954, -1.501653583300553 
0.1999999999999943, -1.5010024928896568 
0.2099999999999932, -1.5006223451527112 
0.2199999999999921, -1.500563731388531 
0.229999999999991, -1.5007347732900091 
0.2399999999999899, -1.500975757654659 
0.2499999999999888, -1.5011596721212674 
0.2599999999999877, -1.501228484032492 
0.2699999999999866, -1.501174924559752 
0.2799999999999855, -1.5010140845446514 
0.2899999999999844, -1.5007662094607497 
0.2999999999999833, -1.5004516711155074 
0.3099999999999822, -1.5000936641781153 
0.3199999999999811, -1.4997239323768632 
0.32999999999998, -1.4993851895139456 
0.3399999999999789, -1.4991227330487022 
0.3499999999999778, -1.4989650213754377 
0.35999999999997667, -1.4989072907378986 
0.36999999999997557, -1.4989135570125263 
0.37999999999997447, -1.4989342199127242 
0.38999999999997337, -1.4989238636135271 
0.39999999999997227, -1.4988497932578941 
0.40999999999997117, -1.498692327405244 
0.41999999999997006, -1.4984417572131643 
0.42999999999996896, -1.4980956946206159 
0.43999999999996786, -1.4976584598176728 
0.44999999999996676, -1.4971428148799726 
0.45999999999996566, -1.4965732902679654 
0.46999999999996456, -1.4959886523165873 
0.47999999999996346, -1.495438877299579 
0.48999999999996235, -1.4949721909146167 
0.49999999999996125, -1.4946148347744672 
0.5099999999999602, -1.494357523071488 
0.519999999999959, -1.494161808308983 
0.529999999999958, -1.493980651118534 
0.5399999999999568, -1.4937749026474478 
0.5499999999999557, -1.4935168429883112 
0.5599999999999546, -1.493185435163303 
0.5699999999999535, -1.4927610059806329 
0.5799999999999524, -1.4922247185270754 
0.5899999999999513, -1.4915672332820675 
0.5999999999999502, -1.4908100213798618 
0.6099999999999491, -1.490033285688747 
0.619999999999948, -1.4893803840393796 
0.6299999999999469, -1.4889980288283386 
0.6399999999999458, -1.4889333933523967 
0.6499999999999447, -1.4890949307054635 
0.6599999999999436, -1.4893261319643905 
0.6699999999999425, -1.4895026389256685 
0.6799999999999414, -1.4895671551076124 
0.6899999999999403, -1.4895119102240413 
0.6999999999999392, -1.4893511454534232 
0.7099999999999381, -1.4891042953172569 
0.719999999999937, -1.4887909729329516 
0.7299999999999359, -1.4884335808166806 
0.7399999999999348, -1.4880631384938146 
0.7499999999999337, -1.4877222601038027 
0.7599999999999326, -1.4874575925244202 
0.7699999999999315, -1.4873004267923844 
0.7799999999999304, -1.4872487942557564 
0.7899999999999293, -1.4872676527284971 
0.7999999999999282, -1.4873062304332694 
0.8099999999999271, -1.487317001776489 
0.819999999999926, -1.4872654820977487 
0.8299999999999249, -1.4871311144037445 
0.8399999999999238, -1.4869042002245387 
0.8499999999999227, -1.486582848588676 
0.8599999999999216, -1.4861717581605673 
0.8699999999999205, -1.4856832264393525 
0.8799999999999194, -1.4851397939399296 
0.8899999999999183, -1.484576513720398 
0.8999999999999172, -1.4840389708047077 
0.9099999999999161, -1.4835729766565984 
0.919999999999915, -1.4832070392964698 
0.9299999999999139, -1.4829383484807637 
0.9399999999999128, -1.4827350199257534 
0.9499999999999117, -1.4825531193719668 
0.9599999999999106, -1.4823532360115261 
0.9699999999999095, -1.4821061135342355 
0.9799999999999084, -1.4817893996705198 
0.9899999999999073, -1.4813824049263744 
0.9999999999999062, -1.4808642839246613 
1.0099999999999052, -1.4802199055288536 
1.019999999999904, -1.4794574097153892 
1.029999999999903, -1.4786356087756294 
1.039999999999902, -1.477879902259859 
1.0499999999999008, -1.477345916715224 
1.0599999999998997, -1.4771244881058772 
1.0699999999998986, -1.477171741044217 
1.0799999999998975, -1.477347547446337 
1.0899999999998964, -1.4775138252544346 
1.0999999999998953, -1.4775918245176571 
1.1099999999998942, -1.4775585611489663 
1.119999999999893, -1.477420682142682 
1.129999999999892, -1.4771942899405688 
1.1399999999998909, -1.4768966912154693 
1.1499999999998898, -1.4765470610782248 
1.1599999999998887, -1.476172124289699 
1.1699999999998876, -1.4758118170813832 
1.1799999999998865, -1.4755167925215857 
1.1899999999998854, -1.4753314289020505 
1.1999999999998843, -1.4752700011698194 
1.2099999999998832, -1.475306647235279 
1.219999999999882, -1.4753886678737826 
1.229999999999881, -1.4754598507689394 
1.2399999999998799, -1.4754766150445104 
1.2499999999998788, -1.475412400948377 
1.2599999999998777, -1.475254987780636 
1.2699999999998766, -1.4750021796335968 
1.2799999999998755, -1.474658794063611 
1.2899999999998744, -1.4742358700262392 
1.2999999999998733, -1.4737518944935244 
1.3099999999998722, -1.473234794441404 
1.319999999999871, -1.4727219994987124 
1.32999999999987, -1.472255019536322 
1.3399999999998689, -1.4718671570296433 
1.3499999999998678, -1.4715694140884699 
1.3599999999998666, -1.4713451194140628 
1.3699999999998655, -1.4711587168818236 
1.3799999999998644, -1.4709711232068237 
1.3899999999998633, -1.47074969391313 
1.3999999999998622, -1.4704690555750883 
1.4099999999998611, -1.4701070051373653 
1.41999999999986, -1.469640959262828 
1.429999999999859, -1.469049217934197 
1.4399999999998578, -1.4683210536056595 
1.4499999999998567, -1.467478143784695 
1.4599999999998556, -1.4666001089270364 
1.4699999999998545, -1.4658262141762566 
1.4799999999998534, -1.465299560839537 
1.4899999999998523, -1.4650747694620831 
1.4999999999998512, -1.4650805312411468 
1.5099999999998501, -1.4651805496788157 
1.519999999999849, -1.465259434004463 
1.529999999999848, -1.465257821353222 
1.5399999999998468, -1.465160533871749 
1.5499999999998457, -1.4649735060371467 
1.5599999999998446, -1.464708807213508 
1.5699999999998435, -1.4643800612839395 
1.5799999999998424, -1.4640055329311275 
1.5899999999998413, -1.4636156198186547 
1.5999999999998402, -1.4632587546084912 
1.6099999999998391, -1.4629952208297357 
1.619999999999838, -1.4628726216704826 
1.629999999999837, -1.4628968373789102 
1.6399999999998358, -1.463025396364427 
1.6499999999998347, -1.4631897297308538 
1.6599999999998336, -1.4633247996676642 
1.6699999999998325, -1.4633858865175566 
1.6799999999998314, -1.4633504592962507 
1.6899999999998303, -1.4632126801782381 
1.6999999999998292, -1.4629771101568634 
1.709999999999828, -1.462654575519 
1.719999999999827, -1.4622608109204371 
1.729999999999826, -1.461817275990948 
1.7399999999998248, -1.4613524571474363 
1.7499999999998237, -1.4609008614974712 
1.7599999999998226, -1.4604970385294314 
1.7699999999998215, -1.4601649658987295 
1.7799999999998204, -1.4599081659093107 
1.7899999999998193, -1.4597079928164356 
1.7999999999998182, -1.4595320117703838 
1.809999999999817, -1.4593457402318117 
1.819999999999816, -1.4591195679934452 
1.8299999999998149, -1.4588289266290102 
1.8399999999998138, -1.4584511370768534 
1.8499999999998127, -1.4579632628094599 
1.8599999999998116, -1.4573445492638886 
1.8699999999998105, -1.4565866051088994 
1.8799999999998094, -1.4557124104911952 
1.8899999999998083, -1.4547967397270862 
1.8999999999998072, -1.4539653131921966 
1.909999999999806, -1.4533478012355316 
1.919999999999805, -1.453001696945331 
1.9299999999998039, -1.4528774657357828 
1.9399999999998028, -1.452863070796435 
1.9499999999998017, -1.452855263294022 
1.9599999999998006, -1.4527941685213852 
1.9699999999997995, -1.4526578218794268 
1.9799999999997984, -1.4524441097481393 
1.9899999999997973, -1.4521577574388984 
1.9999999999997962, -1.4518060958876644 
2.0099999999998173, -1.4514025535486474 
2.0199999999998384, -1.4509760004284744 
2.0299999999998595, -1.4505803924358247 
2.0399999999998806, -1.4502914416548043 
2.0499999999999017, -1.4501775045178837 
2.059999999999923, -1.4502567716922452 
2.069999999999944, -1.450479782666553 
2.079999999999965, -1.4507562867024597 
2.089999999999986, -1.450999199771699 
2.100000000000007, -1.451151338363295 
2.1100000000000283, -1.4511882107069463 
2.1200000000000494, -1.4511084896876105 
2.1300000000000705, -1.450923299381567 
2.1400000000000916, -1.4506491816816387 
2.1500000000001127, -1.4503054086140377 
2.160000000000134, -1.4499144960319243 
2.170000000000155, -1.4495037550165173 
2.180000000000176, -1.449104856234497 
2.190000000000197, -1.4487487977975235 
2.2000000000002182, -1.4484568368144375 
2.2100000000002393, -1.448232316264182 
2.2200000000002604, -1.44805922448699 
2.2300000000002815, -1.4479086881409877 
2.2400000000003026, -1.4477485681389957 
2.2500000000003237, -1.4475500233781013 
2.260000000000345, -1.44728890731564 
2.270000000000366, -1.4469441061985326 
2.280000000000387, -1.4464961858807432 
2.290000000000408, -1.4459290894123336 
2.3000000000004293, -1.4452367425856794 
2.3100000000004504, -1.4444348933165039 
2.3200000000004715, -1.4435743397272693 
2.3300000000004926, -1.4427440591079792 
2.3400000000005137, -1.4420485161612775 
2.3500000000005348, -1.441559089705279 
2.360000000000556, -1.441273932097458 
2.370000000000577, -1.4411259417897166 
2.380000000000598, -1.4410292917987115 
2.390000000000619, -1.4409186710875386 
2.4000000000006403, -1.4407586502760492 
2.4100000000006614, -1.440534342273412 
2.4200000000006825, -1.4402399379724462 
2.4300000000007036, -1.4398727110177885 
2.4400000000007247, -1.4394342735938828 
2.450000000000746, -1.438939714867913 
2.460000000000767, -1.4384329623778438 
2.470000000000788, -1.437997335604423 
2.480000000000809, -1.4377383311259309 
2.49000000000083, -1.4377279877205968 
2.5000000000008513, -1.4379494671776505 
2.5100000000008724, -1.4383011239462664 
2.5200000000008935, -1.4386572489124447 
2.5300000000009146, -1.4389252497697176 
2.5400000000009357, -1.4390628831430927 
2.550000000000957, -1.4390660458240612 
2.560000000000978, -1.4389499868472773 
2.570000000000999, -1.4387361363899396 
2.58000000000102, -1.438446520453001 
2.5900000000010412, -1.4381037389472549 
2.6000000000010624, -1.4377336366647449 
2.6100000000010835, -1.4373671886609942 
2.6200000000011046, -1.4370377632636917 
2.6300000000011257, -1.436772346207436 
2.6400000000011468, -1.436581083814235 
2.650000000001168, -1.4364528525882192 
2.660000000001189, -1.4363601491682778 
2.67000000000121, -1.4362691400183685 
2.680000000001231, -1.4361482915406845 
2.6900000000012523, -1.4359722574643246 
2.7000000000012734, -1.4357218926238307 
2.7100000000012945, -1.435383068378054 
2.7200000000013156, -1.434946549983805 
2.7300000000013367, -1.4344101132794624 
2.740000000001358, -1.4337830928388717 
2.750000000001379, -1.433092275333138 
2.7600000000014, -1.4323856945514897 
2.770000000001421, -1.431727978196324 
2.780000000001442, -1.4311817597764667 
2.7900000000014633, -1.4307803129186254 
2.8000000000014844, -1.4305111128175727 
2.8100000000015055, -1.4303260728427014 
2.8200000000015266, -1.4301685983865173 
2.8300000000015477, -1.4299941078354048 
2.840000000001569, -1.4297742713654333 
2.85000000000159, -1.4294912871969045 
2.860000000001611, -1.4291310583749626 
2.870000000001632, -1.4286802333526167 
2.8800000000016532, -1.4281299319159202 
2.8900000000016743, -1.427488809570766 
2.9000000000016954, -1.4268046121909044 
2.9100000000017165, -1.426179760025813 
2.9200000000017377, -1.4257494418092 
2.9300000000017588, -1.4256078782525534 
2.94000000000178, -1.4257368525994083 
2.950000000001801, -1.4260158488047388 
2.960000000001822, -1.4263030258287723 
2.970000000001843, -1.4265026878302935 
2.9800000000018643, -1.426577907427342 
2.9900000000018854, -1.4265302586811734 
3.0000000000019065, -1.4263771828064784 
3.0100000000019276, -1.4261390490133734 
3.0200000000019487, -1.4258355111152565 
3.03000000000197, -1.4254877999595195 
3.040000000001991, -1.4251236263064937 
3.050000000002012, -1.424780300700804 
3.060000000002033, -1.424500267360896 
3.070000000002054, -1.4243167249530868 
3.0800000000020753, -1.424237229669023 
3.0900000000020964, -1.424238845946956 
3.1000000000021175, -1.4242787926287366 
3.1100000000021386, -1.4243110341704874 
3.1200000000021597, -1.424298051663103 
3.130000000002181, -1.4242147855846257 
3.140000000002202, -1.4240475079599908 
3.150000000002223, -1.4237912093240603 
3.160000000002244, -1.423447669784208 
3.1700000000022652, -1.4230250303252299 
3.1800000000022863, -1.4225388548513693 
3.1900000000023074, -1.422013878809286 
3.2000000000023285, -1.4214844686505717 
3.2100000000023496, -1.42099081981492 
3.2200000000023707, -1.4205689690824355 
3.230000000002392, -1.4202374214333655 
3.240000000002413, -1.4199888646836716 
3.250000000002434, -1.4197941761136146 
3.260000000002455, -1.4196156630053078 
3.2700000000024763, -1.4194189754884678 
3.2800000000024974, -1.4191771310814754 
3.2900000000025185, -1.4188681413927617 
3.3000000000025396, -1.418470962896117 
3.3100000000025607, -1.4179637296388985 
3.3200000000025818, -1.4173274323088547 
3.330000000002603, -1.4165580629138284 
3.340000000002624, -1.4156874561378243 
3.350000000002645, -1.4148024896425457 
3.360000000002666, -1.4140366427746722 
3.3700000000026873, -1.413512967178303 
3.3800000000027084, -1.4132685092558268 
3.3900000000027295, -1.4132336404229098 
3.4000000000027506, -1.4132879210547202 
3.4100000000027717, -1.4133298195392539 
3.420000000002793, -1.4133047289873868 
3.430000000002814, -1.4131957606163161 
3.440000000002835, -1.4130048984462782 
3.450000000002856, -1.4127400740876568 
3.460000000002877, -1.4124106991058123 
3.4700000000028983, -1.4120300658655072 
3.4800000000029194, -1.411622750884638 
3.4900000000029405, -1.4112330929838497 
3.5000000000029616, -1.4109253568900593 
3.5100000000029827, -1.410764511910216 
3.520000000003004, -1.4107815316050882 
3.530000000003025, -1.4109504026970296 
3.540000000003046, -1.4111996674351475 
3.550000000003067, -1.4114471419577441 
3.5600000000030882, -1.411629113668609 
3.5700000000031094, -1.4117104094618818 
3.5800000000031305, -1.4116802391646794 
3.5900000000031516, -1.4115433614323956 
3.6000000000031727, -1.4113125502145223 
3.6100000000031938, -1.41100440089911 
3.620000000003215, -1.4106383623429442 
3.630000000003236, -1.4102377688498768 
3.640000000003257, -1.4098307124009906 
3.650000000003278, -1.4094480533971352 
3.6600000000032993, -1.4091170729051474 
3.6700000000033204, -1.4088527834780444 
3.6800000000033415, -1.4086521058627157 
3.6900000000033626, -1.4084951172076527 
3.7000000000033837, -1.4083524895980808 
3.710000000003405, -1.4081939246498956 
3.720000000003426, -1.4079929602415855 
3.730000000003447, -1.407727480082115 
3.740000000003468, -1.4073782465777296 
3.750000000003489, -1.406928237847795 
3.7600000000035103, -1.4063648046678974 
3.7700000000035314, -1.405685743641547 
3.7800000000035525, -1.4049089104976789 
3.7900000000035736, -1.404081755379289 
3.8000000000035947, -1.4032820713267686 
3.810000000003616, -1.4025992303735513 
3.820000000003637, -1.4020965224332929 
3.830000000003658, -1.4017787407162399 
3.840000000003679, -1.4015945540616923 
3.8500000000037002, -1.4014707985129207 
3.8600000000037213, -1.4013461918933066 
3.8700000000037424, -1.4011832549049306 
3.8800000000037635, -1.4009630977458423 
3.8900000000037847, -1.4006758833117228 
3.9000000000038058, -1.4003144692669907 
3.910000000003827, -1.3998737195616369 
3.920000000003848, -1.3993568369360803 
3.930000000003869, -1.398789448382224 
3.94000000000389, -1.3982364317448803 
3.9500000000039113, -1.397803234627291 
3.9600000000039324, -1.3975980951984992 
3.9700000000039535, -1.3976642419189822 
3.9800000000039746, -1.3979421282398958 
3.9900000000039957, -1.398305022133771 
4.000000000004016, -1.398630684524995 
4.010000000003993, -1.3988457202022515 
4.02000000000397, -1.3989268447952508 
4.030000000003946, -1.3988815185329762 
4.040000000003923, -1.3987293939683558 
4.0500000000039, -1.3984920420998326 
4.0600000000038765, -1.3981901781365242 
4.070000000003853, -1.3978456246552382 
4.08000000000383, -1.3974851180619192 
4.090000000003807, -1.3971422774177344 
4.100000000003783, -1.3968534936276376 
4.11000000000376, -1.3966466559786739 
4.120000000003737, -1.396528869792372 
4.130000000003713, -1.3964826948286293 
4.14000000000369, -1.396473695008174 
4.150000000003667, -1.396462910457428 
4.1600000000036434, -1.3964164965094776 
4.17000000000362, -1.396309715051104 
4.180000000003597, -1.3961268291807074 
4.1900000000035735, -1.3958595756107344 
4.20000000000355, -1.395506063491763 
4.210000000003527, -1.395070878589635 
4.220000000003504, -1.3945664515854637 
4.23000000000348, -1.3940150896385146 
4.240000000003457, -1.3934500351908676 
4.250000000003434, -1.3929127500002703 
4.26000000000341, -1.3924439176378427 
4.270000000003387, -1.3920695512807018 
4.280000000003364, -1.391789885162093 
4.2900000000033405, -1.3915799612448592 
4.300000000003317, -1.3914018661327787 
4.310000000003294, -1.3912186412660186 
4.320000000003271, -1.3910010373533046 
4.330000000003247, -1.3907266046633031 
4.340000000003224, -1.3903755186001168 
4.350000000003201, -1.3899273443010194 
4.360000000003177, -1.3893617188662277 
4.370000000003154, -1.3886657530306095 
4.380000000003131, -1.3878501866160988 
4.390000000003107, -1.386970573009187 
4.400000000003084, -1.3861363091658179 
4.410000000003061, -1.385481169899388 
4.4200000000030375, -1.3850939409381295 
4.430000000003014, -1.3849625270573183 
4.440000000002991, -1.3849891975473567 
4.450000000002968, -1.385057950015001 
4.460000000002944, -1.385087290600524 
4.470000000002921, -1.3850401189795298 
4.480000000002898, -1.3849088323535033 
4.490000000002874, -1.3846985780385128 
4.500000000002851, -1.3844177134723328 
4.510000000002828, -1.3840756887537295 
4.520000000002804, -1.383686753090017 
4.530000000002781, -1.3832777903626337 
4.540000000002758, -1.3828960093450404 
4.5500000000027345, -1.3826069173602415 
4.560000000002711, -1.3824730121581061 
4.570000000002688, -1.3825197597676604 
4.580000000002665, -1.382715939638741 
4.590000000002641, -1.3829876288359655 
4.600000000002618, -1.383252656433541 
4.610000000002595, -1.3834484383992787 
4.620000000002571, -1.3835411728195202 
4.630000000002548, -1.3835213820512144 
4.640000000002525, -1.3833949549089146 
4.6500000000025015, -1.3831754908660803 
4.660000000002478, -1.3828799774030522 
4.670000000002455, -1.3825277091979973 
4.6800000000024315, -1.3821412810174138 
4.690000000002408, -1.3817476284502963 
4.700000000002385, -1.3813765354109213 
4.710000000002362, -1.3810549915797112 
4.720000000002338, -1.3807989913548122 
4.730000000002315, -1.3806075560372166 
4.740000000002292, -1.3804631468809652 
4.750000000002268, -1.3803381099611336 
4.760000000002245, -1.3802027327581405 
4.770000000002222, -1.3800305517882403 
4.7800000000021985, -1.3797997629998178 
4.790000000002175, -1.3794924085322915 
4.800000000002152, -1.379093702905918 
4.810000000002129, -1.3785931997736331 
4.820000000002105, -1.3779885886526069 
4.830000000002082, -1.3772918975493682 
4.840000000002059, -1.3765361875662432 
4.850000000002035, -1.3757780665536101 
4.860000000002012, -1.375089117372858 
4.870000000001989, -1.3745328227168898 
4.880000000001965, -1.3741365293846097 
4.890000000001942, -1.3738795635249352 
4.900000000001919, -1.373708475125469 
4.9100000000018955, -1.3735650977475788 
4.920000000001872, -1.3734053817354694 
4.930000000001849, -1.3732022607670857 
4.940000000001826, -1.3729395759441057 
