t, s[1].omega / s[0].omega 
0, -3.574994497772073 
0.009999999999999995, -3.5743212577506953 
0.019999999999999934, -3.573415602084667 
0.029999999999999874, -3.5725071148532317 
0.04000000000000012, -3.5720371047486843 
0.050000000000000405, -3.5717818934592245 
0.06000000000000069, -3.5713816729489123 
0.07000000000000098, -3.5708158209285195 
0.08000000000000126, -3.5701623773754876 
0.09000000000000155, -3.5695339635329724 
0.10000000000000184, -3.569016673830948 
0.11000000000000212, -3.5685472949850423 
0.12000000000000241, -3.5679996043647684 
0.130000000000002, -3.567341531549755 
0.1400000000000009, -3.566698987487727 
0.1499999999999998, -3.5662631602206596 
0.1599999999999987, -3.5659287811297915 
0.1699999999999976, -3.565500176775179 
0.1799999999999965, -3.5648871390710823 
0.1899999999999954, -3.5640306948554885 
0.1999999999999943, -3.5630503259956834 
0.2099999999999932, -3.562525683997202 
0.2199999999999921, -3.56244029217687 
0.229999999999991, -3.5622143902808716 
0.2399999999999899, -3.5617339824754013 
0.2499999999999888, -3.561050941845388 
0.2599999999999877, -3.560247711821071 
0.2699999999999866, -3.5595522095012293 
0.2799999999999855, -3.559114155456951 
0.2899999999999844, -3.5587092069057498 
0.2999999999999833, -3.5581861312681426 
0.3099999999999822, -3.557571242695888 
0.3199999999999811, -3.556975865103444 
0.32999999999998, -3.5564772408823044 
0.3399999999999789, -3.5560238770155186 
0.3499999999999778, -3.5555073515132647 
0.35999999999997667, -3.554846338253612 
0.36999999999997557, -3.554055581473618 
0.37999999999997447, -3.55343575934326 
0.38999999999997337, -3.553200935539595 
0.39999999999997227, -3.5529871521538228 
0.40999999999997117, -3.5525664622849376 
0.41999999999997006, -3.551907283507595 
0.42999999999996896, -3.5509986444488697 
0.43999999999996786, -3.5500420914054254 
0.44999999999996676, -3.549547315700882 
0.45999999999996566, -3.549344413838356 
0.46999999999996456, -3.5489977949492184 
0.47999999999996346, -3.548461693384361 
0.48999999999996235, -3.5478071927029355 
0.49999999999996125, -3.5471430170149096 
0.5099999999999602, -3.5465932886187574 
0.519999999999959, -3.546136834695793 
0.529999999999958, -3.5456293045417846 
0.5399999999999568, -3.545012339145715 
0.5499999999999557, -3.5443665777942903 
0.5599999999999546, -3.543871767632845 
0.5699999999999535, -3.5435060093427233 
0.5799999999999524, -3.5430940394217894 
0.5899999999999513, -3.542529549525829 
0.5999999999999502, -3.5417451894215675 
0.6099999999999491, -3.540788552051803 
0.619999999999948, -3.540153523429298 
0.6299999999999469, -3.54004208747319 
0.6399999999999458, -3.539881373510746 
0.6499999999999447, -3.539462048770698 
0.6599999999999436, -3.538818392579162 
0.6699999999999425, -3.5380065241448393 
0.6799999999999414, -3.5372234888924665 
0.6899999999999403, -3.5367345826070116 
0.6999999999999392, -3.536375001512755 
0.7099999999999381, -3.5359103958305775 
0.719999999999937, -3.5353261255613035 
0.7299999999999359, -3.534709492900703 
0.7399999999999348, -3.534164802997735 
0.7499999999999337, -3.53369912206479 
0.7599999999999326, -3.5332202587342527 
0.7699999999999315, -3.532629825124727 
0.7799999999999304, -3.5318968117829312 
0.7899999999999293, -3.531194512487061 
0.7999999999999282, -3.530834872823859 
0.8099999999999271, -3.530632445617602 
0.819999999999926, -3.5302831094436202 
0.8299999999999249, -3.529711638762816 
0.8399999999999238, -3.5288883121026506 
0.8499999999999227, -3.5278842330447135 
0.8599999999999216, -3.5271823192397127 
0.8699999999999205, -3.526969600143988 
0.8799999999999194, -3.526728443646521 
0.8899999999999183, -3.5262754170647526 
0.8999999999999172, -3.52566079165097 
0.9099999999999161, -3.524972843939069 
0.919999999999915, -3.5243492336635085 
0.9299999999999139, -3.5238709039552623 
0.9399999999999128, -3.523414889403486 
0.9499999999999117, -3.522862421957984 
0.9599999999999106, -3.522224022824647 
0.9699999999999095, -3.5216430121723903 
0.9799999999999084, -3.52122224901242 
0.9899999999999073, -3.5208408671287814 
0.9999999999999062, -3.5203611559962256 
1.0099999999999052, -3.5197020336951725 
1.019999999999904, -3.518823071912672 
1.029999999999903, -3.517967601731108 
1.039999999999902, -3.5176527175021883 
1.0499999999999008, -3.5175802213660874 
1.0599999999998997, -3.517298744040935 
1.0699999999998986, -3.5167694535978122 
1.0799999999998975, -3.516030756103698 
1.0899999999998964, -3.515176703040384 
1.0999999999998953, -3.5145052266948853 
1.1099999999998942, -3.514130659062044 
1.119999999999893, -3.5137560434449133 
1.129999999999892, -3.513245623303481 
1.1399999999998909, -3.512638943873668 
1.1499999999998898, -3.5120399059737473 
1.1599999999998887, -3.511527578661832 
1.1699999999998876, -3.51107138196078 
1.1799999999998865, -3.510565661871812 
1.1899999999998854, -3.5099304357817003 
1.1999999999998843, -3.509187749035868 
1.2099999999998832, -3.5086003300603466 
1.219999999999882, -3.5083360511803057 
1.229999999999881, -3.5080931025430617 
1.2399999999998799, -3.507668070311138 
1.2499999999998788, -3.5070149881844173 
1.2599999999998777, -3.506107349437271 
1.2699999999998766, -3.505132926041533 
1.2799999999998755, -3.504636640344259 
1.2899999999998744, -3.504482743108504 
1.2999999999998733, -3.50418679044419 
1.3099999999998722, -3.5036827742076646 
1.319999999999871, -3.503036458235779 
1.32999999999987, -3.5023477978815927 
1.3399999999998689, -3.5017643180579228 
1.3499999999998678, -3.5013151603692796 
1.3599999999998666, -3.5008476656361416 
1.3699999999998655, -3.5002743622573234 
1.3799999999998644, -3.4996394012163643 
1.3899999999998633, -3.499099334991201 
1.3999999999998622, -3.498702099650818 
1.4099999999998611, -3.4983080538717912 
1.41999999999986, -3.49779764567122 
1.429999999999859, -3.497096456743275 
1.4399999999998578, -3.496192458415294 
1.4499999999998567, -3.4954280768908648 
1.4599999999998556, -3.495219898945203 
1.4699999999998545, -3.4951281974692088 
1.4799999999998534, -3.4948009338028987 
1.4899999999998523, -3.494234330790095 
1.4999999999998512, -3.49346623249048 
1.5099999999998501, -3.4926177339255693 
1.519999999999849, -3.4920046893134953 
1.529999999999848, -3.4916564037381987 
1.5399999999998468, -3.491269517487452 
1.5499999999998457, -3.490745883390185 
1.5599999999998446, -3.4901375647019157 
1.5699999999998435, -3.489550613566268 
1.5799999999998424, -3.489052688004236 
1.5899999999998413, -3.488600649887926 
1.5999999999998402, -3.4880880072692326 
1.6099999999998391, -3.487442115082967 
1.619999999999838, -3.486701584052734 
1.629999999999837, -3.4861463567703566 
1.6399999999998358, -3.485903215740541 
1.6499999999998347, -3.485656999981959 
1.6599999999998336, -3.4852233394781584 
1.6699999999998325, -3.4845607928191753 
1.6799999999998314, -3.4836466521461795 
1.6899999999998303, -3.482685831817423 
1.6999999999998292, -3.4822117426863115 
1.709999999999828, -3.4820581086443867 
1.719999999999827, -3.4817584379362083 
1.729999999999826, -3.48125490470296 
1.7399999999998248, -3.4806133751380726 
1.7499999999998237, -3.479933355925231 
1.7599999999998226, -3.4793570403538943 
1.7699999999998215, -3.4789102764395294 
1.7799999999998204, -3.4784451165019092 
1.7899999999998193, -3.477874846387042 
1.7999999999998182, -3.477240912064655 
1.809999999999817, -3.4767013204954496 
1.819999999999816, -3.476311519508994 
1.8299999999998149, -3.4759296558260706 
1.8399999999998138, -3.4754328919198643 
1.8499999999998127, -3.4747469084830094 
1.8599999999998116, -3.4738482255412153 
1.8699999999998105, -3.4730411988579464 
1.8799999999998094, -3.472793495775401 
1.8899999999998083, -3.472721600333602 
1.8999999999998072, -3.4724265282340205 
1.909999999999806, -3.4718906048776303 
1.919999999999805, -3.4711545749325294 
1.9299999999998039, -3.4703194003524422 
1.9399999999998028, -3.4696719667962745 
1.9499999999998017, -3.4693012029257275 
1.9599999999998006, -3.468925438437023 
1.9699999999997995, -3.468418967410048 
1.9799999999997984, -3.4678203077860354 
1.9899999999997973, -3.467233033428768 
1.9999999999997962, -3.4667337541250034 
2.0099999999998173, -3.466288779655777 
2.0199999999998384, -3.465795317471489 
2.0299999999998595, -3.465172102490925 
2.0399999999998806, -3.4644250716325486 
2.0499999999999017, -3.463800471303313 
2.059999999999923, -3.463531230249295 
2.069999999999944, -3.4633324764449385 
2.079999999999965, -3.462958353284852 
2.089999999999986, -3.4623600298811374 
2.100000000000007, -3.4615134584404905 
2.1100000000000283, -3.460528638082208 
2.1200000000000494, -3.459897509434783 
2.1300000000000705, -3.459701047954399 
2.1400000000000916, -3.4594476323192564 
2.1500000000001127, -3.4589928697010848 
2.160000000000134, -3.458389094102776 
2.170000000000155, -3.4577242580381062 
2.180000000000176, -3.4571250234305166 
2.190000000000197, -3.4566571702839113 
2.2000000000002182, -3.4562079243211405 
2.2100000000002393, -3.455664912671465 
2.2200000000002604, -3.4550311604918966 
2.2300000000002815, -3.454447253946688 
2.2400000000003026, -3.4540415310771015 
2.2500000000003237, -3.4536965473601144 
2.260000000000345, -3.4532590919985053 
2.270000000000366, -3.4526474845356487 
2.280000000000387, -3.451806714115275 
2.290000000000408, -3.4508722362179136 
2.3000000000004293, -3.450390698178815 
2.3100000000004504, -3.4503305941415063 
2.3200000000004715, -3.4501433599365767 
2.3300000000004926, -3.449705345929312 
2.3400000000005137, -3.449060317402381 
2.3500000000005348, -3.4482726945954014 
2.360000000000556, -3.4475391003152267 
2.370000000000577, -3.4470741398904066 
2.380000000000598, -3.446712841205879 
2.390000000000619, -3.446252672140807 
2.4000000000006403, -3.4456808978060254 
2.4100000000006614, -3.4450831305484377 
2.4200000000006825, -3.4445639477071714 
2.4300000000007036, -3.4441237538837397 
2.4400000000007247, -3.443670592796992 
2.450000000000746, -3.4431086034658547 
2.460000000000767, -3.442389323591253 
2.470000000000788, -3.4416286132481617 
2.480000000000809, -3.441196084746558 
2.49000000000083, -3.4410507398911356 
2.5000000000008513, -3.440808032684276 
2.5100000000008724, -3.4403441862661905 
2.5200000000008935, -3.4396456313372696 
2.5300000000009146, -3.4387240174580698 
2.5400000000009357, -3.4378474437145434 
2.550000000000957, -3.437436923408799 
2.560000000000978, -3.437226739764868 
2.570000000000999, -3.436867463170226 
2.58000000000102, -3.4363389013264127 
2.5900000000010412, -3.4357116306313626 
2.6000000000010624, -3.4350890164388033 
2.6100000000010835, -3.4345697629459506 
2.6200000000011046, -3.434127239046922 
2.6300000000011257, -3.43363557787274 
2.6400000000011468, -3.4330328598669206 
2.650000000001168, -3.432380936073012 
2.660000000001189, -3.4318799639137865 
2.67000000000121, -3.431561475986508 
2.680000000001231, -3.431224866173948 
2.6900000000012523, -3.430742587888838 
2.7000000000012734, -3.4300511702544134 
2.7100000000012945, -3.4291220930004274 
2.7200000000013156, -3.428236694409782 
2.7300000000013367, -3.4279222802417286 
2.740000000001358, -3.427856854984904 
2.750000000001379, -3.427590316191222 
2.7600000000014, -3.4270929012572666 
2.770000000001421, -3.4264219831412093 
2.780000000001442, -3.4256702010019717 
2.7900000000014633, -3.425039896192178 
2.8000000000014844, -3.424620190837171 
2.8100000000015055, -3.4242166997474826 
2.8200000000015266, -3.4237056719918066 
2.8300000000015477, -3.423109824102508 
2.840000000001569, -3.4225413856072597 
2.85000000000159, -3.422082587965922 
2.860000000001611, -3.4216731275868724 
2.870000000001632, -3.4212042367424482 
2.8800000000016532, -3.4205925454897432 
2.8900000000016743, -3.4198043371714855 
2.9000000000016954, -3.419034986031137 
2.9100000000017165, -3.418702804688298 
2.9200000000017377, -3.4186137349500947 
2.9300000000017588, -3.4183642378907884 
2.94000000000178, -3.4178780849854435 
2.950000000001801, -3.4171644502153304 
2.960000000001822, -3.416268395697922 
2.970000000001843, -3.4154777807633137 
2.9800000000018643, -3.4150913880791918 
2.9900000000018854, -3.4148222126600474 
3.0000000000019065, -3.414413051335233 
3.0100000000019276, -3.413863605277606 
3.0200000000019487, -3.4132508748348784 
3.03000000000197, -3.4126771343809006 
3.040000000001991, -3.4121983241781124 
3.050000000002012, -3.4117534133848424 
3.060000000002033, -3.4112332779734755 
3.070000000002054, -3.4105912261953604 
3.0800000000020753, -3.4099168159699134 
3.0900000000020964, -3.4094601632282684 
3.1000000000021175, -3.4092109905195387 
3.1100000000021386, -3.4089095862780097 
3.1200000000021597, -3.4084325663726696 
3.130000000002181, -3.4077316073112307 
3.140000000002202, -3.4067882410195898 
3.150000000002223, -3.4058826874380257 
3.160000000002244, -3.405527434701142 
3.1700000000022652, -3.405424712295401 
3.1800000000022863, -3.4051413666174093 
3.1900000000023074, -3.4046470538275324 
3.2000000000023285, -3.4040057045066847 
3.2100000000023496, -3.4033127026232783 
3.2200000000023707, -3.4027251846899538 
3.230000000002392, -3.4022928525211023 
3.240000000002413, -3.401861317436551 
3.250000000002434, -3.4013287704669595 
3.260000000002455, -3.4007191539989114 
3.2700000000024763, -3.400164527069623 
3.2800000000024974, -3.399751322769853 
3.2900000000025185, -3.39938001555842 
3.3000000000025396, -3.3989263602682955 
3.3100000000025607, -3.398310676865267 
3.3200000000025818, -3.397486456233556 
3.330000000002603, -3.3966229740591425 
3.340000000002624, -3.3962238546811117 
3.350000000002645, -3.396175594011969 
3.360000000002666, -3.3959840766540785 
3.3700000000026873, -3.39554644172838 
3.3800000000027084, -3.3948952673963193 
3.3900000000027295, -3.394082658997781 
3.4000000000027506, -3.3933147645634056 
3.4100000000027717, -3.3928525376572223 
3.420000000002793, -3.3925306868688843 
3.430000000002814, -3.3921107151572287 
3.440000000002835, -3.391567115596289 
3.450000000002856, -3.3909723825564613 
3.460000000002877, -3.3904304481182472 
3.4700000000028983, -3.3899756453331724 
3.4800000000029194, -3.3895395148336673 
3.4900000000029405, -3.3890217682911254 
3.5000000000029616, -3.3883626062471364 
3.5100000000029827, -3.3876198141120106 
3.520000000003004, -3.3870993851517577 
3.530000000003025, -3.3869066331648447 
3.540000000003046, -3.386702886679532 
3.550000000003067, -3.386305257431733 
3.5600000000030882, -3.3856833690490893 
3.5700000000031094, -3.38482187581173 
3.5800000000031305, -3.3838682526229014 
3.5900000000031516, -3.3832976451896988 
3.6000000000031727, -3.383106426385402 
3.6100000000031938, -3.3828432895698897 
3.620000000003215, -3.3823917163393524 
3.630000000003236, -3.381803614659881 
3.640000000003257, -3.3811654581276165 
3.650000000003278, -3.3805911627466614 
3.6600000000032993, -3.380133796086233 
3.6700000000033204, -3.3796938831450944 
3.6800000000033415, -3.3791641316843752 
3.6900000000033626, -3.3785355053235095 
3.7000000000033837, -3.3779384220666238 
3.710000000003405, -3.377538980795728 
3.720000000003426, -3.3772392967146074 
3.730000000003447, -3.3768594362321642 
3.740000000003468, -3.3763122162001293 
3.750000000003489, -3.3755396834839786 
3.7600000000035103, -3.3745754473077163 
3.7700000000035314, -3.3738622482996874 
3.7800000000035525, -3.37371430112331 
3.7900000000035736, -3.3736199289162827 
3.8000000000035947, -3.3732911391374403 
3.810000000003616, -3.3727504660751477 
3.820000000003637, -3.3720568199029692 
3.830000000003658, -3.3713240294991307 
3.840000000003679, -3.370756092880017 
3.8500000000037002, -3.370366250328016 
3.8600000000037213, -3.369953208219369 
3.8700000000037424, -3.3694301335017656 
3.8800000000037635, -3.368837713776009 
3.8900000000037847, -3.368294667522658 
3.9000000000038058, -3.3678630211110585 
3.910000000003827, -3.3674659118026904 
3.920000000003848, -3.3669968596488564 
3.930000000003869, -3.366377933559518 
3.94000000000389, -3.3655803256608743 
3.9500000000039113, -3.3648137631803285 
3.9600000000039324, -3.36449990775514 
3.9700000000039535, -3.3644328164025312 
3.9800000000039746, -3.364204708096223 
3.9900000000039957, -3.363740772719999 
4.000000000004016, -3.3630566155056227 
4.010000000003993, -3.3621950379489585 
4.02000000000397, -3.3614021297656747 
4.030000000003946, -3.3609780267753195 
4.040000000003923, -3.360703787926532 
4.0500000000039, -3.3603129660315956 
4.0600000000038765, -3.3597851338068345 
4.070000000003853, -3.3591896883641352 
4.08000000000383, -3.358626480478179 
4.090000000003807, -3.3581526129270722 
4.100000000003783, -3.357720469423262 
4.11000000000376, -3.3572258341383616 
4.120000000003737, -3.3566058279095556 
4.130000000003713, -3.355904648654019 
4.14000000000369, -3.3553728459696748 
4.150000000003667, -3.355130339774108 
4.1600000000036434, -3.354906783345558 
4.17000000000362, -3.354518242424316 
4.180000000003597, -3.353917454359049 
4.1900000000035735, -3.3530732218331885 
4.20000000000355, -3.3520965785878736 
4.210000000003527, -3.351475850583875 
4.220000000003504, -3.351311321669839 
4.23000000000348, -3.3511108163786667 
4.240000000003457, -3.350705560455465 
4.250000000003434, -3.3501396004959916 
4.26000000000341, -3.349489875392931 
4.270000000003387, -3.348873598293224 
4.280000000003364, -3.3483917682770907 
4.2900000000033405, -3.3479749875201157 
4.300000000003317, -3.347490963454027 
4.310000000003294, -3.346903018210478 
4.320000000003271, -3.3462938855305553 
4.330000000003247, -3.3458299041613264 
4.340000000003224, -3.345501144214402 
4.350000000003201, -3.3451448710910747 
4.360000000003177, -3.3446546643817108 
4.370000000003154, -3.343965910345928 
4.380000000003131, -3.3430589131055357 
4.390000000003107, -3.3422275717316148 
4.400000000003084, -3.34195556994453 
4.410000000003061, -3.341917291489773 
4.4200000000030375, -3.3416821670181585 
4.430000000003014, -3.341214192431651 
4.440000000002991, -3.3405631036544676 
4.450000000002968, -3.3398058433574214 
4.460000000002944, -3.339138223652925 
4.470000000002921, -3.338708405347115 
4.480000000002898, -3.33834537407884 
4.490000000002874, -3.337886013713148 
4.500000000002851, -3.3373246230272855 
4.510000000002828, -3.336747851805602 
4.520000000002804, -3.3362613821891065 
4.530000000002781, -3.335855922861257 
4.540000000002758, -3.3354347855974615 
4.5500000000027345, -3.334905703382521 
4.560000000002711, -3.33420949493956 
4.570000000002688, -3.3334002341076783 
4.580000000002665, -3.3328434402330354 
4.590000000002641, -3.3327112715514176 
4.600000000002618, -3.3325895913516796 
4.610000000002595, -3.3322513482616287 
4.620000000002571, -3.3316872066784198 
4.630000000002548, -3.330908417374139 
4.640000000002525, -3.3300188338601915 
4.6500000000025015, -3.3293708963190354 
4.660000000002478, -3.3290739927307866 
4.670000000002455, -3.3287841986426274 
4.6800000000024315, -3.328345885761832 
4.690000000002408, -3.3277882399192635 
4.700000000002385, -3.327194969645747 
4.710000000002362, -3.326660852470148 
4.720000000002338, -3.3262142381583226 
4.730000000002315, -3.3257785253291345 
4.740000000002292, -3.3252553848900015 
4.750000000002268, -3.3246072681838563 
4.760000000002245, -3.323934943676348 
4.770000000002222, -3.323503311310872 
4.7800000000021985, -3.323296638698396 
4.790000000002175, -3.323037469041816 
4.800000000002152, -3.3225990306004833 
4.810000000002129, -3.3219423989230608 
4.820000000002105, -3.3210458032878982 
4.830000000002082, -3.3201054704349473 
4.840000000002059, -3.319625038118255 
4.850000000002035, -3.3194994206296506 
4.860000000002012, -3.3192648793017647 
4.870000000001989, -3.3188287241362935 
4.880000000001965, -3.31824573054642 
4.890000000001942, -3.3175972213793528 
4.900000000001919, -3.317004834491171 
4.9100000000018955, -3.316548023320292 
4.920000000001872, -3.316133175303162 
4.930000000001849, -3.3156394869833994 
4.940000000001826, -3.3150456774482975 
4.950000000001802, -3.314450062630516 
4.960000000001779, -3.314013322434009 
