t, s[1].omega / s[0].omega 
0, -2.7249958904167757 
0.009999999999999995, -2.7245212073415312 
0.019999999999999934, -2.7239284376247013 
0.029999999999999874, -2.7232684830522267 
0.04000000000000012, -2.7226756484380994 
0.050000000000000405, -2.7222738392432797 
0.06000000000000069, -2.7220032571380446 
0.07000000000000098, -2.721721329307468 
0.08000000000000126, -2.721363125540732 
0.09000000000000155, -2.7209308699326766 
0.10000000000000184, -2.7204598102896593 
0.11000000000000212, -2.720007543153875 
0.12000000000000241, -2.719618196254255 
0.130000000000002, -2.7192815069502663 
0.1400000000000009, -2.7189457718833165 
0.1499999999999998, -2.718557404136309 
0.1599999999999987, -2.718079222559123 
0.1699999999999976, -2.71749595676668 
0.1799999999999965, -2.716858387326363 
0.1899999999999954, -2.716341717158203 
0.1999999999999943, -2.7160889075966397 
0.2099999999999932, -2.715978013645151 
0.2199999999999921, -2.7158135182193406 
0.229999999999991, -2.7155220370633986 
0.2399999999999899, -2.715106263833879 
0.2499999999999888, -2.7145886857561807 
0.2599999999999877, -2.714012816457781 
0.2699999999999866, -2.713463423049162 
0.2799999999999855, -2.713028365547588 
0.2899999999999844, -2.7126955842052203 
0.2999999999999833, -2.7123718176822287 
0.3099999999999822, -2.7119928547711454 
0.3199999999999811, -2.711547344478931 
0.32999999999998, -2.711065339769093 
0.3399999999999789, -2.710617387549072 
0.3499999999999778, -2.7102632471318153 
0.35999999999997667, -2.7099789845346622 
0.36999999999997557, -2.709689258043878 
0.37999999999997447, -2.709333106128942 
0.38999999999997337, -2.7088738666840446 
0.39999999999997227, -2.7082892816450554 
0.40999999999997117, -2.707598411004654 
0.41999999999997006, -2.706941583497863 
0.42999999999996896, -2.7065325731657937 
0.43999999999996786, -2.7063590533102055 
0.44999999999996676, -2.7062060228027445 
0.45999999999996566, -2.705948721249161 
0.46999999999996456, -2.705576488904226 
0.47999999999996346, -2.705115818349686 
0.48999999999996235, -2.7046084392899727 
0.49999999999996125, -2.7041140504724948 
0.5099999999999602, -2.7036881948328118 
0.519999999999959, -2.703331214695514 
0.529999999999958, -2.7029844469624114 
0.5399999999999568, -2.702590640244034 
0.5499999999999557, -2.7021256203876907 
0.5599999999999546, -2.7016058029045356 
0.5699999999999535, -2.7011135599986136 
0.5799999999999524, -2.7007600623857644 
0.5899999999999513, -2.700540062437388 
0.5999999999999502, -2.700335317815429 
0.6099999999999491, -2.700053341083512 
0.619999999999948, -2.6996579054259966 
0.6299999999999469, -2.699136404938582 
0.6399999999999458, -2.6984955942108884 
0.6499999999999447, -2.6978095132559083 
0.6599999999999436, -2.6972502435633876 
0.6699999999999425, -2.6969195208197503 
0.6799999999999414, -2.6966967164636957 
0.6899999999999403, -2.6964312183335912 
0.6999999999999392, -2.69607574168225 
0.7099999999999381, -2.695643086601876 
0.719999999999937, -2.695171406899598 
0.7299999999999359, -2.694715395594123 
0.7399999999999348, -2.694317066216736 
0.7499999999999337, -2.6939707931381447 
0.7599999999999326, -2.693628796052734 
0.7699999999999315, -2.69323843354893 
0.7799999999999304, -2.6927648467120475 
0.7899999999999293, -2.6921997272873393 
0.7999999999999282, -2.6916040734175413 
0.8099999999999271, -2.6911432200048586 
0.819999999999926, -2.6909189080812768 
0.8299999999999249, -2.69080138130976 
0.8399999999999238, -2.6906220046292413 
0.8499999999999227, -2.6903188839304097 
0.8599999999999216, -2.689891398756527 
0.8699999999999205, -2.6893561187841772 
0.8799999999999194, -2.6887547867946324 
0.8899999999999183, -2.6881820272505985 
0.8999999999999172, -2.68774262027332 
0.9099999999999161, -2.687425139559418 
0.919999999999915, -2.6871225850790514 
0.9299999999999139, -2.686763253946529 
0.9399999999999128, -2.6863351887671127 
0.9499999999999117, -2.685865379798076 
0.9599999999999106, -2.685414882248813 
0.9699999999999095, -2.685041109600477 
0.9799999999999084, -2.6847355096213907 
0.9899999999999073, -2.68443674860353 
0.9999999999999062, -2.684085346112103 
1.0099999999999052, -2.6836415521767405 
1.019999999999904, -2.683080042424299 
1.029999999999903, -2.682411597575256 
1.039999999999902, -2.6817589669010684 
1.0499999999999008, -2.6813369564387655 
1.0599999999998997, -2.6811673084859966 
1.0699999999998986, -2.681041724212829 
1.0799999999998975, -2.6808162469950756 
1.0899999999998964, -2.680469074877874 
1.0999999999998953, -2.680022406868936 
1.1099999999998942, -2.6795127118606192 
1.119999999999893, -2.678996758042507 
1.129999999999892, -2.6785419321197446 
1.1399999999998909, -2.6781721793688473 
1.1499999999998898, -2.677837170623093 
1.1599999999998887, -2.67747017972582 
1.1699999999998876, -2.677037626021433 
1.1799999999998865, -2.676543762989796 
1.1899999999998854, -2.6760459670974477 
1.1999999999998843, -2.6756474569098336 
1.2099999999998832, -2.6753852981238126 
1.219999999999882, -2.6751738892282004 
1.229999999999881, -2.674913571568146 
1.2399999999998799, -2.6745539208243074 
1.2499999999998788, -2.674073935213818 
1.2599999999998777, -2.673467314100003 
1.2699999999998766, -2.672775395132196 
1.2799999999998755, -2.6721464179950627 
1.2899999999998744, -2.671745626838574 
1.2999999999998733, -2.6715234675861153 
1.3099999999998722, -2.6713032788887956 
1.319999999999871, -2.6709964634724757 
1.32999999999987, -2.670599825497739 
1.3399999999998689, -2.6701421554729285 
1.3499999999998678, -2.6696710171990494 
1.3599999999998666, -2.669239199980539 
1.3699999999998655, -2.6688690824747554 
1.3799999999998644, -2.668532573196554 
1.3899999999998633, -2.6681752926166276 
1.3999999999998622, -2.6677527293740164 
1.4099999999998611, -2.667242149685841 
1.41999999999986, -2.666661624927807 
1.429999999999859, -2.666121887975526 
1.4399999999998578, -2.6657821804532182 
1.4499999999998567, -2.665631418051947 
1.4599999999998556, -2.6654980021685755 
1.4699999999998545, -2.665265668876108 
1.4799999999998534, -2.664907920738945 
1.4899999999998523, -2.6644314676355156 
1.4999999999998512, -2.663858071094035 
1.5099999999998501, -2.663248715231858 
1.519999999999849, -2.6627174729156984 
1.529999999999848, -2.6623387505206453 
1.5399999999998468, -2.6620476403329945 
1.5499999999998457, -2.6617368794609915 
1.5599999999998446, -2.661359010440303 
1.5699999999998435, -2.660917446294708 
1.5799999999998424, -2.6604504301822396 
1.5899999999998413, -2.6600226509321034 
1.5999999999998402, -2.659674606121225 
1.6099999999998391, -2.6593783431122366 
1.619999999999838, -2.659070962872835 
1.629999999999837, -2.658699718528708 
1.6399999999998358, -2.6582295644068052 
1.6499999999998347, -2.6576405742439997 
1.6599999999998336, -2.6569636548419346 
1.6699999999998325, -2.6563547991479206 
1.6799999999998314, -2.656008219592759 
1.6899999999998303, -2.655873372678502 
1.6999999999998292, -2.655737556605043 
1.709999999999828, -2.6554904297991344 
1.719999999999827, -2.655125254827927 
1.729999999999826, -2.6546671433913587 
1.7399999999998248, -2.654154967793947 
1.7499999999998237, -2.653648267936244 
1.7599999999998226, -2.6532107096826953 
1.7699999999998215, -2.652853951940865 
1.7799999999998204, -2.652521218658965 
1.7899999999998193, -2.6521500341263353 
1.7999999999998182, -2.651712038399665 
1.809999999999817, -2.651216001490119 
1.819999999999816, -2.650725147227864 
1.8299999999998149, -2.6503425519558936 
1.8399999999998138, -2.6500945936775 
1.8499999999998127, -2.6498897733034923 
1.8599999999998116, -2.649631206799769 
1.8699999999998105, -2.6492717969884305 
1.8799999999998094, -2.648792427659573 
1.8899999999998083, -2.648188530194347 
1.8999999999998072, -2.647502487325015 
1.909999999999806, -2.646878582351017 
1.919999999999805, -2.646475767894341 
1.9299999999998039, -2.6462487137412025 
1.9399999999998028, -2.646027602776761 
1.9499999999998017, -2.645723940122575 
1.9599999999998006, -2.645332531446792 
1.9699999999997995, -2.644880671029675 
1.9799999999997984, -2.644414846090901 
1.9899999999997973, -2.6439874244716313 
1.9999999999997962, -2.6436212504840473 
2.0099999999998173, -2.643289916007014 
2.0199999999998384, -2.6429404388975124 
2.0299999999998595, -2.6425277181084694 
2.0399999999998806, -2.6420261408976695 
2.0499999999999017, -2.6414448028932696 
2.059999999999923, -2.6408798408751126 
2.069999999999944, -2.640500656808549 
2.079999999999965, -2.64033674461209 
2.089999999999986, -2.640223074549088 
2.100000000000007, -2.6400222055823406 
2.1100000000000283, -2.6396966765539 
2.1200000000000494, -2.639252490156182 
2.1300000000000705, -2.63870975523065 
2.1400000000000916, -2.6381173575146755 
2.1500000000001127, -2.6375725031634767 
2.160000000000134, -2.6371620481037117 
2.170000000000155, -2.636855362656915 
2.180000000000176, -2.636551077100158 
2.190000000000197, -2.636188578145239 
2.2000000000002182, -2.6357599287983655 
2.2100000000002393, -2.6352936393456146 
2.2200000000002604, -2.634852298874482 
2.2300000000002815, -2.6344928521667983 
2.2400000000003026, -2.6342036816963486 
2.2500000000003237, -2.6339208239014624 
2.260000000000345, -2.633584581218121 
2.270000000000366, -2.6331563179683695 
2.280000000000387, -2.6326109436098357 
2.290000000000408, -2.631951801734864 
2.3000000000004293, -2.6312778808255937 
2.3100000000004504, -2.630796901755443 
2.3200000000004715, -2.6305836960328084 
2.3300000000004926, -2.6304605761989914 
2.3400000000005137, -2.6302616989720793 
2.3500000000005348, -2.6299464507385992 
2.360000000000556, -2.6295316537136983 
2.370000000000577, -2.6290504328543713 
2.380000000000598, -2.6285518394881096 
2.390000000000619, -2.6280958515639155 
2.4000000000006403, -2.627715701983025 
2.4100000000006614, -2.62738162071522 
2.4200000000006825, -2.6270314999615487 
2.4300000000007036, -2.626622223857648 
2.4400000000007247, -2.6261420052674285 
2.450000000000746, -2.625623030982736 
2.460000000000767, -2.625164411954203 
2.470000000000788, -2.6248625952116496 
2.480000000000809, -2.6246774841526066 
2.49000000000083, -2.6244858214965965 
2.5000000000008513, -2.624207503358326 
2.5100000000008724, -2.6238147892350168 
2.5200000000008935, -2.623300237756647 
2.5300000000009146, -2.6226754678788775 
2.5400000000009357, -2.622012365317478 
2.550000000000957, -2.621463566112205 
2.560000000000978, -2.621121255364256 
2.570000000000999, -2.6208871038095807 
2.58000000000102, -2.620623950639696 
2.5900000000010412, -2.6202805112828935 
2.6000000000010624, -2.6198634797299 
2.6100000000010835, -2.619406483729432 
2.6200000000011046, -2.61896240761975 
2.6300000000011257, -2.6185756507946354 
2.6400000000011468, -2.6182445693827794 
2.650000000001168, -2.6179251180049303 
2.660000000001189, -2.617565171631656 
2.67000000000121, -2.617126176781664 
2.680000000001231, -2.6165866042995356 
2.6900000000012523, -2.615967128578842 
2.7000000000012734, -2.6153932031582108 
2.7100000000012945, -2.6150459018342502 
2.7200000000013156, -2.6149148773079403 
2.7300000000013367, -2.6148087845394454 
2.740000000001358, -2.6146007403858524 
2.750000000001379, -2.6142676769191993 
2.7600000000014, -2.6138247882690684 
2.770000000001421, -2.613300219113924 
2.780000000001442, -2.612747084786778 
2.7900000000014633, -2.612248736284242 
2.8000000000014844, -2.611861457866074 
2.8100000000015055, -2.611546388558064 
2.8200000000015266, -2.6112211328063726 
2.8300000000015477, -2.610838182502258 
2.840000000001569, -2.6103920113732286 
2.85000000000159, -2.6099154344434856 
2.860000000001611, -2.609482910317406 
2.870000000001632, -2.6091560932391302 
2.8800000000016532, -2.6089073402633423 
2.8900000000016743, -2.6086551277820456 
2.9000000000016954, -2.6083362872223232 
2.9100000000017165, -2.6079164610107948 
2.9200000000017377, -2.607375345440806 
2.9300000000017588, -2.606717085623939 
2.94000000000178, -2.6060291030686384 
2.950000000001801, -2.6055032610352664 
2.960000000001822, -2.6052332884135585 
2.970000000001843, -2.6050735387765456 
2.9800000000018643, -2.604860833793098 
2.9900000000018854, -2.6045460276783245 
3.0000000000019065, -2.604141646890093 
3.0100000000019276, -2.6036803847395515 
3.0200000000019487, -2.6032099976432717 
3.03000000000197, -2.602781621571388 
3.040000000001991, -2.6024166660310595 
3.050000000002012, -2.602086025242449 
3.060000000002033, -2.6017353483142793 
3.070000000002054, -2.601322541703781 
3.0800000000020753, -2.6008288705850537 
3.0900000000020964, -2.6002754334334144 
3.1000000000021175, -2.5997644984656967 
3.1100000000021386, -2.5994349303944606 
3.1200000000021597, -2.5992786669095818 
3.130000000002181, -2.599145764707867 
3.140000000002202, -2.598925541528546 
3.150000000002223, -2.5985861665356693 
3.160000000002244, -2.598128820166173 
3.1700000000022652, -2.597568571592972 
3.1800000000022863, -2.5969547124273857 
3.1900000000023074, -2.5963946306118193 
3.2000000000023285, -2.5959870314266125 
3.2100000000023496, -2.595698746239659 
3.2200000000023707, -2.5954173061608303 
3.230000000002392, -2.595076252048984 
3.240000000002413, -2.5946664765534937 
3.250000000002434, -2.594212843023609 
3.260000000002455, -2.593769546049365 
3.2700000000024763, -2.5933928700648954 
3.2800000000024974, -2.5930864970128105 
3.2900000000025185, -2.5928001822234914 
3.3000000000025396, -2.592475886915829 
3.3100000000025607, -2.592071924365455 
3.3200000000025818, -2.5915603160727883 
3.330000000002603, -2.590934485072311 
3.340000000002624, -2.590264087967995 
3.350000000002645, -2.589738337776728 
3.360000000002666, -2.5894862983488904 
3.3700000000026873, -2.5893777353637306 
3.3800000000027084, -2.5892232937983644 
3.3900000000027295, -2.588953355029819 
3.4000000000027506, -2.5885743520313023 
3.4100000000027717, -2.5881138441724163 
3.420000000002793, -2.5876129791610474 
3.430000000002814, -2.587130318558839 
3.440000000002835, -2.586718721061554 
3.450000000002856, -2.5863770778917887 
3.460000000002877, -2.5860489921036374 
3.4700000000028983, -2.58567894436908 
3.4800000000029194, -2.5852413876132854 
3.4900000000029405, -2.5847442585539175 
3.5000000000029616, -2.584249981510202 
3.5100000000029827, -2.5838672438202352 
3.520000000003004, -2.5836342169350712 
3.530000000003025, -2.583460063713335 
3.540000000003046, -2.5832383880396788 
3.550000000003067, -2.5829174463695943 
3.5600000000030882, -2.5824802694807802 
3.5700000000031094, -2.5819237358256224 
3.5800000000031305, -2.581274716823354 
3.5900000000031516, -2.5806360434734605 
3.6000000000031727, -2.5801609413969655 
3.6100000000031938, -2.5798768978521758 
3.620000000003215, -2.5796513575731574 
3.630000000003236, -2.5793728092856982 
3.640000000003257, -2.579013072082758 
3.650000000003278, -2.5785872743703533 
3.6600000000032993, -2.5781337678276643 
3.6700000000033204, -2.57770602206933 
3.6800000000033415, -2.5773397541172836 
3.6900000000033626, -2.577022320161687 
3.7000000000033837, -2.5767060338591947 
3.710000000003405, -2.5763416280666953 
3.720000000003426, -2.57589394935934 
3.730000000003447, -2.5753445126697208 
3.740000000003468, -2.574720919005809 
3.750000000003489, -2.574157173942127 
3.7600000000035103, -2.573827822400347 
3.7700000000035314, -2.573707707400879 
3.7800000000035525, -2.573606202581201 
3.7900000000035736, -2.5734025974485917 
3.8000000000035947, -2.573076438252685 
3.810000000003616, -2.572644008452291 
3.820000000003637, -2.5721338648513656 
3.830000000003658, -2.571596394370619 
3.840000000003679, -2.5711074708291877 
3.8500000000037002, -2.5707200697802066 
3.8600000000037213, -2.570403435734809 
3.8700000000037424, -2.5700817774617897 
3.8800000000037635, -2.5697062488643208 
3.8900000000037847, -2.569266546680131 
3.9000000000038058, -2.568788872473146 
3.910000000003827, -2.5683451756225226 
3.920000000003848, -2.5680107576807325 
3.930000000003869, -2.567773975842061 
3.94000000000389, -2.5675504372919473 
3.9500000000039113, -2.5672675471941413 
3.9600000000039324, -2.566887686281054 
3.9700000000039535, -2.566391148180954 
3.9800000000039746, -2.5657739241121846 
3.9900000000039957, -2.56508747407782 
4.000000000004016, -2.564486297442994 
4.010000000003993, -2.5641185238476845 
4.02000000000397, -2.563922044803802 
4.030000000003946, -2.56372665772528 
4.040000000003923, -2.563446461044868 
4.0500000000039, -2.5630761689034864 
4.0600000000038765, -2.5626406691948844 
4.070000000003853, -2.562181553235334 
4.08000000000383, -2.561749751400199 
4.090000000003807, -2.5613770653285846 
4.100000000003783, -2.5610503639591338 
4.11000000000376, -2.5607223117412956 
4.120000000003737, -2.560345352441935 
4.130000000003713, -2.559888791821618 
4.14000000000369, -2.5593452082810804 
4.150000000003667, -2.558765816257422 
4.1600000000036434, -2.5582958769791126 
4.17000000000362, -2.558052528423822 
4.180000000003597, -2.5579496737723355 
4.1900000000035735, -2.557819728889474 
4.20000000000355, -2.557579970829016 
4.210000000003527, -2.557219832169654 
4.220000000003504, -2.556752074044206 
4.23000000000348, -2.5562034739100423 
4.240000000003457, -2.555633697824123 
4.250000000003434, -2.555137029589641 
4.26000000000341, -2.5547679680604323 
4.270000000003387, -2.5544737521747325 
4.280000000003364, -2.554165704011825 
4.2900000000033405, -2.5537982921227256 
4.300000000003317, -2.5533685742922847 
4.310000000003294, -2.5529073754633345 
4.320000000003271, -2.5524799968253715 
4.330000000003247, -2.552143454395779 
4.340000000003224, -2.5518821048735534 
4.350000000003201, -2.551627506883139 
4.360000000003177, -2.551318782456982 
4.370000000003154, -2.5509189956905587 
4.380000000003131, -2.55040481532425 
4.390000000003107, -2.5497719655047963 
4.400000000003084, -2.549084788350137 
4.410000000003061, -2.548518974781561 
4.4200000000030375, -2.5482115641190957 
4.430000000003014, -2.548062765230804 
4.440000000002991, -2.5478921390139133 
4.450000000002968, -2.54762262993787 
4.460000000002944, -2.54725547355309 
4.470000000002921, -2.546817284126295 
4.480000000002898, -2.5463485493672424 
4.490000000002874, -2.545900679056299 
4.500000000002851, -2.545512428280807 
4.510000000002828, -2.5451784201137566 
4.520000000002804, -2.5448519517028925 
4.530000000002781, -2.544483227489961 
4.540000000002758, -2.54404217071398 
4.5500000000027345, -2.54352431257064 
4.560000000002711, -2.54297929640278 
4.570000000002688, -2.54253561812796 
4.580000000002665, -2.542291409788662 
4.590000000002641, -2.542170546705567 
4.600000000002618, -2.542025888379118 
4.610000000002595, -2.5417793576090224 
4.620000000002571, -2.541415060476213 
4.630000000002548, -2.5409388272340308 
4.640000000002525, -2.5403714573989875 
4.6500000000025015, -2.539772262999951 
4.660000000002478, -2.5392486924127002 
4.670000000002455, -2.538873985620867 
4.6800000000024315, -2.538595440334583 
4.690000000002408, -2.538310275252256 
4.700000000002385, -2.537964682969545 
4.710000000002362, -2.5375537278753773 
4.720000000002338, -2.537103686141652 
4.730000000002315, -2.5366702190395225 
4.740000000002292, -2.53630917867296 
4.750000000002268, -2.5360210568361437 
4.760000000002245, -2.5357525834686663 
4.770000000002222, -2.535445196171398 
4.7800000000021985, -2.535058299321844 
4.790000000002175, -2.5345648281459736 
4.800000000002152, -2.533954215490545 
4.810000000002129, -2.5332763642829277 
4.820000000002105, -2.5326960883661687 
4.830000000002082, -2.532374492115127 
4.840000000002059, -2.5322410754906235 
4.850000000002035, -2.5321045730015856 
4.860000000002012, -2.5318679906940025 
4.870000000001989, -2.5315247344188094 
4.880000000001965, -2.531098412757025 
4.890000000001942, -2.530625142397414 
4.900000000001919, -2.5301551487508958 
4.9100000000018955, -2.52973852251347 
4.920000000001872, -2.5293890326979476 
4.930000000001849, -2.5290682657024535 
4.940000000001826, -2.528721232864739 
4.950000000001802, -2.528311712436673 
4.960000000001779, -2.527828853122372 
4.970000000001756, -2.5273031019870627 
