t, s[1].omega / s[0].omega 
0, -3.3749948585471423 
0.009999999999999995, -3.3743657779570397 
0.019999999999999934, -3.373516660703306 
0.029999999999999874, -3.3726166822860484 
0.04000000000000012, -3.3720768772950565 
0.050000000000000405, -3.3718375298573386 
0.06000000000000069, -3.3715215791240603 
0.07000000000000098, -3.3710425820690326 
0.08000000000000126, -3.370453977511519 
0.09000000000000155, -3.3698482372303453 
0.10000000000000184, -3.3693195041204156 
0.11000000000000212, -3.368876843590286 
0.12000000000000241, -3.3684187954873046 
0.130000000000002, -3.3678570328278523 
0.1400000000000009, -3.3671929048614073 
0.1499999999999998, -3.3665954039368073 
0.1599999999999987, -3.366252758999636 
0.1699999999999976, -3.3660059409408567 
0.1799999999999965, -3.365645448877333 
0.1899999999999954, -3.365095335885575 
0.1999999999999943, -3.3643086659710564 
0.2099999999999932, -3.363325937810501 
0.2199999999999921, -3.3625856062791337 
0.229999999999991, -3.3623979176878414 
0.2399999999999899, -3.3622723436306208 
0.2499999999999888, -3.361929395441411 
0.2599999999999877, -3.3613934342588605 
0.2699999999999866, -3.360731810829546 
0.2799999999999855, -3.3600553292145685 
0.2899999999999844, -3.3595181486276564 
0.2999999999999833, -3.359109799730829 
0.3099999999999822, -3.3586678490317823 
0.3199999999999811, -3.358121124622548 
0.32999999999998, -3.3575163951182483 
0.3399999999999789, -3.3569943486506704 
0.3499999999999778, -3.3566078406104802 
0.35999999999997667, -3.356240359423881 
0.36999999999997557, -3.355776596572274 
0.37999999999997447, -3.3551426697557702 
0.38999999999997337, -3.3543011592470835 
0.39999999999997227, -3.353459133380749 
0.40999999999997117, -3.3531108094047313 
0.41999999999997006, -3.353074870833183 
0.42999999999996896, -3.352879561113677 
0.43999999999996786, -3.352441858654557 
0.44999999999996676, -3.351797429529957 
0.45999999999996566, -3.3510014382035975 
0.46999999999996456, -3.350251999773512 
0.47999999999996346, -3.3497908812403807 
0.48999999999996235, -3.349466454138208 
0.49999999999996125, -3.349051439870318 
0.5099999999999602, -3.3485163417180197 
0.519999999999959, -3.3479301615246593 
0.529999999999958, -3.347397550629304 
0.5399999999999568, -3.346953388836682 
0.5499999999999557, -3.3465302407342725 
0.5599999999999546, -3.346029726060304 
0.5699999999999535, -3.3453864664552713 
0.5799999999999524, -3.344630164200589 
0.5899999999999513, -3.3440481643452715 
0.5999999999999502, -3.343844368296022 
0.6099999999999491, -3.343694325797302 
0.619999999999948, -3.343358510809055 
0.6299999999999469, -3.3428014024820856 
0.6399999999999458, -3.342012640968477 
0.6499999999999447, -3.3410709844513797 
0.6599999999999436, -3.34036874956877 
0.6699999999999425, -3.3401011968089795 
0.6799999999999414, -3.339868795933757 
0.6899999999999403, -3.3394663342337707 
0.6999999999999392, -3.3389193764116194 
0.7099999999999381, -3.3383050146886126 
0.719999999999937, -3.33772576099676 
0.7299999999999359, -3.3372509487202615 
0.7399999999999348, -3.336822992326354 
0.7499999999999337, -3.336328115347681 
0.7599999999999326, -3.3357203579477135 
0.7699999999999315, -3.335075272376641 
0.7799999999999304, -3.334606365544 
0.7899999999999293, -3.334333056852292 
0.7999999999999282, -3.334037351675147 
0.8099999999999271, -3.333590636680455 
0.819999999999926, -3.3329375476438243 
0.8299999999999249, -3.332042848916383 
0.8399999999999238, -3.331102401532475 
0.8499999999999227, -3.3306541039419733 
0.8599999999999216, -3.3305815938042054 
0.8699999999999205, -3.3303815670969277 
0.8799999999999194, -3.3299573020904525 
0.8899999999999183, -3.329363060270336 
0.8999999999999172, -3.3286741055091857 
0.9099999999999161, -3.3280316158436003 
0.919999999999915, -3.327563008687803 
0.9299999999999139, -3.327169731143871 
0.9399999999999128, -3.326702443521905 
0.9499999999999117, -3.3261340731750098 
0.9599999999999106, -3.325546728096407 
0.9699999999999095, -3.3250747063195334 
0.9799999999999084, -3.32470901081845 
0.9899999999999073, -3.3243244110594703 
0.9999999999999062, -3.3238227655721255 
1.0099999999999052, -3.3231374244779275 
1.019999999999904, -3.3222658205446036 
1.029999999999903, -3.3215271556400623 
1.039999999999902, -3.3213203455192057 
1.0499999999999008, -3.321277406243227 
1.0599999999998997, -3.3210277090509726 
1.0699999999998986, -3.3205448280419545 
1.0799999999998975, -3.319864647400764 
1.0899999999998964, -3.3190580498313986 
1.0999999999998953, -3.318358252928764 
1.1099999999998942, -3.3179513683214417 
1.119999999999893, -3.317627259940646 
1.129999999999892, -3.317196079803817 
1.1399999999998909, -3.316652104082798 
1.1499999999998898, -3.3160731213228387 
1.1599999999998887, -3.315559600498549 
1.1699999999998876, -3.315130053617608 
1.1799999999998865, -3.314708551041636 
1.1899999999998854, -3.3141999037506977 
1.1999999999998843, -3.313544820557657 
1.2099999999998832, -3.312788533345163 
1.219999999999882, -3.312237532433953 
1.229999999999881, -3.3120604681337347 
1.2399999999998799, -3.3119150226673044 
1.2499999999998788, -3.3115782894640082 
1.2599999999998777, -3.311021336471979 
1.2699999999998766, -3.3102370067415534 
1.2799999999998755, -3.3093074104822966 
1.2899999999998744, -3.308612268169083 
1.2999999999998733, -3.3083383718006187 
1.3099999999998722, -3.3081044208105546 
1.319999999999871, -3.3077073960614327 
1.32999999999987, -3.307169222789617 
1.3399999999998689, -3.306565340451538 
1.3499999999998678, -3.3059951729792636 
1.3599999999998666, -3.3055244274948414 
1.3699999999998655, -3.3051012954987207 
1.3799999999998644, -3.304615509747071 
1.3899999999998633, -3.304015064493562 
1.3999999999998622, -3.3033607621734284 
1.4099999999998611, -3.3028704995816733 
1.41999999999986, -3.3026059161749357 
1.429999999999859, -3.302343435478565 
1.4399999999998578, -3.301934416351531 
1.4499999999998567, -3.3013245057677167 
1.4599999999998556, -3.3004737575127896 
1.4699999999998545, -3.299504328424766 
1.4799999999998534, -3.298924361207985 
1.4899999999998523, -3.298811346055216 
1.4999999999998512, -3.298652180333093 
1.5099999999998501, -3.2982751058742723 
1.519999999999849, -3.2977231738422503 
1.529999999999848, -3.2970662526922445 
1.5399999999998468, -3.2964208191027367 
1.5499999999998457, -3.29592014570141 
1.5599999999998446, -3.2955223071075883 
1.5699999999998435, -3.2950771581107383 
1.5799999999998424, -3.2945284284627028 
1.5899999999998413, -3.293929821057707 
1.5999999999998402, -3.2934274430791426 
1.6099999999998391, -3.2930673216959585 
1.619999999999838, -3.292722841627318 
1.629999999999837, -3.2922780134393372 
1.6399999999998358, -3.2916621174335425 
1.6499999999998347, -3.2908312122587153 
1.6599999999998336, -3.2899478901673698 
1.6699999999998325, -3.289518535379506 
1.6799999999998314, -3.2894876103804926 
1.6899999999998303, -3.289347669644448 
1.6999999999998292, -3.2889671229658455 
1.709999999999828, -3.28838348212944 
1.719999999999827, -3.287648146365504 
1.729999999999826, -3.286902919075991 
1.7399999999998248, -3.2863787635603074 
1.7499999999998237, -3.2860345685628025 
1.7599999999998226, -3.2856464241222083 
1.7699999999998215, -3.2851429128618284 
1.7799999999998204, -3.2845692997564386 
1.7899999999998193, -3.2840324379383694 
1.7999999999998182, -3.2835946362968826 
1.809999999999817, -3.2832006038828503 
1.819999999999816, -3.282751902986308 
1.8299999999998149, -3.2821704407437275 
1.8399999999998138, -3.281423286250827 
1.8499999999998127, -3.280668199019659 
1.8599999999998116, -3.280298356625565 
1.8699999999998105, -3.280226249136754 
1.8799999999998094, -3.280048116874589 
1.8899999999998083, -3.27964593679877 
1.8999999999998072, -3.2790250377653813 
1.909999999999806, -3.278203490281604 
1.919999999999805, -3.2773457485380617 
1.9299999999998039, -3.2768094954022837 
1.9399999999998028, -3.276551975272864 
1.9499999999998017, -3.2762405917269355 
1.9599999999998006, -3.2757817485032454 
1.9699999999997995, -3.2752193229052673 
1.9799999999997984, -3.274641303283718 
1.9899999999997973, -3.274134041042899 
1.9999999999997962, -3.2737061818826207 
2.0099999999998173, -3.2732726081999908 
2.0199999999998384, -3.272742887261887 
2.0299999999998595, -3.272087677703915 
2.0399999999998806, -3.2714224966288463 
2.0499999999999017, -3.271018118994803 
2.059999999999923, -3.270837826842034 
2.069999999999944, -3.2705973305416607 
2.079999999999965, -3.270174378561472 
2.089999999999986, -3.269535859914483 
2.100000000000007, -3.2686627533754233 
2.1100000000000283, -3.267723541276748 
2.1200000000000494, -3.2671942972321064 
2.1300000000000705, -3.2670460456645807 
2.1400000000000916, -3.2668278364467858 
2.1500000000001127, -3.2664176913045067 
2.160000000000134, -3.265862357451114 
2.170000000000155, -3.265238613198908 
2.180000000000176, -3.264654496044648 
2.190000000000197, -3.2641904673708133 
2.2000000000002182, -3.263781566872454 
2.2100000000002393, -3.263308195258889 
2.2200000000002604, -3.262728942628157 
2.2300000000002815, -3.262113802167943 
2.2400000000003026, -3.261644636954359 
2.2500000000003237, -3.261349494486513 
2.260000000000345, -3.261049998172819 
2.270000000000366, -3.2606219268261256 
2.280000000000387, -3.260004541688249 
2.290000000000408, -3.259154299832751 
2.3000000000004293, -3.2582124839751865 
2.3100000000004504, -3.257695647446448 
2.3200000000004715, -3.2576323583595714 
2.3300000000004926, -3.2575023250982724 
2.3400000000005137, -3.2571431921809713 
2.3500000000005348, -3.2565969110000323 
2.360000000000556, -3.2559258857616493 
2.370000000000577, -3.2552465729351026 
2.380000000000598, -3.254724654139589 
2.390000000000619, -3.2543438568413263 
2.4000000000006403, -3.253933513860434 
2.4100000000006614, -3.253419654078251 
2.4200000000006825, -3.252838733759848 
2.4300000000007036, -3.2523133393853714 
2.4400000000007247, -3.2519174668345388 
2.450000000000746, -3.2515667197868536 
2.460000000000767, -3.251147508705717 
2.470000000000788, -3.2505827438187027 
2.480000000000809, -3.249820310014608 
2.49000000000083, -3.2489500795760398 
2.5000000000008513, -3.248417316782281 
2.5100000000008724, -3.2483521237489468 
2.5200000000008935, -3.248270743651343 
2.5300000000009146, -3.2479571263732963 
2.5400000000009357, -3.2474273456089704 
2.550000000000957, -3.246718970314793 
2.560000000000978, -3.245930653996041 
2.570000000000999, -3.245310382476851 
2.58000000000102, -3.2449508147043518 
2.5900000000010412, -3.244618945392201 
2.6000000000010624, -3.2441745304863496 
2.6100000000010835, -3.2436295370479096 
2.6200000000011046, -3.2430682575474337 
2.6300000000011257, -3.242585234045246 
2.6400000000011468, -3.2421808938894094 
2.650000000001168, -3.2417722778523106 
2.660000000001189, -3.2412694340164285 
2.67000000000121, -3.2406146958963453 
2.680000000001231, -3.2398453839245533 
2.6900000000012523, -3.2392673749893417 
2.7000000000012734, -3.2390998609758035 
2.7100000000012945, -3.239005435275549 
2.7200000000013156, -3.2387238120080815 
2.7300000000013367, -3.238223439226096 
2.740000000001358, -3.237508164815025 
2.750000000001379, -3.236629332154661 
2.7600000000014, -3.235868712521647 
2.770000000001421, -3.2354996171250576 
2.780000000001442, -3.2352661492953763 
2.7900000000014633, -3.2349105302100982 
2.8000000000014844, -3.234414766557779 
2.8100000000015055, -3.233841422962711 
2.8200000000015266, -3.23328349654917 
2.8300000000015477, -3.232810070839574 
2.840000000001569, -3.232398392738891 
2.85000000000159, -3.2319515745651834 
2.860000000001611, -3.2313941932317194 
2.870000000001632, -3.230724004832875 
2.8800000000016532, -3.230109526303741 
2.8900000000016743, -3.229788809843039 
2.9000000000016954, -3.229623212418627 
2.9100000000017165, -3.229355284974905 
2.9200000000017377, -3.2288983985009496 
2.9300000000017588, -3.2282230358993305 
2.94000000000178, -3.2273233313519554 
2.950000000001801, -3.226424422068618 
2.960000000001822, -3.22597955333066 
2.970000000001843, -3.2258451983625194 
2.9800000000018643, -3.225607182200536 
2.9900000000018854, -3.225183620397098 
3.0000000000019065, -3.224625742310657 
3.0100000000019276, -3.224011912280968 
3.0200000000019487, -3.2234476248504698 
3.03000000000197, -3.222999149956941 
3.040000000001991, -3.2225941632883917 
3.050000000002012, -3.222120290320575 
3.060000000002033, -3.221540204458164 
3.070000000002054, -3.2209260929317964 
3.0800000000020753, -3.2204653563360472 
3.0900000000020964, -3.2201884754519035 
3.1000000000021175, -3.219909921241289 
3.1100000000021386, -3.219501590014912 
3.1200000000021597, -3.21890553102238 
3.130000000002181, -3.218077589270785 
3.140000000002202, -3.217123556189505 
3.150000000002223, -3.216528607579355 
3.160000000002244, -3.216429788561978 
3.1700000000022652, -3.216325143108893 
3.1800000000022863, -3.216001948273822 
3.1900000000023074, -3.2154913413483435 
3.2000000000023285, -3.2148547349706504 
3.2100000000023496, -3.2141911472128855 
3.2200000000023707, -3.21364969623871 
3.230000000002392, -3.21325434761196 
3.240000000002413, -3.2128566441094897 
3.250000000002434, -3.212363080252259 
3.260000000002455, -3.2117871175443318 
3.2700000000024763, -3.2112414014756503 
3.2800000000024974, -3.2108383547562527 
3.2900000000025185, -3.210515230951386 
3.3000000000025396, -3.21014275800509 
3.3100000000025607, -3.209636694091775 
3.3200000000025818, -3.208937203661761 
3.330000000002603, -3.2080501920627853 
3.340000000002624, -3.2073033661116583 
3.350000000002645, -3.207097971807072 
3.360000000002666, -3.2070850417339165 
3.3700000000026873, -3.206880438156874 
3.3800000000027084, -3.2064494729928854 
3.3900000000027295, -3.205836182327912 
3.4000000000027506, -3.2051029142978686 
3.4100000000027717, -3.204414525852613 
3.420000000002793, -3.2039547025012878 
3.430000000002814, -3.203620296190188 
3.440000000002835, -3.2032210868055815 
3.450000000002856, -3.2027128020193927 
3.460000000002877, -3.202149083571848 
3.4700000000028983, -3.2016398126146006 
3.4800000000029194, -3.2012344422161076 
3.4900000000029405, -3.2008640721397725 
3.5000000000029616, -3.20043111492828 
3.5100000000029827, -3.199861517272176 
3.520000000003004, -3.1991156478882092 
3.530000000003025, -3.1983206415477534 
3.540000000003046, -3.1978887801077374 
3.550000000003067, -3.19783772793766 
3.5600000000030882, -3.197731894829684 
3.5700000000031094, -3.1974029436868685 
3.5800000000031305, -3.1968602810645375 
3.5900000000031516, -3.196127626465066 
3.6000000000031727, -3.19530305074113 
3.6100000000031938, -3.194667267970221 
3.620000000003215, -3.1943351523462065 
3.630000000003236, -3.194044050635864 
3.640000000003257, -3.1936331672467584 
3.650000000003278, -3.1931103129298033 
3.6600000000032993, -3.1925493984519027 
3.6700000000033204, -3.1920445066678367 
3.6800000000033415, -3.1916241167615613 
3.6900000000033626, -3.1912261104840933 
3.7000000000033837, -3.190758293299374 
3.710000000003405, -3.190157435634909 
3.720000000003426, -3.1894328952014543 
3.730000000003447, -3.1888107982268705 
3.740000000003468, -3.1885631800454375 
3.750000000003489, -3.1884711622721222 
3.7600000000035103, -3.188239459028214 
3.7700000000035314, -3.187799366065165 
3.7800000000035525, -3.187144937932695 
3.7900000000035736, -3.186290370540385 
3.8000000000035947, -3.185434747071448 
3.810000000003616, -3.1849510729245414 
3.820000000003637, -3.1847438931710323 
3.830000000003658, -3.1844679664352666 
3.840000000003679, -3.1840369300960782 
3.8500000000037002, -3.1834940643079745 
3.8600000000037213, -3.1829198293855345 
3.8700000000037424, -3.1824036731427556 
3.8800000000037635, -3.181976559151205 
3.8900000000037847, -3.1815689058002645 
3.9000000000038058, -3.1810851185871027 
3.910000000003827, -3.1804812247349132 
3.920000000003848, -3.1798188145014343 
3.930000000003869, -3.1793338563763056 
3.94000000000389, -3.1791196221342566 
3.9500000000039113, -3.1789326784109706 
3.9600000000039324, -3.178597463732433 
3.9700000000039535, -3.178066344527349 
3.9800000000039746, -3.177309864900034 
3.9900000000039957, -3.17636901481575 
4.000000000004016, -3.1755934520804456 
4.010000000003993, -3.175312658392212 
4.02000000000397, -3.175185460361066 
4.030000000003946, -3.1749005592732304 
4.040000000003923, -3.1744424539086458 
4.0500000000039, -3.1738703079374053 
4.0600000000038765, -3.173267900551019 
4.070000000003853, -3.1727380756254804 
4.08000000000383, -3.172317593616513 
4.090000000003807, -3.1719135815332655 
4.100000000003783, -3.171427505610393 
4.11000000000376, -3.1708380636404363 
4.120000000003737, -3.170237994239597 
4.130000000003713, -3.169816623757539 
4.14000000000369, -3.169567490794363 
4.150000000003667, -3.169297220143643 
4.1600000000036434, -3.1688889487482776 
4.17000000000362, -3.1682902642525184 
4.180000000003597, -3.1674611336665537 
4.1900000000035735, -3.166511084559401 
4.20000000000355, -3.1659109331177664 
4.210000000003527, -3.1658007733377653 
4.220000000003504, -3.16570022273435 
4.23000000000348, -3.165391328785095 
4.240000000003457, -3.1649004374952563 
4.250000000003434, -3.164288545019131 
4.26000000000341, -3.163646925903607 
4.270000000003387, -3.1631078763339926 
4.280000000003364, -3.162706707423676 
4.2900000000033405, -3.1623160225227567 
4.300000000003317, -3.161836720411593 
4.310000000003294, -3.1612670585825047 
4.320000000003271, -3.1607079447792925 
4.330000000003247, -3.1602981567970256 
4.340000000003224, -3.1600012279226526 
4.350000000003201, -3.1596728307823616 
4.360000000003177, -3.159219026642273 
4.370000000003154, -3.1585805230985495 
4.380000000003131, -3.157725370502214 
4.390000000003107, -3.156846104671577 
4.400000000003084, -3.1564355481548514 
4.410000000003061, -3.156417805808153 
4.4200000000030375, -3.1563060160536063 
4.430000000003014, -3.155966519779088 
4.440000000002991, -3.1554389411432564 
4.450000000002968, -3.1547781887882094 
4.460000000002944, -3.1540899995078147 
4.470000000002921, -3.1535482662978684 
4.480000000002898, -3.153177035881847 
4.490000000002874, -3.152807292976005 
4.500000000002851, -3.1523403376453922 
4.510000000002828, -3.151788221481968 
4.520000000002804, -3.151247435639097 
4.530000000002781, -3.1508240215109833 
4.540000000002758, -3.1504857728431412 
4.5500000000027345, -3.1501217997443125 
4.560000000002711, -3.1496456796550936 
4.570000000002688, -3.1489960624591804 
4.580000000002665, -3.1481606618398983 
4.590000000002641, -3.1473886587008275 
4.600000000002618, -3.1471098289244015 
4.610000000002595, -3.1471128022269044 
4.620000000002571, -3.1469716801142154 
4.630000000002548, -3.146601584249395 
4.640000000002525, -3.1460368259832254 
4.6500000000025015, -3.145322014219267 
4.660000000002478, -3.144582849436644 
4.670000000002455, -3.1440436069235003 
4.6800000000024315, -3.143710752736721 
4.690000000002408, -3.1433688467464025 
4.700000000002385, -3.142918131109839 
4.710000000002362, -3.142379277384584 
4.720000000002338, -3.141840724963496 
4.730000000002315, -3.1413934085007735 
4.740000000002292, -3.14102285830298 
4.750000000002268, -3.140640206247754 
4.760000000002245, -3.1401602156425725 
4.770000000002222, -3.1395232087590124 
4.7800000000021985, -3.138735133893353 
4.790000000002175, -3.138057130886452 
4.800000000002152, -3.137833407136159 
4.810000000002129, -3.1378136253928455 
4.820000000002105, -3.1376398063494233 
4.830000000002082, -3.1372445510453284 
4.840000000002059, -3.13664748071169 
4.850000000002035, -3.1358799924493197 
4.860000000002012, -3.135087821704889 
4.870000000001989, -3.1345516827998163 
4.880000000001965, -3.1342631362324944 
4.890000000001942, -3.1339563038796725 
4.900000000001919, -3.1335258903341865 
4.9100000000018955, -3.132997475407051 
4.920000000001872, -3.132451777195976 
4.930000000001849, -3.1319759183356233 
4.940000000001826, -3.1315788839137992 
4.950000000001802, -3.131188893393066 
4.960000000001779, -3.1307184634391154 
4.970000000001756, -3.130109420956265 
