t, s[1].omega / s[0].omega 
0, -0.2299978066355807 
0.009999999999999995, -0.22978180715890817 
0.019999999999999934, -0.22957168187918722 
0.029999999999999874, -0.22936543183507344 
0.04000000000000012, -0.22916028538846583 
0.050000000000000405, -0.2289532834821991 
0.06000000000000069, -0.22874174634499975 
0.07000000000000098, -0.22852350159441373 
0.08000000000000126, -0.22829687200835286 
0.09000000000000155, -0.2280604994715842 
0.10000000000000184, -0.22781310000218427 
0.11000000000000212, -0.2275532253044191 
0.12000000000000241, -0.22727908185121737 
0.130000000000002, -0.22698845014268434 
0.1400000000000009, -0.2266787580086818 
0.1499999999999998, -0.22634737911097128 
0.1599999999999987, -0.22599221950083265 
0.1699999999999976, -0.2256125764520053 
0.1799999999999965, -0.22521008025029515 
0.1899999999999954, -0.22478932344346983 
0.1999999999999943, -0.22435772362310374 
0.2099999999999932, -0.22392442855230632 
0.2199999999999921, -0.22349857875660506 
0.229999999999991, -0.2230876218970015 
0.2399999999999899, -0.2226963091073642 
0.2499999999999888, -0.2223265783799478 
0.2599999999999877, -0.2219781046687798 
0.2699999999999866, -0.22164912462212155 
0.2799999999999855, -0.22133721303691853 
0.2899999999999844, -0.22103984978129582 
0.2999999999999833, -0.22075475037358888 
0.3099999999999822, -0.22048000066693113 
0.3199999999999811, -0.22021404791286137 
0.32999999999998, -0.21995558296356096 
0.3399999999999789, -0.2197033237254835 
0.3499999999999778, -0.21945569538797152 
0.35999999999997667, -0.2192104167760321 
0.36999999999997557, -0.21896406672889096 
0.37999999999997447, -0.21871183078418052 
0.38999999999997337, -0.21844776950480638 
0.39999999999997227, -0.21816594535287642 
0.40999999999997117, -0.21786237800179387 
0.41999999999997006, -0.2175370896355863 
0.42999999999996896, -0.217195009135829 
0.43999999999996786, -0.21684494455828274 
0.44999999999996676, -0.2164970780383005 
0.45999999999996566, -0.21616035906404168 
0.46999999999996456, -0.21584096614163636 
0.47999999999996346, -0.2155420978617971 
0.48999999999996235, -0.21526464583666982 
0.49999999999996125, -0.21500815615540297 
0.5099999999999602, -0.21477168993048323 
0.519999999999959, -0.21455444054528874 
0.529999999999958, -0.21435611426943418 
0.5399999999999568, -0.2141771293004333 
0.5499999999999557, -0.21401867706450858 
0.5599999999999546, -0.2138826529369525 
0.5699999999999535, -0.21377142122512827 
0.5799999999999524, -0.2136873471371759 
0.5899999999999513, -0.21363203144827742 
0.5999999999999502, -0.21360526087391948 
0.6099999999999491, -0.21360387259771887 
0.619999999999948, -0.2136209907126123 
0.6299999999999469, -0.2136462453480071 
0.6399999999999458, -0.21366734831318732 
0.6499999999999447, -0.21367268610605028 
0.6599999999999436, -0.21365384408335708 
0.6699999999999425, -0.21360690972000337 
0.6799999999999414, -0.21353217315776868 
0.6899999999999403, -0.21343276092605276 
0.6999999999999392, -0.21331307421198856 
0.7099999999999381, -0.21317762721339867 
0.719999999999937, -0.21303043922951917 
0.7299999999999359, -0.212874861054898 
0.7399999999999348, -0.21271365163142814 
0.7499999999999337, -0.21254916341449479 
0.7599999999999326, -0.2123835542938087 
0.7699999999999315, -0.21221898103288694 
0.7799999999999304, -0.2120577388092663 
0.7899999999999293, -0.21190230274432037 
0.7999999999999282, -0.21175521657843968 
0.8099999999999271, -0.21161878253597316 
0.819999999999926, -0.21149455585691362 
0.8299999999999249, -0.21138274189625564 
0.8399999999999238, -0.2112817017228142 
0.8499999999999227, -0.21118782259424757 
0.8599999999999216, -0.21109592630264964 
0.8699999999999205, -0.2110001637601296 
0.8799999999999194, -0.21089509330880563 
0.8899999999999183, -0.21077654094510961 
0.8999999999999172, -0.21064197269912457 
0.9099999999999161, -0.21049036712479302 
0.919999999999915, -0.21032177449800815 
0.9299999999999139, -0.2101367952970897 
0.9399999999999128, -0.20993614325444346 
0.9499999999999117, -0.20972036620144383 
0.9599999999999106, -0.20948973730285667 
0.9699999999999095, -0.2092443077378691 
0.9799999999999084, -0.20898410971699044 
0.9899999999999073, -0.20870948989988838 
0.9999999999999062, -0.20842151806928116 
1.0099999999999052, -0.20812235381083016 
1.019999999999904, -0.2078153981281589 
1.029999999999903, -0.20750507002072305 
1.039999999999902, -0.20719617476838553 
1.0499999999999008, -0.20689303068012627 
1.0599999999998997, -0.2065986665465355 
1.0699999999998986, -0.2063143803854258 
1.0799999999998975, -0.20603977260090228 
1.0899999999998964, -0.20577315589413342 
1.0999999999998953, -0.20551212230847776 
1.1099999999998942, -0.20525405242863223 
1.119999999999893, -0.2049964400080057 
1.129999999999892, -0.2047370072611036 
1.1399999999998909, -0.20447365322392855 
1.1499999999998898, -0.204204299557094 
1.1599999999998887, -0.20392669163261248 
1.1699999999998876, -0.20363820181531703 
1.1799999999998865, -0.20333568509612587 
1.1899999999998854, -0.20301546281046398 
1.1999999999998843, -0.20267355063068132 
1.2099999999998832, -0.20230626748422892 
1.219999999999882, -0.20191129243288225 
1.229999999999881, -0.20148900664280908 
1.2399999999998799, -0.20104360971260324 
1.2499999999998788, -0.20058329560317456 
1.2599999999998777, -0.2001190542445584 
1.2699999999998766, -0.19966241493916279 
1.2799999999998755, -0.1992231028547806 
1.2899999999998744, -0.19880756538469563 
1.2999999999998733, -0.19841871328778887 
1.3099999999998722, -0.1980565852208283 
1.319999999999871, -0.19771939352300552 
1.32999999999987, -0.19740451532068742 
1.3399999999998689, -0.1971092215928223 
1.3499999999998678, -0.19683111554793872 
1.3599999999998666, -0.19656833447914393 
1.3699999999998655, -0.19631957991926824 
1.3799999999998644, -0.19608401558850044 
1.3899999999998633, -0.19586103762713405 
1.3999999999998622, -0.19564989530107127 
1.4099999999998611, -0.1954491437317199 
1.41999999999986, -0.19525597407822107 
1.429999999999859, -0.19506561890515 
1.4399999999998578, -0.19487124089917643 
1.4499999999998567, -0.19466480828925278 
1.4599999999998556, -0.1944391435305988 
1.4699999999998545, -0.19419051016334277 
1.4799999999998534, -0.19392033642781187 
1.4899999999998523, -0.1936349012616037 
1.4999999999998512, -0.1933431280540434 
1.5099999999998501, -0.19305384336117282 
1.519999999999849, -0.19277387302485027 
1.529999999999848, -0.19250745340268288 
1.5399999999998468, -0.192256623276485 
1.5499999999998457, -0.1920220205683225 
1.5599999999998446, -0.19180366780347705 
1.5699999999998435, -0.19160157017041568 
1.5799999999998424, -0.19141610625314948 
1.5899999999998413, -0.19124824872689067 
1.5999999999998402, -0.1910996473263923 
1.6099999999998391, -0.19097257307163 
1.619999999999838, -0.19086968218591485 
1.629999999999837, -0.19079352860812773 
1.6399999999998358, -0.19074576362593682 
1.6499999999998347, -0.19072605153969963 
1.6599999999998336, -0.1907309320882969 
1.6699999999998325, -0.19075312467320532 
1.6799999999998314, -0.19078189377312765 
1.6899999999998303, -0.19080479407580586 
1.6999999999998292, -0.19081035277568198 
1.709999999999828, -0.1907905368466338 
1.719999999999827, -0.1907418961904887 
1.729999999999826, -0.1906651134960658 
1.7399999999998248, -0.19056357348008932 
1.7499999999998237, -0.19044181803121413 
1.7599999999998226, -0.19030443569101813 
1.7699999999998215, -0.19015550142158835 
1.7799999999998204, -0.18999843480596318 
1.7899999999998193, -0.18983609562301146 
1.7999999999998182, -0.1896709810256974 
1.809999999999817, -0.18950544431856337 
1.819999999999816, -0.1893418873760485 
1.8299999999998149, -0.18918288428678928 
1.8399999999998138, -0.18903118398328472 
1.8499999999998127, -0.18888953310025713 
1.8599999999998116, -0.1887602804427473 
1.8699999999998105, -0.18864479038432475 
1.8799999999998094, -0.18854280131160076 
1.8899999999998083, -0.1884519733561986 
1.8999999999998072, -0.18836789496668283 
1.909999999999806, -0.1882846865041844 
1.919999999999805, -0.18819607034907598 
1.9299999999998039, -0.18809652552413042 
1.9399999999998028, -0.1879821000527259 
1.9499999999998017, -0.1878506557145279 
1.9599999999998006, -0.1877016075472861 
1.9699999999997995, -0.1875353977344503 
1.9799999999997984, -0.1873529488324947 
1.9899999999997973, -0.1871552468777233 
1.9999999999997962, -0.18694310675172718 
2.0099999999998173, -0.18671711635623603 
2.0199999999998384, -0.18647773878394167 
2.0299999999998595, -0.18622554755744736 
2.0399999999998806, -0.18596155426750133 
2.0499999999999017, -0.18568754852248137 
2.059999999999923, -0.1854063191253133 
2.069999999999944, -0.18512160448527185 
2.079999999999965, -0.18483768030261932 
2.089999999999986, -0.1845586419162361 
2.100000000000007, -0.18428760510636968 
2.1100000000000283, -0.18402611812908684 
2.1200000000000494, -0.18377399142393036 
2.1300000000000705, -0.18352956281320737 
2.1400000000000916, -0.18329024086579648 
2.1500000000001127, -0.1830530956671826 
2.160000000000134, -0.18281530685119993 
2.170000000000155, -0.1825743827942396 
2.180000000000176, -0.1823281651501083 
2.190000000000197, -0.18207468842464553 
2.2000000000002182, -0.18181197378072117 
2.2100000000002393, -0.18153782310191227 
2.2200000000002604, -0.1812496690417469 
2.2300000000002815, -0.18094454346833153 
2.2400000000003026, -0.180619247969747 
2.2500000000003237, -0.18027082224347496 
2.260000000000345, -0.17989736133969525 
2.270000000000366, -0.17949907859791756 
2.280000000000387, -0.17907925967508848 
2.290000000000408, -0.17864456283648542 
2.3000000000004293, -0.1782042465097444 
2.3100000000004504, -0.1777684230399095 
2.3200000000004715, -0.17734601801435562 
2.3300000000004926, -0.1769432704111577 
2.3400000000005137, -0.17656322778282396 
2.3500000000005348, -0.1762061368424088 
2.360000000000556, -0.17587030661853892 
2.370000000000577, -0.17555302139468093 
2.380000000000598, -0.17525125290371527 
2.390000000000619, -0.1749620971201818 
2.4000000000006403, -0.17468296458063512 
2.4100000000006614, -0.17441158532523507 
2.4200000000006825, -0.17414587960451028 
2.4300000000007036, -0.17388372221567067 
2.4400000000007247, -0.17362261375555443 
2.450000000000746, -0.1733592862348867 
2.460000000000767, -0.17308933434042853 
2.470000000000788, -0.1728070849912739 
2.480000000000809, -0.1725060465259358 
2.49000000000083, -0.17218025314995428 
2.5000000000008513, -0.17182642133347958 
2.5100000000008724, -0.17144608670614678 
2.5200000000008935, -0.17104638146719772 
2.5300000000009146, -0.1706386231973846 
2.5400000000009357, -0.17023528785114686 
2.550000000000957, -0.1698469719109215 
2.560000000000978, -0.16948068204261407 
2.570000000000999, -0.16913971195993988 
2.58000000000102, -0.16882453852942955 
2.5900000000010412, -0.16853401748222824 
2.6000000000010624, -0.16826641973098938 
2.6100000000010835, -0.16802015100785128 
2.6200000000011046, -0.16779417444701655 
2.6300000000011257, -0.16758820981936903 
2.6400000000011468, -0.16740276687940744 
2.650000000001168, -0.16723902576352995 
2.660000000001189, -0.16709852843567913 
2.67000000000121, -0.16698261130901243 
2.680000000001231, -0.16689152257596324 
2.6900000000012523, -0.1668232796784606 
2.7000000000012734, -0.16677257214058933 
2.7100000000012945, -0.16673033349152414 
2.7200000000013156, -0.16668470558026138 
2.7300000000013367, -0.16662360596235548 
2.740000000001358, -0.1665380143694743 
2.750000000001379, -0.16642428967327721 
2.7600000000014, -0.16628430102904293 
2.770000000001421, -0.16612362750220003 
2.780000000001442, -0.1659491506509915 
2.7900000000014633, -0.16576724144550098 
2.8000000000014844, -0.1655829480318371 
2.8100000000015055, -0.16539996463100876 
2.8200000000015266, -0.16522098675742464 
2.8300000000015477, -0.1650481581804132 
2.840000000001569, -0.16488346545248106 
2.85000000000159, -0.16472903369502903 
2.860000000001611, -0.16458731293259038 
2.870000000001632, -0.16446113862030887 
2.8800000000016532, -0.16435362528801212 
2.8900000000016743, -0.1642678292816163 
2.9000000000016954, -0.16420612200567591 
2.9100000000017165, -0.16416928358745048 
2.9200000000017377, -0.16415548438166996 
2.9300000000017588, -0.1641595375464923 
2.94000000000178, -0.16417293811171962 
2.950000000001801, -0.16418503458534187 
2.960000000001822, -0.16418513331229048 
2.970000000001843, -0.1641647242863758 
2.9800000000018643, -0.16411887686709922 
2.9900000000018854, -0.16404636321238497 
3.0000000000019065, -0.16394878464552468 
3.0100000000019276, -0.16382933953793408 
3.0200000000019487, -0.1636917635679893 
3.03000000000197, -0.16353966517586482 
3.040000000001991, -0.16337623848327815 
3.050000000002012, -0.16320424020226418 
3.060000000002033, -0.16302611758988936 
3.070000000002054, -0.1628442047713514 
3.0800000000020753, -0.162660926038264 
3.0900000000020964, -0.16247894639007093 
3.1000000000021175, -0.16230119961585185 
3.1100000000021386, -0.1621307228998519 
3.1200000000021597, -0.16197025907325752 
3.130000000002181, -0.16182166713969728 
3.140000000002202, -0.1616852926909603 
3.150000000002223, -0.16155953908309104 
3.160000000002244, -0.16144087567445586 
3.1700000000022652, -0.16132437791071919 
3.1800000000022863, -0.16120465824489988 
3.1900000000023074, -0.16107685307523223 
3.2000000000023285, -0.16093731650409387 
3.2100000000023496, -0.16078384579650384 
3.2200000000023707, -0.16061549238771541 
3.230000000002392, -0.16043214986450363 
3.240000000002413, -0.16023411606824986 
3.250000000002434, -0.1600217567164152 
3.260000000002455, -0.15979532444364714 
3.2700000000024763, -0.15955494407129706 
3.2800000000024974, -0.15930075794669782 
3.2900000000025185, -0.1590332119283617 
3.3000000000025396, -0.15875343070276776 
3.3100000000025607, -0.15846357408112782 
3.3200000000025818, -0.15816700858630559 
3.330000000002603, -0.1578681278896759 
3.340000000002624, -0.157571761926322 
3.350000000002645, -0.1572823060514285 
3.360000000002666, -0.1570028656096749 
3.3700000000026873, -0.1567347268174138 
3.3800000000027084, -0.1564773150298357 
3.3900000000027295, -0.15622858665407582 
3.4000000000027506, -0.155985646525242 
3.4100000000027717, -0.1557453503357335 
3.420000000002793, -0.15550472319899786 
3.430000000002814, -0.15526113733794705 
3.440000000002835, -0.1550122831940685 
3.450000000002856, -0.15475601120415053 
3.460000000002877, -0.1544901240856791 
3.4700000000028983, -0.15421218707594203 
3.4800000000029194, -0.15391941883433996 
3.4900000000029405, -0.15360873745650866 
3.5000000000029616, -0.15327705374354358 
3.5100000000029827, -0.1529218928463451 
3.520000000003004, -0.15254233206844153 
3.530000000003025, -0.15214003614201865 
3.540000000003046, -0.15171992781648652 
3.550000000003067, -0.15128997196577873 
3.5600000000030882, -0.15085987902202974 
3.5700000000031094, -0.150439132414637 
3.5800000000031305, -0.15003515519308358 
3.5900000000031516, -0.14965230312324215 
3.6000000000031727, -0.1492918537106881 
3.6100000000031938, -0.14895269237826417 
3.620000000003215, -0.14863224194342334 
3.630000000003236, -0.14832728790377564 
3.640000000003257, -0.1480345402526762 
3.650000000003278, -0.14775091721630257 
3.6600000000032993, -0.14747360427259545 
3.6700000000033204, -0.147199952190245 
3.6800000000033415, -0.1469272620531447 
3.6900000000033626, -0.14665249019661275 
3.7000000000033837, -0.14637191318588194 
3.710000000003405, -0.14608084087893283 
3.720000000003426, -0.1457735610533902 
3.730000000003447, -0.14544380467471257 
3.740000000003468, -0.1450860097353926 
3.750000000003489, -0.144697342490748 
3.7600000000035103, -0.1442797772120562 
3.7700000000035314, -0.14384098728775693 
3.7800000000035525, -0.14339311291961412 
3.7900000000035736, -0.14294974722582227 
3.8000000000035947, -0.1425226603379253 
3.810000000003616, -0.14211975745786587 
3.820000000003637, -0.1417447413649579 
3.830000000003658, -0.1413979852708412 
3.840000000003679, -0.14107783428899823 
3.8500000000037002, -0.14078177926602034 
3.8600000000037213, -0.14050728187835132 
3.8700000000037424, -0.14025225013068357 
3.8800000000037635, -0.1400152441460794 
3.8900000000037847, -0.13979548638336692 
3.9000000000038058, -0.13959270883154018 
3.910000000003827, -0.1394068230636285 
3.920000000003848, -0.13923736980870444 
3.930000000003869, -0.13908272460021742 
3.94000000000389, -0.1389391524688235 
3.9500000000039113, -0.13880004893446846 
3.9600000000039324, -0.13865599232066256 
3.9700000000039535, -0.13849625259259551 
3.9800000000039746, -0.13831175468205956 
3.9900000000039957, -0.1380982922807821 
4.000000000004016, -0.1378580929096013 
4.010000000003993, -0.13759870433636193 
4.02000000000397, -0.13733002172015746 
4.030000000003946, -0.13706129991358945 
4.040000000003923, -0.1367994524115679 
4.0500000000039, -0.13654877336629948 
4.0600000000038765, -0.13631152101701258 
4.070000000003853, -0.13608875891993327 
4.08000000000383, -0.13588110459099106 
4.090000000003807, -0.1356892709784167 
4.100000000003783, -0.13551440644357843 
4.11000000000376, -0.1353582651698465 
4.120000000003737, -0.13522321556556077 
4.130000000003713, -0.13511205034634372 
4.14000000000369, -0.13502752170103585 
4.150000000003667, -0.13497151976265234 
4.1600000000036434, -0.134943893578524 
4.17000000000362, -0.1349411337353998 
4.180000000003597, -0.13495547032618932 
4.1900000000035735, -0.1349751670171342 
4.20000000000355, -0.1349865137386273 
4.210000000003527, -0.13497707365784906 
4.220000000003504, -0.13493872336127535 
4.23000000000348, -0.1348689773987679 
4.240000000003457, -0.1347702189447256 
4.250000000003434, -0.13464771185051175 
4.26000000000341, -0.13450760679167395 
4.270000000003387, -0.13435564911515083 
4.280000000003364, -0.1341966610549737 
4.2900000000033405, -0.13403454794904718 
4.300000000003317, -0.13387255220334987 
4.310000000003294, -0.13371357228131042 
4.320000000003271, -0.13356045348201628 
4.330000000003247, -0.13341620334261128 
4.340000000003224, -0.1332840915604405 
4.350000000003201, -0.13316757997117598 
4.360000000003177, -0.13307001453861214 
4.370000000003154, -0.13299402687583425 
4.380000000003131, -0.13294066987693304 
4.390000000003107, -0.13290846777275528 
4.400000000003084, -0.13289275467109157 
4.410000000003061, -0.1328857697585588 
4.4200000000030375, -0.13287778699953012 
4.430000000003014, -0.1328590508711527 
4.440000000002991, -0.13282177107849474 
4.450000000002968, -0.13276135149044838 
4.460000000002944, -0.13267649733914985 
4.470000000002921, -0.13256845722220317 
4.480000000002898, -0.13243995237972034 
4.490000000002874, -0.1322942488346963 
4.500000000002851, -0.13213456887569833 
4.510000000002828, -0.13196383530470962 
4.520000000002804, -0.1317846572351849 
4.530000000002781, -0.13159946062881261 
4.540000000002758, -0.13141068530399516 
4.5500000000027345, -0.13122098047993738 
4.560000000002711, -0.13103332583529675 
4.570000000002688, -0.13085099628854568 
4.580000000002665, -0.1306772997692825 
4.590000000002641, -0.13051507097687381 
4.600000000002618, -0.1303660037475173 
4.610000000002595, -0.13023001877354448 
4.620000000002571, -0.13010492904510623 
4.630000000002548, -0.12998661572129233 
4.640000000002525, -0.12986974176167254 
4.6500000000025015, -0.12974878386628277 
4.660000000002478, -0.12961900763108983 
4.670000000002455, -0.12947706063894077 
4.6800000000024315, -0.1293210740262833 
4.690000000002408, -0.12915038547174526 
4.700000000002385, -0.12896509783204838 
4.710000000002362, -0.1287656617152557 
4.720000000002338, -0.128552589381167 
4.730000000002315, -0.12832633715561664 
4.740000000002292, -0.12808735541869345 
4.750000000002268, -0.127836286610947 
4.760000000002245, -0.1275742693042742 
4.770000000002222, -0.12730326512591056 
4.7800000000021985, -0.12702627361914326 
4.790000000002175, -0.12674727707055816 
4.800000000002152, -0.12647081386619483 
4.810000000002129, -0.12620122703552045 
4.820000000002105, -0.12594180703615374 
4.830000000002082, -0.1256941313720385 
