t, s[1].omega / s[0].omega 
0, -6.399987195026132 
0.009999999999999995, -6.398545890992561 
0.019999999999999934, -6.397137435971645 
0.029999999999999874, -6.396087493214443 
0.04000000000000012, -6.394801913724525 
0.050000000000000405, -6.393362083470042 
0.06000000000000069, -6.392171973489583 
0.07000000000000098, -6.390952504755702 
0.08000000000000126, -6.389600381900871 
0.09000000000000155, -6.388332599447575 
0.10000000000000184, -6.387103284873114 
0.11000000000000212, -6.385775611787847 
0.12000000000000241, -6.384523930404103 
0.130000000000002, -6.383293466970277 
0.1400000000000009, -6.381933138404212 
0.1499999999999998, -6.380681941223812 
0.1599999999999987, -6.379519799478334 
0.1699999999999976, -6.378157160589643 
0.1799999999999965, -6.376754995848111 
0.1899999999999954, -6.375707913032253 
0.1999999999999943, -6.374461415525371 
0.2099999999999932, -6.372936386285238 
0.2199999999999921, -6.37176073188021 
0.229999999999991, -6.370670632120957 
0.2399999999999899, -6.369284661461615 
0.2499999999999888, -6.367882614281369 
0.2599999999999877, -6.366782353588276 
0.2699999999999866, -6.365517670830476 
0.2799999999999855, -6.364146033690895 
0.2899999999999844, -6.3629329583153424 
0.2999999999999833, -6.361695800380332 
0.3099999999999822, -6.3603753648227315 
0.3199999999999811, -6.359139750247406 
0.32999999999998, -6.357896164671349 
0.3399999999999789, -6.356556153045319 
0.3499999999999778, -6.355351135769182 
0.35999999999997667, -6.354143092273417 
0.36999999999997557, -6.352751261618617 
0.37999999999997447, -6.351489713762218 
0.38999999999997337, -6.350402902530706 
0.39999999999997227, -6.349066806459213 
0.40999999999997117, -6.347580050819713 
0.41999999999997006, -6.346549950718892 
0.42999999999996896, -6.345377343001376 
0.43999999999996786, -6.343909933837779 
0.44999999999996676, -6.342626973732115 
0.45999999999996566, -6.341549008106897 
0.46999999999996456, -6.340236060932624 
0.47999999999996346, -6.338862389784298 
0.48999999999996235, -6.337704203815753 
0.49999999999996125, -6.336457230526543 
0.5099999999999602, -6.335136859816504 
0.519999999999959, -6.3339175710274365 
0.529999999999958, -6.332672539187763 
0.5399999999999568, -6.331359192680397 
0.5499999999999557, -6.330161082791041 
0.5599999999999546, -6.328929821536816 
0.5699999999999535, -6.327554659443207 
0.5799999999999524, -6.3263667659483165 
0.5899999999999513, -6.325227556855387 
0.5999999999999502, -6.323845158412157 
0.6099999999999491, -6.322465372259539 
0.619999999999948, -6.321461697032318 
0.6299999999999469, -6.320221391103341 
0.6399999999999458, -6.318714429605625 
0.6499999999999447, -6.317559116386076 
0.6599999999999436, -6.316467711470983 
0.6699999999999425, -6.3151102078649455 
0.6799999999999414, -6.313754140906107 
0.6899999999999403, -6.312640441539403 
0.6999999999999392, -6.31138543077302 
0.7099999999999381, -6.3100582460544 
0.719999999999937, -6.3088592077407615 
0.7299999999999359, -6.307622137638638 
0.7399999999999348, -6.306324437986641 
0.7499999999999337, -6.305123632963432 
0.7599999999999326, -6.303889603223914 
0.7699999999999315, -6.302545862564202 
0.7799999999999304, -6.301376414668165 
0.7899999999999293, -6.300206568868462 
0.7999999999999282, -6.2988189210585865 
0.8099999999999271, -6.297526193360628 
0.819999999999926, -6.296501668277766 
0.8299999999999249, -6.295221779575936 
0.8399999999999238, -6.293717845667668 
0.8499999999999227, -6.292647319000283 
0.8599999999999216, -6.291539740334691 
0.8699999999999205, -6.2901478145339365 
0.8799999999999194, -6.288815005030982 
0.8899999999999183, -6.287737936861373 
0.8999999999999172, -6.286479724243373 
0.9099999999999161, -6.285140281371083 
0.919999999999915, -6.283962430177551 
0.9299999999999139, -6.282741236434797 
0.9399999999999128, -6.28144832270524 
0.9499999999999117, -6.280243681476878 
0.9599999999999106, -6.279021904075167 
0.9699999999999095, -6.277704925566038 
0.9799999999999084, -6.276529256812469 
0.9899999999999073, -6.2753509169933945 
0.9999999999999062, -6.273984735610793 
1.0099999999999052, -6.272730276738312 
1.019999999999904, -6.271682818894943 
1.029999999999903, -6.270394455794888 
1.039999999999902, -6.268912369689896 
1.0499999999999008, -6.267877345622684 
1.0599999999998997, -6.266767508444775 
1.0699999999998986, -6.2653584320964875 
1.0799999999998975, -6.26403441487976 
1.0899999999998964, -6.26299290321136 
1.0999999999998953, -6.261741455974254 
1.1099999999998942, -6.260383755135023 
1.119999999999893, -6.2592224527203255 
1.129999999999892, -6.258026278957187 
1.1399999999998909, -6.256733098357304 
1.1499999999998898, -6.2555207830796515 
1.1599999999998887, -6.254321457956216 
1.1699999999998876, -6.253025338870762 
1.1799999999998865, -6.2518329427095924 
1.1899999999998854, -6.2506610948458965 
1.1999999999998843, -6.249329782495478 
1.2099999999998832, -6.248075062973771 
1.219999999999882, -6.247013075850455 
1.229999999999881, -6.245744746594952 
1.2399999999998799, -6.244284678038859 
1.2499999999998788, -6.243243508723066 
1.2599999999998777, -6.242151687685303 
1.2699999999998766, -6.240750079629763 
1.2799999999998755, -6.239404273452166 
1.2899999999998744, -6.238399316438011 
1.2999999999998733, -6.237171838765784 
1.3099999999998722, -6.235792378745391 
1.319999999999871, -6.23463212414633 
1.32999999999987, -6.233473433185489 
1.3399999999998689, -6.232183057051316 
1.3499999999998678, -6.230952561432776 
1.3599999999998666, -6.22978118768321 
1.3699999999998655, -6.228507685171602 
1.3799999999998644, -6.227291572054016 
1.3899999999998633, -6.226131517170446 
1.3999999999998622, -6.2248437816579285 
1.4099999999998611, -6.223568535853646 
1.41999999999986, -6.222493670418716 
1.429999999999859, -6.22126689045969 
1.4399999999998578, -6.219832019069486 
1.4499999999998567, -6.218743210085611 
1.4599999999998556, -6.217688437885253 
1.4699999999998545, -6.216325871090465 
1.4799999999998534, -6.2149259255807525 
1.4899999999998523, -6.213947031894777 
1.4999999999998512, -6.212768230532058 
1.5099999999998501, -6.211376576859283 
1.519999999999849, -6.210182923894098 
1.529999999999848, -6.209075973056931 
1.5399999999998468, -6.207802716627915 
1.5499999999998457, -6.206539384683763 
1.5599999999998446, -6.205392266304584 
1.5699999999998435, -6.2041527212333465 
1.5799999999998424, -6.202909903242579 
1.5899999999998413, -6.201754439173837 
1.5999999999998402, -6.200518059689699 
1.6099999999998391, -6.1992230238382104 
1.619999999999838, -6.198121979516072 
1.629999999999837, -6.196948118000069 
1.6399999999998358, -6.195558862244275 
1.6499999999998347, -6.194378924287423 
1.6599999999998336, -6.19336827875628 
1.6699999999998325, -6.1920781354429675 
1.6799999999998314, -6.190620747148097 
1.6899999999998303, -6.189621207377512 
1.6999999999998292, -6.188520191399798 
1.709999999999828, -6.187150000446712 
1.719999999999827, -6.185872003734459 
1.729999999999826, -6.184821222364173 
1.7399999999998248, -6.183592053142016 
1.7499999999998237, -6.182291329192009 
1.7599999999998226, -6.18114399483837 
1.7699999999998215, -6.179955731912063 
1.7799999999998204, -6.178696251355808 
1.7899999999998193, -6.177524249828259 
1.7999999999998182, -6.176341325244465 
1.809999999999817, -6.17505155776235 
1.819999999999816, -6.173897626939694 
1.8299999999998149, -6.172773339500167 
1.8399999999998138, -6.17146009111031 
1.8499999999998127, -6.170169733366407 
1.8599999999998116, -6.1691776445510325 
1.8699999999998105, -6.1679853011851495 
1.8799999999998094, -6.16652797858769 
1.8899999999998083, -6.165408859705754 
1.8999999999998072, -6.164407772558014 
1.909999999999806, -6.163111000674373 
1.919999999999805, -6.161724286736181 
1.9299999999998039, -6.160688744290164 
1.9399999999998028, -6.159539451049353 
1.9499999999998017, -6.158228947675598 
1.9599999999998006, -6.157029482465316 
1.9699999999997995, -6.1559027441940115 
1.9799999999997984, -6.154658006858145 
1.9899999999997973, -6.153445339205815 
1.9999999999997962, -6.152299631978273 
2.0099999999998173, -6.151055016304683 
2.0199999999998384, -6.1498319128882 
2.0299999999998595, -6.148729941060358 
2.0399999999998806, -6.147510548085996 
2.0499999999999017, -6.146160913351058 
2.059999999999923, -6.145105254446172 
2.069999999999944, -6.144019166026402 
2.079999999999965, -6.142654181037654 
2.089999999999986, -6.1413328802114835 
2.100000000000007, -6.140402287337057 
2.1100000000000283, -6.139227863158615 
2.1200000000000494, -6.137805179457726 
2.1300000000000705, -6.136658410615715 
2.1400000000000916, -6.135618561559809 
2.1500000000001127, -6.13435870210188 
2.160000000000134, -6.133068919420115 
2.170000000000155, -6.1319716615878495 
2.180000000000176, -6.13078735516573 
2.190000000000197, -6.129538710148743 
2.2000000000002182, -6.128383432539447 
2.2100000000002393, -6.127209805363388 
2.2200000000002604, -6.125951945581886 
2.2300000000002815, -6.124815788512895 
2.2400000000003026, -6.123679459393888 
2.2500000000003237, -6.122377133422807 
2.260000000000345, -6.121166607585887 
2.270000000000366, -6.120154920899603 
2.280000000000387, -6.118935142122689 
2.290000000000408, -6.117503118517037 
2.3000000000004293, -6.116473822328036 
2.3100000000004504, -6.115453672679924 
2.3200000000004715, -6.114129625656434 
2.3300000000004926, -6.112768656128317 
2.3400000000005137, -6.111789912176919 
2.3500000000005348, -6.11064619378824 
2.360000000000556, -6.10932434020636 
2.370000000000577, -6.108147355071711 
2.380000000000598, -6.10705194353497 
2.390000000000619, -6.105821929104968 
2.4000000000006403, -6.104608327276953 
2.4100000000006614, -6.103481842831245 
2.4200000000006825, -6.1022674578935066 
2.4300000000007036, -6.101054746768758 
2.4400000000007247, -6.0999504084974605 
2.450000000000746, -6.098757062176262 
2.460000000000767, -6.097445756055929 
2.470000000000788, -6.096379453030422 
2.480000000000809, -6.095301960065245 
2.49000000000083, -6.093970363972498 
2.5000000000008513, -6.092661632056275 
2.5100000000008724, -6.0917420026489 
2.5200000000008935, -6.090596232005014 
2.5300000000009146, -6.089178846663448 
2.5400000000009357, -6.0880215891085925 
2.550000000000957, -6.087032017886026 
2.560000000000978, -6.085800089112571 
2.570000000000999, -6.084487175078669 
2.58000000000102, -6.08340781277766 
2.5900000000010412, -6.082269432223695 
2.6000000000010624, -6.081024781072804 
2.6100000000010835, -6.079859654072833 
2.6200000000011046, -6.0787275623456285 
2.6300000000011257, -6.077495517679756 
2.6400000000011468, -6.076336876007447 
2.650000000001168, -6.075227757133326 
2.660000000001189, -6.073984909882797 
2.67000000000121, -6.072740551192053 
2.680000000001231, -6.071725452126904 
2.6900000000012523, -6.070573193607851 
2.7000000000012734, -6.069182235620892 
2.7100000000012945, -6.068064184498724 
2.7200000000013156, -6.067110543190321 
2.7300000000013367, -6.065864802010912 
2.740000000001358, -6.06444860588004 
2.750000000001379, -6.0634513331549345 
2.7600000000014, -6.062396079957548 
2.770000000001421, -6.061106290065604 
2.780000000001442, -6.059859062965789 
2.7900000000014633, -6.058814302337653 
2.8000000000014844, -6.0576380806220715 
2.8100000000015055, -6.056401763215026 
2.8200000000015266, -6.055276203864253 
2.8300000000015477, -6.054125340883206 
2.840000000001569, -6.052900720746007 
2.85000000000159, -6.051778883541759 
2.860000000001611, -6.050653023812449 
2.870000000001632, -6.0493842106961555 
2.8800000000016532, -6.04822224613176 
2.8900000000016743, -6.0472031442780745 
2.9000000000016954, -6.045991663507246 
2.9100000000017165, -6.044606872085101 
2.9200000000017377, -6.043617688835147 
2.9300000000017588, -6.042604403278598 
2.94000000000178, -6.041289050471775 
2.950000000001801, -6.039945042394288 
2.960000000001822, -6.0390124406744 
2.970000000001843, -6.037902021939596 
2.9800000000018643, -6.036584719125473 
2.9900000000018854, -6.03541154187584 
3.0000000000019065, -6.034365224826248 
3.0100000000019276, -6.033167391687332 
3.0200000000019487, -6.0319503790073465 
3.03000000000197, -6.030848111624648 
3.040000000001991, -6.029682474974305 
3.050000000002012, -6.0284758558978275 
3.060000000002033, -6.027374965343644 
3.070000000002054, -6.026233880658414 
3.0800000000020753, -6.024961665253124 
3.0900000000020964, -6.023858861663045 
3.1000000000021175, -6.022824609291146 
3.1100000000021386, -6.021575183992995 
3.1200000000021597, -6.020230497768066 
3.130000000002181, -6.0192998464543415 
3.140000000002202, -6.018244145499806 
3.150000000002223, -6.016890699812242 
3.160000000002244, -6.015625180426922 
3.1700000000022652, -6.014706497461754 
3.1800000000022863, -6.013563961406676 
3.1900000000023074, -6.012242047035758 
3.2000000000023285, -6.011120352412005 
3.2100000000023496, -6.01006655198246 
3.2200000000023707, -6.008861249597987 
3.230000000002392, -6.007663599094421 
3.240000000002413, -6.006573530294077 
3.250000000002434, -6.005402361175863 
3.260000000002455, -6.0042125945354705 
3.2700000000024763, -6.003124183676915 
3.2800000000024974, -6.00197616908315 
3.2900000000025185, -6.00071082452625 
3.3000000000025396, -5.999640444080306 
3.3100000000025607, -5.998598978782525 
3.3200000000025818, -5.997333949439787 
3.330000000002603, -5.996022623027787 
3.340000000002624, -5.995114555276574 
3.350000000002645, -5.994042288633122 
3.360000000002666, -5.9926779334894125 
3.3700000000026873, -5.991456464885707 
3.3800000000027084, -5.990541113665347 
3.3900000000027295, -5.989389903402241 
3.4000000000027506, -5.988074219380087 
3.4100000000027717, -5.98697600672015 
3.420000000002793, -5.985922242547859 
3.430000000002814, -5.984719931807139 
3.440000000002835, -5.9835350572533095 
3.450000000002856, -5.982452814524714 
3.460000000002877, -5.9812849711362945 
3.4700000000028983, -5.980105691776524 
3.4800000000029194, -5.979026354356358 
3.4900000000029405, -5.97788239612714 
3.5000000000029616, -5.976623592021209 
3.5100000000029827, -5.97556486832524 
3.520000000003004, -5.9745303768137 
3.530000000003025, -5.973271026197625 
3.540000000003046, -5.971965325463422 
3.550000000003067, -5.971065454489154 
3.5600000000030882, -5.970003763618599 
3.5700000000031094, -5.968650395692055 
3.5800000000031305, -5.96742681779166 
3.5900000000031516, -5.966519237544761 
3.6000000000031727, -5.9653819137993676 
3.6100000000031938, -5.964076387554761 
3.620000000003215, -5.962975722099349 
3.630000000003236, -5.961932757205115 
3.640000000003257, -5.9607419919041105 
3.650000000003278, -5.959561439230684 
3.6600000000032993, -5.958485305148199 
3.6700000000033204, -5.957328992389753 
3.6800000000033415, -5.956152421074666 
3.6900000000033626, -5.955080209184471 
3.7000000000033837, -5.95395195103907 
3.710000000003405, -5.952697306365903 
3.720000000003426, -5.951630003167306 
3.730000000003447, -5.950617558019882 
3.740000000003468, -5.949385433292015 
3.750000000003489, -5.948057473508887 
3.7600000000035103, -5.947149930583539 
3.7700000000035314, -5.946125841475353 
3.7800000000035525, -5.94480634287063 
3.7900000000035736, -5.9435377598191135 
3.8000000000035947, -5.94263772603827 
3.810000000003616, -5.94153642425142 
3.820000000003637, -5.940248089731705 
3.830000000003658, -5.939119169242644 
3.840000000003679, -5.938095131344728 
3.8500000000037002, -5.936925168200859 
3.8600000000037213, -5.935742543821903 
3.8700000000037424, -5.934668595387996 
3.8800000000037635, -5.933532714502777 
3.8900000000037847, -5.932352272966922 
3.9000000000038058, -5.931282834474924 
3.910000000003827, -5.930181174007812 
3.920000000003848, -5.928936023132011 
3.930000000003869, -5.927832858635464 
3.94000000000389, -5.926853667536525 
3.9500000000039113, -5.92567200760473 
3.9600000000039324, -5.924315354948851 
3.9700000000039535, -5.923359427088796 
3.9800000000039746, -5.922398138336147 
3.9900000000039957, -5.921140725666287 
4.000000000004016, -5.919806489126462 
4.010000000003993, -5.918888070274984 
4.02000000000397, -5.917844452157925 
4.030000000003946, -5.916590188118837 
4.040000000003923, -5.9154108220640875 
4.0500000000039, -5.914403206833686 
4.0600000000038765, -5.913266018312762 
4.070000000003853, -5.912080623496046 
4.08000000000383, -5.910999375371671 
4.090000000003807, -5.909892922733943 
4.100000000003783, -5.9087080656056346 
4.11000000000376, -5.907630228014025 
4.120000000003737, -5.906562715917835 
4.130000000003713, -5.905346297484275 
4.14000000000369, -5.9041756004127635 
4.150000000003667, -5.9032260071978016 
4.1600000000036434, -5.902117896939691 
4.17000000000362, -5.900768310924381 
4.180000000003597, -5.899687389594423 
4.1900000000035735, -5.8988026034595515 
4.20000000000355, -5.897637324381504 
4.210000000003527, -5.896269358926871 
4.220000000003504, -5.895261340018556 
4.23000000000348, -5.894291805436018 
4.240000000003457, -5.893096385782017 
4.250000000003434, -5.8918664011577615 
4.26000000000341, -5.890848928626965 
4.270000000003387, -5.88975853402068 
4.280000000003364, -5.888578151169559 
4.2900000000033405, -5.887476400572223 
4.300000000003317, -5.886402666547001 
4.310000000003294, -5.8852267388902915 
4.320000000003271, -5.8841194912887875 
4.330000000003247, -5.883085566128944 
4.340000000003224, -5.881925433203141 
4.350000000003201, -5.880681600480433 
4.360000000003177, -5.879716699099529 
4.370000000003154, -5.878701537750809 
4.380000000003131, -5.8774267360403005 
4.390000000003107, -5.876161332257004 
4.400000000003084, -5.875313111900054 
4.410000000003061, -5.8742678946807185 
4.4200000000030375, -5.872950776098325 
4.430000000003014, -5.871770314196168 
4.440000000002991, -5.87085939132543 
4.450000000002968, -5.869748829493449 
4.460000000002944, -5.868508338773737 
4.470000000002921, -5.8674293088837635 
4.480000000002898, -5.866392138612679 
4.490000000002874, -5.865234697940702 
4.500000000002851, -5.86410470108824 
4.510000000002828, -5.8630513024661095 
4.520000000002804, -5.861912278417726 
4.530000000002781, -5.860756172193317 
4.540000000002758, -5.859736931275323 
4.5500000000027345, -5.858652805027306 
4.560000000002711, -5.8573979538972 
4.570000000002688, -5.856314552615048 
4.580000000002665, -5.8553946355713045 
4.590000000002641, -5.854248496518294 
4.600000000002618, -5.852883221388865 
4.610000000002595, -5.851904100871114 
4.620000000002571, -5.850999034725971 
4.630000000002548, -5.849808929351039 
4.640000000002525, -5.848492074842498 
4.6500000000025015, -5.847528176404931 
4.660000000002478, -5.846523283479956 
4.670000000002455, -5.845332842967204 
4.6800000000024315, -5.844165906372404 
4.690000000002408, -5.843151931315129 
4.700000000002385, -5.8420449835736274 
4.710000000002362, -5.840893265275881 
4.720000000002338, -5.839831308296889 
4.730000000002315, -5.838750320959672 
4.740000000002292, -5.837567872825799 
4.750000000002268, -5.8365071807745625 
4.760000000002245, -5.835498771721571 
4.770000000002222, -5.834325949138119 
4.7800000000021985, -5.833074813580033 
4.790000000002175, -5.832161676456396 
4.800000000002152, -5.83117004404081 
4.810000000002129, -5.8298990606301535 
4.820000000002105, -5.828630111663595 
4.830000000002082, -5.827791969864065 
4.840000000002059, -5.826767513640729 
4.850000000002035, -5.825492799682578 
4.860000000002012, -5.824322173443354 
4.870000000001989, -5.823393240212544 
4.880000000001965, -5.8222994855550025 
4.890000000001942, -5.821102835995837 
4.900000000001919, -5.82003265446281 
4.9100000000018955, -5.818992143578038 
4.920000000001872, -5.817847759868033 
4.930000000001849, -5.816749555030318 
4.940000000001826, -5.815712154772271 
4.950000000001802, -5.8145762532991085 
4.960000000001779, -5.813415395110186 
4.970000000001756, -5.812436487981996 
4.980000000001732, -5.811387845137011 
4.990000000001709, -5.810131329463624 
5.000000000001686, -5.808996827858306 
5.0100000000016625, -5.808139302849883 
5.020000000001639, -5.807059446128148 
5.030000000001616, -5.805714418904228 
