t, s[1].omega / s[0].omega 
0, -0.7299976809446096 
0.009999999999999995, -0.7297553763575089 
0.019999999999999934, -0.7294929931352548 
0.029999999999999874, -0.7292120277384944 
0.04000000000000012, -0.7289149009521088 
0.050000000000000405, -0.7286048688671433 
0.06000000000000069, -0.7282859153408128 
0.07000000000000098, -0.7279626685070426 
0.08000000000000126, -0.727640380508271 
0.09000000000000155, -0.7273249775379484 
0.10000000000000184, -0.7270231434179928 
0.11000000000000212, -0.72674236220699 
0.12000000000000241, -0.7264908237435566 
0.130000000000002, -0.7262770947837472 
0.1400000000000009, -0.7261094801313008 
0.1499999999999998, -0.7259950456030595 
0.1599999999999987, -0.7259383510331632 
0.1699999999999976, -0.7259400501473745 
0.1799999999999965, -0.7259956513244251 
0.1899999999999954, -0.72609486601999 
0.1999999999999943, -0.7262220099471299 
0.2099999999999932, -0.7263577339644216 
0.2199999999999921, -0.7264818878482614 
0.229999999999991, -0.7265767373660535 
0.2399999999999899, -0.7266294631482035 
0.2499999999999888, -0.726633161266937 
0.2599999999999877, -0.7265862783557576 
0.2699999999999866, -0.7264910452835766 
0.2799999999999855, -0.726351661507291 
0.2899999999999844, -0.7261727738537032 
0.2999999999999833, -0.7259584641648829 
0.3099999999999822, -0.7257117239964048 
0.3199999999999811, -0.7254343042312432 
0.32999999999998, -0.7251268385069781 
0.3399999999999789, -0.7247891912041111 
0.3499999999999778, -0.7244210304378622 
0.35999999999997667, -0.7240226462610525 
0.36999999999997557, -0.7235960010266952 
0.37999999999997447, -0.7231458934843802 
0.38999999999997337, -0.722680943509576 
0.39999999999997227, -0.7222139199638609 
0.40999999999997117, -0.7217608833598567 
0.41999999999997006, -0.7213388834140531 
0.42999999999996896, -0.7209625973851251 
0.43999999999996786, -0.7206410308738032 
0.44999999999996676, -0.7203756467636704 
0.45999999999996566, -0.7201606835543387 
0.46999999999996456, -0.7199853306002737 
0.47999999999996346, -0.719836644884199 
0.48999999999996235, -0.7197020739466928 
0.49999999999996125, -0.7195709766057248 
0.5099999999999602, -0.7194351136996734 
0.519999999999959, -0.7192884105707835 
0.529999999999958, -0.7191263553980902 
0.5399999999999568, -0.7189453164132164 
0.5499999999999557, -0.7187419540045513 
0.5599999999999546, -0.7185128299974481 
0.5699999999999535, -0.7182542846761895 
0.5799999999999524, -0.7179626405215217 
0.5899999999999513, -0.7176347623544894 
0.5999999999999502, -0.7172689195215205 
0.6099999999999491, -0.716865752335419 
0.619999999999948, -0.7164290061875046 
0.6299999999999469, -0.7159656839853054 
0.6399999999999458, -0.7154854598713833 
0.6499999999999447, -0.714999515423818 
0.6599999999999436, -0.7145191946740265 
0.6699999999999425, -0.714054875532601 
0.6799999999999414, -0.7136152654096571 
0.6899999999999403, -0.7132071122351119 
0.6999999999999392, -0.7128352015364998 
0.7099999999999381, -0.7125024988852439 
0.719999999999937, -0.7122103431960984 
0.7299999999999359, -0.7119586478382491 
0.7399999999999348, -0.71174609764176 
0.7499999999999337, -0.7115703381925105 
0.7599999999999326, -0.7114281484650713 
0.7699999999999315, -0.7113155804779265 
0.7799999999999304, -0.7112280489514341 
0.7899999999999293, -0.7111603636349567 
0.7999999999999282, -0.7111067168453438 
0.8099999999999271, -0.7110606666912254 
0.819999999999926, -0.7110151873096651 
0.8299999999999249, -0.7109628767879078 
0.8399999999999238, -0.7108963935818914 
0.8499999999999227, -0.7108091083362811 
0.8599999999999216, -0.7106958279225221 
0.8699999999999205, -0.7105533536102826 
0.8799999999999194, -0.7103806664031638 
0.8899999999999183, -0.7101786927707505 
0.8999999999999172, -0.7099497880572408 
0.9099999999999161, -0.7096971663544701 
0.919999999999915, -0.7094244768549104 
0.9299999999999139, -0.7091356340078618 
0.9399999999999128, -0.7088349192202611 
0.9499999999999117, -0.7085273126115055 
0.9599999999999106, -0.7082189731484586 
0.9699999999999095, -0.7079177395113407 
0.9799999999999084, -0.7076334567995379 
0.9899999999999073, -0.7073778565496077 
0.9999999999999062, -0.7071636806892279 
1.0099999999999052, -0.7070028370802879 
1.019999999999904, -0.7069037003071672 
1.029999999999903, -0.7068682142699559 
1.039999999999902, -0.7068899596617891 
1.0499999999999008, -0.7069543513089602 
1.0599999999998997, -0.7070413196000361 
1.0699999999998986, -0.7071295570379796 
1.0799999999998975, -0.7072006019795154 
1.0899999999998964, -0.7072413164906672 
1.0999999999998953, -0.7072443578458868 
1.1099999999998942, -0.7072071750423061 
1.119999999999893, -0.7071303765868825 
1.129999999999892, -0.707016126116446 
1.1399999999998909, -0.7068668802970378 
1.1499999999998898, -0.7066845236001799 
1.1599999999998887, -0.7064698326008094 
1.1699999999998876, -0.7062221839840465 
1.1799999999998865, -0.7059394590894664 
1.1899999999998854, -0.7056181623665891 
1.1999999999998843, -0.7052538403953836 
1.2099999999998832, -0.7048419334328541 
1.219999999999882, -0.7043791610216809 
1.229999999999881, -0.7038653710551066 
1.2399999999998799, -0.7033054505045501 
1.2499999999998788, -0.7027105423719995 
1.2599999999998777, -0.7020977493400609 
1.2699999999998766, -0.7014879890132498 
1.2799999999998755, -0.7009025395364512 
1.2899999999998744, -0.7003594839387636 
1.2999999999998733, -0.6998712317566168 
1.3099999999998722, -0.6994436604633241 
1.319999999999871, -0.6990766953917923 
1.32999999999987, -0.6987657469361065 
1.3399999999998689, -0.6985033993852746 
1.3499999999998678, -0.6982809273319989 
1.3599999999998666, -0.6980894311721471 
1.3699999999998655, -0.6979205479205326 
1.3799999999998644, -0.6977667923079875 
1.3899999999998633, -0.697621629551888 
1.3999999999998622, -0.6974793929188075 
1.4099999999998611, -0.6973351491795554 
1.41999999999986, -0.6971845903142558 
1.429999999999859, -0.6970239936875837 
1.4399999999998578, -0.6968502506973538 
1.4499999999998567, -0.6966609289559738 
1.4599999999998556, -0.6964543240261675 
1.4699999999998545, -0.6962294802670873 
1.4799999999998534, -0.6959861948597631 
1.4899999999998523, -0.6957250285870684 
1.4999999999998512, -0.6954473218973487 
1.5099999999998501, -0.6951551879483737 
1.519999999999849, -0.6948514620717698 
1.529999999999848, -0.6945396250447609 
1.5399999999998468, -0.6942237488366725 
1.5499999999998457, -0.693908511163219 
1.5599999999998446, -0.693599292524848 
1.5699999999998435, -0.693302325630553 
1.5799999999998424, -0.6930248272576293 
1.5899999999998413, -0.692775012251152 
1.5999999999998402, -0.6925618707574934 
1.6099999999998391, -0.692394589035085 
1.619999999999838, -0.6922815250674079 
1.629999999999837, -0.6922287339894961 
1.6399999999998358, -0.6922381964699466 
1.6499999999998347, -0.6923061335120647 
1.6599999999998336, -0.6924220232449718 
1.6699999999998325, -0.6925689968369955 
1.6799999999998314, -0.69272597237081 
1.6899999999998303, -0.692871161749775 
1.6999999999998292, -0.69298582203505 
1.709999999999828, -0.6930569057604853 
1.719999999999827, -0.693077835910632 
1.729999999999826, -0.6930475677891537 
1.7399999999998248, -0.6929687301338449 
1.7499999999998237, -0.6928456787010304 
1.7599999999998226, -0.692682960105343 
1.7699999999998215, -0.692484317380021 
1.7799999999998204, -0.692252154711945 
1.7899999999998193, -0.6919873216532879 
1.7999999999998182, -0.6916891116618942 
1.809999999999817, -0.6913554392794198 
1.819999999999816, -0.690983233874221 
1.8299999999998149, -0.6905691469207411 
1.8399999999998138, -0.6901106863771862 
1.8499999999998127, -0.6896078150537664 
1.8599999999998116, -0.689064821223514 
1.8699999999998105, -0.6884918963685717 
1.8799999999998094, -0.6879055271516161 
1.8899999999998083, -0.687326906712922 
1.8999999999998072, -0.68677835281865 
1.909999999999806, -0.6862788558080432 
1.919999999999805, -0.6858405023254772 
1.9299999999998039, -0.6854670631678015 
1.9399999999998028, -0.6851548707935985 
1.9499999999998017, -0.6848951369899174 
1.9599999999998006, -0.6846765937833144 
1.9699999999997995, -0.6844876513153352 
1.9799999999997984, -0.6843177494636146 
1.9899999999997973, -0.6841579460332697 
1.9999999999997962, -0.6840009569121333 
2.0099999999998173, -0.6838408917019503 
2.0199999999998384, -0.6836728873575375 
2.0299999999998595, -0.6834927855328269 
2.0399999999998806, -0.6832969486686198 
2.0499999999999017, -0.6830822636036341 
2.059999999999923, -0.6828463274595038 
2.069999999999944, -0.6825877438697765 
2.079999999999965, -0.6823063977575037 
2.089999999999986, -0.6820035661266575 
2.100000000000007, -0.6816817904300396 
2.1100000000000283, -0.6813445548406832 
2.1200000000000494, -0.6809959040767086 
2.1300000000000705, -0.680640134458536 
2.1400000000000916, -0.680281621194995 
2.1500000000001127, -0.6799247714252858 
2.160000000000134, -0.6795740604681703 
2.170000000000155, -0.6792341113264275 
2.180000000000176, -0.6789097870724192 
2.190000000000197, -0.6786062667361041 
2.2000000000002182, -0.6783290692713987 
2.2100000000002393, -0.6780839844805379 
2.2200000000002604, -0.6778768690839683 
2.2300000000002815, -0.6777132713490841 
2.2400000000003026, -0.6775978592384891 
2.2500000000003237, -0.6775336491455894 
2.260000000000345, -0.6775210761093905 
2.270000000000366, -0.6775570271033469 
2.280000000000387, -0.6776340794145543 
2.290000000000408, -0.6777403055045074 
2.3000000000004293, -0.6778600172789522 
2.3100000000004504, -0.6779755975250847 
2.3200000000004715, -0.6780700964360821 
2.3300000000004926, -0.6781297988306506 
2.3400000000005137, -0.6781458699241193 
2.3500000000005348, -0.6781146094078238 
2.360000000000556, -0.6780364941393214 
2.370000000000577, -0.6779146149087418 
2.380000000000598, -0.6777531219630173 
2.390000000000619, -0.6775560385295214 
2.4000000000006403, -0.6773265287328524 
2.4100000000006614, -0.6770665497417269 
2.4200000000006825, -0.6767767808384008 
2.4300000000007036, -0.6764567537969635 
2.4400000000007247, -0.6761051632628914 
2.450000000000746, -0.6757203850201743 
2.460000000000767, -0.6753012555430818 
2.470000000000788, -0.6748481456009465 
2.480000000000809, -0.6743642625649908 
2.49000000000083, -0.673856916914176 
2.5000000000008513, -0.6733382273478636 
2.5100000000008724, -0.6728245914216961 
2.5200000000008935, -0.6723344991433872 
2.5300000000009146, -0.6718850325468482 
2.5400000000009357, -0.6714882769525412 
2.550000000000957, -0.6711491200223454 
2.560000000000978, -0.6708652110802963 
2.570000000000999, -0.6706287382241322 
2.58000000000102, -0.6704289844077029 
2.5900000000010412, -0.6702546539461791 
2.6000000000010624, -0.670095425686438 
2.6100000000010835, -0.6699426642621401 
2.6200000000011046, -0.6697894916755128 
2.6300000000011257, -0.6696304915375507 
2.6400000000011468, -0.669461278458784 
2.650000000001168, -0.6692780960972774 
2.660000000001189, -0.6690775497159074 
2.67000000000121, -0.6688565383659291 
2.680000000001231, -0.6686124129196273 
2.6900000000012523, -0.668343329488726 
2.7000000000012734, -0.6680486896426412 
2.7100000000012945, -0.6677294904764046 
2.7200000000013156, -0.6673884077490329 
2.7300000000013367, -0.6670295390848149 
2.740000000001358, -0.666657895891826 
2.750000000001379, -0.6662788432274674 
2.7600000000014, -0.6658976734092448 
2.770000000001421, -0.6655193936764913 
2.780000000001442, -0.665148702149136 
2.7900000000014633, -0.6647900780858221 
2.8000000000014844, -0.6644479159291181 
2.8100000000015055, -0.6641266535463484 
2.8200000000015266, -0.663830860405101 
2.8300000000015477, -0.6635652574434507 
2.840000000001569, -0.6633346419388012 
2.85000000000159, -0.6631436917916882 
2.860000000001611, -0.6629966257858205 
2.870000000001632, -0.6628967014054779 
2.8800000000016532, -0.6628455461002859 
2.8900000000016743, -0.6628423548565173 
2.9000000000016954, -0.6628830626578972 
2.9100000000017165, -0.662959716308577 
2.9200000000017377, -0.6630603824430233 
2.9300000000017588, -0.6631699305893317 
2.94000000000178, -0.6632718022646137 
2.950000000001801, -0.6633504280721978 
2.960000000001822, -0.6633935318190791 
2.970000000001843, -0.6633935130696018 
2.9800000000018643, -0.6633475279100538 
2.9900000000018854, -0.6632564895238666 
3.0000000000019065, -0.6631235705103418 
3.0100000000019276, -0.6629527636207448 
3.0200000000019487, -0.6627478081141411 
3.03000000000197, -0.6625115414982214 
3.040000000001991, -0.6622456024517355 
3.050000000002012, -0.6619503850239798 
3.060000000002033, -0.6616251783629601 
3.070000000002054, -0.6612684788783965 
3.0800000000020753, -0.6608785086949085 
3.0900000000020964, -0.6604539983081783 
3.1000000000021175, -0.6599952692238102 
3.1100000000021386, -0.6595055495030322 
3.1200000000021597, -0.6589922449768728 
3.130000000002181, -0.6584676160902975 
3.140000000002202, -0.6579481714686494 
3.150000000002223, -0.6574523854772215 
3.160000000002244, -0.6569971626389535 
3.1700000000022652, -0.6565943353551114 
3.1800000000022863, -0.6562486329785707 
3.1900000000023074, -0.6559577784543514 
3.2000000000023285, -0.6557142826447212 
3.2100000000023496, -0.6555079056600853 
3.2200000000023707, -0.6553278493803965 
3.230000000002392, -0.6551642065861183 
3.240000000002413, -0.6550086272450397 
3.250000000002434, -0.6548543978900027 
3.260000000002455, -0.6546961852658991 
3.2700000000024763, -0.6545296566086508 
3.2800000000024974, -0.6543511265373494 
3.2900000000025185, -0.6541573276828906 
3.3000000000025396, -0.6539453616015123 
3.3100000000025607, -0.6537128444950474 
3.3200000000025818, -0.6534582046069832 
3.330000000002603, -0.6531810193019124 
3.340000000002624, -0.6528822349645742 
3.350000000002645, -0.6525641407256895 
3.360000000002666, -0.6522300786816759 
3.3700000000026873, -0.651884006053349 
3.3800000000027084, -0.6515300839812702 
3.3900000000027295, -0.6511724185336198 
3.4000000000027506, -0.6508149784922745 
3.4100000000027717, -0.6504616423224823 
3.420000000002793, -0.650116312728391 
3.430000000002814, -0.6497830562932241 
3.440000000002835, -0.6494662435266649 
3.450000000002856, -0.649170667354922 
3.460000000002877, -0.6489016097771665 
3.4700000000028983, -0.6486648152719073 
3.4800000000029194, -0.6484663205443933 
3.4900000000029405, -0.6483120858348018 
3.5000000000029616, -0.648207377495905 
3.5100000000029827, -0.6481558755582134 
3.520000000003004, -0.6481585426269026 
3.530000000003025, -0.648212411775973 
3.540000000003046, -0.6483096256253182 
3.550000000003067, -0.6484372124002594 
3.5600000000030882, -0.6485780585424854 
3.5700000000031094, -0.6487131794085769 
3.5800000000031305, -0.6488247623816472 
3.5900000000031516, -0.6488989466625623 
3.6000000000031727, -0.6489273543609195 
3.6100000000031938, -0.6489070214000473 
3.620000000003215, -0.6488391166793969 
3.630000000003236, -0.648727188693482 
3.640000000003257, -0.6485755616441535 
3.650000000003278, -0.6483881758742676 
3.6600000000032993, -0.6481678919674951 
3.6700000000033204, -0.6479161495529743 
3.6800000000033415, -0.6476328620421803 
3.6900000000033626, -0.6473164785604462 
3.7000000000033837, -0.6469642137465071 
3.710000000003405, -0.6465725143541712 
3.720000000003426, -0.6461378799680466 
3.730000000003447, -0.6456581460845492 
3.740000000003468, -0.6451342082278814 
3.750000000003489, -0.6445718656925801 
3.7600000000035103, -0.6439830650300515 
3.7700000000035314, -0.643385624008845 
3.7800000000035525, -0.6428009074556691 
3.7900000000035736, -0.642249929234844 
3.8000000000035947, -0.6417493211622793 
3.810000000003616, -0.6413087237044564 
3.820000000003637, -0.6409303185631695 
3.830000000003658, -0.6406101534961554 
3.840000000003679, -0.6403403297947705 
3.8500000000037002, -0.6401111715709878 
3.8600000000037213, -0.6399128702398603 
3.8700000000037424, -0.639736470954772 
3.8800000000037635, -0.6395742948491978 
3.8900000000037847, -0.6394199752074993 
3.9000000000038058, -0.639268284215169 
3.910000000003827, -0.639114891002522 
3.920000000003848, -0.6389561493366444 
3.930000000003869, -0.6387889724600704 
3.94000000000389, -0.6386108105994535 
3.9500000000039113, -0.6384197023006336 
3.9600000000039324, -0.6382143349776291 
3.9700000000039535, -0.6379940461479059 
3.9800000000039746, -0.6377587395739895 
3.9900000000039957, -0.6375087578927989 
4.000000000004016, -0.6372447901890652 
4.010000000003993, -0.6369678632541663 
4.02000000000397, -0.6366793972416362 
4.030000000003946, -0.636381265991009 
4.040000000003923, -0.6360758215501086 
4.0500000000039, -0.6357658930393725 
4.0600000000038765, -0.635454804269688 
4.070000000003853, -0.6351464518217849 
4.08000000000383, -0.6348454560037722 
4.090000000003807, -0.6345573593553507 
4.100000000003783, -0.6342888103316784 
4.11000000000376, -0.634047633821637 
4.120000000003737, -0.6338426556470272 
4.130000000003713, -0.6336831253839449 
4.14000000000369, -0.6335775985074139 
4.150000000003667, -0.6335322413211231 
4.1600000000036434, -0.63354875575444 
4.17000000000362, -0.633622471526733 
4.180000000003597, -0.6337414613032416 
4.1900000000035735, -0.6338874876125264 
4.20000000000355, -0.6340389440457919 
4.210000000003527, -0.6341749198171809 
4.220000000003504, -0.6342788264947969 
4.23000000000348, -0.6343402921217198 
4.240000000003457, -0.6343550394990873 
4.250000000003434, -0.6343233955514721 
4.26000000000341, -0.6342483634227996 
4.270000000003387, -0.6341339255751653 
4.280000000003364, -0.6339838378179249 
4.2900000000033405, -0.6338008929741529 
4.300000000003317, -0.6335865263465753 
4.310000000003294, -0.6333406427274159 
4.320000000003271, -0.6330616024876032 
4.330000000003247, -0.6327463768220875 
4.340000000003224, -0.6323909516688084 
4.350000000003201, -0.631991103595382 
4.360000000003177, -0.6315436445442738 
4.370000000003154, -0.6310480768583904 
4.380000000003131, -0.6305083012388132 
4.390000000003107, -0.6299337064951323 
4.400000000003084, -0.6293389273863124 
4.410000000003061, -0.6287420094312954 
4.4200000000030375, -0.6281614957111618 
4.430000000003014, -0.6276134993269562 
4.440000000002991, -0.6271097322826155 
4.450000000002968, -0.6266568687560652 
4.460000000002944, -0.6262570161288232 
4.470000000002921, -0.625908786816144 
4.480000000002898, -0.625608503580524 
4.490000000002874, -0.6253512522880255 
4.500000000002851, -0.6251316688906512 
4.510000000002828, -0.6249444549092527 
4.520000000002804, -0.6247846633543659 
4.530000000002781, -0.6246478088688768 
4.540000000002758, -0.624529851477311 
4.5500000000027345, -0.6244270931571438 
4.560000000002711, -0.6243360152710116 
4.570000000002688, -0.6242530769021623 
4.580000000002665, -0.6241744964680277 
4.590000000002641, -0.6240960595446141 
4.600000000002618, -0.6240130315424927 
4.610000000002595, -0.6239202761497235 
4.620000000002571, -0.6238126421345078 
4.630000000002548, -0.6236855629744589 
4.640000000002525, -0.6235356746191029 
4.6500000000025015, -0.6233612081317743 
4.660000000002478, -0.6231620131666818 
4.670000000002455, -0.6229392484861849 
4.6800000000024315, -0.6226949103317421 
4.690000000002408, -0.6224313909614076 
4.700000000002385, -0.6221511961776158 
4.710000000002362, -0.6218568685497423 
4.720000000002338, -0.6215511045757905 
4.730000000002315, -0.6212370226951676 
4.740000000002292, -0.6209185170109678 
4.750000000002268, -0.6206006001660311 
4.760000000002245, -0.6202895927321734 
4.770000000002222, -0.6199929751535315 
4.7800000000021985, -0.6197187329505852 
4.790000000002175, -0.6194741629552709 
4.800000000002152, -0.6192643831016962 
4.810000000002129, -0.619091072527002 
4.820000000002105, -0.6189520051734625 
4.830000000002082, -0.6188415851802748 
4.840000000002059, -0.61875207685655 
4.850000000002035, -0.6186749773206581 
4.860000000002012, -0.6186021330563986 
4.870000000001989, -0.6185264762747533 
4.880000000001965, -0.6184424003008151 
4.890000000001942, -0.6183458199009844 
4.900000000001919, -0.6182339775511584 
4.9100000000018955, -0.6181050838941835 
4.920000000001872, -0.6179578917905524 
