t, s[1].omega / s[0].omega 
0, -2.749995852422578 
0.009999999999999995, -2.7494911267994824 
0.019999999999999934, -2.748811907243402 
0.029999999999999874, -2.74801524732984 
0.04000000000000012, -2.7473049254438036 
0.050000000000000405, -2.7468981035191913 
0.06000000000000069, -2.746695122572881 
0.07000000000000098, -2.746464866703848 
0.08000000000000126, -2.7461208827042087 
0.09000000000000155, -2.745676179170401 
0.10000000000000184, -2.745184272817154 
0.11000000000000212, -2.7447246223080417 
0.12000000000000241, -2.744348586836266 
0.130000000000002, -2.7440327854543707 
0.1400000000000009, -2.743706991175867 
0.1499999999999998, -2.743302087666457 
0.1599999999999987, -2.742766699847884 
0.1699999999999976, -2.742075876826894 
0.1799999999999965, -2.7413247569614687 
0.1899999999999954, -2.740830868136067 
0.1999999999999943, -2.740762845134535 
0.2099999999999932, -2.740823279632616 
0.2199999999999921, -2.7407373109778503 
0.229999999999991, -2.740453676489053 
0.2399999999999899, -2.7399980896301384 
0.2499999999999888, -2.7394031935453493 
0.2599999999999877, -2.7387318383212156 
0.2699999999999866, -2.7381212586918258 
0.2799999999999855, -2.7377014264659607 
0.2899999999999844, -2.737415425900847 
0.2999999999999833, -2.7371127812409264 
0.3099999999999822, -2.736721589542152 
0.3199999999999811, -2.7362450376639047 
0.32999999999998, -2.7357431849373133 
0.3399999999999789, -2.735320997960123 
0.3499999999999778, -2.7350240703917357 
0.35999999999997667, -2.7347806155575562 
0.36999999999997557, -2.734493281774208 
0.37999999999997447, -2.7340964462060335 
0.38999999999997337, -2.7335427023229544 
0.39999999999997227, -2.732796155089659 
0.40999999999997117, -2.73192208902647 
0.41999999999997006, -2.73124598620542 
0.42999999999996896, -2.7310552145545848 
0.43999999999996786, -2.731094626922647 
0.44999999999996676, -2.731023571269802 
0.45999999999996566, -2.730762901766833 
0.46999999999996456, -2.7303464604987893 
0.47999999999996346, -2.72982254462507 
0.48999999999996235, -2.729255556845853 
0.49999999999996125, -2.7287367029426806 
0.5099999999999602, -2.728333818025554 
0.519999999999959, -2.728008165610852 
0.529999999999958, -2.7276603228384046 
0.5399999999999568, -2.7272284266612177 
0.5499999999999557, -2.726704129042707 
0.5599999999999546, -2.726153558656514 
0.5699999999999535, -2.725734053148403 
0.5799999999999524, -2.725524165809003 
0.5899999999999513, -2.7253942583301507 
0.5999999999999502, -2.7251920027277174 
0.6099999999999491, -2.724849322153726 
0.619999999999948, -2.724337032035813 
0.6299999999999469, -2.723632074085893 
0.6399999999999458, -2.7227683687896036 
0.6499999999999447, -2.7219744557564614 
0.6599999999999436, -2.7215628959211555 
0.6699999999999425, -2.72144893157966 
0.6799999999999414, -2.7213189794923283 
0.6899999999999403, -2.721046893220712 
0.6999999999999392, -2.7206447717100204 
0.7099999999999381, -2.7201599872042292 
0.719999999999937, -2.719659159490023 
0.7299999999999359, -2.7192118638850364 
0.7399999999999348, -2.718845063311447 
0.7499999999999337, -2.7185168609596095 
0.7599999999999326, -2.718151377696784 
0.7699999999999315, -2.717689975301656 
0.7799999999999304, -2.7171052424638615 
0.7899999999999293, -2.716446387183926 
0.7999999999999282, -2.715928648043311 
0.8099999999999271, -2.7157519320979704 
0.819999999999926, -2.715759906107068 
0.8299999999999249, -2.7156903963451624 
0.8399999999999238, -2.7154461761611843 
0.8499999999999227, -2.7150236473984704 
0.8599999999999216, -2.7144326803485077 
0.8699999999999205, -2.713704800410091 
0.8799999999999194, -2.712967032785879 
0.8899999999999183, -2.712436926040977 
0.8999999999999172, -2.7121562138515736 
0.9099999999999161, -2.7119323028568956 
0.919999999999915, -2.7116256950287085 
0.9299999999999139, -2.7112153007732105 
0.9399999999999128, -2.7107358931765226 
0.9499999999999117, -2.7102616380903224 
0.9599999999999106, -2.7098688092281358 
0.9699999999999095, -2.7095603490287625 
0.9799999999999084, -2.7092705364504353 
0.9899999999999073, -2.7089243984926723 
0.9999999999999062, -2.708464398222509 
1.0099999999999052, -2.7078456734834546 
1.019999999999904, -2.70706788424856 
1.029999999999903, -2.706317183532805 
1.039999999999902, -2.7059552491391394 
1.0499999999999008, -2.7059809753914097 
1.0599999999998997, -2.706022218026015 
1.0699999999998986, -2.705880416419822 
1.0799999999998975, -2.705550405685983 
1.0899999999998964, -2.70507004951498 
1.0999999999998953, -2.704483607818213 
1.1099999999998942, -2.7038691698648742 
1.119999999999893, -2.703347963639958 
1.129999999999892, -2.702981359592649 
1.1399999999998909, -2.7026832491025137 
1.1499999999998898, -2.7023408221626464 
1.1599999999998887, -2.7019090647274355 
1.1699999999998876, -2.7014016392389233 
1.1799999999998865, -2.7009007588897935 
1.1899999999998854, -2.7005302230955133 
1.1999999999998843, -2.7003057372506323 
1.2099999999998832, -2.7001123100085147 
1.219999999999882, -2.699843471453794 
1.229999999999881, -2.6994431270987187 
1.2399999999998799, -2.6988728580389916 
1.2499999999998788, -2.6981051150571678 
1.2599999999998777, -2.6972137941556436 
1.2699999999998766, -2.6965129403512687 
1.2799999999998755, -2.6962679337286852 
1.2899999999998744, -2.6962478007109283 
1.2999999999998733, -2.6961389225374823 
1.3099999999998722, -2.695863159966854 
1.319999999999871, -2.695450762664252 
1.32999999999987, -2.694951700191811 
1.3399999999998689, -2.6944315977203894 
1.3499999999998678, -2.6939647292965896 
1.3599999999998666, -2.6935887630799624 
1.3699999999998655, -2.693261792140082 
1.3799999999998644, -2.6929020166814595 
1.3899999999998633, -2.6924523798264204 
1.3999999999998622, -2.6918953775965004 
1.4099999999998611, -2.691291250649396 
1.41999999999986, -2.69083232030306 
1.429999999999859, -2.690657718464351 
1.4399999999998578, -2.6906182715536855 
1.4499999999998567, -2.690503548779531 
1.4599999999998556, -2.690230699736938 
1.4699999999998545, -2.689785907129264 
1.4799999999998534, -2.6891654788873165 
1.4899999999998523, -2.688393403976183 
1.4999999999998512, -2.6876118616360145 
1.5099999999998501, -2.6870763572408736 
1.519999999999849, -2.686832016905302 
1.529999999999848, -2.686651249317426 
1.5399999999998468, -2.686377079174783 
1.5499999999998457, -2.6859892990098544 
1.5599999999998446, -2.6855226016352836 
1.5699999999998435, -2.685042936236001 
1.5799999999998424, -2.6846239919339063 
1.5899999999998413, -2.6842868988830078 
1.5999999999998402, -2.683985242581068 
1.6099999999998391, -2.683647125238598 
1.619999999999838, -2.6832119413901436 
1.629999999999837, -2.6826351392081094 
1.6399999999998358, -2.681910487783701 
1.6499999999998347, -2.6811878586998534 
1.6599999999998336, -2.6807992146840474 
1.6699999999998325, -2.6808012617657226 
1.6799999999998314, -2.680859799647224 
1.6899999999998303, -2.680752214161662 
1.6999999999998292, -2.6804531402221556 
1.709999999999828, -2.6799923959878815 
1.719999999999827, -2.679405473326561 
1.729999999999826, -2.678758851883107 
1.7399999999998248, -2.678180828918288 
1.7499999999998237, -2.677777877060323 
1.7599999999998226, -2.67749102534629 
1.7699999999998215, -2.677186060650427 
1.7799999999998204, -2.676796489336369 
1.7899999999998193, -2.6763223495257273 
1.7999999999998182, -2.675820014029673 
1.809999999999817, -2.6753990744777605 
1.819999999999816, -2.6751185946643536 
1.8299999999998149, -2.674907415999393 
1.8399999999998138, -2.674658594942092 
1.8499999999998127, -2.6743032419429156 
1.8599999999998116, -2.6737974050511837 
1.8699999999998105, -2.673103206161879 
1.8799999999998094, -2.6722391764882896 
1.8899999999998083, -2.671433885586997 
1.8999999999998072, -2.671046478715742 
1.909999999999806, -2.671019903832834 
1.919999999999805, -2.6709918760531948 
1.9299999999998039, -2.6707978868801465 
1.9399999999998028, -2.670444941613345 
1.9499999999998017, -2.6699777661975554 
1.9599999999998006, -2.6694522116997197 
1.9699999999997995, -2.668942119380817 
1.9799999999997984, -2.6685156821831004 
1.9899999999997973, -2.6681754375057984 
1.9999999999997962, -2.6678478617719374 
2.0099999999998173, -2.667457403826808 
2.0199999999998384, -2.666966880453233 
2.0299999999998595, -2.6663885872945388 
2.0399999999998806, -2.6658399062719633 
2.0499999999999017, -2.6655149751093346 
2.059999999999923, -2.665420404184853 
2.069999999999944, -2.6653536377939653 
2.079999999999965, -2.6651677674585352 
2.089999999999986, -2.664820029749839 
2.100000000000007, -2.6643001777848982 
2.1100000000000283, -2.66360556461382 
2.1200000000000494, -2.6627936181977305 
2.1300000000000705, -2.6620740008332584 
2.1400000000000916, -2.6616718317098598 
2.1500000000001127, -2.6614942286700667 
2.160000000000134, -2.6613013379677177 
2.170000000000155, -2.6609945461105786 
2.180000000000176, -2.660580798034075 
2.190000000000197, -2.6601051550239427 
2.2000000000002182, -2.6596390289211356 
2.2100000000002393, -2.659245295633868 
2.2200000000002604, -2.658925108077331 
2.2300000000002815, -2.658622027386213 
2.2400000000003026, -2.6582660580894784 
2.2500000000003237, -2.6578019526946215 
2.260000000000345, -2.6571909849735915 
2.270000000000366, -2.656451201268226 
2.280000000000387, -2.6557852447551085 
2.290000000000408, -2.6555059075219143 
2.3000000000004293, -2.655554877639592 
2.3100000000004504, -2.6555917766003647 
2.3200000000004715, -2.6554485385090323 
2.3300000000004926, -2.6551202612667213 
2.3400000000005137, -2.6546378188437165 
2.3500000000005348, -2.654038455222655 
2.360000000000556, -2.6533968181959136 
2.370000000000577, -2.65284496853847 
2.380000000000598, -2.6524686491099603 
2.390000000000619, -2.65218869846556 
2.4000000000006403, -2.651877843652485 
2.4100000000006614, -2.65148041640287 
2.4200000000006825, -2.651001854587368 
2.4300000000007036, -2.6505040163997404 
2.4400000000007247, -2.650098024964306 
2.450000000000746, -2.6498336041658104 
2.460000000000767, -2.6496318341740213 
2.470000000000788, -2.6493865719963337 
2.480000000000809, -2.649031836096756 
2.49000000000083, -2.648525596735332 
2.5000000000008513, -2.647831622874699 
2.5100000000008724, -2.6469691591628366 
2.5200000000008935, -2.646160130634404 
2.5300000000009146, -2.6457563539724562 
2.5400000000009357, -2.6457156473047343 
2.550000000000957, -2.6456864143374457 
2.560000000000978, -2.645498810497853 
2.570000000000999, -2.64515511745421 
2.58000000000102, -2.6446985906919673 
2.5900000000010412, -2.6441839477924 
2.6000000000010624, -2.6436822886773332 
2.6100000000010835, -2.6432586516524412 
2.6200000000011046, -2.6429186433430614 
2.6300000000011257, -2.642595354206793 
2.6400000000011468, -2.6422138723581092 
2.650000000001168, -2.6417326917507635 
2.660000000001189, -2.641153453242092 
2.67000000000121, -2.640576110869398 
2.680000000001231, -2.6402071697745004 
2.6900000000012523, -2.6401053246732076 
2.7000000000012734, -2.6400735194698957 
2.7100000000012945, -2.6399349589506067 
2.7200000000013156, -2.6396342908619674 
2.7300000000013367, -2.6391643720176035 
2.740000000001358, -2.6385251598358286 
2.750000000001379, -2.6377537429216407 
2.7600000000014, -2.6370080608182085 
2.770000000001421, -2.636519677387718 
2.780000000001442, -2.6362893082329415 
2.7900000000014633, -2.6360991810609846 
2.8000000000014844, -2.6358160441921976 
2.8100000000015055, -2.635425524122455 
2.8200000000015266, -2.634962090756036 
2.8300000000015477, -2.6344922556903576 
2.840000000001569, -2.634089226151372 
2.85000000000159, -2.63377001266904 
2.860000000001611, -2.6334843707891564 
2.870000000001632, -2.633160966171019 
2.8800000000016532, -2.63274090528358 
2.8900000000016743, -2.632178787319214 
2.9000000000016954, -2.6314560422610684 
2.9100000000017165, -2.630684281874007 
2.9200000000017377, -2.63018867261247 
2.9300000000017588, -2.6301303608911004 
2.94000000000178, -2.630216625628792 
2.950000000001801, -2.6301681655493963 
2.960000000001822, -2.629927611137603 
2.970000000001843, -2.629523707373072 
2.9800000000018643, -2.6289944762111337 
2.9900000000018854, -2.6283938278790444 
3.0000000000019065, -2.627818561155523 
3.0100000000019276, -2.6273746722171003 
3.0200000000019487, -2.6270589747455024 
3.03000000000197, -2.626762023507433 
3.040000000001991, -2.6263988695086047 
3.050000000002012, -2.6259462237559332 
3.060000000002033, -2.6254332022154383 
3.070000000002054, -2.6249601052995866 
3.0800000000020753, -2.6246429152866915 
3.0900000000020964, -2.6244622623196707 
3.1000000000021175, -2.624290809062738 
3.1100000000021386, -2.624030545671263 
3.1200000000021597, -2.6236337789895345 
3.130000000002181, -2.6230680000070903 
3.140000000002202, -2.6223116374747404 
3.150000000002223, -2.62143393722987 
3.160000000002244, -2.6207138039538505 
3.1700000000022652, -2.6204115046500567 
3.1800000000022863, -2.6203564743240384 
3.1900000000023074, -2.6202504817050207 
3.2000000000023285, -2.619995654294171 
3.2100000000023496, -2.6196105586847778 
3.2200000000023707, -2.6191405234996896 
3.230000000002392, -2.618646724093608 
3.240000000002413, -2.618197109536128 
3.250000000002434, -2.617827806219233 
3.260000000002455, -2.6175107156448867 
3.2700000000024763, -2.61717508372178 
3.2800000000024974, -2.616759267777897 
3.2900000000025185, -2.616227855922209 
3.3000000000025396, -2.6155922208641993 
3.3100000000025607, -2.6149934919593414 
3.3200000000025818, -2.614677954858041 
3.330000000002603, -2.6146575943973893 
3.340000000002624, -2.614674791692303 
3.350000000002645, -2.614551839849832 
3.360000000002666, -2.614253054198861 
3.3700000000026873, -2.61378802196243 
3.3800000000027084, -2.6131728572684225 
3.3900000000027295, -2.6124589840659054 
3.4000000000027506, -2.611790098665841 
3.4100000000027717, -2.6113373496167553 
3.420000000002793, -2.6110782496680285 
3.430000000002814, -2.610840592901255 
3.440000000002835, -2.6105212548934444 
3.450000000002856, -2.6101073863143833 
3.460000000002877, -2.6096333818533113 
3.4700000000028983, -2.609175706416901 
3.4800000000029194, -2.6088131081445853 
3.4900000000029405, -2.608543698659422 
3.5000000000029616, -2.608293575886557 
3.5100000000029827, -2.6079862662719835 
3.520000000003004, -2.607567279019351 
3.530000000003025, -2.60699253966686 
3.540000000003046, -2.606236620936936 
3.550000000003067, -2.6053923995434447 
3.5600000000030882, -2.6047845277798407 
3.5700000000031094, -2.604640812144006 
3.5800000000031305, -2.6047052219046716 
3.5900000000031516, -2.604665804870438 
3.6000000000031727, -2.604443354800559 
3.6100000000031938, -2.6040663378293 
3.620000000003215, -2.603578751332411 
3.630000000003236, -2.603035650259975 
3.640000000003257, -2.602515290207132 
3.650000000003278, -2.6020922153445953 
3.6600000000032993, -2.601764843227145 
3.6700000000033204, -2.6014514647367024 
3.6800000000033415, -2.601076442763059 
3.6900000000033626, -2.6006074666255077 
3.7000000000033837, -2.6000599014744914 
3.710000000003405, -2.5995380298567166 
3.720000000003426, -2.599208352391142 
3.730000000003447, -2.5990871999136966 
3.740000000003468, -2.5990074025192573 
3.750000000003489, -2.5988302685116134 
3.7600000000035103, -2.598505157579489 
3.7700000000035314, -2.5980152012337747 
3.7800000000035525, -2.597350021484222 
3.7900000000035736, -2.596543619920607 
3.8000000000035947, -2.59576980213962 
3.810000000003616, -2.595286826380618 
3.820000000003637, -2.595093297109308 
3.830000000003658, -2.5949456924373555 
3.840000000003679, -2.5946970004042815 
3.8500000000037002, -2.5943320718068374 
3.8600000000037213, -2.593884162826131 
3.8700000000037424, -2.593412246752195 
3.8800000000037635, -2.592987217702266 
3.8900000000037847, -2.5926425524145285 
3.9000000000038058, -2.5923478653910825 
3.910000000003827, -2.59203731524832 
3.920000000003848, -2.5916489246852037 
3.930000000003869, -2.591136156490262 
3.94000000000389, -2.590472968624708 
3.9500000000039113, -2.589725688254638 
3.9600000000039324, -2.5891616432595477 
3.9700000000039535, -2.589018100066579 
3.9800000000039746, -2.589106847256546 
3.9900000000039957, -2.589117299757832 
4.000000000004016, -2.5889415461331486 
4.010000000003993, -2.5885920644245988 
4.02000000000397, -2.58810170831316 
4.030000000003946, -2.587511611806065 
4.040000000003923, -2.586900098166665 
4.0500000000039, -2.586386491009143 
4.0600000000038765, -2.5860303280590253 
4.070000000003853, -2.5857507814522815 
4.08000000000383, -2.5854365550802902 
4.090000000003807, -2.5850380983532792 
4.100000000003783, -2.584558817875368 
4.11000000000376, -2.5840582412235964 
4.120000000003737, -2.583653486832416 
4.130000000003713, -2.583408619394245 
4.14000000000369, -2.583245141866386 
4.150000000003667, -2.5830448802970576 
4.1600000000036434, -2.5827367317945926 
4.17000000000362, -2.5822827931249774 
4.180000000003597, -2.581651617318417 
4.1900000000035735, -2.580839315704604 
4.20000000000355, -2.579978274579409 
4.210000000003527, -2.5793873726163943 
4.220000000003504, -2.5792034638364028 
4.23000000000348, -2.579162945206607 
4.240000000003457, -2.5790240674510536 
4.250000000003434, -2.578737710185912 
4.26000000000341, -2.5783331341579405 
4.270000000003387, -2.577857972895335 
4.280000000003364, -2.5773754047408466 
4.2900000000033405, -2.576948549838682 
4.300000000003317, -2.5766004078654783 
4.310000000003294, -2.5762918743029677 
4.320000000003271, -2.5759528373535323 
4.330000000003247, -2.575527039002367 
4.340000000003224, -2.5749824474422693 
4.350000000003201, -2.574336604753052 
4.360000000003177, -2.5737428530005744 
4.370000000003154, -2.573448461232894 
4.380000000003131, -2.5734499292967365 
4.390000000003107, -2.573483675810849 
4.400000000003084, -2.573374456592737 
4.410000000003061, -2.5730895430840945 
4.4200000000030375, -2.572641967972187 
4.430000000003014, -2.5720511584929904 
4.440000000002991, -2.571365842317241 
4.450000000002968, -2.5707120602006266 
4.460000000002944, -2.5702465986922878 
4.470000000002921, -2.569968366537071 
4.480000000002898, -2.569726542550649 
4.490000000002874, -2.5694146941270493 
4.500000000002851, -2.5690108267253056 
4.510000000002828, -2.5685411173837274 
4.520000000002804, -2.568077472784434 
4.530000000002781, -2.5677094066213035 
4.540000000002758, -2.5674515849859394 
4.5500000000027345, -2.5672299041391407 
4.560000000002711, -2.5669603778460894 
4.570000000002688, -2.566585969453308 
4.580000000002665, -2.5660643527926053 
4.590000000002641, -2.5653607980416924 
4.600000000002618, -2.5645078165060964 
4.610000000002595, -2.563742153746526 
4.620000000002571, -2.5633925456339917 
4.630000000002548, -2.5633914758799063 
4.640000000002525, -2.563396715531282 
4.6500000000025015, -2.5632424003487992 
4.660000000002478, -2.562928263178211 
4.670000000002455, -2.562494919712773 
4.6800000000024315, -2.561991704736713 
4.690000000002408, -2.5614839110607504 
4.700000000002385, -2.561041374112166 
4.710000000002362, -2.560690826303985 
4.720000000002338, -2.5603831057497954 
4.730000000002315, -2.5600406791300614 
4.740000000002292, -2.559612195240523 
4.750000000002268, -2.5590804933774853 
4.760000000002245, -2.5584911085322033 
4.770000000002222, -2.558007981887972 
4.7800000000021985, -2.557796477537332 
4.790000000002175, -2.5577743825757757 
4.800000000002152, -2.5577289841995694 
4.810000000002129, -2.5575455261121833 
4.820000000002105, -2.557199735568536 
4.830000000002082, -2.5566911039893587 
4.840000000002059, -2.5560277853814495 
4.850000000002035, -2.555269979403391 
4.860000000002012, -2.554590912294247 
4.870000000001989, -2.554171314011659 
4.880000000001965, -2.5539553976227873 
4.890000000001942, -2.553749606767952 
4.900000000001919, -2.553453135798171 
4.9100000000018955, -2.5530584544272923 
4.920000000001872, -2.552599607481297 
4.930000000001849, -2.5521443993767936 
4.940000000001826, -2.5517664634006985 
4.950000000001802, -2.5514777604522902 
4.960000000001779, -2.551221672431468 
4.970000000001756, -2.550926239401669 
