t, s[1].omega / s[0].omega 
0, -0.6599977065246379 
0.009999999999999995, -0.6597617687885117 
0.019999999999999934, -0.6595130428644285 
0.029999999999999874, -0.659252295013091 
0.04000000000000012, -0.6589807804379353 
0.050000000000000405, -0.6587002110330963 
0.06000000000000069, -0.6584127025133343 
0.07000000000000098, -0.6581207222942344 
0.08000000000000126, -0.6578270679822328 
0.09000000000000155, -0.6575348965562935 
0.10000000000000184, -0.6572478028120393 
0.11000000000000212, -0.656969921533076 
0.12000000000000241, -0.6567060059488603 
0.130000000000002, -0.656461416483346 
0.1400000000000009, -0.6562419406970268 
0.1499999999999998, -0.6560533651201831 
0.1599999999999987, -0.6559007471179639 
0.1699999999999976, -0.6557874089281791 
0.1799999999999965, -0.6557138064082901 
0.1899999999999954, -0.6556765865398243 
0.1999999999999943, -0.6556682549091855 
0.2099999999999932, -0.6556777996511839 
0.2199999999999921, -0.6556922926988185 
0.229999999999991, -0.6556990322610978 
0.2399999999999899, -0.6556874982674449 
0.2499999999999888, -0.6556504968694227 
0.2599999999999877, -0.6555842961540548 
0.2699999999999866, -0.655487988353836 
0.2799999999999855, -0.6553625037644419 
0.2899999999999844, -0.6552096390602908 
0.2999999999999833, -0.6550312915156012 
0.3099999999999822, -0.6548289418633944 
0.3199999999999811, -0.6546033511276881 
0.32999999999998, -0.6543544210471922 
0.3399999999999789, -0.654081187425007 
0.3499999999999778, -0.6537819496733203 
0.35999999999997667, -0.6534545731747932 
0.36999999999997557, -0.6530970180418383 
0.37999999999997447, -0.6527081251912372 
0.38999999999997337, -0.6522886025983141 
0.39999999999997227, -0.6518419994093703 
0.40999999999997117, -0.6513752969675115 
0.41999999999997006, -0.6508987200982231 
0.42999999999996896, -0.6504245965795726 
0.43999999999996786, -0.6499655113319703 
0.44999999999996676, -0.6495323544319255 
0.45999999999996566, -0.6491328938435637 
0.46999999999996456, -0.6487712101897346 
0.47999999999996346, -0.6484479434075604 
0.48999999999996235, -0.6481610526681842 
0.49999999999996125, -0.647906748282453 
0.5099999999999602, -0.6476803452795203 
0.519999999999959, -0.6474769128350943 
0.529999999999958, -0.6472916918771194 
0.5399999999999568, -0.6471203100002025 
0.5499999999999557, -0.6469588465109537 
0.5599999999999546, -0.646803804049848 
0.5699999999999535, -0.6466520364936277 
0.5799999999999524, -0.64650067090722 
0.5899999999999513, -0.6463470467838486 
0.5999999999999502, -0.646188681633806 
0.6099999999999491, -0.6460232631039624 
0.619999999999948, -0.6458486685966186 
0.6299999999999469, -0.6456630208265439 
0.6399999999999458, -0.6454647886406301 
0.6499999999999447, -0.6452529241544112 
0.6599999999999436, -0.6450269966085502 
0.6699999999999425, -0.6447872675894113 
0.6799999999999414, -0.6445346725799974 
0.6899999999999403, -0.644270720220326 
0.6999999999999392, -0.6439973608180517 
0.7099999999999381, -0.6437168859236764 
0.719999999999937, -0.6434319024680349 
0.7299999999999359, -0.6431453941340227 
0.7399999999999348, -0.642860852638785 
0.7499999999999337, -0.6425824357976048 
0.7599999999999326, -0.6423150847960348 
0.7699999999999315, -0.642064508711808 
0.7799999999999304, -0.641836927196795 
0.7899999999999293, -0.6416384722593304 
0.7999999999999282, -0.6414742173135382 
0.8099999999999271, -0.6413469484825657 
0.819999999999926, -0.6412559966212179 
0.8299999999999249, -0.6411966038178891 
0.8399999999999238, -0.6411602440822683 
0.8499999999999227, -0.6411359718977988 
0.8599999999999216, -0.6411123840026811 
0.8699999999999205, -0.6410794831569843 
0.8799999999999194, -0.6410298479804235 
0.8899999999999183, -0.6409589215257767 
0.8999999999999172, -0.6408646148959923 
0.9099999999999161, -0.6407465757723283 
0.919999999999915, -0.6406054171823041 
0.9299999999999139, -0.6404420686604374 
0.9399999999999128, -0.6402572994209647 
0.9499999999999117, -0.6400514033027122 
0.9599999999999106, -0.6398240200703855 
0.9699999999999095, -0.6395740795316702 
0.9799999999999084, -0.63929987908747 
0.9899999999999073, -0.6389993291451984 
0.9999999999999062, -0.638670408492296 
1.0099999999999052, -0.6383118420151328 
1.019999999999904, -0.6379239287517601 
1.029999999999903, -0.6375093214829934 
1.039999999999902, -0.6370734576227265 
1.0499999999999008, -0.6366243695259338 
1.0599999999998997, -0.6361718118382117 
1.0699999999998986, -0.6357259420819084 
1.0799999999998975, -0.6352959833907309 
1.0899999999998964, -0.6348892586445707 
1.0999999999998953, -0.6345107684670702 
1.1099999999998942, -0.6341632553634644 
1.119999999999893, -0.6338475722103155 
1.129999999999892, -0.6335631663549307 
1.1399999999998909, -0.6333085466315233 
1.1499999999998898, -0.6330816650952578 
1.1599999999998887, -0.632880191476693 
1.1699999999998876, -0.6327016829603822 
1.1799999999998865, -0.632543661552765 
1.1899999999998854, -0.6324036135456332 
1.1999999999998843, -0.6322789257277994 
1.2099999999998832, -0.6321667745915431 
1.219999999999882, -0.6320639908323724 
1.229999999999881, -0.6319669343575186 
1.2399999999998799, -0.6318714334018642 
1.2499999999998788, -0.6317728543469019 
1.2599999999998777, -0.6316663550359278 
1.2699999999998766, -0.6315473160011514 
1.2799999999998755, -0.6314118540381947 
1.2899999999998744, -0.6312572548928073 
1.2999999999998733, -0.6310821746126336 
1.3099999999998722, -0.6308865560250535 
1.319999999999871, -0.6306713255359895 
1.32999999999987, -0.6304380037459905 
1.3399999999998689, -0.6301883582055501 
1.3499999999998678, -0.6299241765087965 
1.3599999999998666, -0.6296471838753753 
1.3699999999998655, -0.6293590937258493 
1.3799999999998644, -0.6290617624943622 
1.3899999999998633, -0.6287574100981403 
1.3999999999998622, -0.6284488545353396 
1.4099999999998611, -0.6281396896888185 
1.41999999999986, -0.6278343175570505 
1.429999999999859, -0.6275377497229824 
1.4399999999998578, -0.627255140865384 
1.4499999999998567, -0.6269911126769969 
1.4599999999998556, -0.6267490303263237 
1.4699999999998545, -0.6265304373759764 
1.4799999999998534, -0.6263348034737827 
1.4899999999998523, -0.6261596323959093 
1.4999999999998512, -0.6260008838258486 
1.5099999999998501, -0.6258536011231659 
1.519999999999849, -0.6257125967067592 
1.529999999999848, -0.6255730374281955 
1.5399999999998468, -0.6254308158951394 
1.5499999999998457, -0.6252826752205808 
1.5599999999998446, -0.6251261297367339 
1.5699999999998435, -0.6249592618295977 
1.5799999999998424, -0.624780475964726 
1.5899999999998413, -0.624588273874788 
1.5999999999998402, -0.6243810972574926 
1.6099999999998391, -0.6241572735709434 
1.619999999999838, -0.6239150935529849 
1.629999999999837, -0.6236530355007643 
1.6399999999998358, -0.6233701190820535 
1.6499999999998347, -0.6230663175242839 
1.6599999999998336, -0.6227429004656336 
1.6699999999998325, -0.6224025623824103 
1.6799999999998314, -0.6220492500994739 
1.6899999999998303, -0.6216877250518966 
1.6999999999998292, -0.6213230104478504 
1.709999999999828, -0.6209599050975831 
1.719999999999827, -0.6206026835530104 
1.729999999999826, -0.6202550028877145 
1.7399999999998248, -0.6199199642190556 
1.7499999999998237, -0.6196002549369437 
1.7599999999998226, -0.6192983098948018 
1.7699999999998215, -0.6190164515387335 
1.7799999999998204, -0.6187569852692877 
1.7899999999998193, -0.6185222340056903 
1.7999999999998182, -0.6183144972620296 
1.809999999999817, -0.6181359185139776 
1.819999999999816, -0.6179882440776152 
1.8299999999998149, -0.6178724625859806 
1.8399999999998138, -0.6177883344699933 
1.8499999999998127, -0.6177338642790174 
1.8599999999998116, -0.6177048363156905 
1.8699999999998105, -0.6176946048607254 
1.8799999999998094, -0.6176943509093938 
1.8899999999998083, -0.6176939218977919 
1.8999999999998072, -0.6176831451672186 
1.909999999999806, -0.6176532510765718 
1.919999999999805, -0.6175979377757129 
1.9299999999998039, -0.6175137589295807 
1.9399999999998028, -0.617399824121456 
1.9499999999998017, -0.6172570591712212 
1.9599999999998006, -0.6170873465805289 
1.9699999999997995, -0.6168927810779882 
1.9799999999997984, -0.6166751404419494 
1.9899999999997973, -0.6164355714607856 
1.9999999999997962, -0.6161744488479145 
2.0099999999998173, -0.6158913672153629 
2.0199999999998384, -0.61558525095405 
2.0299999999998595, -0.6152545973857497 
2.0399999999998806, -0.6148978918908816 
2.0499999999999017, -0.6145142336500163 
2.059999999999923, -0.6141041638772247 
2.069999999999944, -0.6136705751312103 
2.079999999999965, -0.6132194181719359 
2.089999999999986, -0.6127598075713161 
2.100000000000007, -0.6123032119205745 
2.1100000000000283, -0.6118617700346067 
2.1200000000000494, -0.6114462343755553 
2.1300000000000705, -0.6110642718751913 
2.1400000000000916, -0.6107196617115509 
2.1500000000001127, -0.6104124757275985 
2.160000000000134, -0.6101399380804446 
2.170000000000155, -0.6098975291956092 
2.180000000000176, -0.609679989437143 
2.190000000000197, -0.6094820498311342 
2.2000000000002182, -0.6092988620032856 
2.2100000000002393, -0.6091261804455369 
2.2200000000002604, -0.6089603772978751 
2.2300000000002815, -0.6087983661269821 
2.2400000000003026, -0.608637494896245 
2.2500000000003237, -0.6084754486548298 
2.260000000000345, -0.6083101822649896 
2.270000000000366, -0.6081398840284115 
2.280000000000387, -0.6079629565117468 
2.290000000000408, -0.6077779986797258 
2.3000000000004293, -0.6075837877053959 
2.3100000000004504, -0.6073792802404652 
2.3200000000004715, -0.607163659488845 
2.3300000000004926, -0.606936431438856 
2.3400000000005137, -0.6066975351165282 
2.3500000000005348, -0.6064474124745959 
2.360000000000556, -0.6061870036768151 
2.370000000000577, -0.6059176775983316 
2.380000000000598, -0.6056411421839759 
2.390000000000619, -0.6053593856194636 
2.4000000000006403, -0.6050746815792719 
2.4100000000006614, -0.6047896651021281 
2.4200000000006825, -0.6045074601761982 
2.4300000000007036, -0.6042318173115901 
2.4400000000007247, -0.6039671965329687 
2.450000000000746, -0.6037187087452607 
2.460000000000767, -0.6034918162267499 
2.470000000000788, -0.6032917137550858 
2.480000000000809, -0.6031223950119255 
2.49000000000083, -0.6029855660424637 
2.5000000000008513, -0.6028797507946125 
2.5100000000008724, -0.6028000153471973 
2.5200000000008935, -0.6027385787147151 
2.5300000000009146, -0.6026861887072689 
2.5400000000009357, -0.6026337596394187 
2.550000000000957, -0.602573682443522 
2.560000000000978, -0.6025004705411627 
2.570000000000999, -0.6024107625302129 
2.58000000000102, -0.602302918307112 
2.5900000000010412, -0.6021764641980358 
2.6000000000010624, -0.6020315566621359 
2.6100000000010835, -0.6018685409746218 
2.6200000000011046, -0.6016876225882347 
2.6300000000011257, -0.601488645092683 
2.6400000000011468, -0.6012709680402307 
2.650000000001168, -0.6010334496952956 
2.660000000001189, -0.6007745551671061 
2.67000000000121, -0.6004926188325374 
2.680000000001231, -0.6001862769351305 
2.6900000000012523, -0.5998550377599037 
2.7000000000012734, -0.5994998745431352 
2.7100000000012945, -0.5991236467632179 
2.7200000000013156, -0.5987311467349037 
2.7300000000013367, -0.5983286801632661 
2.740000000001358, -0.5979232852859033 
2.750000000001379, -0.5975218538401017 
2.7600000000014, -0.5971304316164721 
2.770000000001421, -0.596753853064919 
2.780000000001442, -0.5963957044965846 
2.7900000000014633, -0.5960585088002999 
2.8000000000014844, -0.5957440052305552 
2.8100000000015055, -0.5954534294537681 
2.8200000000015266, -0.5951877416035044 
2.8300000000015477, -0.5949477811860628 
2.840000000001569, -0.5947343428190836 
2.85000000000159, -0.5945481700983583 
2.860000000001611, -0.5943898622443995 
2.870000000001632, -0.5942596852195792 
2.8800000000016532, -0.5941572819512169 
2.8900000000016743, -0.5940812928947374 
2.9000000000016954, -0.5940289358901182 
2.9100000000017165, -0.5939956527303154 
2.9200000000017377, -0.5939749879416463 
2.9300000000017588, -0.5939588740665636 
2.94000000000178, -0.5939384023241845 
2.950000000001801, -0.5939049560774903 
2.960000000001822, -0.5938513765865293 
2.970000000001843, -0.5937727696674301 
2.9800000000018643, -0.5936667157938613 
2.9900000000018854, -0.5935329137955412 
3.0000000000019065, -0.5933724901876074 
3.0100000000019276, -0.5931872458640106 
3.0200000000019487, -0.5929790268259599 
3.03000000000197, -0.5927492903482665 
3.040000000001991, -0.5924988582476762 
3.050000000002012, -0.5922278195225035 
3.060000000002033, -0.591935551553365 
3.070000000002054, -0.5916208536159566 
3.0800000000020753, -0.5912822144845042 
3.0900000000020964, -0.5909182549182211 
3.1000000000021175, -0.5905283782091194 
3.1100000000021386, -0.5901136030606303 
3.1200000000021597, -0.5896774265282682 
3.130000000002181, -0.589226402591833 
3.140000000002202, -0.588770040235025 
3.150000000002223, -0.5883197759359693 
3.160000000002244, -0.5878871812724381 
3.1700000000022652, -0.5874819945745934 
3.1800000000022863, -0.5871106830667748 
3.1900000000023074, -0.5867759501879822 
3.2000000000023285, -0.5864771402448942 
3.2100000000023496, -0.5862111759476388 
3.2200000000023707, -0.5859736145001083 
3.230000000002392, -0.5857595380280339 
3.240000000002413, -0.5855641625654421 
3.250000000002434, -0.5853831713389639 
3.260000000002455, -0.5852128360832911 
3.2700000000024763, -0.5850500025952978 
3.2800000000024974, -0.5848920064013601 
3.2900000000025185, -0.5847365662940223 
3.3000000000025396, -0.5845816842667324 
3.3100000000025607, -0.5844255623319571 
3.3200000000025818, -0.5842665324726013 
3.330000000002603, -0.5841029911457153 
3.340000000002624, -0.5839333399809774 
3.350000000002645, -0.5837559562049164 
3.360000000002666, -0.5835692310152603 
3.3700000000026873, -0.5833716980962864 
3.3800000000027084, -0.5831622261533471 
3.3900000000027295, -0.5829402019610833 
3.4000000000027506, -0.5827056255002622 
3.4100000000027717, -0.5824590839473577 
3.420000000002793, -0.5822016326521393 
3.430000000002814, -0.5819346480994805 
3.440000000002835, -0.5816597165647062 
3.450000000002856, -0.5813785964554067 
3.460000000002877, -0.5810932621055785 
3.4700000000028983, -0.5808060123510317 
3.4800000000029194, -0.5805196080083721 
3.4900000000029405, -0.5802373838497114 
3.5000000000029616, -0.5799632619873354 
3.5100000000029827, -0.5797015835742181 
3.520000000003004, -0.5794566947998268 
3.530000000003025, -0.5792322949688111 
3.540000000003046, -0.5790306799668463 
3.550000000003067, -0.5788521383470477 
3.5600000000030882, -0.5786947724957259 
3.5700000000031094, -0.5785548536957875 
3.5800000000031305, -0.578427558175371 
3.5900000000031516, -0.5783077717945739 
3.6000000000031727, -0.5781907074620427 
3.6100000000031938, -0.5780722557665811 
3.620000000003215, -0.57794911764878 
3.630000000003236, -0.5778187931212717 
3.640000000003257, -0.5776794763699795 
3.650000000003278, -0.5775298897770865 
3.6600000000032993, -0.5773690867840083 
3.6700000000033204, -0.5771962544599077 
3.6800000000033415, -0.577010544768239 
3.6900000000033626, -0.5768109605794742 
3.7000000000033837, -0.5765963212284674 
3.710000000003405, -0.5763653313809216 
3.720000000003426, -0.5761167692466767 
3.730000000003447, -0.5758497861893154 
3.740000000003468, -0.575564265296242 
3.750000000003489, -0.5752611344553851 
3.7600000000035103, -0.5749425048590479 
3.7700000000035314, -0.5746115463320653 
3.7800000000035525, -0.5742721164581006 
3.7900000000035736, -0.5739282729486097 
3.8000000000035947, -0.5735838415801233 
3.810000000003616, -0.5732421608429099 
3.820000000003637, -0.5729060270294174 
3.830000000003658, -0.5725777883139271 
3.840000000003679, -0.5722595141678182 
3.8500000000037002, -0.5719531827761211 
3.8600000000037213, -0.5716608546918132 
3.8700000000037424, -0.5713848172826913 
3.8800000000037635, -0.5711276879077858 
3.8900000000037847, -0.5708924578477572 
3.9000000000038058, -0.5706824484046523 
3.910000000003827, -0.5705011395523099 
3.920000000003848, -0.5703518261732259 
3.930000000003869, -0.5702370681356393 
3.94000000000389, -0.5701579442395286 
3.9500000000039113, -0.5701132099916973 
3.9600000000039324, -0.5700985859595155 
3.9700000000039535, -0.5701065079288442 
3.9800000000039746, -0.5701266433911262 
3.9900000000039957, -0.5701472359638198 
4.000000000004016, -0.5701569458804447 
4.010000000003993, -0.5701465599820843 
4.02000000000397, -0.5701099921067023 
4.030000000003946, -0.5700443647868008 
4.040000000003923, -0.5699493761225998 
4.0500000000039, -0.5698263515009082 
4.0600000000038765, -0.5696773263399455 
4.070000000003853, -0.5695043389964709 
4.08000000000383, -0.5693089667084213 
4.090000000003807, -0.5690920635547702 
4.100000000003783, -0.5688536473343916 
4.11000000000376, -0.5685929040862184 
4.120000000003737, -0.5683083126994768 
4.130000000003713, -0.5679979227988735 
4.14000000000369, -0.5676598313296274 
4.150000000003667, -0.5672928757541054 
4.1600000000036434, -0.5668974753724662 
4.17000000000362, -0.566476417453564 
4.180000000003597, -0.5660352730724745 
4.1900000000035735, -0.5655821556708763 
4.20000000000355, -0.5651267655775023 
4.210000000003527, -0.5646789942115792 
4.220000000003504, -0.564247567753406 
4.23000000000348, -0.5638391468119506 
4.240000000003457, -0.5634580381008898 
4.250000000003434, -0.5631064138784293 
4.26000000000341, -0.5627848108646151 
4.270000000003387, -0.5624926941643607 
4.280000000003364, -0.5622289510176782 
4.2900000000033405, -0.5619922580810427 
4.300000000003317, -0.5617813159746406 
4.310000000003294, -0.5615949658661228 
4.320000000003271, -0.561432205224465 
4.330000000003247, -0.5612921137875209 
4.340000000003224, -0.561173693811265 
4.350000000003201, -0.561075627163994 
4.360000000003177, -0.5609959626926033 
4.370000000003154, -0.5609317768335208 
4.380000000003131, -0.5608788975603048 
4.390000000003107, -0.5608318265254937 
4.400000000003084, -0.5607839937272571 
4.410000000003061, -0.5607283903619263 
4.4200000000030375, -0.5606584576282623 
4.430000000003014, -0.5605689538983831 
4.440000000002991, -0.5604564999664822 
4.450000000002968, -0.5603196456429929 
4.460000000002944, -0.5601585128249733 
4.470000000002921, -0.5599742117142694 
4.480000000002898, -0.5597682392888926 
4.490000000002874, -0.5595419939056526 
4.500000000002851, -0.5592964511031034 
4.510000000002828, -0.5590319890328695 
4.520000000002804, -0.5587483347668406 
4.530000000002781, -0.5584446128494979 
4.540000000002758, -0.5581195006027786 
4.5500000000027345, -0.5577715194473578 
4.560000000002711, -0.5573995052163474 
4.570000000002688, -0.5570032826345125 
4.580000000002665, -0.5565844928030531 
4.590000000002641, -0.5561473779922239 
4.600000000002618, -0.5556991713500328 
4.610000000002595, -0.555249714541508 
4.620000000002571, -0.5548101715757199 
4.630000000002548, -0.5543911604214088 
4.640000000002525, -0.5540009745281844 
4.6500000000025015, -0.553644522916575 
4.660000000002478, -0.5533232205733243 
4.670000000002455, -0.5530356279621671 
4.6800000000024315, -0.5527784328441014 
4.690000000002408, -0.5525474112366431 
4.700000000002385, -0.5523381648833361 
4.710000000002362, -0.552146583588115 
4.720000000002338, -0.5519690699474153 
4.730000000002315, -0.5518025957693419 
4.740000000002292, -0.5516446572012061 
4.750000000002268, -0.551493179310607 
4.760000000002245, -0.5513464015712461 
4.770000000002222, -0.5512027579923108 
4.7800000000021985, -0.5510607524688436 
4.790000000002175, -0.5509188261749828 
4.800000000002152, -0.5507752252984911 
4.810000000002129, -0.5506279033952823 
4.820000000002105, -0.5504745164715339 
4.830000000002082, -0.5503125612781112 
4.840000000002059, -0.5501396518499335 
4.850000000002035, -0.5499538510028372 
4.860000000002012, -0.5497539299085874 
4.870000000001989, -0.5495394587248545 
4.880000000001965, -0.5493107143354081 
4.890000000001942, -0.5490684686553347 
4.900000000001919, -0.5488137500766153 
4.9100000000018955, -0.5485476525510982 
4.920000000001872, -0.5482712290099954 
