t, s[1].omega / s[0].omega 
0, -0.7499976730755618 
0.009999999999999995, -0.7497525449876943 
0.019999999999999934, -0.7494834198808918 
0.029999999999999874, -0.7491921328355127 
0.04000000000000012, -0.7488816654970872 
0.050000000000000405, -0.7485560501352624 
0.06000000000000069, -0.7482202511026251 
0.07000000000000098, -0.7478800758393961 
0.08000000000000126, -0.7475421602960612 
0.09000000000000155, -0.747214027754403 
0.10000000000000184, -0.7469041612266787 
0.11000000000000212, -0.7466219845451254 
0.12000000000000241, -0.7463776310634597 
0.130000000000002, -0.7461813967830485 
0.1400000000000009, -0.7460428249452329 
0.1499999999999998, -0.745969444000726 
0.1599999999999987, -0.7459652708816492 
0.1699999999999976, -0.7460292933635271 
0.1799999999999965, -0.746154261422636 
0.1899999999999954, -0.7463262300675031 
0.1999999999999943, -0.7465253230689994 
0.2099999999999932, -0.7467279808613589 
0.2199999999999921, -0.7469104290145145 
0.229999999999991, -0.7470524382805259 
0.2399999999999899, -0.7471401144959584 
0.2499999999999888, -0.7471668256460331 
0.2599999999999877, -0.747132254628442 
0.2699999999999866, -0.747040328817189 
0.2799999999999855, -0.7468969705084217 
0.2899999999999844, -0.7467083142351805 
0.2999999999999833, -0.7464796130208753 
0.3099999999999822, -0.7462147734406432 
0.3199999999999811, -0.7459163692989023 
0.32999999999998, -0.7455860143811128 
0.3399999999999789, -0.7452250403717111 
0.3499999999999778, -0.7448354652986392 
0.35999999999997667, -0.7444212088776716 
0.36999999999997557, -0.7439893867048626 
0.37999999999997447, -0.7435513044858499 
0.38999999999997337, -0.7431225679006628 
0.39999999999997227, -0.7427217190920322 
0.40999999999997117, -0.7423672150758831 
0.41999999999997006, -0.7420733661701626 
0.42999999999996896, -0.7418466476300443 
0.43999999999996786, -0.7416839632639701 
0.44999999999996676, -0.741573668119776 
0.45999999999996566, -0.74149884646429 
0.46999999999996456, -0.741441360707747 
0.47999999999996346, -0.7413851392997348 
0.48999999999996235, -0.7413178982787245 
0.49999999999996125, -0.7412313457263185 
0.5099999999999602, -0.7411204034282909 
0.519999999999959, -0.740982031941585 
0.529999999999958, -0.740814064958517 
0.5399999999999568, -0.7406142531687351 
0.5499999999999557, -0.7403795894210315 
0.5599999999999546, -0.7401059510065431 
0.5699999999999535, -0.739788124382005 
0.5799999999999524, -0.7394203261474382 
0.5899999999999513, -0.7389973350305733 
0.5999999999999502, -0.7385162226213711 
0.6099999999999491, -0.7379783749370384 
0.619999999999948, -0.7373911335953677 
0.6299999999999469, -0.7367682359700254 
0.6399999999999458, -0.7361285696832086 
0.6499999999999447, -0.7354934976267936 
0.6599999999999436, -0.7348836643228034 
0.6699999999999425, -0.7343163030109678 
0.6799999999999414, -0.7338036433980417 
0.6899999999999403, -0.7333524694411951 
0.6999999999999392, -0.7329645346662667 
0.7099999999999381, -0.7326374675141845 
0.719999999999937, -0.7323658705441844 
0.7299999999999359, -0.7321424133303781 
0.7399999999999348, -0.7319587903815749 
0.7499999999999337, -0.7318064662938956 
0.7599999999999326, -0.7316771764332852 
0.7699999999999315, -0.7315631976659662 
0.7799999999999304, -0.7314574428006293 
0.7899999999999293, -0.7313534536544565 
0.7999999999999282, -0.7312453647820788 
0.8099999999999271, -0.7311278863679818 
0.819999999999926, -0.7309963253433259 
0.8299999999999249, -0.7308466480379199 
0.8399999999999238, -0.7306755918584148 
0.8499999999999227, -0.7304808361319778 
0.8599999999999216, -0.7302612135525649 
0.8699999999999205, -0.7300168918159902 
0.8799999999999194, -0.7297494350925652 
0.8899999999999183, -0.7294617073594798 
0.8999999999999172, -0.7291576733370315 
0.9099999999999161, -0.7288422149847584 
0.919999999999915, -0.728521071793586 
0.9299999999999139, -0.7282009485320325 
0.9399999999999128, -0.7278897543192266 
0.9499999999999117, -0.7275968673739419 
0.9599999999999106, -0.7273332670131829 
0.9699999999999095, -0.7271113408169019 
0.9799999999999084, -0.7269441712590319 
0.9899999999999073, -0.7268441543889108 
0.9999999999999062, -0.7268209309408905 
1.0099999999999052, -0.7268788399876074 
1.019999999999904, -0.7270144293103784 
1.029999999999903, -0.7272148864622011 
1.039999999999902, -0.7274583684733936 
1.0499999999999008, -0.7277168092143155 
1.0599999999998997, -0.7279607829160178 
1.0699999999998986, -0.728164861272351 
1.0799999999998975, -0.7283114864202029 
1.0899999999998964, -0.7283921489915642 
1.0999999999998953, -0.7284060545610033 
1.1099999999998942, -0.7283574454593824 
1.119999999999893, -0.7282528265991794 
1.129999999999892, -0.7280988309265752 
1.1399999999998909, -0.7279008985474263 
1.1499999999998898, -0.7276626246053841 
1.1599999999998887, -0.7273855557564775 
1.1699999999998876, -0.7270692747292069 
1.1799999999998865, -0.7267117158195229 
1.1899999999998854, -0.7263097544113915 
1.1999999999998843, -0.7258601855975876 
1.2099999999998832, -0.7253612174813758 
1.219999999999882, -0.7248144950524521 
1.229999999999881, -0.7242273731162703 
1.2399999999998799, -0.7236146805369936 
1.2499999999998788, -0.722998798402961 
1.2599999999998777, -0.7224070194812459 
1.2699999999998766, -0.7218662710713353 
1.2799999999998755, -0.7213969523582209 
1.2899999999998744, -0.7210085372449525 
1.2999999999998733, -0.7206987469541563 
1.3099999999998722, -0.7204561141936223 
1.319999999999871, -0.7202642293079817 
1.32999999999987, -0.720105769687909 
1.3399999999998689, -0.7199652003597266 
1.3499999999998678, -0.7198299574436198 
1.3599999999998666, -0.7196904806140643 
1.3699999999998655, -0.719539605306097 
1.3799999999998644, -0.719371737628373 
1.3899999999998633, -0.7191820884718727 
1.3999999999998622, -0.7189661301499203 
1.4099999999998611, -0.7187193780920119 
1.41999999999986, -0.7184375659290835 
1.429999999999859, -0.7181172280711265 
1.4399999999998578, -0.7177565899661266 
1.4499999999998567, -0.7173565032890059 
1.4599999999998556, -0.7169210450896318 
1.4699999999998545, -0.7164574591409094 
1.4799999999998534, -0.7159753892348364 
1.4899999999998523, -0.715485682853245 
1.4999999999998512, -0.7149991976058104 
1.5099999999998501, -0.71452593831997 
1.519999999999849, -0.7140746160059511 
1.529999999999848, -0.7136525310333405 
1.5399999999998468, -0.7132656195169541 
1.5499999999998457, -0.7129185332866779 
1.5599999999998446, -0.7126146875675905 
1.5699999999998435, -0.7123562651856391 
1.5799999999998424, -0.712144196607617 
1.5899999999998413, -0.7119781408274833 
1.5999999999998402, -0.7118564792917741 
1.6099999999998391, -0.7117763143924093 
1.619999999999838, -0.7117334484987368 
1.629999999999837, -0.7117223210900612 
1.6399999999998358, -0.7117359086695545 
1.6499999999998347, -0.7117656465514973 
1.6599999999998336, -0.7118015006284308 
1.6699999999998325, -0.7118323607852742 
1.6799999999998314, -0.7118468796766965 
1.6899999999998303, -0.7118346976400638 
1.6999999999998292, -0.7117877395472907 
1.709999999999828, -0.711701125183253 
1.719999999999827, -0.7115733567743379 
1.729999999999826, -0.7114057810726953 
1.7399999999998248, -0.7112016321932328 
1.7499999999998237, -0.7109650572455837 
1.7599999999998226, -0.7107004207652349 
1.7699999999998215, -0.7104120119901403 
1.7799999999998204, -0.7101041518948479 
1.7899999999998193, -0.7097816383052803 
1.7999999999998182, -0.7094504419591685 
1.809999999999817, -0.709118525170818 
1.819999999999816, -0.7087965640757432 
1.8299999999998149, -0.7084982173037464 
1.8399999999998138, -0.70823946335016 
1.8499999999998127, -0.7080365748248983 
1.8599999999998116, -0.70790269917261 
1.8699999999998105, -0.7078438188966352 
1.8799999999998094, -0.7078557085254891 
1.8899999999998083, -0.7079236245964363 
1.8999999999998072, -0.7080253364946159 
1.909999999999806, -0.7081362966944752 
1.919999999999805, -0.7082346762071763 
1.9299999999998039, -0.7083044567245913 
1.9399999999998028, -0.7083361391018645 
1.9499999999998017, -0.7083257267521035 
1.9599999999998006, -0.7082729562817904 
1.9699999999997995, -0.7081795091122934 
1.9799999999997984, -0.7080475608413781 
1.9899999999997973, -0.7078787450299043 
1.9999999999997962, -0.7076734728868836 
2.0099999999998173, -0.7074305257592013 
2.0199999999998384, -0.7071468795834349 
2.0299999999998595, -0.7068177985703581 
2.0399999999998806, -0.7064373235323986 
2.0499999999999017, -0.7059993359251092 
2.059999999999923, -0.7054993246295005 
2.069999999999944, -0.7049367286580084 
2.079999999999965, -0.7043172755255187 
2.089999999999986, -0.7036543145298207 
2.100000000000007, -0.7029681887489633 
2.1100000000000283, -0.7022834401707103 
2.1200000000000494, -0.7016247196328795 
2.1300000000000705, -0.7010128827926939 
2.1400000000000916, -0.7004624743050079 
2.1500000000001127, -0.6999809782734661 
2.160000000000134, -0.6995694888800938 
2.170000000000155, -0.6992241647371782 
2.180000000000176, -0.6989378976699984 
2.190000000000197, -0.698701830106624 
2.2000000000002182, -0.6985065437858702 
2.2100000000002393, -0.6983428705518805 
2.2200000000002604, -0.6982023527522838 
2.2300000000002815, -0.6980774243854928 
2.2400000000003026, -0.6979614051897223 
2.2500000000003237, -0.697848401736385 
2.260000000000345, -0.697733193146602 
2.270000000000366, -0.6976111473325787 
2.280000000000387, -0.69747817713425 
2.290000000000408, -0.6973307237614348 
2.3000000000004293, -0.697165763870305 
2.3100000000004504, -0.6969808658986668 
2.3200000000004715, -0.6967743285849597 
2.3300000000004926, -0.6965453878814468 
2.3400000000005137, -0.6962944083938762 
2.3500000000005348, -0.6960229568977898 
2.360000000000556, -0.6957337215223832 
2.370000000000577, -0.6954303398600572 
2.380000000000598, -0.6951172549082606 
2.390000000000619, -0.6947997005594021 
2.4000000000006403, -0.6944838548524152 
2.4100000000006614, -0.6941771273078704 
2.4200000000006825, -0.693888484040982 
2.4300000000007036, -0.6936286600810567 
2.4400000000007247, -0.6934100602212018 
2.450000000000746, -0.693246119013266 
2.460000000000767, -0.6931499093151894 
2.470000000000788, -0.6931319096990991 
2.480000000000809, -0.6931971204376078 
2.49000000000083, -0.6933421622750123 
2.5000000000008513, -0.6935534598080392 
2.5100000000008724, -0.6938077429070955 
2.5200000000008935, -0.6940754774473621 
2.5300000000009146, -0.6943264696090482 
2.5400000000009357, -0.6945355844347111 
2.550000000000957, -0.6946863773149199 
2.560000000000978, -0.6947716666196845 
2.570000000000999, -0.6947916614539239 
2.58000000000102, -0.6947510565420478 
2.5900000000010412, -0.6946563073744106 
2.6000000000010624, -0.6945136572921269 
2.6100000000010835, -0.6943279547397182 
2.6200000000011046, -0.6941020563840713 
2.6300000000011257, -0.6938365903282899 
2.6400000000011468, -0.6935299354641691 
2.650000000001168, -0.6931783853553111 
2.660000000001189, -0.6927765798646267 
2.67000000000121, -0.6923183883749668 
2.680000000001231, -0.6917984721587149 
2.6900000000012523, -0.6912146460036532 
2.7000000000012734, -0.6905707836245536 
2.7100000000012945, -0.6898793742091258 
2.7200000000013156, -0.6891622898158142 
2.7300000000013367, -0.6884485323446431 
2.740000000001358, -0.687769049258392 
2.750000000001379, -0.6871504326243466 
2.7600000000014, -0.6866100440793526 
2.770000000001421, -0.6861542118979778 
2.780000000001442, -0.6857794583075061 
2.7900000000014633, -0.6854755158032504 
2.8000000000014844, -0.6852286920155535 
2.8100000000015055, -0.6850246131472614 
2.8200000000015266, -0.6848499784024661 
2.8300000000015477, -0.6846933827172627 
2.840000000001569, -0.6845454598032352 
2.85000000000159, -0.6843986311739544 
2.860000000001611, -0.6842467035082894 
2.870000000001632, -0.684084492598654 
2.8800000000016532, -0.6839075902121652 
2.8900000000016743, -0.6837123290197602 
2.9000000000016954, -0.6834959301597056 
2.9100000000017165, -0.683256740502336 
2.9200000000017377, -0.6829944137760693 
2.9300000000017588, -0.6827099085563311 
2.94000000000178, -0.6824052783310006 
2.950000000001801, -0.6820833514012064 
2.960000000001822, -0.6817474463037833 
2.970000000001843, -0.6814012127693483 
2.9800000000018643, -0.6810485957690824 
2.9900000000018854, -0.6806938727300215 
3.0000000000019065, -0.6803417260286708 
3.0100000000019276, -0.6799973418682327 
3.0200000000019487, -0.6796665341229301 
3.03000000000197, -0.6793558732484657 
3.040000000001991, -0.6790727718755065 
3.050000000002012, -0.678825455127573 
3.060000000002033, -0.6786227314312223 
3.070000000002054, -0.6784734799024641 
3.0800000000020753, -0.6783857855394284 
3.0900000000020964, -0.6783656926461148 
3.1000000000021175, -0.6784156308375755 
3.1100000000021386, -0.6785327234730867 
3.1200000000021597, -0.6787074174351038 
3.130000000002181, -0.6789230917421556 
3.140000000002202, -0.6791572998032435 
3.150000000002223, -0.679384841006425 
3.160000000002244, -0.6795819792458304 
3.1700000000022652, -0.6797303541385993 
3.1800000000022863, -0.6798191463507398 
3.1900000000023074, -0.6798449605728876 
3.2000000000023285, -0.6798099872011354 
3.2100000000023496, -0.6797195277179247 
3.2200000000023707, -0.6795797837619222 
3.230000000002392, -0.6793963138473129 
3.240000000002413, -0.6791731569687786 
3.250000000002434, -0.6789124456448111 
3.260000000002455, -0.6786143279488035 
3.2700000000024763, -0.6782770951369564 
3.2800000000024974, -0.6778975084844021 
3.2900000000025185, -0.677471409522344 
3.3000000000025396, -0.6769947626993382 
3.3100000000025607, -0.6764652772273718 
3.3200000000025818, -0.6758846062845382 
3.330000000002603, -0.6752607436905456 
3.340000000002624, -0.6746096801534704 
3.350000000002645, -0.673955014546999 
3.360000000002666, -0.673324656839706 
3.3700000000026873, -0.6727452116790443 
3.3800000000027084, -0.6722362071818658 
3.3900000000027295, -0.671806621422899 
3.4000000000027506, -0.6714548124666571 
3.4100000000027717, -0.6711711481897169 
3.420000000002793, -0.6709416912919285 
3.430000000002814, -0.6707514885702555 
3.440000000002835, -0.6705867512734203 
3.450000000002856, -0.6704358761514331 
3.460000000002877, -0.6702896015802164 
3.4700000000028983, -0.6701406675671627 
3.4800000000029194, -0.6699832867570553 
3.4900000000029405, -0.6698126398167752 
3.5000000000029616, -0.6696245307264354 
3.5100000000029827, -0.6694152799220187 
3.520000000003004, -0.669181876531659 
3.530000000003025, -0.6689223342127814 
3.540000000003046, -0.6686361029409352 
3.550000000003067, -0.668324329733658 
3.5600000000030882, -0.6679898020742533 
3.5700000000031094, -0.6676365613665789 
3.5800000000031305, -0.6672693487591776 
3.5900000000031516, -0.6668931122359086 
3.6000000000031727, -0.6665127243604237 
3.6100000000031938, -0.6661329224766284 
3.620000000003215, -0.6657583964475617 
3.630000000003236, -0.6653939421355961 
3.640000000003257, -0.6650446296863015 
3.650000000003278, -0.664715958420024 
3.6600000000032993, -0.6644139713177196 
3.6700000000033204, -0.6641452912455353 
3.6800000000033415, -0.6639170301822012 
3.6900000000033626, -0.6637365171740646 
3.7000000000033837, -0.6636107911648867 
3.710000000003405, -0.6635458132222023 
3.720000000003426, -0.663545379291362 
3.730000000003447, -0.6636097823881044 
3.740000000003468, -0.6637344104904934 
3.750000000003489, -0.6639086743849204 
3.7600000000035103, -0.6641158533886755 
3.7700000000035314, -0.6643344241505965 
3.7800000000035525, -0.6645409899820697 
3.7900000000035736, -0.6647141213725248 
3.8000000000035947, -0.6648377617741807 
3.810000000003616, -0.66490294673157 
3.820000000003637, -0.6649074519801801 
3.830000000003658, -0.6648539597240523 
3.840000000003679, -0.664747745254864 
3.8500000000037002, -0.6645946714414801 
3.8600000000037213, -0.6643998186953703 
3.8700000000037424, -0.6641667237372247 
3.8800000000037635, -0.6638970566129805 
3.8900000000037847, -0.6635905741251987 
3.9000000000038058, -0.6632452644389571 
3.910000000003827, -0.6628576901745994 
3.920000000003848, -0.6624236231551774 
3.930000000003869, -0.661939123390675 
3.94000000000389, -0.6614022026317851 
3.9500000000039113, -0.6608150443570708 
3.9600000000039324, -0.6601863468619625 
3.9700000000039535, -0.6595327919377063 
3.9800000000039746, -0.6588783403164947 
3.9900000000039957, -0.6582506349744044 
4.000000000004016, -0.657675331188869 
4.010000000003993, -0.6571706262781498 
4.02000000000397, -0.656744286005273 
4.030000000003946, -0.656393976781241 
4.040000000003923, -0.6561100129877967 
4.0500000000039, -0.6558789011215833 
4.0600000000038765, -0.6556863780935809 
4.070000000003853, -0.6555193672470753 
4.08000000000383, -0.6553668655227617 
4.090000000003807, -0.6552200568150225 
4.100000000003783, -0.6550719919075307 
4.11000000000376, -0.6549171108718526 
4.120000000003737, -0.6547507979213958 
4.130000000003713, -0.6545690880785676 
4.14000000000369, -0.6543685893300508 
4.150000000003667, -0.6541466253182526 
4.1600000000036434, -0.6539015283832371 
4.17000000000362, -0.6536329353730783 
4.180000000003597, -0.6533419096702022 
4.1900000000035735, -0.6530307830863079 
4.20000000000355, -0.6527027635626101 
4.210000000003527, -0.6523614854350637 
4.220000000003504, -0.652010686693349 
4.23000000000348, -0.6516540903473652 
4.240000000003457, -0.6512954496619495 
4.250000000003434, -0.6509386745174413 
4.26000000000341, -0.6505879832958249 
4.270000000003387, -0.6502480650426499 
4.280000000003364, -0.6499242507468103 
4.2900000000033405, -0.649622678568409 
4.300000000003317, -0.6493504115685279 
4.310000000003294, -0.6491154407721165 
4.320000000003271, -0.6489264861607627 
4.330000000003247, -0.6487924956836976 
4.340000000003224, -0.6487217447141613 
4.350000000003201, -0.6487204748804236 
4.360000000003177, -0.6487911167111793 
4.370000000003154, -0.6489303519556178 
4.380000000003131, -0.6491275777131447 
4.390000000003107, -0.6493645948088953 
4.400000000003084, -0.6496172620845024 
4.410000000003061, -0.6498591817398466 
4.4200000000030375, -0.6500663941798914 
4.430000000003014, -0.6502213222400817 
4.440000000002991, -0.6503145242306273 
4.450000000002968, -0.650344012014247 
4.460000000002944, -0.6503130081422994 
4.470000000002921, -0.6502273392547895 
4.480000000002898, -0.650093289085281 
4.490000000002874, -0.649916183526596 
4.500000000002851, -0.6496996157368865 
4.510000000002828, -0.6494450997430932 
4.520000000002804, -0.6491519746962736 
4.530000000002781, -0.6488174766005714 
4.540000000002758, -0.648437003643312 
4.5500000000027345, -0.6480047080578545 
4.560000000002711, -0.6475146281411067 
4.570000000002688, -0.6469625630169314 
4.580000000002665, -0.6463486735443487 
4.590000000002641, -0.6456802789453703 
4.600000000002618, -0.6449736641882076 
4.610000000002595, -0.6442534701802207 
4.620000000002571, -0.643549023725362 
4.630000000002548, -0.6428886130170602 
4.640000000002525, -0.6422940059078538 
4.6500000000025015, -0.6417773109792174 
4.660000000002478, -0.6413408388890306 
4.670000000002455, -0.640979182733763 
4.6800000000024315, -0.6406821759127507 
4.690000000002408, -0.6404376389339206 
4.700000000002385, -0.6402333759987977 
4.710000000002362, -0.6400583358132672 
4.720000000002338, -0.639903091888835 
4.730000000002315, -0.6397598700571678 
4.740000000002292, -0.6396223344841715 
4.750000000002268, -0.6394852956912749 
4.760000000002245, -0.6393444521183327 
4.770000000002222, -0.6391962261212851 
4.7800000000021985, -0.6390377027388707 
4.790000000002175, -0.638866627707113 
4.800000000002152, -0.6386813896138548 
4.810000000002129, -0.6384809288591697 
4.820000000002105, -0.6382645878829636 
4.830000000002082, -0.6380319929365338 
4.840000000002059, -0.6377830617824513 
4.850000000002035, -0.6375181457565893 
4.860000000002012, -0.6372382144882118 
4.870000000001989, -0.6369449715270246 
4.880000000001965, -0.6366408606234992 
4.890000000001942, -0.6363290137644567 
4.900000000001919, -0.6360132334985109 
4.9100000000018955, -0.6356980821895383 
4.920000000001872, -0.6353890991074223 
