t, s[1].omega / s[0].omega 
0, -2.599996060843977 
0.009999999999999995, -2.599518105100672 
0.019999999999999934, -2.598877308229032 
0.029999999999999874, -2.5981174193838825 
0.04000000000000012, -2.597396424953538 
0.050000000000000405, -2.596925257128434 
0.06000000000000069, -2.596692496772577 
0.07000000000000098, -2.596495157834092 
0.08000000000000126, -2.5962097275634983 
0.09000000000000155, -2.5958212594707795 
0.10000000000000184, -2.5953619510580763 
0.11000000000000212, -2.5948976055927995 
0.12000000000000241, -2.5945032268478725 
0.130000000000002, -2.5941968713195314 
0.1400000000000009, -2.593926677677925 
0.1499999999999998, -2.593620666384551 
0.1599999999999987, -2.5932204171642472 
0.1699999999999976, -2.5926801907015458 
0.1799999999999965, -2.591971404579623 
0.1899999999999954, -2.5911657068668363 
0.1999999999999943, -2.5905562456149616 
0.2099999999999932, -2.590398442260928 
0.2199999999999921, -2.5904836800380457 
0.229999999999991, -2.5904854883736546 
0.2399999999999899, -2.5903000100709934 
0.2499999999999888, -2.5899472890990554 
0.2599999999999877, -2.589467204513939 
0.2699999999999866, -2.588907939932996 
0.2799999999999855, -2.588346335294874 
0.2899999999999844, -2.587877844451581 
0.2999999999999833, -2.5875334828672414 
0.3099999999999822, -2.587236479820445 
0.3199999999999811, -2.586895097800981 
0.32999999999998, -2.586466991272569 
0.3399999999999789, -2.58595666588681 
0.3499999999999778, -2.5854369099121675 
0.35999999999997667, -2.585051022664541 
0.36999999999997557, -2.584860607950779 
0.37999999999997447, -2.5847498853008757 
0.38999999999997337, -2.5845793187783856 
0.39999999999997227, -2.584280947186263 
0.40999999999997117, -2.583826766161481 
0.41999999999997006, -2.583195816513194 
0.42999999999996896, -2.582395951895729 
0.43999999999996786, -2.5815618020123097 
0.44999999999996676, -2.5809809122257152 
0.45999999999996566, -2.5807590408705616 
0.46999999999996456, -2.580659085462845 
0.47999999999996346, -2.580472559251004 
0.48999999999996235, -2.5801565497677847 
0.49999999999996125, -2.5797376202757603 
0.5099999999999602, -2.579265429786013 
0.519999999999959, -2.5788074923335276 
0.529999999999958, -2.578418574210631 
0.5399999999999568, -2.5780995584768363 
0.5499999999999557, -2.577798131933281 
0.5599999999999546, -2.5774473001893443 
0.5699999999999535, -2.5769948923525017 
0.5799999999999524, -2.5764069501945146 
0.5899999999999513, -2.575703951398697 
0.5999999999999502, -2.5750686597899337 
0.6099999999999491, -2.5747848152983948 
0.619999999999948, -2.574825189546261 
0.6299999999999469, -2.574883127259681 
0.6399999999999458, -2.5747790521583704 
0.6499999999999447, -2.5744930895519937 
0.6599999999999436, -2.5740503079855044 
0.6699999999999425, -2.5734812682417654 
0.6799999999999414, -2.572842943005942 
0.6899999999999403, -2.5722502168729253 
0.6999999999999392, -2.5718204221445222 
0.7099999999999381, -2.5715319086549218 
0.719999999999937, -2.571257540840086 
0.7299999999999359, -2.570912775097649 
0.7399999999999348, -2.5704799941420733 
0.7499999999999337, -2.569989420292139 
0.7599999999999326, -2.5695289678233046 
0.7699999999999315, -2.569198792449395 
0.7799999999999304, -2.568991846770568 
0.7899999999999293, -2.5688051286320173 
0.7999999999999282, -2.5685475009725343 
0.8099999999999271, -2.5681675967984905 
0.819999999999926, -2.5676291676364236 
0.8299999999999249, -2.5669039105228326 
0.8399999999999238, -2.5660358120160724 
0.8499999999999227, -2.5652681564569297 
0.8599999999999216, -2.5649046745694446 
0.8699999999999205, -2.564857743819714 
0.8799999999999194, -2.5648091285743004 
0.8899999999999183, -2.564614485269823 
0.8999999999999172, -2.564276746282717 
0.9099999999999161, -2.5638362133003603 
0.919999999999915, -2.56334593244776 
0.9299999999999139, -2.562872385690798 
0.9399999999999128, -2.5624705571954736 
0.9499999999999117, -2.5621428587447292 
0.9599999999999106, -2.561832158956477 
0.9699999999999095, -2.5614691943695322 
0.9799999999999084, -2.561007553072053 
0.9899999999999073, -2.560429968865374 
0.9999999999999062, -2.559794803943664 
1.0099999999999052, -2.5593055534077203 
1.019999999999904, -2.559143146462418 
1.029999999999903, -2.5591774962330147 
1.039999999999902, -2.5591611663138094 
1.0499999999999008, -2.55898442845269 
1.0599999999998997, -2.5586377725067946 
1.0699999999998986, -2.558133724199142 
1.0799999999998975, -2.557493845080221 
1.0899999999998964, -2.556788274336817 
1.0999999999998953, -2.556173459663957 
1.1099999999998942, -2.5557808769714514 
1.119999999999893, -2.5555403926576727 
1.129999999999892, -2.5552927025652346 
1.1399999999998909, -2.5549598263461677 
1.1499999999998898, -2.5545377268956275 
1.1599999999998887, -2.5540648467350375 
1.1699999999998876, -2.5536217358150606 
1.1799999999998865, -2.5532838891474965 
1.1899999999998854, -2.5530393865746843 
1.1999999999998843, -2.5528084225097047 
1.2099999999998832, -2.5525152912348803 
1.219999999999882, -2.552108585932909 
1.229999999999881, -2.551546838213862 
1.2399999999998799, -2.5508023279931153 
1.2499999999998788, -2.5499446365188456 
1.2599999999998777, -2.549262028848393 
1.2699999999998766, -2.549026816109909 
1.2799999999998755, -2.549063263504358 
1.2899999999998744, -2.549046215137074 
1.2999999999998733, -2.548860030944492 
1.3099999999998722, -2.5485207686887987 
1.319999999999871, -2.548070677466697 
1.32999999999987, -2.547560877256057 
1.3399999999998689, -2.5470591322520124 
1.3499999999998678, -2.5466324049339897 
1.3599999999998666, -2.546295452767352 
1.3699999999998655, -2.545989294785519 
1.3799999999998644, -2.545638498636791 
1.3899999999998633, -2.545197473822987 
1.3999999999998622, -2.5446555620438582 
1.4099999999998611, -2.5440722003361453 
1.41999999999986, -2.5436226586634003 
1.429999999999859, -2.5434475622863535 
1.4399999999998578, -2.5434340633725427 
1.4499999999998567, -2.543377022582853 
1.4599999999998556, -2.5431772996455324 
1.4699999999998545, -2.542815990185811 
1.4799999999998534, -2.5422931237147 
1.4899999999998523, -2.5416191593606827 
1.4999999999998512, -2.5408623353710067 
1.5099999999998501, -2.540202441295463 
1.519999999999849, -2.5398055572406326 
1.529999999999848, -2.5395968868966436 
1.5399999999998468, -2.539387232722262 
1.5499999999998457, -2.5390853067075123 
1.5599999999998446, -2.538687045754695 
1.5699999999998435, -2.5382278898322106 
1.5799999999998424, -2.537776853271758 
1.5899999999998413, -2.5374062528473202 
1.5999999999998402, -2.5371243767080016 
1.6099999999998391, -2.5368724753405223 
1.619999999999838, -2.5365789038742883 
1.629999999999837, -2.5361883173044593 
1.6399999999998358, -2.535656870733292 
1.6499999999998347, -2.534953241332306 
1.6599999999998336, -2.5341293976111086 
1.6699999999998325, -2.5334470982821484 
1.6799999999998314, -2.5332008536323984 
1.6899999999998303, -2.5332615077274685 
1.6999999999998292, -2.5332917546018203 
1.709999999999828, -2.5331487013755294 
1.719999999999827, -2.5328391612323458 
1.729999999999826, -2.5324028715646465 
1.7399999999998248, -2.531885724785494 
1.7499999999998237, -2.53135207901511 
1.7599999999998226, -2.5308818548660894 
1.7699999999998215, -2.5305185541091175 
1.7799999999998204, -2.530217735332984 
1.7899999999998193, -2.5298947108973175 
1.7999999999998182, -2.529493867443661 
1.809999999999817, -2.5289980953103828 
1.819999999999816, -2.528443486774767 
1.8299999999998149, -2.527962788754726 
1.8399999999998138, -2.5277078487631237 
1.8499999999998127, -2.5276387310456867 
1.8599999999998116, -2.527575552576821 
1.8699999999998105, -2.527398943650478 
1.8799999999998094, -2.527071526118462 
1.8899999999998083, -2.5265830857064246 
1.8999999999998072, -2.5259304854480495 
1.909999999999806, -2.5251537701989926 
1.919999999999805, -2.524411866913172 
1.9299999999998039, -2.523927304615264 
1.9399999999998028, -2.5237063913418165 
1.9499999999998017, -2.523542412863382 
1.9599999999998006, -2.523295317304872 
1.9699999999997995, -2.5229413331247477 
1.9799999999997984, -2.5225062346105496 
1.9899999999997973, -2.5220446856576477 
1.9999999999997962, -2.5216299678016325 
2.0099999999998173, -2.521302070479405 
2.0199999999998384, -2.521032479637457 
2.0299999999998595, -2.520755355946774 
2.0399999999998806, -2.5204085939482326 
2.0499999999999017, -2.5199445107896707 
2.059999999999923, -2.519324698795207 
2.069999999999944, -2.518554438363918 
2.079999999999965, -2.5178012908746172 
2.089999999999986, -2.5173930116238252 
2.100000000000007, -2.517390613853703 
2.1100000000000283, -2.5174792261458263 
2.1200000000000494, -2.5174246834870737 
2.1300000000000705, -2.5171894829212897 
2.1400000000000916, -2.516805621184325 
2.1500000000001127, -2.5163133042460246 
2.160000000000134, -2.5157648445729226 
2.170000000000155, -2.5152385897340435 
2.180000000000176, -2.5148131698162155 
2.190000000000197, -2.5144928542955993 
2.2000000000002182, -2.5141980863206514 
2.2100000000002393, -2.5138507276143693 
2.2200000000002604, -2.513415209936255 
2.2300000000002815, -2.5128967465626175 
2.2400000000003026, -2.512370361100184 
2.2500000000003237, -2.5119884964074504 
2.260000000000345, -2.511824895711713 
2.270000000000366, -2.5117604015438735 
2.280000000000387, -2.511640638142919 
2.290000000000408, -2.511391478564269 
2.3000000000004293, -2.510989823321629 
2.3100000000004504, -2.510423638928122 
2.3200000000004715, -2.5096966944288566 
2.3300000000004926, -2.50889196887972 
2.3400000000005137, -2.508228013928453 
2.3500000000005348, -2.5078780535153653 
2.360000000000556, -2.507723627010413 
2.370000000000577, -2.5075506182874134 
2.380000000000598, -2.507271247245202 
2.390000000000619, -2.506888652102057 
2.4000000000006403, -2.5064396750753377 
2.4100000000006614, -2.505986763205182 
2.4200000000006825, -2.505596909127385 
2.4300000000007036, -2.5052889214412923 
2.4400000000007247, -2.505020492459894 
2.450000000000746, -2.5047257257019058 
2.460000000000767, -2.5043477334903947 
2.470000000000788, -2.503842206152441 
2.480000000000809, -2.503178110859871 
2.49000000000083, -2.502396973942752 
2.5000000000008513, -2.5017314987515977 
2.5100000000008724, -2.5014749407564763 
2.5200000000008935, -2.501543671971308 
2.5300000000009146, -2.5016090706465466 
2.5400000000009357, -2.501506099419638 
2.550000000000957, -2.501228889299137 
2.560000000000978, -2.500812903698408 
2.570000000000999, -2.5002986598868544 
2.58000000000102, -2.499743729387319 
2.5900000000010412, -2.4992323538420584 
2.6000000000010624, -2.4988344555014814 
2.6100000000010835, -2.4985309702466116 
2.6200000000011046, -2.4982338191264066 
2.6300000000011257, -2.4978734080410163 
2.6400000000011468, -2.4974232326895196 
2.650000000001168, -2.4968992445728233 
2.660000000001189, -2.496392870115023 
2.67000000000121, -2.4960542903686953 
2.680000000001231, -2.495920154678702 
2.6900000000012523, -2.495853381637759 
2.7000000000012734, -2.4957144016939226 
2.7100000000012945, -2.4954421655036936 
2.7200000000013156, -2.495016763540306 
2.7300000000013367, -2.494426493117124 
2.740000000001358, -2.4936810365709796 
2.750000000001379, -2.4928808535211866 
2.7600000000014, -2.4922543667033388 
2.770000000001421, -2.4919426108061495 
2.780000000001442, -2.4917976662391594 
2.7900000000014633, -2.491616914930432 
2.8000000000014844, -2.491327859681168 
2.8100000000015055, -2.490938743696673 
2.8200000000015266, -2.490488443214745 
2.8300000000015477, -2.490040841941048 
2.840000000001569, -2.489660535793553 
2.85000000000159, -2.489360798950971 
2.860000000001611, -2.4890960305278464 
2.870000000001632, -2.488800647782848 
2.8800000000016532, -2.4884193009992877 
2.8900000000016743, -2.4879085541284303 
2.9000000000016954, -2.4872383741410062 
2.9100000000017165, -2.486453348329942 
2.9200000000017377, -2.485788970893851 
2.9300000000017588, -2.4855346794543722 
2.94000000000178, -2.4856037303888607 
2.950000000001801, -2.4856700125410343 
2.960000000001822, -2.4855696576196804 
2.970000000001843, -2.485296588371148 
2.9800000000018643, -2.48488632860795 
2.9900000000018854, -2.484379525841332 
3.0000000000019065, -2.483832707074682 
3.0100000000019276, -2.4833268004033373 
3.0200000000019487, -2.482929323155079 
3.03000000000197, -2.4826245761379546 
3.040000000001991, -2.482328656505979 
3.050000000002012, -2.481971930680641 
3.060000000002033, -2.4815254254784813 
3.070000000002054, -2.481000356940018 
3.0800000000020753, -2.4804818889819833 
3.0900000000020964, -2.4801252743376105 
3.1000000000021175, -2.4799876418708697 
3.1100000000021386, -2.4799375384598266 
3.1200000000021597, -2.479823768246666 
3.130000000002181, -2.4795777227050873 
3.140000000002202, -2.479179685998907 
3.150000000002223, -2.4786206045403936 
3.160000000002244, -2.4779070886113095 
3.1700000000022652, -2.4771190779235424 
3.1800000000022863, -2.4764596668469787 
3.1900000000023074, -2.476094981216802 
3.2000000000023285, -2.4759252982689266 
3.2100000000023496, -2.4757484652093007 
3.2200000000023707, -2.475473239073586 
3.230000000002392, -2.47509745614023 
3.240000000002413, -2.4746542252519554 
3.250000000002434, -2.474204131742082 
3.260000000002455, -2.473817030913591 
3.2700000000024763, -2.473516622569467 
3.2800000000024974, -2.4732617567155764 
3.2900000000025185, -2.472985735089692 
3.3000000000025396, -2.4726310338916537 
3.3100000000025607, -2.472153153694287 
3.3200000000025818, -2.471515951755149 
3.330000000002603, -2.470731605289341 
3.340000000002624, -2.469977220417467 
3.350000000002645, -2.4695737138075224 
3.360000000002666, -2.469569600040674 
3.3700000000026873, -2.469657057693375 
3.3800000000027084, -2.469607775197949 
3.3900000000027295, -2.469383284388484 
3.4000000000027506, -2.4690148059188446 
3.4100000000027717, -2.468542746824109 
3.420000000002793, -2.4680176672801806 
3.430000000002814, -2.4675103809377656 
3.440000000002835, -2.4670906160361796 
3.450000000002856, -2.4667677282167197 
3.460000000002877, -2.4664754209391075 
3.4700000000028983, -2.4661385171539854 
3.4800000000029194, -2.4657156734476113 
3.4900000000029405, -2.465199843371156 
3.5000000000029616, -2.4646447770269715 
3.5100000000029827, -2.4642018680512274 
3.520000000003004, -2.4640042527908954 
3.530000000003025, -2.4639747580617493 
3.540000000003046, -2.463929500030747 
3.550000000003067, -2.4637614367290714 
3.5600000000030882, -2.463441713191713 
3.5700000000031094, -2.462965983747832 
3.5800000000031305, -2.4623372319368912 
3.5900000000031516, -2.461596248315133 
3.6000000000031727, -2.460881062888681 
3.6100000000031938, -2.4603847113101738 
3.620000000003215, -2.4601315037278395 
3.630000000003236, -2.4599512612930647 
3.640000000003257, -2.4597074178341556 
3.650000000003278, -2.4593654666067843 
3.6600000000032993, -2.4589421418118667 
3.6700000000033204, -2.458485665222692 
3.6800000000033415, -2.4580716393305884 
3.6900000000033626, -2.4577532124959087 
3.7000000000033837, -2.45750893428039 
3.710000000003405, -2.4572700192243255 
3.720000000003426, -2.4569709633061807 
3.730000000003447, -2.4565638810209562 
3.740000000003468, -2.4560087705247033 
3.750000000003489, -2.4552804407482496 
3.7600000000035103, -2.454444592427276 
3.7700000000035314, -2.4537651667768623 
3.7800000000035525, -2.4535118192505534 
3.7900000000035736, -2.453556603003466 
3.8000000000035947, -2.453583149863595 
3.810000000003616, -2.4534505691568165 
3.820000000003637, -2.453160950383767 
3.830000000003658, -2.4527521162340244 
3.840000000003679, -2.4522687110124184 
3.8500000000037002, -2.4517691216385638 
3.8600000000037213, -2.4513203231310814 
3.8700000000037424, -2.4509608908684095 
3.8800000000037635, -2.4506625077024546 
3.8900000000037847, -2.450354026863352 
3.9000000000038058, -2.4499768716036217 
3.910000000003827, -2.449500361079836 
3.920000000003848, -2.4489293823722975 
3.930000000003869, -2.4483562836894395 
3.94000000000389, -2.447976819760849 
3.9500000000039113, -2.447884268777511 
3.9600000000039324, -2.4479186184232264 
3.9700000000039535, -2.447882860063422 
3.9800000000039746, -2.4476966454795415 
3.9900000000039957, -2.4473517849867923 
4.000000000004016, -2.446856652057652 
4.010000000003993, -2.4462291708480426 
4.02000000000397, -2.4455307319437507 
4.030000000003946, -2.4449017993513094 
4.040000000003923, -2.444480554756757 
4.0500000000039, -2.444234201852349 
4.0600000000038765, -2.444013266771827 
4.070000000003853, -2.4437224041750385 
4.08000000000383, -2.4433420089567615 
4.090000000003807, -2.4428934263578457 
4.100000000003783, -2.4424371458318888 
4.11000000000376, -2.4420602701514618 
4.120000000003737, -2.4418003025430437 
4.130000000003713, -2.4416034045653117 
4.14000000000369, -2.441385184311661 
4.150000000003667, -2.441083205517381 
4.1600000000036434, -2.440656264565331 
4.17000000000362, -2.4400689593366462 
4.180000000003597, -2.439304321590498 
4.1900000000035735, -2.4384463036995334 
4.20000000000355, -2.437766938632378 
4.210000000003527, -2.4375009503400586 
4.220000000003504, -2.4374981289775364 
4.23000000000348, -2.437469168174955 
4.240000000003457, -2.437295662299044 
4.250000000003434, -2.4369831604323413 
4.26000000000341, -2.436568722285682 
4.270000000003387, -2.4360997316330684 
4.280000000003364, -2.435636393364436 
4.2900000000033405, -2.4352341280714582 
4.300000000003317, -2.4349081397527916 
4.310000000003294, -2.4346181893936496 
4.320000000003271, -2.4342994241902565 
4.330000000003247, -2.433899937028998 
4.340000000003224, -2.4333873390162464 
4.350000000003201, -2.4327628901481506 
4.360000000003177, -2.432130685480093 
4.370000000003154, -2.4317257245165993 
4.380000000003131, -2.4316648470649262 
4.390000000003107, -2.4317552154893054 
4.400000000003084, -2.4317640406173227 
4.410000000003061, -2.431606714045018 
4.4200000000030375, -2.4312862162454225 
4.430000000003014, -2.4308242251996495 
4.440000000002991, -2.430249463781656 
4.450000000002968, -2.4296214410329786 
4.460000000002944, -2.429050788249198 
4.470000000002921, -2.4286391653717683 
4.480000000002898, -2.428363348657808 
4.490000000002874, -2.4281086971583217 
4.500000000002851, -2.4277932044843915 
4.510000000002828, -2.4273930097516563 
4.520000000002804, -2.426923956842706 
4.530000000002781, -2.426451685725561 
4.540000000002758, -2.4260837715601316 
4.5500000000027345, -2.4258690507004625 
4.560000000002711, -2.4257336543045596 
4.570000000002688, -2.4255690765403304 
4.580000000002665, -2.4253069947096804 
4.590000000002641, -2.4249123643117945 
4.600000000002618, -2.424359187995656 
4.610000000002595, -2.4236335264666984 
4.620000000002571, -2.422792694133699 
4.630000000002548, -2.422049158553931 
4.640000000002525, -2.4216454355486188 
4.6500000000025015, -2.421529174011146 
4.660000000002478, -2.4214485512862316 
4.670000000002455, -2.421261303097544 
4.6800000000024315, -2.4209518240442067 
4.690000000002408, -2.420548640504376 
4.700000000002385, -2.4200976771080107 
4.710000000002362, -2.4196607356773328 
4.720000000002338, -2.419289844717043 
4.730000000002315, -2.4189901128217106 
4.740000000002292, -2.418717898775851 
4.750000000002268, -2.418412070746268 
4.760000000002245, -2.418021216431577 
4.770000000002222, -2.4175060065995897 
4.7800000000021985, -2.4168462571842015 
4.790000000002175, -2.4161063627320614 
4.800000000002152, -2.4155246222399662 
4.810000000002129, -2.4153396541990464 
4.820000000002105, -2.4154349238079216 
4.830000000002082, -2.4155125850925887 
4.840000000002059, -2.4154268488817854 
4.850000000002035, -2.415170683117842 
4.860000000002012, -2.41477544063936 
4.870000000001989, -2.4142772286536887 
4.880000000001965, -2.413726458984466 
4.890000000001942, -2.413200779894045 
4.900000000001919, -2.412778512552417 
4.9100000000018955, -2.412466475176711 
4.920000000001872, -2.412189134074665 
4.930000000001849, -2.411868202155088 
4.940000000001826, -2.4114651428316276 
4.950000000001802, -2.410976566490098 
4.960000000001779, -2.4104517717080625 
