t, s[1].omega / s[0].omega 
0, -3.8999938724856755 
0.009999999999999995, -3.8993000228349244 
0.019999999999999934, -3.8984800689843957 
0.029999999999999874, -3.897740656603473 
0.04000000000000012, -3.8972509779129205 
0.050000000000000405, -3.8967859312880386 
0.06000000000000069, -3.896205826161767 
0.07000000000000098, -3.895532498229803 
0.08000000000000126, -3.8948455328627616 
0.09000000000000155, -3.8942375700566716 
0.10000000000000184, -3.893686861730928 
0.11000000000000212, -3.8930916124608976 
0.12000000000000241, -3.892426431952688 
0.130000000000002, -3.8917721480585015 
0.1400000000000009, -3.8912176038025557 
0.1499999999999998, -3.8906988912103215 
0.1599999999999987, -3.8901126914253723 
0.1699999999999976, -3.889404651708226 
0.1799999999999965, -3.888611326900013 
0.1899999999999954, -3.8879820231805113 
0.1999999999999943, -3.8875857070148925 
0.2099999999999932, -3.887144120030007 
0.2199999999999921, -3.8865463806582263 
0.229999999999991, -3.8857971457730605 
0.2399999999999899, -3.8849894855421176 
0.2499999999999888, -3.8843644587643054 
0.2599999999999877, -3.883904957151671 
0.2699999999999866, -3.8833860395853 
0.2799999999999855, -3.882760102813701 
0.2899999999999844, -3.882079340920618 
0.2999999999999833, -3.8814337842807602 
0.3099999999999822, -3.880866953435855 
0.3199999999999811, -3.8803030531591736 
0.32999999999998, -3.8796689332644405 
0.3399999999999789, -3.878988277182669 
0.3499999999999778, -3.8783806537649026 
0.35999999999997667, -3.8778728386247936 
0.36999999999997557, -3.877347034235574 
0.37999999999997447, -3.8767166718663524 
0.38999999999997337, -3.875951997686876 
0.39999999999997227, -3.875169360122114 
0.40999999999997117, -3.874649839421872 
0.41999999999997006, -3.874274819344298 
0.42999999999996896, -3.873785411725785 
0.43999999999996786, -3.873137758426099 
0.44999999999996676, -3.87236375933836 
0.45999999999996566, -3.8716108095131263 
0.46999999999996456, -3.8710637634543597 
0.47999999999996346, -3.870586319049528 
0.48999999999996235, -3.8700211467170886 
0.49999999999996125, -3.8693705103456404 
0.5099999999999602, -3.8687056301667524 
0.519999999999959, -3.868103507275393 
0.529999999999958, -3.867551524547726 
0.5399999999999568, -3.866961787493829 
0.5499999999999557, -3.86629441074802 
0.5599999999999546, -3.865619562340836 
0.5699999999999535, -3.8650680170110503 
0.5799999999999524, -3.8645876771865746 
0.5899999999999513, -3.8640433349922154 
0.5999999999999502, -3.863369372980189 
0.6099999999999491, -3.862563321204069 
0.619999999999948, -3.861822836713061 
0.6299999999999469, -3.861379931553633 
0.6399999999999458, -3.8609916611385855 
0.6499999999999447, -3.8604607882850166 
0.6599999999999436, -3.859782075534875 
0.6699999999999425, -3.859013083487246 
0.6799999999999414, -3.858324197003301 
0.6899999999999403, -3.85780980035704 
0.6999999999999392, -3.8573012490191836 
0.7099999999999381, -3.8567029922437315 
0.719999999999937, -3.856044916427661 
0.7299999999999359, -3.8554081724859053 
0.7399999999999348, -3.854839103034449 
0.7499999999999337, -3.8542853524675187 
0.7599999999999326, -3.8536676543003865 
0.7699999999999315, -3.8529739349452305 
0.7799999999999304, -3.852319247212357 
0.7899999999999293, -3.8518199025703788 
0.7999999999999282, -3.8513543560997077 
0.8099999999999271, -3.8507905956293875 
0.819999999999926, -3.8500809770624174 
0.8299999999999249, -3.849252565428279 
0.8399999999999238, -3.8485594821022966 
0.8499999999999227, -3.848152463123179 
0.8599999999999216, -3.8477397619745966 
0.8699999999999205, -3.8471794990796324 
0.8799999999999194, -3.846488450037227 
0.8899999999999183, -3.8457438458614326 
0.8999999999999172, -3.8451055856107414 
0.9099999999999161, -3.844595369223401 
0.919999999999915, -3.8440579119903346 
0.9299999999999139, -3.8434379847224465 
0.9399999999999128, -3.84278394185568 
0.9499999999999117, -3.8421780851702736 
0.9599999999999106, -3.8416310735799195 
0.9699999999999095, -3.841069252716376 
0.9799999999999084, -3.840425553807065 
0.9899999999999073, -3.839709969095446 
0.9999999999999062, -3.839078673145854 
1.0099999999999052, -3.8386230891941784 
1.019999999999904, -3.838168556498656 
1.029999999999903, -3.8375918385090046 
1.039999999999902, -3.8368604807899906 
1.0499999999999008, -3.8360264718401234 
1.0599999999998997, -3.8353655503444664 
1.0699999999998986, -3.8349633181201055 
1.0799999999998975, -3.834526735449999 
1.0899999999998964, -3.8339494580664657 
1.0999999999998953, -3.8332608786856532 
1.1099999999998942, -3.8325476063043906 
1.119999999999893, -3.831941494497188 
1.129999999999892, -3.831423518760667 
1.1399999999998909, -3.8308634602219045 
1.1499999999998898, -3.830229555030499 
1.1599999999998887, -3.829584635325903 
1.1699999999998876, -3.829007658899169 
1.1799999999998865, -3.828476821954477 
1.1899999999998854, -3.827907695478758 
1.1999999999998843, -3.827241945154442 
1.2099999999998832, -3.8265045225123933 
1.219999999999882, -3.825887731282164 
1.229999999999881, -3.8254670631884204 
1.2399999999998799, -3.825026552123698 
1.2499999999998788, -3.8244481090341274 
1.2599999999998777, -3.8237127117789895 
1.2699999999998766, -3.8228859204743557 
1.2799999999998755, -3.8222351954405034 
1.2899999999998744, -3.821817764395256 
1.2999999999998733, -3.8213617600800722 
1.3099999999998722, -3.8207775459535602 
1.319999999999871, -3.820100409793504 
1.32999999999987, -3.8194171749708636 
1.3399999999998689, -3.818829356050127 
1.3499999999998678, -3.818301316421799 
1.3599999999998666, -3.8177249570827376 
1.3699999999998655, -3.817080691008649 
1.3799999999998644, -3.816443905725195 
1.3899999999998633, -3.8158927655401818 
1.3999999999998622, -3.81537831126809 
1.4099999999998611, -3.8148077219291294 
1.41999999999986, -3.81412657212973 
1.429999999999859, -3.8133641459641217 
1.4399999999998578, -3.8127409161387953 
1.4499999999998567, -3.8123439018907397 
1.4599999999998556, -3.8119236753259527 
1.4699999999998545, -3.811356771514845 
1.4799999999998534, -3.810635555988116 
1.4899999999998523, -3.809826941436814 
1.4999999999998512, -3.8091690048013533 
1.5099999999998501, -3.8087239704855955 
1.519999999999849, -3.8082529500792703 
1.529999999999848, -3.8076685793428795 
1.5399999999998468, -3.807006249451123 
1.5499999999998457, -3.80634844899656 
1.5599999999998446, -3.805771593955413 
1.5699999999998435, -3.8052359310855324 
1.5799999999998424, -3.8046489184320427 
1.5899999999998413, -3.8039944715983554 
1.5999999999998402, -3.8033587134159474 
1.6099999999998391, -3.802829857921961 
1.619999999999838, -3.802337269552253 
1.629999999999837, -3.80177561467096 
1.6399999999998358, -3.801090598162267 
1.6499999999998347, -3.8003031155829605 
1.6599999999998336, -3.799643005512631 
1.6699999999998325, -3.7992490587188974 
1.6799999999998314, -3.7988540043416625 
1.6899999999998303, -3.7983108980853166 
1.6999999999998292, -3.7976189675709477 
1.709999999999828, -3.7968392066875003 
1.719999999999827, -3.7961671935739654 
1.729999999999826, -3.795687038284484 
1.7399999999998248, -3.7952037168660313 
1.7499999999998237, -3.7946228561465283 
1.7599999999998226, -3.7939743559359806 
1.7699999999998215, -3.793336573038883 
1.7799999999998204, -3.7927686058507826 
1.7899999999998193, -3.79223041024812 
1.7999999999998182, -3.7916387465569157 
1.809999999999817, -3.790972978616575 
1.819999999999816, -3.7903242940177515 
1.8299999999998149, -3.789809930531855 
1.8399999999998138, -3.789348109884925 
1.8499999999998127, -3.78881009925 
1.8599999999998116, -3.7881389675395196 
1.8699999999998105, -3.787339122635187 
1.8799999999998094, -3.7866144383538285 
1.8899999999998083, -3.786185978495085 
1.8999999999998072, -3.7858130488596715 
1.909999999999806, -3.785302257388319 
1.919999999999805, -3.7846489560116665 
1.9299999999998039, -3.7839069758362016 
1.9399999999998028, -3.7832253353642384 
1.9499999999998017, -3.782707078321201 
1.9599999999998006, -3.7822121866154816 
1.9699999999997995, -3.7816363764285703 
1.9799999999997984, -3.780997804039346 
1.9899999999997973, -3.780373512101801 
1.9999999999997962, -3.7798154801025157 
2.0099999999998173, -3.779282101848157 
2.0199999999998384, -3.778693918827904 
2.0299999999998595, -3.7780187899032684 
2.0399999999998806, -3.7773379251513886 
2.0499999999999017, -3.776816870632467 
2.059999999999923, -3.776393120006169 
2.069999999999944, -3.7758967092395594 
2.079999999999965, -3.7752613560138357 
2.089999999999986, -3.7744782603517706 
2.100000000000007, -3.7736889149960353 
2.1100000000000283, -3.773175342590167 
2.1200000000000494, -3.772804783074457 
2.1300000000000705, -3.7723286647090575 
2.1400000000000916, -3.7717171323805494 
2.1500000000001127, -3.7710171457224804 
2.160000000000134, -3.7703375387875653 
2.170000000000155, -3.7697840890985836 
2.180000000000176, -3.7692770262037767 
2.190000000000197, -3.768707112942825 
2.2000000000002182, -3.7680734298477936 
2.2100000000002393, -3.7674527128566404 
2.2200000000002604, -3.7669053914790687 
2.2300000000002815, -3.766386559495735 
2.2400000000003026, -3.7658137146711335 
2.2500000000003237, -3.765140105670239 
2.260000000000345, -3.7644137973056067 
2.270000000000366, -3.7638409058109694 
2.280000000000387, -3.763446545340834 
2.290000000000408, -3.763009574047922 
2.3000000000004293, -3.7624312880442026 
2.3100000000004504, -3.761699387927267 
2.3200000000004715, -3.7608878768092504 
2.3300000000004926, -3.7602573685828005 
2.3400000000005137, -3.7598472732040316 
2.3500000000005348, -3.7593986055872803 
2.360000000000556, -3.7588272071991904 
2.370000000000577, -3.7581674746234173 
2.380000000000598, -3.7575014079244937 
2.390000000000619, -3.756922426412904 
2.4000000000006403, -3.756402902570218 
2.4100000000006614, -3.7558405290008623 
2.4200000000006825, -3.755208852506589 
2.4300000000007036, -3.754576567758479 
2.4400000000007247, -3.7540332973976263 
2.450000000000746, -3.753539882145823 
2.460000000000767, -3.752998531572903 
2.470000000000788, -3.75234847249855 
2.480000000000809, -3.75159179139321 
2.49000000000083, -3.75091126883367 
2.5000000000008513, -3.750492068506246 
2.5100000000008724, -3.750120447243141 
2.5200000000008935, -3.749616145755462 
2.5300000000009146, -3.748958963141529 
2.5400000000009357, -3.7481850383781072 
2.550000000000957, -3.7474651781759314 
2.560000000000978, -3.746966884678418 
2.570000000000999, -3.7465239822509737 
2.58000000000102, -3.745987607212718 
2.5900000000010412, -3.745362434674837 
2.6000000000010624, -3.7447143217929146 
2.6100000000010835, -3.7441233145770974 
2.6200000000011046, -3.7435939010312764 
2.6300000000011257, -3.7430425726575587 
2.6400000000011468, -3.742417010198808 
2.650000000001168, -3.741758068979203 
2.660000000001189, -3.741192391960415 
2.67000000000121, -3.740728237417371 
2.680000000001231, -3.7402380992349054 
2.6900000000012523, -3.7396395075947746 
2.7000000000012734, -3.738902504263399 
2.7100000000012945, -3.738115186215011 
2.7200000000013156, -3.737561845134015 
2.7300000000013367, -3.7372145499020233 
2.740000000001358, -3.7367911732673056 
2.750000000001379, -3.7362173701052215 
2.7600000000014, -3.7355173437572327 
2.770000000001421, -3.734781527188962 
2.780000000001442, -3.7341828117464546 
2.7900000000014633, -3.733710193986218 
2.8000000000014844, -3.7331991413542043 
2.8100000000015055, -3.7326029598665422 
2.8200000000015266, -3.7319682652125934 
2.8300000000015477, -3.7313737089586807 
2.840000000001569, -3.730841267927442 
2.85000000000159, -3.7303069696581774 
2.860000000001611, -3.7297011523667707 
2.870000000001632, -3.7290191180640804 
2.8800000000016532, -3.728383045959737 
2.8900000000016743, -3.7279170024805937 
2.9000000000016954, -3.727494574902959 
2.9100000000017165, -3.7269749517371418 
2.9200000000017377, -3.726311546794176 
2.9300000000017588, -3.7255138995105552 
2.94000000000178, -3.7247751243215923 
2.950000000001801, -3.724326400551385 
2.960000000001822, -3.7239562329868114 
2.970000000001843, -3.723464125592492 
2.9800000000018643, -3.7228438104790755 
2.9900000000018854, -3.7221491046351867 
3.0000000000019065, -3.7214945119739085 
3.0100000000019276, -3.720963582686926 
3.0200000000019487, -3.7204607414577615 
3.03000000000197, -3.719891010816189 
3.040000000001991, -3.7192632629638362 
3.050000000002012, -3.718657558905966 
3.060000000002033, -3.7181266335727114 
3.070000000002054, -3.7176183499916604 
3.0800000000020753, -3.717051755325142 
3.0900000000020964, -3.7163826022674393 
3.1000000000021175, -3.715659395597361 
3.1100000000021386, -3.71509069633195 
3.1200000000021597, -3.7147096401012236 
3.130000000002181, -3.71429192660401 
3.140000000002202, -3.7137343032839114 
3.150000000002223, -3.7130251057169907 
3.160000000002244, -3.7122255790559797 
3.1700000000022652, -3.7115740979977367 
3.1800000000022863, -3.7111532023410128 
3.1900000000023074, -3.71072110194953 
3.2000000000023285, -3.7101730666712642 
3.2100000000023496, -3.709534956149297 
3.2200000000023707, -3.7088801147846917 
3.230000000002392, -3.708298141595587 
3.240000000002413, -3.7077828721326953 
3.250000000002434, -3.7072381988019574 
3.260000000002455, -3.7066220732817277 
3.2700000000024763, -3.7059863130879345 
3.2800000000024974, -3.7054358157421583 
3.2900000000025185, -3.7049594183960295 
3.3000000000025396, -3.7044526631121193 
3.3100000000025607, -3.703844184095614 
3.3200000000025818, -3.7031110705155585 
3.330000000002603, -3.70236818479446 
3.340000000002624, -3.7018742667324958 
3.350000000002645, -3.7015345099751764 
3.360000000002666, -3.701099078230237 
3.3700000000026873, -3.7005121766987967 
3.3800000000027084, -3.699793730608877 
3.3900000000027295, -3.6990450007783218 
3.4000000000027506, -3.6984640914934213 
3.4100000000027717, -3.6980201724037833 
3.420000000002793, -3.6975281140909266 
3.430000000002814, -3.6969429429152783 
3.440000000002835, -3.6963097871274853 
3.450000000002856, -3.6957068623942013 
3.460000000002877, -3.69517146980001 
3.4700000000028983, -3.694647700398174 
3.4800000000029194, -3.6940615935906713 
3.4900000000029405, -3.6934038859571365 
3.5000000000029616, -3.692776573730341 
3.5100000000029827, -3.6922939173300913 
3.520000000003004, -3.691861940232402 
3.530000000003025, -3.6913502340811015 
3.540000000003046, -3.690705065951918 
3.550000000003067, -3.689925215312698 
3.5600000000030882, -3.6891823647596693 
3.5700000000031094, -3.6887283307929115 
3.5800000000031305, -3.688381942800446 
3.5900000000031516, -3.687918599944093 
3.6000000000031727, -3.687317197042362 
3.6100000000031938, -3.6866210937551096 
3.620000000003215, -3.6859406372252352 
3.630000000003236, -3.685397601277843 
3.640000000003257, -3.6849179179903446 
3.650000000003278, -3.684379731770074 
3.6600000000032993, -3.683770898797995 
3.6700000000033204, -3.68315572989925 
3.6800000000033415, -3.6826043239052404 
3.6900000000033626, -3.6820981953636567 
3.7000000000033837, -3.6815600722817203 
3.710000000003405, -3.6809330684480317 
3.720000000003426, -3.680230409229049 
3.730000000003447, -3.6796135652096815 
3.740000000003468, -3.679197215875656 
3.750000000003489, -3.678804019343565 
3.7600000000035103, -3.6782930487060206 
3.7700000000035314, -3.677632725267734 
3.7800000000035525, -3.6768451999767406 
3.7900000000035736, -3.6761191344027173 
3.8000000000035947, -3.6756592823135725 
3.810000000003616, -3.6752732416511344 
3.820000000003637, -3.674779719813344 
3.830000000003658, -3.6741747154048765 
3.840000000003679, -3.6735140672318876 
3.8500000000037002, -3.6728933566473465 
3.8600000000037213, -3.6723672073691125 
3.8700000000037424, -3.671856972524645 
3.8800000000037635, -3.6712833240823883 
3.8900000000037847, -3.6706549058860163 
3.9000000000038058, -3.6700617543796943 
3.910000000003827, -3.6695614378212076 
3.920000000003848, -3.669082044695756 
3.930000000003869, -3.6685345737135426 
3.94000000000389, -3.6678712675630907 
3.9500000000039113, -3.6671181564152335 
3.9600000000039324, -3.666490505777022 
3.9700000000039535, -3.6661158994648715 
3.9800000000039746, -3.6657526188897642 
3.9900000000039957, -3.665251418864055 
4.000000000004016, -3.664603222624252 
4.010000000003993, -3.6638499698688256 
4.02000000000397, -3.6631562823646058 
4.030000000003946, -3.662668265778185 
4.040000000003923, -3.6622328098547454 
4.0500000000039, -3.6617115419609356 
4.0600000000038765, -3.6611063989382657 
4.070000000003853, -3.660479564836804 
4.08000000000383, -3.659905362364855 
4.090000000003807, -3.659390126043083 
4.100000000003783, -3.6588589165944976 
4.11000000000376, -3.658254333521674 
4.120000000003737, -3.6575990075082006 
4.130000000003713, -3.6570206118537087 
4.14000000000369, -3.6565745493807498 
4.150000000003667, -3.6561323277826636 
4.1600000000036434, -3.6555913054663485 
4.17000000000362, -3.654911835052997 
4.180000000003597, -3.6541211924116865 
4.1900000000035735, -3.6534498522773164 
4.20000000000355, -3.6530629448997423 
4.210000000003527, -3.6527064473539417 
4.220000000003504, -3.6522163319548326 
4.23000000000348, -3.6515951961340876 
4.240000000003457, -3.65089588012694 
4.250000000003434, -3.6502431197631267 
4.26000000000341, -3.6497307143781725 
4.270000000003387, -3.649253509726509 
4.280000000003364, -3.648708405732311 
4.2900000000033405, -3.6480995290105627 
4.300000000003317, -3.6474977276281253 
4.310000000003294, -3.6469633086364035 
4.320000000003271, -3.646464777491905 
4.330000000003247, -3.645924815424891 
4.340000000003224, -3.645292864112104 
4.350000000003201, -3.6445936667114665 
4.360000000003177, -3.644000035410751 
4.370000000003154, -3.6436025909706458 
4.380000000003131, -3.643213132475327 
4.390000000003107, -3.642701996819781 
4.400000000003084, -3.642042366137855 
4.410000000003061, -3.6412604653316074 
4.4200000000030375, -3.6405464262310594 
4.430000000003014, -3.640093157293798 
4.440000000002991, -3.639709921573683 
4.450000000002968, -3.6392219692376635 
4.460000000002944, -3.6386254725738825 
4.470000000002921, -3.637975176744922 
4.480000000002898, -3.6373624736228507 
4.490000000002874, -3.636840340239394 
4.500000000002851, -3.636336094245556 
4.510000000002828, -3.6357706431318126 
4.520000000002804, -3.63514769736249 
4.530000000002781, -3.634555071351245 
4.540000000002758, -3.6340601477486247 
4.5500000000027345, -3.63359484068299 
4.560000000002711, -3.63306592161335 
4.570000000002688, -3.6324220801713523 
4.580000000002665, -3.6316728439088086 
4.590000000002641, -3.631007506128421 
4.600000000002618, -3.6306109738602976 
4.610000000002595, -3.6302728650680387 
4.620000000002571, -3.6298079932627707 
4.630000000002548, -3.629196722041737 
4.640000000002525, -3.6284711136578762 
4.6500000000025015, -3.6277600609572986 
4.660000000002478, -3.6272342498021986 
4.670000000002455, -3.626802375300322 
4.6800000000024315, -3.626305279075146 
4.690000000002408, -3.625721561655167 
4.700000000002385, -3.625103088146915 
4.710000000002362, -3.624524945069454 
4.720000000002338, -3.624009865290973 
4.730000000002315, -3.6234960689103852 
4.740000000002292, -3.622915811949091 
4.750000000002268, -3.6222642922996093 
4.760000000002245, -3.621647686804374 
4.770000000002222, -3.6211838379365155 
4.7800000000021985, -3.620775924547221 
4.790000000002175, -3.6202887147684564 
4.800000000002152, -3.6196689540545437 
4.810000000002129, -3.6189104176892193 
4.820000000002105, -3.618152178972422 
4.830000000002082, -3.61766114067744 
4.840000000002059, -3.6173257336942997 
4.850000000002035, -3.6168991922545337 
4.860000000002012, -3.6163384495403816 
4.870000000001989, -3.6156797589171923 
4.880000000001965, -3.6150095883558735 
4.890000000001942, -3.614446890755368 
4.900000000001919, -3.6139698390363777 
4.9100000000018955, -3.6134582452655066 
4.920000000001872, -3.612874138643993 
4.930000000001849, -3.612264534316234 
4.940000000001826, -3.6117118087271876 
4.950000000001802, -3.6112222928713473 
4.960000000001779, -3.610722213151849 
4.970000000001756, -3.6101430838694206 
