t, s[1].omega / s[0].omega 
0, -2.624996026916451 
0.009999999999999995, -2.624513692132978 
0.019999999999999934, -2.6238665673778865 
0.029999999999999874, -2.623100353538738 
0.04000000000000012, -2.6223801710903696 
0.050000000000000405, -2.6219194603999885 
0.06000000000000069, -2.6216932924329623 
0.07000000000000098, -2.6214918732815495 
0.08000000000000126, -2.621197100533052 
0.09000000000000155, -2.6207989866326606 
0.10000000000000184, -2.620333341673172 
0.11000000000000212, -2.6198691561265894 
0.12000000000000241, -2.6194788528002966 
0.130000000000002, -2.6191727246399803 
0.1400000000000009, -2.618894805405849 
0.1499999999999998, -2.618573420568958 
0.1599999999999987, -2.61815133171356 
0.1699999999999976, -2.6175835483967025 
0.1799999999999965, -2.616850551678792 
0.1899999999999954, -2.616062400024446 
0.1999999999999943, -2.615546687496417 
0.2099999999999932, -2.6154765828951954 
0.2199999999999921, -2.615563947017435 
0.229999999999991, -2.615522095769813 
0.2399999999999899, -2.6152895393100013 
0.2499999999999888, -2.614895628335325 
0.2599999999999877, -2.6143801541164455 
0.2699999999999866, -2.613796689275 
0.2799999999999855, -2.613235422415201 
0.2899999999999844, -2.612793798281545 
0.2999999999999833, -2.6124727438880764 
0.3099999999999822, -2.6121724989434076 
0.3199999999999811, -2.6118094894352675 
0.32999999999998, -2.611356610047314 
0.3399999999999789, -2.6108376562776576 
0.3499999999999778, -2.6103515847641905 
0.35999999999997667, -2.610028169039583 
0.36999999999997557, -2.609861669018272 
0.37999999999997447, -2.6097166501532225 
0.38999999999997337, -2.6094838986610447 
0.39999999999997227, -2.609114124370909 
0.40999999999997117, -2.6085787271523713 
0.41999999999997006, -2.607856692642344 
0.42999999999996896, -2.6069956371925054 
0.43999999999996786, -2.6062302721618305 
0.44999999999996676, -2.6058431328927143 
0.45999999999996566, -2.6057436522001103 
0.46999999999996456, -2.6056377904008765 
0.47999999999996346, -2.605398011487717 
0.48999999999996235, -2.605029395009006 
0.49999999999996125, -2.6045731631217373 
0.5099999999999602, -2.6040883928409193 
0.519999999999959, -2.6036429298639985 
0.529999999999958, -2.6032747127849016 
0.5399999999999568, -2.602961176824863 
0.5499999999999557, -2.6026362822362237 
0.5599999999999546, -2.602236735425994 
0.5699999999999535, -2.60172068739774 
0.5799999999999524, -2.601080447901734 
0.5899999999999513, -2.6004209027282417 
0.5999999999999502, -2.60000450811063 
0.6099999999999491, -2.599945261032603 
0.619999999999948, -2.6000037545218038 
0.6299999999999469, -2.5999447476675943 
0.6399999999999458, -2.5997054584187165 
0.6499999999999447, -2.599297236932512 
0.6599999999999436, -2.598741167937415 
0.6699999999999425, -2.5980771419117197 
0.6799999999999414, -2.5974111519827554 
0.6899999999999403, -2.5969026265665014 
0.6999999999999392, -2.596591818933059 
0.7099999999999381, -2.59634455806463 
0.719999999999937, -2.596039434906841 
0.7299999999999359, -2.5956423418030266 
0.7399999999999348, -2.5951728258625946 
0.7499999999999337, -2.5946984619955598 
0.7599999999999326, -2.5943144781034264 
0.7699999999999315, -2.594047932015311 
0.7799999999999304, -2.5938269778666916 
0.7899999999999293, -2.593562879504747 
0.7999999999999282, -2.5931954508751103 
0.8099999999999271, -2.5926815327297588 
0.819999999999926, -2.5919848165257817 
0.8299999999999249, -2.5911314583512572 
0.8399999999999238, -2.590351811590988 
0.8499999999999227, -2.589985789821175 
0.8599999999999216, -2.5899780929225886 
0.8699999999999205, -2.5899801839574885 
0.8799999999999194, -2.5898212310863857 
0.8899999999999183, -2.5895010626128725 
0.8999999999999172, -2.5890610849977964 
0.9099999999999161, -2.5885516982071706 
0.919999999999915, -2.5880399933423615 
0.9299999999999139, -2.587597132305729 
0.9399999999999128, -2.5872473488785848 
0.9499999999999117, -2.5869363716412805 
0.9599999999999106, -2.5865854057337123 
0.9699999999999095, -2.5861452779218497 
0.9799999999999084, -2.585603767114381 
0.9899999999999073, -2.5850196623270056 
0.9999999999999062, -2.584568971265424 
1.0099999999999052, -2.5843896303318394 
1.019999999999904, -2.5843628101268945 
1.029999999999903, -2.5842853964523074 
1.039999999999902, -2.5840630172297354 
1.0499999999999008, -2.58367722584377 
1.0599999999998997, -2.583125537792859 
1.0699999999998986, -2.5824190280500923 
1.0799999999998975, -2.5816420023725306 
1.0899999999998964, -2.5810025775064207 
1.0999999999998953, -2.580652218253781 
1.1099999999998942, -2.5804656761719373 
1.119999999999893, -2.580247551631596 
1.129999999999892, -2.5799256236980526 
1.1399999999998909, -2.5795084650853846 
1.1499999999998898, -2.57904057553295 
1.1599999999998887, -2.5785956773855876 
1.1699999999998876, -2.5782346944792636 
1.1799999999998865, -2.577948758408065 
1.1899999999998854, -2.577674674521446 
1.1999999999998843, -2.5773441981353242 
1.2099999999998832, -2.5769046764947916 
1.219999999999882, -2.5763137221723924 
1.229999999999881, -2.5755606734151466 
1.2399999999998799, -2.57477958140254 
1.2499999999998788, -2.574303926085564 
1.2599999999998777, -2.574261992012541 
1.2699999999998766, -2.5743500556769425 
1.2799999999998755, -2.5743024848010614 
1.2899999999998744, -2.5740685331711544 
1.2999999999998733, -2.5736791756030843 
1.3099999999998722, -2.573174885167569 
1.319999999999871, -2.572609067686472 
1.32999999999987, -2.572066056651905 
1.3399999999998689, -2.571633093111239 
1.3499999999998678, -2.5713118502367474 
1.3599999999998666, -2.571012445769774 
1.3699999999998655, -2.5706543048554957 
1.3799999999998644, -2.5702065083825714 
1.3899999999998633, -2.5696848674121933 
1.3999999999998622, -2.5691807386756063 
1.4099999999998611, -2.5688386771446328 
1.41999999999986, -2.5686833006537904 
1.429999999999859, -2.5685775932608648 
1.4399999999998578, -2.5683931671720766 
1.4499999999998567, -2.5680738446200326 
1.4599999999998556, -2.56759556383669 
1.4699999999998545, -2.5669403100896817 
1.4799999999998534, -2.566128478783423 
1.4899999999998523, -2.5653186452355694 
1.4999999999998512, -2.5647909306548047 
1.5099999999998501, -2.564595856831933 
1.519999999999849, -2.564485643467799 
1.529999999999848, -2.5642797323208075 
1.5399999999998468, -2.5639489437101046 
1.5499999999998457, -2.5635223255663466 
1.5599999999998446, -2.563051576421038 
1.5699999999998435, -2.5626050850861737 
1.5799999999998424, -2.562232031926886 
1.5899999999998413, -2.561924326078254 
1.5999999999998402, -2.5616255294386088 
1.6099999999998391, -2.5612703695638697 
1.619999999999838, -2.5608086818223588 
1.629999999999837, -2.5602070891780193 
1.6399999999998358, -2.5594894801914108 
1.6499999999998347, -2.558848290360284 
1.6599999999998336, -2.558571421565052 
1.6699999999998325, -2.5586216037704217 
1.6799999999998314, -2.5586856746289346 
1.6899999999998303, -2.5585853735458146 
1.6999999999998292, -2.5583036019145338 
1.709999999999828, -2.5578680171503523 
1.719999999999827, -2.5573115639346495 
1.729999999999826, -2.5566911131098466 
1.7399999999998248, -2.556114134172652 
1.7499999999998237, -2.555687924765681 
1.7599999999998226, -2.555393872246975 
1.7699999999998215, -2.5551144733675586 
1.7799999999998204, -2.5547675988904563 
1.7899999999998193, -2.554333132296324 
1.7999999999998182, -2.5538381780310826 
1.809999999999817, -2.553371231098411 
1.819999999999816, -2.5530415935932957 
1.8299999999998149, -2.552849099640076 
1.8399999999998138, -2.5526844042875068 
1.8499999999998127, -2.5524489261571093 
1.8599999999998116, -2.5520903875151144 
1.8699999999998105, -2.55157558159232 
1.8799999999998094, -2.5508773768102473 
1.8899999999998083, -2.5500247173575326 
1.8999999999998072, -2.5492222737187737 
1.909999999999806, -2.5487782997345283 
1.919999999999805, -2.5486781965936887 
1.9299999999998039, -2.5486226508803655 
1.9399999999998028, -2.5484404323061556 
1.9499999999998017, -2.54811869758901 
1.9599999999998006, -2.5476932185324017 
1.9699999999997995, -2.5472149460013087 
1.9799999999997984, -2.5467490065000673 
1.9899999999997973, -2.5463500828835506 
1.9999999999997962, -2.5460238274347367 
2.0099999999998173, -2.54571951911539 
2.0199999999998384, -2.545369382780054 
2.0299999999998595, -2.5449231741839875 
2.0399999999998806, -2.54435347099778 
2.0499999999999017, -2.5436916844331514 
2.059999999999923, -2.543117808171819 
2.069999999999944, -2.542873365382266 
2.079999999999965, -2.542907906014043 
2.089999999999986, -2.5429470313611855 
2.100000000000007, -2.5428327025392616 
2.1100000000000283, -2.5425430006671963 
2.1200000000000494, -2.542095453202 
2.1300000000000705, -2.5415135567550307 
2.1400000000000916, -2.5408495791719896 
2.1500000000001127, -2.540223664965045 
2.160000000000134, -2.539773546100296 
2.170000000000155, -2.5394916359686546 
2.180000000000176, -2.5392408447320016 
2.190000000000197, -2.538923384836882 
2.2000000000002182, -2.5385166666544063 
2.2100000000002393, -2.5380445022287157 
2.2200000000002604, -2.5375796574335556 
2.2300000000002815, -2.5372182308632643 
2.2400000000003026, -2.5369790725229864 
2.2500000000003237, -2.5367822214700633 
2.260000000000345, -2.536537318720188 
2.270000000000366, -2.536186691591115 
2.280000000000387, -2.5356908749011784 
2.290000000000408, -2.535015704629428 
2.3000000000004293, -2.5341746348048475 
2.3100000000004504, -2.533353342938043 
2.3200000000004715, -2.5328837275686302 
2.3300000000004926, -2.5328041832966646 
2.3400000000005137, -2.532803832379324 
2.3500000000005348, -2.532674155282247 
2.360000000000556, -2.532389578340664 
2.370000000000577, -2.53198486627609 
2.380000000000598, -2.5315069962285337 
2.390000000000619, -2.531016895083392 
2.4000000000006403, -2.5305793276256425 
2.4100000000006614, -2.53022478192737 
2.4200000000006825, -2.529919212799682 
2.4300000000007036, -2.529591871129296 
2.4400000000007247, -2.5291856207781516 
2.450000000000746, -2.5286695943778854 
2.460000000000767, -2.528056725755681 
2.470000000000788, -2.527474874327054 
2.480000000000809, -2.5271501162023453 
2.49000000000083, -2.527117917577169 
2.5000000000008513, -2.527152401639505 
2.5100000000008724, -2.527068867739021 
2.5200000000008935, -2.526817705235505 
2.5300000000009146, -2.526404201727254 
2.5400000000009357, -2.5258420091974374 
2.550000000000957, -2.5251652672447658 
2.560000000000978, -2.5244771507056543 
2.570000000000999, -2.5239452172513857 
2.58000000000102, -2.523630988034145 
2.5900000000010412, -2.5234064445468833 
2.6000000000010624, -2.5231362057847306 
2.6100000000010835, -2.5227749066741074 
2.6200000000011046, -2.522333311219762 
2.6300000000011257, -2.521862650245446 
2.6400000000011468, -2.5214504609086523 
2.650000000001168, -2.5211526610424624 
2.660000000001189, -2.5209302769253883 
2.67000000000121, -2.5206984769766185 
2.680000000001231, -2.5203889761977107 
2.6900000000012523, -2.5199558753047304 
2.7000000000012734, -2.5193600508359273 
2.7100000000012945, -2.518583507293236 
2.7200000000013156, -2.5177270907032536 
2.7300000000013367, -2.5171001657000245 
2.740000000001358, -2.5169161883422633 
2.750000000001379, -2.5169512099117015 
2.7600000000014, -2.5169097789395023 
2.770000000001421, -2.5167034906026187 
2.780000000001442, -2.516353742634676 
2.7900000000014633, -2.515902813476173 
2.8000000000014844, -2.51540293207379 
2.8100000000015055, -2.5149206538760445 
2.8200000000015266, -2.5145144406607054 
2.8300000000015477, -2.5141889733881113 
2.840000000001569, -2.513884825130501 
2.85000000000159, -2.51353164538812 
2.860000000001611, -2.5130855027826287 
2.870000000001632, -2.5125333778682264 
2.8800000000016532, -2.5119315280265426 
2.8900000000016743, -2.5114610214580173 
2.9000000000016954, -2.5112847878654128 
2.9100000000017165, -2.511298738187997 
2.9200000000017377, -2.51127986940399 
2.9300000000017588, -2.5111157785681133 
2.94000000000178, -2.510788083413323 
2.950000000001801, -2.5103031174908934 
2.960000000001822, -2.509674965448993 
2.970000000001843, -2.508959183177258 
2.9800000000018643, -2.5083010121717995 
2.9900000000018854, -2.507860779808092 
3.0000000000019065, -2.507613452516016 
3.0100000000019276, -2.507394830741801 
3.0200000000019487, -2.5071012272464217 
3.03000000000197, -2.506714431809568 
3.040000000001991, -2.506260066424222 
3.050000000002012, -2.505802565400651 
3.060000000002033, -2.5054254420290816 
3.070000000002054, -2.505154292561922 
3.0800000000020753, -2.504931078117388 
3.0900000000020964, -2.504676389598287 
3.1000000000021175, -2.5043312006482177 
3.1100000000021386, -2.503852628644079 
3.1200000000021597, -2.50320340047944 
3.130000000002181, -2.5023875499151793 
3.140000000002202, -2.5015700586607 
3.150000000002223, -2.5010841423375125 
3.160000000002244, -2.5010145752285995 
3.1700000000022652, -2.5010602344350725 
3.1800000000022863, -2.5009822674115973 
3.1900000000023074, -2.5007384268599453 
3.2000000000023285, -2.5003605021551474 
3.2100000000023496, -2.4998921017815166 
3.2200000000023707, -2.499388372837964 
3.230000000002392, -2.4989173917103815 
3.240000000002413, -2.4985306983973397 
3.250000000002434, -2.498217744009785 
3.260000000002455, -2.4979110671267977 
3.2700000000024763, -2.4975446718044014 
3.2800000000024974, -2.4970811633107255 
3.2900000000025185, -2.496516865100241 
3.3000000000025396, -2.495928885861858 
3.3100000000025607, -2.4955105941629747 
3.3200000000025818, -2.4953840675342427 
3.330000000002603, -2.4954052953437476 
3.340000000002624, -2.4953662691052347 
3.350000000002645, -2.495177019980532 
3.360000000002666, -2.4948261973645613 
3.3700000000026873, -2.494320393845325 
3.3800000000027084, -2.493676052167731 
3.3900000000027295, -2.4929582952366416 
3.4000000000027506, -2.492321891625276 
3.4100000000027717, -2.4919123911986736 
3.420000000002793, -2.4916786407005906 
3.430000000002814, -2.4914570016400406 
3.440000000002835, -2.4911558384580146 
3.450000000002856, -2.490762918609952 
3.460000000002877, -2.4903068292371295 
3.4700000000028983, -2.4898547494857715 
3.4800000000029194, -2.4894885162057023 
3.4900000000029405, -2.4892269692098106 
3.5000000000029616, -2.489008210610898 
3.5100000000029827, -2.488753650984909 
3.520000000003004, -2.4884061047106267 
3.530000000003025, -2.4879237478229825 
3.540000000003046, -2.48727023852708 
3.550000000003067, -2.486451766196663 
3.5600000000030882, -2.4856348532499775 
3.5700000000031094, -2.485148266235014 
3.5800000000031305, -2.4850738847143568 
3.5900000000031516, -2.485115963182362 
3.6000000000031727, -2.4850381888982658 
3.6100000000031938, -2.4847971837207767 
3.620000000003215, -2.484423734823524 
3.630000000003236, -2.4839610107050722 
3.640000000003257, -2.4834634919001615 
3.650000000003278, -2.4829976308673007 
3.6600000000032993, -2.482613343495891 
3.6700000000033204, -2.4823015038959038 
3.6800000000033415, -2.4819975915758357 
3.6900000000033626, -2.481636111138968 
3.7000000000033837, -2.4811779362132445 
3.710000000003405, -2.4806146256263912 
3.720000000003426, -2.480013014390681 
3.730000000003447, -2.4795636428793806 
3.740000000003468, -2.479415912805806 
3.750000000003489, -2.4794471712327195 
3.7600000000035103, -2.4794357310270487 
3.7700000000035314, -2.4792760580002033 
3.7800000000035525, -2.4789536253853157 
3.7900000000035736, -2.4784774317654774 
3.8000000000035947, -2.4778640409749078 
3.810000000003616, -2.4771677936478627 
3.820000000003637, -2.476522703658278 
3.830000000003658, -2.4760779488472346 
3.840000000003679, -2.4758189172472873 
3.8500000000037002, -2.475595795639177 
3.8600000000037213, -2.475305253881145 
3.8700000000037424, -2.4749241473095354 
3.8800000000037635, -2.4744731565500335 
3.8900000000037847, -2.4740131228046627 
3.9000000000038058, -2.4736320002113117 
3.910000000003827, -2.4733668011235093 
3.920000000003848, -2.4731623244517555 
3.930000000003869, -2.4729339547737443 
3.94000000000389, -2.4726194021332044 
3.9500000000039113, -2.4721767569864053 
3.9600000000039324, -2.4715695290959703 
3.9700000000039535, -2.470785030035808 
3.9800000000039746, -2.4699300030393143 
3.9900000000039957, -2.469304090835676 
4.000000000004016, -2.4691059635823662 
4.010000000003993, -2.4691254491297228 
4.02000000000397, -2.469080415122291 
4.030000000003946, -2.4688802960392113 
4.040000000003923, -2.468542353615672 
4.0500000000039, -2.468106879468734 
4.0600000000038765, -2.4676244243555296 
4.070000000003853, -2.4671580501171433 
4.08000000000383, -2.466761453552583 
4.090000000003807, -2.4664406687701055 
4.100000000003783, -2.4661444110797515 
4.11000000000376, -2.465805757621755 
4.120000000003737, -2.4653773496760936 
4.130000000003713, -2.4648353350147034 
4.14000000000369, -2.4642075913126167 
4.150000000003667, -2.463647919816677 
4.1600000000036434, -2.463378172077678 
4.17000000000362, -2.463390234399274 
4.180000000003597, -2.463444863980036 
4.1900000000035735, -2.463371226382726 
4.20000000000355, -2.4631297877268534 
4.210000000003527, -2.4627311970413994 
4.220000000003504, -2.462193941977021 
4.23000000000348, -2.461553872404079 
4.240000000003457, -2.4609012701646895 
4.250000000003434, -2.460377163715594 
4.26000000000341, -2.4600443017940323 
4.270000000003387, -2.4598056026211568 
4.280000000003364, -2.4595372505346886 
4.2900000000033405, -2.459186488739694 
4.300000000003317, -2.4587537906439487 
4.310000000003294, -2.458280020850263 
4.320000000003271, -2.4578531898697014 
4.330000000003247, -2.457553631681848 
4.340000000003224, -2.4573613142595283 
4.350000000003201, -2.4571827104825856 
4.360000000003177, -2.4569368753099297 
4.370000000003154, -2.45657608969722 
4.380000000003131, -2.4560663753685805 
4.390000000003107, -2.4553798715356185 
4.400000000003084, -2.454540389827886 
4.410000000003061, -2.453730997870796 
4.4200000000030375, -2.4532510694136 
4.430000000003014, -2.4531366085141193 
4.440000000002991, -2.4531137322645256 
4.450000000002968, -2.4529839671710234 
4.460000000002944, -2.452713132409663 
4.470000000002921, -2.452329392230091 
4.480000000002898, -2.451876172002735 
4.490000000002874, -2.4514110237440327 
4.500000000002851, -2.4509939831986647 
4.510000000002828, -2.4506528002336654 
4.520000000002804, -2.4503608895114106 
4.530000000002781, -2.4500566998478197 
4.540000000002758, -2.44968277155636 
4.5500000000027345, -2.449199139085267 
4.560000000002711, -2.448588384214532 
4.570000000002688, -2.447910572208312 
4.580000000002665, -2.447381460702566 
4.590000000002641, -2.447213453617878 
4.600000000002618, -2.4472954520158536 
4.610000000002595, -2.4473537561268377 
4.620000000002571, -2.447252173283935 
4.630000000002548, -2.446979576175688 
4.640000000002525, -2.4465595443661234 
4.6500000000025015, -2.4460209136292983 
4.660000000002478, -2.4454131756601756 
4.670000000002455, -2.444830992398839 
4.6800000000024315, -2.4443822185717057 
4.690000000002408, -2.444077867495375 
4.700000000002385, -2.443818498080661 
4.710000000002362, -2.443511594682509 
4.720000000002338, -2.4431216421584088 
4.730000000002315, -2.442655020849144 
4.740000000002292, -2.4421672184402867 
4.750000000002268, -2.441769006151629 
4.760000000002245, -2.441534931472662 
4.770000000002222, -2.4414054326642924 
4.7800000000021985, -2.441261826027294 
4.790000000002175, -2.441024740711036 
4.800000000002152, -2.440656385498122 
4.810000000002129, -2.440132090751152 
4.820000000002105, -2.439435641424515 
4.830000000002082, -2.438607594424727 
4.840000000002059, -2.4378337775113668 
4.850000000002035, -2.4373699551039594 
4.860000000002012, -2.437215677723713 
4.870000000001989, -2.437129046655254 
4.880000000001965, -2.4369479656296194 
4.890000000001942, -2.436645345697347 
4.900000000001919, -2.436246443242003 
4.9100000000018955, -2.435795947101356 
4.920000000001872, -2.435356037429684 
4.930000000001849, -2.4349814290621508 
4.940000000001826, -2.4346796675751547 
4.950000000001802, -2.434407779700499 
4.960000000001779, -2.4341039997480136 
4.970000000001756, -2.4337158463761144 
