t, s[1].omega / s[0].omega 
0, -0.3299977920490059 
0.009999999999999995, -0.32977948768864096 
0.019999999999999934, -0.32956524127762266 
0.029999999999999874, -0.3293526995394903 
0.04000000000000012, -0.32913868259562795 
0.050000000000000405, -0.3289199285487263 
0.06000000000000069, -0.3286936400402324 
0.07000000000000098, -0.3284576927558979 
0.08000000000000126, -0.32821053479232376 
0.09000000000000155, -0.3279508971823267 
0.10000000000000184, -0.3276774363783224 
0.11000000000000212, -0.32738838339698073 
0.12000000000000241, -0.3270812310914351 
0.130000000000002, -0.3267524793584268 
0.1400000000000009, -0.3263974891470242 
0.1499999999999998, -0.3260105706100202 
0.1599999999999987, -0.32558552767533616 
0.1699999999999976, -0.325116923158499 
0.1799999999999965, -0.32460215886525784 
0.1899999999999954, -0.32404394455082536 
0.1999999999999943, -0.3234520220198183 
0.2099999999999932, -0.3228427783850383 
0.2199999999999921, -0.3222362748453684 
0.229999999999991, -0.32165183569990413 
0.2399999999999899, -0.32110426475683235 
0.2499999999999888, -0.32060214853313795 
0.2599999999999877, -0.32014830052775345 
0.2699999999999866, -0.3197414409810034 
0.2799999999999855, -0.31937811757501666 
0.2899999999999844, -0.3190542768291822 
0.2999999999999833, -0.3187663188912587 
0.3099999999999822, -0.31851170760234265 
0.3199999999999811, -0.3182892768031914 
0.32999999999998, -0.31809934917208704 
0.3399999999999789, -0.3179437231765902 
0.3499999999999778, -0.317825513388132 
0.35999999999997667, -0.31774875925152035 
0.36999999999997557, -0.31771766137118684 
0.37999999999997447, -0.3177353015593469 
0.38999999999997337, -0.31780182864335527 
0.39999999999997227, -0.3179124254902818 
0.40999999999997117, -0.3180558726051538 
0.41999999999997006, -0.318214851433679 
0.42999999999996896, -0.3183687065422379 
0.43999999999996786, -0.31849801609554806 
0.44999999999996676, -0.31858891355076646 
0.45999999999996566, -0.31863509566663883 
0.46999999999996456, -0.31863701836740316 
0.47999999999996346, -0.31859942769996197 
0.48999999999996235, -0.31852877987502304 
0.49999999999996125, -0.3184314543315493 
0.5099999999999602, -0.3183128809715843 
0.519999999999959, -0.3181773111354701 
0.529999999999958, -0.3180279258757426 
0.5399999999999568, -0.3178670815264834 
0.5499999999999557, -0.31769659977795384 
0.5599999999999546, -0.31751807097175583 
0.5699999999999535, -0.31733315394047373 
0.5799999999999524, -0.3171438341840699 
0.5899999999999513, -0.3169525621923402 
0.5999999999999502, -0.3167621671283277 
0.6099999999999491, -0.3165754710668234 
0.619999999999948, -0.3163946411432457 
0.6299999999999469, -0.31622047739486303 
0.6399999999999458, -0.31605194232897 
0.6499999999999447, -0.3158861901369535 
0.6599999999999436, -0.3157191369221866 
0.6699999999999425, -0.3155463471161327 
0.6799999999999414, -0.31536386931862254 
0.6899999999999403, -0.3151687240275912 
0.6999999999999392, -0.3149589533319878 
0.7099999999999381, -0.3147333335280441 
0.719999999999937, -0.3144909268392444 
0.7299999999999359, -0.31423061836756283 
0.7399999999999348, -0.3139507170768011 
0.7499999999999337, -0.3136486529754452 
0.7599999999999326, -0.3133208012392884 
0.7699999999999315, -0.31296250790387803 
0.7799999999999304, -0.31256846318783527 
0.7899999999999293, -0.3121336180190009 
0.7999999999999282, -0.31165476601026315 
0.8099999999999271, -0.31113259838764923 
0.819999999999926, -0.31057350706807874 
0.8299999999999249, -0.3099900290237547 
0.8399999999999238, -0.30939916476263096 
0.8499999999999227, -0.3088189526152932 
0.8599999999999216, -0.3082647924498011 
0.8699999999999205, -0.30774708153911834 
0.8799999999999194, -0.30727077003807024 
0.8899999999999183, -0.30683639489525705 
0.8999999999999172, -0.3064417265937953 
0.9099999999999161, -0.30608333492720174 
0.919999999999915, -0.3057577548575043 
0.9299999999999139, -0.30546222263333084 
0.9399999999999128, -0.3051950831038808 
0.9499999999999117, -0.3049559844187742 
0.9599999999999106, -0.30474593452659804 
0.9699999999999095, -0.3045672307771732 
0.9799999999999084, -0.30442320419094343 
0.9899999999999073, -0.3043176541581751 
0.9999999999999062, -0.3042538161420295 
1.0099999999999052, -0.3042327719882736 
1.019999999999904, -0.3042514788740099 
1.029999999999903, -0.3043010935911278 
1.039999999999902, -0.3043667625217613 
1.0499999999999008, -0.30442990685227433 
1.0599999999998997, -0.30447274298212296 
1.0699999999998986, -0.3044829856577141 
1.0799999999998975, -0.3044561822894751 
1.0899999999998964, -0.3043947598694263 
1.0999999999998953, -0.30430506197079754 
1.1099999999998942, -0.3041943744749839 
1.119999999999893, -0.30406909913566055 
1.129999999999892, -0.3039341287521295 
1.1399999999998909, -0.3037929554979486 
1.1499999999998898, -0.3036480574480086 
1.1599999999998887, -0.30350130724927815 
1.1699999999998876, -0.30335431290153303 
1.1799999999998865, -0.30320868292114933 
1.1899999999998854, -0.30306622662746585 
1.1999999999998843, -0.3029290822172827 
1.2099999999998832, -0.30279973071313215 
1.219999999999882, -0.3026808230993637 
1.229999999999881, -0.302574749965358 
1.2399999999998799, -0.30248294975279727 
1.2499999999998788, -0.30240509160603757 
1.2599999999998777, -0.3023384311120695 
1.2699999999998766, -0.30227770540916776 
1.2799999999998755, -0.30221579027324463 
1.2899999999998744, -0.30214499210025314 
1.2999999999998733, -0.3020584940946379 
1.3099999999998722, -0.3019513877104929 
1.319999999999871, -0.3018209718985988 
1.32999999999987, -0.3016663857920406 
1.3399999999998689, -0.3014878820754492 
1.3499999999998678, -0.3012860574356613 
1.3599999999998666, -0.30106123071851454 
1.3699999999998655, -0.30081303245286184 
1.3799999999998644, -0.3005402081444961 
1.3899999999998633, -0.3002406421623928 
1.3999999999998622, -0.29991164803652276 
1.4099999999998611, -0.2995506003092409 
1.41999999999986, -0.2991559451803643 
1.429999999999859, -0.2987284668070654 
1.4399999999998578, -0.29827241632489365 
1.4499999999998567, -0.2977958988485316 
1.4599999999998556, -0.2973100380897654 
1.4699999999998545, -0.2968270023598628 
1.4799999999998534, -0.29635764234495954 
1.4899999999998523, -0.2959097102230301 
1.4999999999998512, -0.29548722785714115 
1.5099999999998501, -0.295090928055605 
1.519999999999849, -0.29471928540136044 
1.529999999999848, -0.2943696278340525 
1.5399999999998468, -0.2940390199334474 
1.5499999999998457, -0.2937248278713003 
1.5599999999998446, -0.2934250092652122 
1.5699999999998435, -0.29313821163339465 
1.5799999999998424, -0.29286374474959664 
1.5899999999998413, -0.2926014484005061 
1.5999999999998402, -0.2923514286858885 
1.6099999999998391, -0.2921135988307102 
1.619999999999838, -0.29188696164796996 
1.629999999999837, -0.29166866249644074 
1.6399999999998358, -0.29145308442449314 
1.6499999999998347, -0.2912316242190392 
1.6599999999998336, -0.29099399220974953 
1.6699999999998325, -0.2907313698362122 
1.6799999999998314, -0.290440333454439 
1.6899999999998303, -0.2901251579797876 
1.6999999999998292, -0.2897966885201215 
1.709999999999828, -0.2894684060139891 
1.719999999999827, -0.28915220558898314 
1.729999999999826, -0.288855994188142 
1.7399999999998248, -0.288583469332359 
1.7499999999998237, -0.2883352175262043 
1.7599999999998226, -0.2881101372738146 
1.7699999999998215, -0.28790661680802165 
1.7799999999998204, -0.28772331331889295 
1.7899999999998193, -0.2875595946377841 
1.7999999999998182, -0.28741575520523677 
1.809999999999817, -0.2872930890274527 
1.819999999999816, -0.2871938464841885 
1.8299999999998149, -0.2871210423138136 
1.8399999999998138, -0.2870780319116078 
1.8499999999998127, -0.2870677543039921 
1.8599999999998116, -0.2870915933452189 
1.8699999999998105, -0.2871479795719689 
1.8799999999998094, -0.28723114032883046 
1.8899999999998083, -0.2873306671594804 
1.8999999999998072, -0.2874325186322203 
1.909999999999806, -0.2875214927276095 
1.919999999999805, -0.2875843175600484 
1.9299999999998039, -0.28761203020936305 
1.9399999999998028, -0.2876007359590121 
1.9499999999998017, -0.2875508094628655 
1.9599999999998006, -0.28746529806533666 
1.9699999999997995, -0.28734832961732254 
1.9799999999997984, -0.287203962992354 
1.9899999999997973, -0.2870355545182127 
1.9999999999997962, -0.2868455325988356 
2.0099999999998173, -0.2866354496936782 
2.0199999999998384, -0.28640622615534306 
2.0299999999998595, -0.2861585455848613 
2.0399999999998806, -0.28589336881513366 
2.0499999999999017, -0.28561248874622247 
2.059999999999923, -0.2853189657538147 
2.069999999999944, -0.285017222498052 
2.079999999999965, -0.28471262603022596 
2.089999999999986, -0.28441058556687193 
2.100000000000007, -0.284115457760499 
2.1100000000000283, -0.2838296915659756 
2.1200000000000494, -0.28355354079771355 
2.1300000000000705, -0.2832853896616839 
2.1400000000000916, -0.2830224652011654 
2.1500000000001127, -0.2827616024826604 
2.160000000000134, -0.28249980028224386 
2.170000000000155, -0.282234465155124 
2.180000000000176, -0.28196338026168455 
2.190000000000197, -0.28168449653680494 
2.2000000000002182, -0.28139563676774265 
2.2100000000002393, -0.2810941679894644 
2.2200000000002604, -0.28077667189463845 
2.2300000000002815, -0.28043865113383964 
2.2400000000003026, -0.2800743665766881 
2.2500000000003237, -0.2796770086263397 
2.260000000000345, -0.2792395214462823 
2.270000000000366, -0.27875638193524355 
2.280000000000387, -0.27822625988016686 
2.290000000000408, -0.2776546814583891 
2.3000000000004293, -0.2770550837401372 
2.3100000000004504, -0.2764469635488903 
2.3200000000004715, -0.27585149504118844 
2.3300000000004926, -0.2752867145708631 
2.3400000000005137, -0.2747644924003815 
2.3500000000005348, -0.27429007786965565 
2.360000000000556, -0.27386351930349057 
2.370000000000577, -0.27348175829382326 
2.380000000000598, -0.27314052106772135 
2.390000000000619, -0.27283565920749786 
2.4000000000006403, -0.27256395200089184 
2.4100000000006614, -0.27232352064860516 
2.4200000000006825, -0.2721140030232553 
2.4300000000007036, -0.2719365772981269 
2.4400000000007247, -0.2717938452159167 
2.450000000000746, -0.271689505375922 
2.460000000000767, -0.2716276745671697 
2.470000000000788, -0.27161168450084583 
2.480000000000809, -0.27164227056907114 
2.49000000000083, -0.2717153869872876 
2.5000000000008513, -0.2718204487873998 
2.5100000000008724, -0.27194030874180297 
2.5200000000008935, -0.27205401501687065 
2.5300000000009146, -0.27214188379869797 
2.5400000000009357, -0.27219053080476363 
2.550000000000957, -0.2721951897979741 
2.560000000000978, -0.27215854409393203 
2.570000000000999, -0.2720875454045639 
2.58000000000102, -0.2719902878891968 
2.5900000000010412, -0.271874072617694 
2.6000000000010624, -0.27174469447588107 
2.6100000000010835, -0.27160648738126275 
2.6200000000011046, -0.27146268193066286 
2.6300000000011257, -0.27131581879309613 
2.6400000000011468, -0.27116811814922176 
2.650000000001168, -0.271021783249809 
2.660000000001189, -0.2708792318596856 
2.67000000000121, -0.270743228506371 
2.680000000001231, -0.27061685569710603 
2.6900000000012523, -0.2705032404170805 
2.7000000000012734, -0.2704049779980586 
2.7100000000012945, -0.2703232977376193 
2.7200000000013156, -0.2702571838400447 
2.7300000000013367, -0.2702028222247257 
2.740000000001358, -0.27015375219804033 
2.750000000001379, -0.27010186062330505 
2.7600000000014, -0.270038936762074 
2.770000000001421, -0.2699581814765003 
2.780000000001442, -0.2698550974486499 
2.7900000000014633, -0.26972755262549514 
2.8000000000014844, -0.26957521131075285 
2.8100000000015055, -0.26939870623906 
2.8200000000015266, -0.2691988639886639 
2.8300000000015477, -0.26897614034338296 
2.840000000001569, -0.26873030182237956 
2.85000000000159, -0.26846034668053176 
2.860000000001611, -0.2681646729716308 
2.870000000001632, -0.26784152938416955 
2.8800000000016532, -0.26748977559611725 
2.8900000000016743, -0.2671098838054242 
2.9000000000016954, -0.2667049217559766 
2.9100000000017165, -0.2662810633460019 
2.9200000000017377, -0.2658471792781475 
2.9300000000017588, -0.2654134159844956 
2.94000000000178, -0.2649892259968893 
2.950000000001801, -0.26458164664000117 
2.960000000001822, -0.26419445510350203 
2.970000000001843, -0.2638283191421221 
2.9800000000018643, -0.26348161645179763 
2.9900000000018854, -0.2631514523044795 
3.0000000000019065, -0.2628345202907413 
3.0100000000019276, -0.2625276537216948 
3.0200000000019487, -0.2622280733862327 
3.03000000000197, -0.2619334081038378 
3.040000000001991, -0.2616415654022278 
3.050000000002012, -0.26135049646274067 
3.060000000002033, -0.2610578626320967 
3.070000000002054, -0.2607605935798083 
3.0800000000020753, -0.2604543559829572 
3.0900000000020964, -0.2601330621923031 
3.1000000000021175, -0.2597887613196249 
3.1100000000021386, -0.2594124888102767 
3.1200000000021597, -0.2589966046648696 
3.130000000002181, -0.2585384026023037 
3.140000000002202, -0.25804339621350886 
3.150000000002223, -0.2575259000852973 
3.160000000002244, -0.2570057776149889 
3.1700000000022652, -0.2565029209380105 
3.1800000000022863, -0.2560325162139867 
3.1900000000023074, -0.25560307930675413 
3.2000000000023285, -0.25521713109826016 
3.2100000000023496, -0.25487319555139154 
3.2200000000023707, -0.2545678964524019 
3.230000000002392, -0.2542975493676581 
3.240000000002413, -0.25405915523088674 
3.250000000002434, -0.253850932593226 
3.260000000002455, -0.25367255880655765 
3.2700000000024763, -0.25352523589339515 
3.2800000000024974, -0.25341161693630465 
3.2900000000025185, -0.2533355459438579 
3.3000000000025396, -0.2533014882709272 
3.3100000000025607, -0.2533134846006433 
3.3200000000025818, -0.2533735112881585 
3.330000000002603, -0.25347936970620955 
3.340000000002624, -0.2536227066109875 
3.350000000002645, -0.2537882981457654 
3.360000000002666, -0.2539557515658985 
3.3700000000026873, -0.25410372888182853 
3.3800000000027084, -0.25421505104318676 
3.3900000000027295, -0.25428015435131973 
3.4000000000027506, -0.2542974386203923 
3.4100000000027717, -0.25427109705662276 
3.420000000002793, -0.2542081552671062 
3.430000000002814, -0.25411610950437485 
3.440000000002835, -0.2540016217263555 
3.450000000002856, -0.2538700825796474 
3.460000000002877, -0.2537256771227744 
3.4700000000028983, -0.25357166976276563 
3.4800000000029194, -0.2534107548690046 
3.4900000000029405, -0.2532454068953204 
3.5000000000029616, -0.2530781948482243 
3.5100000000029827, -0.2529120140116189 
3.520000000003004, -0.2527501556743112 
3.530000000003025, -0.2525961163280656 
3.540000000003046, -0.2524530820411116 
3.550000000003067, -0.2523231371804639 
3.5600000000030882, -0.25220641515754977 
3.5700000000031094, -0.25210054286132 
3.5800000000031305, -0.25200071162029614 
3.5900000000031516, -0.25190047740963456 
3.6000000000031727, -0.2517930410817658 
3.6100000000031938, -0.2516725088156439 
3.620000000003215, -0.25153466942169384 
3.630000000003236, -0.25137711242802596 
3.640000000003257, -0.2511988235722994 
3.650000000003278, -0.25099954070153524 
3.6600000000032993, -0.25077911867457786 
3.6700000000033204, -0.2505370416011276 
3.6800000000033415, -0.2502721334558944 
3.6900000000033626, -0.2499824902633153 
3.7000000000033837, -0.24966567542630305 
3.710000000003405, -0.24931924497508148 
3.720000000003426, -0.24894164498855526 
3.730000000003447, -0.24853338991199564 
3.740000000003468, -0.24809818206523881 
3.750000000003489, -0.24764340346059122 
3.7600000000035103, -0.24717946615105174 
3.7700000000035314, -0.24671799952094048 
3.7800000000035525, -0.24626952530844556 
3.7900000000035736, -0.24584158232788544 
3.8000000000035947, -0.2454379507543635 
3.810000000003616, -0.24505899162313177 
3.820000000003637, -0.24470265307836597 
3.830000000003658, -0.24436561009790975 
3.840000000003679, -0.2440441808886872 
3.8500000000037002, -0.24373489248135932 
3.8600000000037213, -0.24343472403090693 
3.8700000000037424, -0.24314111495759083 
3.8800000000037635, -0.2428518158116144 
3.8900000000037847, -0.2425646212788198 
3.9000000000038058, -0.2422769868942566 
3.910000000003827, -0.24198551810600288 
3.920000000003848, -0.2416853634106218 
3.930000000003869, -0.24136968352860885 
3.94000000000389, -0.24102961977502296 
3.9500000000039113, -0.24065542240393287 
3.9600000000039324, -0.24023924513196354 
3.9700000000039535, -0.23977912950577068 
3.9800000000039746, -0.23928218420092925 
3.9900000000039957, -0.23876445527816034 
4.000000000004016, -0.23824681195722325 
4.010000000003993, -0.23774905548466405 
4.02000000000397, -0.23728547287665344 
4.030000000003946, -0.2368634528805343 
4.040000000003923, -0.23648461234099938 
4.0500000000039, -0.2361469691215569 
4.0600000000038765, -0.23584701248081777 
4.070000000003853, -0.23558119155589932 
4.08000000000383, -0.2353468084850859 
4.090000000003807, -0.23514248117763287 
4.100000000003783, -0.23496834282211387 
4.11000000000376, -0.2348260768950991 
4.120000000003737, -0.2347188000885468 
4.130000000003713, -0.2346507181911873 
4.14000000000369, -0.23462640355031922 
4.150000000003667, -0.2346495138734074 
4.1600000000036434, -0.23472087382313744 
4.17000000000362, -0.23483618317616645 
4.180000000003597, -0.2349842058505752 
4.1900000000035735, -0.23514679541601008 
4.20000000000355, -0.2353017941669814 
4.210000000003527, -0.23542827041808329 
4.220000000003504, -0.2355116838932863 
4.23000000000348, -0.23554632425104613 
4.240000000003457, -0.23553427126408827 
4.250000000003434, -0.23548230517515054 
4.26000000000341, -0.23539877023045355 
4.270000000003387, -0.23529152672767747 
4.280000000003364, -0.23516708553789548 
4.2900000000033405, -0.23503052556192944 
4.300000000003317, -0.23488577916209188 
4.310000000003294, -0.23473602819652153 
4.320000000003271, -0.23458409438009659 
4.330000000003247, -0.234432780230256 
4.340000000003224, -0.23428513023697092 
4.350000000003201, -0.23414455944282914 
4.360000000003177, -0.2340147655383221 
4.370000000003154, -0.2338993355952495 
4.380000000003131, -0.2338010175336096 
4.390000000003107, -0.2337207673224584 
4.400000000003084, -0.23365686975276811 
4.410000000003061, -0.23360455566894084 
4.4200000000030375, -0.2335564604151707 
4.430000000003014, -0.23350392885132404 
4.440000000002991, -0.23343872476000613 
4.450000000002968, -0.2333544661442144 
4.460000000002944, -0.23324728349625762 
4.470000000002921, -0.2331156397590269 
4.480000000002898, -0.23295961574329427 
4.490000000002874, -0.23278005629424903 
4.500000000002851, -0.23257785374289922 
4.510000000002828, -0.23235348279901102 
4.520000000002804, -0.2321068009973853 
4.530000000002781, -0.23183710450964817 
4.540000000002758, -0.23154344387488773 
4.5500000000027345, -0.2312252076540659 
4.560000000002711, -0.230882926722777 
4.570000000002688, -0.23051911677448342 
4.580000000002665, -0.23013881249913276 
4.590000000002641, -0.22974939976241399 
4.600000000002618, -0.22935957122754172 
4.610000000002595, -0.22897767359394244 
4.620000000002571, -0.22861008212253026 
4.630000000002548, -0.22826022899387413 
4.640000000002525, -0.22792853944774025 
4.6500000000025015, -0.22761309173850525 
4.660000000002478, -0.2273105858137558 
4.670000000002455, -0.2270172321093818 
4.6800000000024315, -0.22672934205658887 
4.690000000002408, -0.22644357893963782 
4.700000000002385, -0.22615693457202474 
4.710000000002362, -0.22586652516827085 
4.720000000002338, -0.22556927947322128 
4.730000000002315, -0.22526156244822187 
4.740000000002292, -0.22493877064769693 
4.750000000002268, -0.22459497667414507 
4.760000000002245, -0.22422280847528325 
4.770000000002222, -0.22381390929171235 
4.7800000000021985, -0.22336041896767073 
4.790000000002175, -0.22285768060176636 
4.800000000002152, -0.22230756313019095 
4.810000000002129, -0.22172069988282422 
4.820000000002105, -0.2211157115754412 
4.830000000002082, -0.22051503159001157 
4.840000000002059, -0.21993929830173053 
4.850000000002035, -0.21940314757151697 
