t, s[1].omega / s[0].omega 
0, -0.5499977411809391 
0.009999999999999995, -0.5497670780371215 
0.019999999999999934, -0.5495267174104865 
0.029999999999999874, -0.5492761077664448 
0.04000000000000012, -0.5490147261477342 
0.050000000000000405, -0.5487424402885398 
0.06000000000000069, -0.5484597191763879 
0.07000000000000098, -0.5481676631664492 
0.08000000000000126, -0.5478679337788663 
0.09000000000000155, -0.5475626943183454 
0.10000000000000184, -0.5472546410718517 
0.11000000000000212, -0.5469471522486536 
0.12000000000000241, -0.5466445323672089 
0.130000000000002, -0.5463522833342357 
0.1400000000000009, -0.5460772792221354 
0.1499999999999998, -0.5458276572313288 
0.1599999999999987, -0.5456121887123251 
0.1699999999999976, -0.5454389343581273 
0.1799999999999965, -0.5453132248344367 
0.1899999999999954, -0.5452354876170553 
0.1999999999999943, -0.5451999526069261 
0.2099999999999932, -0.5451952759407589 
0.2199999999999921, -0.5452072035978002 
0.229999999999991, -0.5452220395123203 
0.2399999999999899, -0.5452291652536774 
0.2499999999999888, -0.5452217459439407 
0.2599999999999877, -0.545196064982218 
0.2699999999999866, -0.5451504413760133 
0.2799999999999855, -0.5450843454921291 
0.2899999999999844, -0.5449978328641356 
0.2999999999999833, -0.5448911843492776 
0.3099999999999822, -0.5447646396172476 
0.3199999999999811, -0.544618177586141 
0.32999999999998, -0.544451347886046 
0.3399999999999789, -0.5442631834267926 
0.3499999999999778, -0.5440522384003386 
0.35999999999997667, -0.5438168015856277 
0.36999999999997557, -0.5435553183678562 
0.37999999999997447, -0.5432669950591114 
0.38999999999997337, -0.5429524507067806 
0.39999999999997227, -0.5426141696877922 
0.40999999999997117, -0.5422564932461839 
0.41999999999997006, -0.5418850508649313 
0.42999999999996896, -0.5415058173223344 
0.43999999999996786, -0.5411241884124183 
0.44999999999996676, -0.5407444306558359 
0.45999999999996566, -0.5403696201693615 
0.46999999999996456, -0.54000194377368 
0.47999999999996346, -0.5396431444027614 
0.48999999999996235, -0.539294948388106 
0.49999999999996125, -0.5389594162879007 
0.5099999999999602, -0.538639230944122 
0.519999999999959, -0.5383379553850699 
0.529999999999958, -0.5380602748569054 
0.5399999999999568, -0.537812200699041 
0.5499999999999557, -0.5376011671899389 
0.5599999999999546, -0.5374358971988811 
0.5699999999999535, -0.5373258554405692 
0.5799999999999524, -0.5372800786959109 
0.5899999999999513, -0.5373052379812996 
0.5999999999999502, -0.5374030462966712 
0.6099999999999491, -0.53756762774408 
0.619999999999948, -0.5377840398753938 
0.6299999999999469, -0.5380292774438403 
0.6399999999999458, -0.5382762165872631 
0.6499999999999447, -0.5384992656262131 
0.6599999999999436, -0.5386792636053387 
0.6699999999999425, -0.5388056421296805 
0.6799999999999414, -0.5388756421982186 
0.6899999999999403, -0.5388918434923873 
0.6999999999999392, -0.5388594804442823 
0.7099999999999381, -0.5387843882153674 
0.719999999999937, -0.5386717449708591 
0.7299999999999359, -0.5385254315287786 
0.7399999999999348, -0.538347770861088 
0.7499999999999337, -0.5381394806947916 
0.7599999999999326, -0.5378997698772456 
0.7699999999999315, -0.5376265946608445 
0.7799999999999304, -0.5373171503036964 
0.7899999999999293, -0.536968683785579 
0.7999999999999282, -0.5365796361688676 
0.8099999999999271, -0.5361509339805972 
0.819999999999926, -0.5356870082282713 
0.8299999999999249, -0.5351960133893949 
0.8399999999999238, -0.5346889472213292 
0.8499999999999227, -0.5341778992897883 
0.8599999999999216, -0.5336741224330711 
0.8699999999999205, -0.5331866572372179 
0.8799999999999194, -0.532721852924371 
0.8899999999999183, -0.5322836638682946 
0.8999999999999172, -0.5318743620928768 
0.9099999999999161, -0.5314953288011092 
0.919999999999915, -0.5311477334042516 
0.9299999999999139, -0.5308330427439582 
0.9399999999999128, -0.530553373739193 
0.9499999999999117, -0.5303117167277721 
0.9599999999999106, -0.5301120380320886 
0.9699999999999095, -0.529959236018761 
0.9799999999999084, -0.5298588839025757 
0.9899999999999073, -0.5298166534746878 
0.9999999999999062, -0.5298372977652863 
1.0099999999999052, -0.5299231215197089 
1.019999999999904, -0.5300720490747164 
1.029999999999903, -0.5302757426385707 
1.039999999999902, -0.5305186240101735 
1.0499999999999008, -0.5307787747803289 
1.0599999999998997, -0.5310311261653242 
1.0699999999998986, -0.5312521295727327 
1.0799999999998975, -0.5314240453520152 
1.0899999999998964, -0.5315371003620192 
1.0999999999998953, -0.5315890411174495 
1.1099999999998942, -0.5315829437999631 
1.119999999999893, -0.5315245849737603 
1.129999999999892, -0.5314202811662926 
1.1399999999998909, -0.5312754900610506 
1.1499999999998898, -0.5310940671990894 
1.1599999999998887, -0.530877951758554 
1.1699999999998876, -0.5306270996388007 
1.1799999999998865, -0.530339584767937 
1.1899999999998854, -0.5300118974899142 
1.1999999999998843, -0.529639557250225 
1.2099999999998832, -0.5292181897664159 
1.219999999999882, -0.5287451302577847 
1.229999999999881, -0.528221342562432 
1.2399999999998799, -0.5276530450622976 
1.2499999999998788, -0.5270521877380411 
1.2599999999998777, -0.5264352019559101 
1.2699999999998766, -0.525820274933197 
1.2799999999998755, -0.5252242239285535 
1.2899999999998744, -0.5246601864329072 
1.2999999999998733, -0.5241367436467438 
1.3099999999998722, -0.5236583201282144 
1.319999999999871, -0.5232262836830615 
1.32999999999987, -0.5228401862447243 
1.3399999999998689, -0.5224988157171471 
1.3499999999998678, -0.5222009512220903 
1.3599999999998666, -0.5219458416316278 
1.3699999999998655, -0.5217334674486197 
1.3799999999998644, -0.5215646355151897 
1.3899999999998633, -0.5214409236420108 
1.3999999999998622, -0.5213644534830635 
1.4099999999998611, -0.5213374344229701 
1.41999999999986, -0.5213614038906234 
1.429999999999859, -0.521436120157956 
1.4399999999998578, -0.5215581848363876 
1.4499999999998567, -0.5217197070102669 
1.4599999999998556, -0.5219076003376556 
1.4699999999998545, -0.5221042057055636 
1.4799999999998534, -0.5222895712875164 
1.4899999999998523, -0.5224448842366861 
1.4999999999998512, -0.5225557546305715 
1.5099999999998501, -0.5226140188321194 
1.519999999999849, -0.5226175682488675 
1.529999999999848, -0.5225687225737741 
1.5399999999998468, -0.5224721136018701 
1.5499999999998457, -0.5223328402858213 
1.5599999999998446, -0.5221552011629061 
1.5699999999998435, -0.5219419685096012 
1.5799999999998424, -0.5216940387760818 
1.5899999999998413, -0.5214103135661527 
1.5999999999998402, -0.5210877529088069 
1.6099999999998391, -0.5207216506490884 
1.619999999999838, -0.5203062835012211 
1.629999999999837, -0.5198361358759247 
1.6399999999998358, -0.5193078122242664 
1.6499999999998347, -0.5187224170567449 
1.6599999999998336, -0.5180876477945553 
1.6699999999998325, -0.517418459642921 
1.6799999999998314, -0.5167354645498912 
1.6899999999998303, -0.5160613344127309 
1.6999999999998292, -0.5154166452873694 
1.709999999999828, -0.5148168343529934 
1.719999999999827, -0.5142711160289926 
1.729999999999826, -0.5137831201637392 
1.7399999999998248, -0.5133524408782859 
1.7499999999998237, -0.5129763260842964 
1.7599999999998226, -0.5126510678571481 
1.7699999999998215, -0.5123729638142154 
1.7799999999998204, -0.512138893170518 
1.7899999999998193, -0.5119466052440762 
1.7999999999998182, -0.511794806128412 
1.809999999999817, -0.5116830916158321 
1.819999999999816, -0.5116117317594402 
1.8299999999998149, -0.5115812745910655 
1.8399999999998138, -0.5115919151305589 
1.8499999999998127, -0.5116425940967424 
1.8599999999998116, -0.5117298826091558 
1.8699999999998105, -0.5118468936452631 
1.8799999999998094, -0.5119826843551497 
1.8899999999998083, -0.5121227007714494 
1.8999999999998072, -0.5122505442579246 
1.909999999999806, -0.5123506875490096 
1.919999999999805, -0.5124111301494291 
1.9299999999998039, -0.5124249179935877 
1.9399999999998028, -0.5123900804133917 
1.9499999999998017, -0.5123083459072286 
1.9599999999998006, -0.5121833955228708 
1.9699999999997995, -0.5120192880376409 
1.9799999999997984, -0.5118193378418301 
1.9899999999997973, -0.5115854402065229 
1.9999999999997962, -0.5113177190811574 
2.0099999999998173, -0.5110143824338584 
2.0199999999998384, -0.5106717468151298 
2.0299999999998595, -0.510284497138785 
2.0399999999998806, -0.5098463536630126 
2.0499999999999017, -0.5093513759631623 
2.059999999999923, -0.5087960385704535 
2.069999999999944, -0.5081818411966016 
2.079999999999965, -0.5075175993338622 
2.089999999999986, -0.5068201058391015 
2.100000000000007, -0.5061122066399925 
2.1100000000000283, -0.5054186379670824 
2.1200000000000494, -0.5047613269451066 
2.1300000000000705, -0.504156081281098 
2.1400000000000916, -0.5036115752531483 
2.1500000000001127, -0.5031302720429045 
2.160000000000134, -0.5027103004729732 
2.170000000000155, -0.5023474040764567 
2.180000000000176, -0.502036488385067 
2.190000000000197, -0.5017726505693341 
2.2000000000002182, -0.501551764991801 
2.2100000000002393, -0.5013707503713395 
2.2200000000002604, -0.5012276247984097 
2.2300000000002815, -0.5011214103652365 
2.2400000000003026, -0.5010519017609936 
2.2500000000003237, -0.5010192722844137 
2.260000000000345, -0.5010234669489153 
2.270000000000366, -0.5010633475868392 
2.280000000000387, -0.5011356413449076 
2.290000000000408, -0.501233918605056 
2.3000000000004293, -0.501348035294489 
2.3100000000004504, -0.5014645505695738 
2.3200000000004715, -0.5015683679915185 
2.3300000000004926, -0.5016452400790674 
2.3400000000005137, -0.5016841961106504 
2.3500000000005348, -0.5016789107906601 
2.360000000000556, -0.5016276181933186 
2.370000000000577, -0.5015319123837161 
2.380000000000598, -0.5013951305235036 
2.390000000000619, -0.5012208953783243 
2.4000000000006403, -0.5010120715210988 
2.4100000000006614, -0.5007701299949264 
2.4200000000006825, -0.5004948091244176 
2.4300000000007036, -0.5001839713660395 
2.4400000000007247, -0.4998336319248195 
2.450000000000746, -0.4994382389396296 
2.460000000000767, -0.4989913902720374 
2.470000000000788, -0.49848722185611677 
2.480000000000809, -0.4979225826509371 
2.49000000000083, -0.49729969754104736 
2.5000000000008513, -0.49662837457178705 
2.5100000000008724, -0.4959264027539927 
2.5200000000008935, -0.4952172703312906 
2.5300000000009146, -0.4945257487643123 
2.5400000000009357, -0.49387319664473095 
2.550000000000957, -0.49327448465127466 
2.560000000000978, -0.4927372898664101 
2.570000000000999, -0.4922632511859704 
2.58000000000102, -0.4918499510196844 
2.5900000000010412, -0.4914928670770841 
2.6000000000010624, -0.49118687082786794 
2.6100000000010835, -0.4909271967601271 
2.6200000000011046, -0.4907099764929324 
2.6300000000011257, -0.4905324690471007 
2.6400000000011468, -0.4903930907502966 
2.650000000001168, -0.49029129955630807 
2.660000000001189, -0.49022733877394353 
2.67000000000121, -0.4902018031654882 
2.680000000001231, -0.4902149682373348 
2.6900000000012523, -0.49026584665730943 
2.7000000000012734, -0.49035103957693416 
2.7100000000012945, -0.49046364953892063 
2.7200000000013156, -0.4905927462573447 
2.7300000000013367, -0.49072393329957115 
2.740000000001358, -0.4908412342879996 
2.750000000001379, -0.49092983205945034 
2.7600000000014, -0.49097860128948084 
2.770000000001421, -0.4909814133210725 
2.780000000001442, -0.49093688385631884 
2.7900000000014633, -0.49084700878621523 
2.8000000000014844, -0.4907154472312585 
2.8100000000015055, -0.49054603258395624 
2.8200000000015266, -0.49034173905502937 
2.8300000000015477, -0.4901040722934159 
2.840000000001569, -0.4898327592607038 
2.85000000000159, -0.4895256380859815 
2.860000000001611, -0.48917873314976684 
2.870000000001632, -0.4887866070919692 
2.8800000000016532, -0.488343177586087 
2.8900000000016743, -0.4878432072623543 
2.9000000000016954, -0.4872845052990965 
2.9100000000017165, -0.48667042927432325 
2.9200000000017377, -0.4860116844458308 
2.9300000000017588, -0.4853261919259054 
2.94000000000178, -0.48463647295127366 
2.950000000001801, -0.48396537252802146 
2.960000000001822, -0.48333194174876387 
2.970000000001843, -0.4827490486816317 
2.9800000000018643, -0.48222312988848304 
2.9900000000018854, -0.4817554603290695 
3.0000000000019065, -0.481343998259575 
3.0100000000019276, -0.48098510351327717 
3.0200000000019487, -0.4806748193233018 
3.03000000000197, -0.4804096902963567 
3.040000000001991, -0.4801872132631463 
3.050000000002012, -0.48000603365801897 
3.060000000002033, -0.47986596572733076 
3.070000000002054, -0.4797678648839832 
3.0800000000020753, -0.47971332990338356 
3.0900000000020964, -0.4797041705666934 
3.1000000000021175, -0.4797415603522688 
3.1100000000021386, -0.47982483904405393 
3.1200000000021597, -0.47995008149907586 
3.130000000002181, -0.48010881513038006 
3.140000000002202, -0.48028753968880034 
3.150000000002223, -0.48046871085387954 
3.160000000002244, -0.4806333359010174 
3.1700000000022652, -0.4807644233670702 
3.1800000000022863, -0.4808498860967524 
3.1900000000023074, -0.4808837460920019 
3.2000000000023285, -0.48086547019587966 
3.2100000000023496, -0.48079815628481304 
3.2200000000023707, -0.48068651101842896 
3.230000000002392, -0.4805352312660765 
3.240000000002413, -0.48034796266648827 
3.250000000002434, -0.4801267411888027 
3.260000000002455, -0.4798717559247351 
3.2700000000024763, -0.47958132312172735 
3.2800000000024974, -0.479252059592127 
3.2900000000025185, -0.4788793466200619 
3.3000000000025396, -0.47845824590057273 
3.3100000000025607, -0.47798500036173747 
3.3200000000025818, -0.47745903525647027 
3.330000000002603, -0.4768849515640136 
3.340000000002624, -0.4762735910092119 
3.350000000002645, -0.4756412992720785 
3.360000000002666, -0.4750072890436621 
3.3700000000026873, -0.47439008469737864 
3.3800000000027084, -0.47380453084003815 
3.3900000000027295, -0.47326036871388616 
3.4000000000027506, -0.4727624331274459 
3.4100000000027717, -0.4723118564857983 
3.420000000002793, -0.47190756260478944 
3.430000000002814, -0.4715475804867581 
3.440000000002835, -0.47123000332753817 
3.450000000002856, -0.47095360569311984 
3.460000000002877, -0.4707182006659508 
3.4700000000028983, -0.4705248129273216 
3.4800000000029194, -0.4703757039706288 
3.4900000000029405, -0.47027423374093064 
3.5000000000029616, -0.47022448882520695 
3.5100000000029827, -0.4702305629729766 
3.520000000003004, -0.4702953709316545 
3.530000000003025, -0.4704189676743745 
3.540000000003046, -0.4705965958777466 
3.550000000003067, -0.47081708649204784 
3.5600000000030882, -0.4710625816777944 
3.5700000000031094, -0.47131040985074113 
3.5800000000031305, -0.4715370198433441 
3.5900000000031516, -0.47172258177215654 
3.6000000000031727, -0.4718542699780045 
3.6100000000031938, -0.471927018028207 
3.620000000003215, -0.47194201953121884 
3.630000000003236, -0.4719041985298501 
3.640000000003257, -0.47181981572895726 
3.650000000003278, -0.47169477802889015 
3.6600000000032993, -0.47153368536748913 
3.6700000000033204, -0.47133941162839826 
3.6800000000033415, -0.4711130078949628 
3.6900000000033626, -0.4708538064799671 
3.7000000000033837, -0.4705597107932634 
3.710000000003405, -0.4702277408973434 
3.720000000003426, -0.46985493522350347 
3.730000000003447, -0.4694396372744811 
3.740000000003468, -0.46898298363954244 
3.750000000003489, -0.46849011114391886 
3.7600000000035103, -0.4679704357700486 
3.7700000000035314, -0.4674365969458935 
3.7800000000035525, -0.4669023089481003 
3.7900000000035736, -0.4663799782758032 
3.8000000000035947, -0.4658790249187318 
3.810000000003616, -0.4654053570830786 
3.820000000003637, -0.46496183810289093 
3.830000000003658, -0.46454926569302063 
3.840000000003679, -0.4641674168100273 
3.8500000000037002, -0.4638159123693252 
3.8600000000037213, -0.46349484260653356 
3.8700000000037424, -0.4632051928134981 
3.8800000000037635, -0.46294912953494904 
3.8900000000037847, -0.46273018188888243 
3.9000000000038058, -0.4625533052224391 
3.910000000003827, -0.4624247548199579 
3.920000000003848, -0.4623516322484377 
3.930000000003869, -0.4623409161276964 
3.94000000000389, -0.4623978061165414 
3.9500000000039113, -0.4625233880634535 
3.9600000000039324, -0.46271205643747493 
3.9700000000039535, -0.46294973224470815 
3.9800000000039746, -0.4632142624844371 
3.9900000000039957, -0.4634788175026223 
4.000000000004016, -0.4637174683834508 
4.010000000003993, -0.463910530330726 
4.02000000000397, -0.4640472797747588 
4.030000000003946, -0.4641254066928767 
4.040000000003923, -0.46414839690021853 
4.0500000000039, -0.4641225484868631 
4.0600000000038765, -0.46405469168715713 
4.070000000003853, -0.46395085516708257 
4.08000000000383, -0.46381566688911946 
4.090000000003807, -0.46365219249876616 
4.100000000003783, -0.46346200086190725 
4.11000000000376, -0.4632453621937619 
4.120000000003737, -0.46300157381836315 
4.130000000003713, -0.4627294565947742 
4.14000000000369, -0.4624280575696873 
4.150000000003667, -0.46209751309265734 
4.1600000000036434, -0.4617398777952177 
4.17000000000362, -0.46135958531266086 
4.180000000003597, -0.46096322080148944 
4.1900000000035735, -0.4605585467912296 
4.20000000000355, -0.4601531180591694 
4.210000000003527, -0.45975305603377387 
4.220000000003504, -0.45936243431969903 
4.23000000000348, -0.4589833641999811 
4.240000000003457, -0.45861654883377884 
4.250000000003434, -0.4582619785630645 
4.26000000000341, -0.4579195363092241 
4.270000000003387, -0.4575894354201665 
4.280000000003364, -0.4572725190834957 
4.2900000000033405, -0.456970484855158 
4.300000000003317, -0.45668608123660104 
4.310000000003294, -0.4564232818039617 
4.320000000003271, -0.4561873884650317 
4.330000000003247, -0.45598495065469924 
4.340000000003224, -0.45582331798889947 
4.350000000003201, -0.45570960347131056 
4.360000000003177, -0.4556489054511612 
4.370000000003154, -0.45564193994400054 
4.380000000003131, -0.4556828147997658 
4.390000000003107, -0.4557582605529099 
4.400000000003084, -0.455849524307677 
4.410000000003061, -0.45593678898887624 
4.4200000000030375, -0.45600410623374305 
4.430000000003014, -0.456042271919398 
4.440000000002991, -0.45604862175596395 
4.450000000002968, -0.4560248103205976 
4.460000000002944, -0.4559743404038173 
4.470000000002921, -0.455900894368649 
4.480000000002898, -0.4558075725190879 
4.490000000002874, -0.4556967008671631 
4.500000000002851, -0.45556987512233277 
4.510000000002828, -0.4554280606455324 
4.520000000002804, -0.4552716954799873 
4.530000000002781, -0.4551008105201591 
4.540000000002758, -0.45491520388091394 
4.5500000000027345, -0.4547146998127601 
4.560000000002711, -0.45449948694362236 
4.570000000002688, -0.45427046603220705 
4.580000000002665, -0.454029465260987 
4.590000000002641, -0.4537791576222566 
4.600000000002618, -0.4535226028032467 
4.610000000002595, -0.45326253054013615 
4.620000000002571, -0.4530006660835517 
4.630000000002548, -0.45273741506901377 
4.640000000002525, -0.4524720342586092 
4.6500000000025015, -0.45220315101532577 
4.660000000002478, -0.4519293476169093 
4.670000000002455, -0.4516495717784393 
4.6800000000024315, -0.4513632927425221 
4.690000000002408, -0.45107046249942695 
4.700000000002385, -0.45077139481237005 
4.710000000002362, -0.45046665302266753 
4.720000000002338, -0.4501569860475877 
4.730000000002315, -0.4498433026321008 
4.740000000002292, -0.4495266359438695 
4.750000000002268, -0.4492080241691506 
4.760000000002245, -0.4488882286363666 
4.770000000002222, -0.44856726501189287 
4.7800000000021985, -0.4482438873219404 
4.790000000002175, -0.44791543666555944 
4.800000000002152, -0.44757865017650883 
4.810000000002129, -0.44723169975548965 
4.820000000002105, -0.4468766893634637 
4.830000000002082, -0.44652083961737776 
4.840000000002059, -0.4461750206690893 
4.850000000002035, -0.44585025154606817 
4.860000000002012, -0.44555432635426573 
4.870000000001989, -0.44529030503169836 
4.880000000001965, -0.4450570105485892 
4.890000000001942, -0.44485058146835976 
