t, s[1].omega / s[0].omega 
0, -0.32999779196354395 
0.009999999999999995, -0.3297786339884968 
0.019999999999999934, -0.329562065712844 
0.029999999999999874, -0.3293462812781462 
0.04000000000000012, -0.32912882869468496 
0.050000000000000405, -0.32890717279415194 
0.06000000000000069, -0.32867911291681334 
0.07000000000000098, -0.3284429484352328 
0.08000000000000126, -0.32819741038651457 
0.09000000000000155, -0.3279414471417469 
0.10000000000000184, -0.32767395549132317 
0.11000000000000212, -0.3273935169094998 
0.12000000000000241, -0.3270981679617241 
0.130000000000002, -0.3267852252119027 
0.1400000000000009, -0.3264512062871714 
0.1499999999999998, -0.32609193811591064 
0.1599999999999987, -0.32570300219458315 
0.1699999999999976, -0.3252806799131877 
0.1799999999999965, -0.3248234301386856 
0.1899999999999954, -0.3243335831175331 
0.1999999999999943, -0.3238184914928529 
0.2099999999999932, -0.32329025247796406 
0.2199999999999921, -0.32276368810350553 
0.229999999999991, -0.32225330131257085 
0.2399999999999899, -0.3217705572992858 
0.2499999999999888, -0.32132252040125453 
0.2599999999999877, -0.320911988650039 
0.2699999999999866, -0.320538583504903 
0.2799999999999855, -0.32020011406228993 
0.2899999999999844, -0.3198937624120458 
0.2999999999999833, -0.3196169237786396 
0.3099999999999822, -0.3193677195040097 
0.3199999999999811, -0.3191452683045719 
0.32999999999998, -0.3189497948395678 
0.3399999999999789, -0.31878261519250206 
0.3499999999999778, -0.3186459889619121 
0.35999999999997667, -0.31854277884088333 
0.36999999999997557, -0.31847582522976964 
0.37999999999997447, -0.31844695610347906 
0.38999999999997337, -0.3184556605234481 
0.39999999999997227, -0.3184976961587407 
0.40999999999997117, -0.31856422001054574 
0.41999999999997006, -0.318642184205293 
0.42999999999996896, -0.31871638124442664 
0.43999999999996786, -0.3187726141562788 
0.44999999999996676, -0.31880062334724346 
0.45999999999996566, -0.31879546024969463 
0.46999999999996456, -0.3187569968517867 
0.47999999999996346, -0.31868829176120184 
0.48999999999996235, -0.31859381549412097 
0.49999999999996125, -0.31847815801658086 
0.5099999999999602, -0.31834534425420713 
0.519999999999959, -0.3181986079091654 
0.529999999999958, -0.31804042618928424 
0.5399999999999568, -0.3178726752928768 
0.5499999999999557, -0.3176968348563681 
0.5599999999999546, -0.31751421186992673 
0.5699999999999535, -0.3173261653216972 
0.5799999999999524, -0.3171342977765144 
0.5899999999999513, -0.31694055216525646 
0.5999999999999502, -0.3167471352052744 
0.6099999999999491, -0.3165562146612154 
0.619999999999948, -0.31636942362903653 
0.6299999999999469, -0.31618732445166536 
0.6399999999999458, -0.31600906249765187 
0.6499999999999447, -0.31583239947994973 
0.6599999999999436, -0.31565415153813214 
0.6699999999999425, -0.31547086043187644 
0.6799999999999414, -0.3152794247519953 
0.6899999999999403, -0.3150774714449752 
0.6999999999999392, -0.3148634002150994 
0.7099999999999381, -0.3146361730829073 
0.719999999999937, -0.3143949785116038 
0.7299999999999359, -0.31413888076428614 
0.7399999999999348, -0.3138665180806485 
0.7499999999999337, -0.31357587947613486 
0.7599999999999326, -0.3132641876873303 
0.7699999999999315, -0.3129279446899755 
0.7799999999999304, -0.31256324169653454 
0.7899999999999293, -0.3121664611005026 
0.7999999999999282, -0.3117354361743011 
0.8099999999999271, -0.3112709145396623 
0.819999999999926, -0.31077782074650756 
0.8299999999999249, -0.3102655721315637 
0.8399999999999238, -0.30974692687848915 
0.8499999999999227, -0.30923559092259084 
0.8599999999999216, -0.3087435636121835 
0.8699999999999205, -0.30827931090963634 
0.8799999999999194, -0.30784726878710006 
0.8899999999999183, -0.307448456917531 
0.8999999999999172, -0.3070816278719699 
0.9099999999999161, -0.30674443781429706 
0.919999999999915, -0.30643436662773094 
0.9299999999999139, -0.3061493288838285 
0.9399999999999128, -0.3058880280813529 
0.9499999999999117, -0.30565013105270683 
0.9599999999999106, -0.3054363157199511 
0.9699999999999095, -0.3052482015528587 
0.9799999999999084, -0.3050881229267502 
0.9899999999999073, -0.3049586631076619 
0.9999999999999062, -0.3048618546467135 
1.0099999999999052, -0.30479801692834135 
1.019999999999904, -0.3047643995209364 
1.029999999999903, -0.3047541270215215 
1.039999999999902, -0.30475621206151543 
1.0499999999999008, -0.3047572312082217 
1.0599999999998997, -0.3047443993424474 
1.0699999999998986, -0.30470869759790814 
1.0799999999998975, -0.3046464617417507 
1.0899999999998964, -0.3045588491610511 
1.0999999999998953, -0.30444994505456113 
1.1099999999998942, -0.30432475858764746 
1.119999999999893, -0.30418789987357153 
1.129999999999892, -0.304043045264888 
1.1399999999998909, -0.30389292901988074 
1.1499999999998898, -0.3037395671026858 
1.1599999999998887, -0.3035845287230958 
1.1699999999998876, -0.3034291788123273 
1.1799999999998865, -0.3032748741606562 
1.1899999999998854, -0.30312311243151246 
1.1999999999998843, -0.30297562257851807 
1.2099999999998832, -0.3028343618253788 
1.219999999999882, -0.30270136464919956 
1.229999999999881, -0.3025783956276259 
1.2399999999998799, -0.3024664134512966 
1.2499999999998788, -0.3023649603624063 
1.2599999999998777, -0.30227170689119326 
1.2699999999998766, -0.30218241823773506 
1.2799999999998755, -0.30209148717346207 
1.2899999999998744, -0.3019929184675603 
1.2999999999998733, -0.30188140479525793 
1.3099999999998722, -0.30175308622106 
1.319999999999871, -0.3016057716410526 
1.32999999999987, -0.3014386710809812 
1.3399999999998689, -0.3012518580956316 
1.3499999999998678, -0.3010456914694899 
1.3599999999998666, -0.3008203401483803 
1.3699999999998655, -0.3005754658840028 
1.3799999999998644, -0.30031007237423807 
1.3899999999998633, -0.300022529703197 
1.3999999999998622, -0.29971080713292997 
1.4099999999998611, -0.299372963692646 
1.41999999999986, -0.29900791412104333 
1.429999999999859, -0.2986163716956506 
1.4399999999998578, -0.298201682219641 
1.4499999999998567, -0.2977701197131333 
1.4599999999998556, -0.29733029912294195 
1.4699999999998545, -0.2968917465312332 
1.4799999999998534, -0.29646313782548933 
1.4899999999998523, -0.2960509023452051 
1.4999999999998512, -0.29565864183812346 
1.5099999999998501, -0.29528736401744937 
1.519999999999849, -0.29493620864764336 
1.529999999999848, -0.2946032884156669 
1.5399999999998468, -0.2942863919926346 
1.5499999999998457, -0.293983457056409 
1.5599999999998446, -0.29369282900868404 
1.5699999999998435, -0.2934133610889183 
1.5799999999998424, -0.29314440431629685 
1.5899999999998413, -0.2928857064063922 
1.5999999999998402, -0.29263720542966076 
1.6099999999998391, -0.2923986806928994 
1.619999999999838, -0.29216923069502687 
1.629999999999837, -0.29194661936787464 
1.6399999999998358, -0.2917266973531737 
1.6499999999998347, -0.29150332871334317 
1.6599999999998336, -0.291269340771054 
1.6699999999998325, -0.291018647733641 
1.6799999999998314, -0.29074881261640306 
1.6899999999998303, -0.2904625604609331 
1.6999999999998292, -0.2901671220041644 
1.709999999999828, -0.2898717448443725 
1.719999999999827, -0.289584892847428 
1.729999999999826, -0.2893125057329743 
1.7399999999998248, -0.289057670384235 
1.7499999999998237, -0.2888212414582962 
1.7599999999998226, -0.2886027759465245 
1.7699999999998215, -0.28840136803325367 
1.7799999999998204, -0.28821623788122086 
1.7899999999998193, -0.2880470863879017 
1.7999999999998182, -0.2878942784409432 
1.809999999999817, -0.28775890625258077 
1.819999999999816, -0.28764274857230016 
1.8299999999998149, -0.2875481004745711 
1.8399999999998138, -0.28747741528383586 
1.8499999999998127, -0.2874326941911963 
1.8599999999998116, -0.28741460980791483 
1.8699999999998105, -0.28742148386419586 
1.8799999999998094, -0.2874484395070648 
1.8899999999998083, -0.28748720365367764 
1.8999999999998072, -0.28752695126536554 
1.909999999999806, -0.28755614923591366 
1.919999999999805, -0.28756476969053274 
1.9299999999998039, -0.287545964323805 
1.9399999999998028, -0.28749660261591375 
1.9499999999998017, -0.2874167222684513 
1.9599999999998006, -0.28730840299488797 
1.9699999999997995, -0.28717461380898757 
1.9799999999997984, -0.28701835164167777 
1.9899999999997973, -0.2868421429988109 
1.9999999999997962, -0.2866478483963815 
2.0099999999998173, -0.2864366837784217 
2.0199999999998384, -0.2862093982552846 
2.0299999999998595, -0.2859665756476447 
2.0399999999998806, -0.2857090301574824 
2.0499999999999017, -0.2854382325580019 
2.059999999999923, -0.28515664343432945 
2.069999999999944, -0.2848677870793961 
2.079999999999965, -0.28457593670199954 
2.089999999999986, -0.2842854287288472 
2.100000000000007, -0.2839998198126467 
2.1100000000000283, -0.28372121078390816 
2.1200000000000494, -0.28344999341717597 
2.1300000000000705, -0.28318506803192345 
2.1400000000000916, -0.2829243712488464 
2.1500000000001127, -0.2826654626390849 
2.160000000000134, -0.2824059658871011 
2.170000000000155, -0.28214377820287123 
2.180000000000176, -0.28187706795268824 
2.190000000000197, -0.2816041309623911 
2.2000000000002182, -0.2813231751929352 
2.2100000000002393, -0.2810320802031673 
2.2200000000002604, -0.2807281599661095 
2.2300000000002815, -0.28040796340231344 
2.2400000000003026, -0.28006718614891263 
2.2500000000003237, -0.27970083738608575 
2.260000000000345, -0.27930387306112714 
2.270000000000366, -0.278872477540459 
2.280000000000387, -0.278405913611798 
2.290000000000408, -0.2779083409988628 
2.3000000000004293, -0.27738954751080114 
2.3100000000004504, -0.27686373855887964 
2.3200000000004715, -0.27634657905832627 
2.3300000000004926, -0.2758518123092215 
2.3400000000005137, -0.2753889593178639 
2.3500000000005348, -0.27496275416476224 
2.360000000000556, -0.27457396893268526 
2.370000000000577, -0.2742208469021855 
2.380000000000598, -0.2739004983538732 
2.390000000000619, -0.2736099525109653 
2.4000000000006403, -0.27334682558897205 
2.4100000000006614, -0.27310968710978023 
2.4200000000006825, -0.272898223111192 
2.4300000000007036, -0.2727132593885486 
2.4400000000007247, -0.27255665399803813 
2.450000000000746, -0.2724310116242836 
2.460000000000767, -0.272339126127631 
2.470000000000788, -0.2722830493705573 
2.480000000000809, -0.2722627673992109 
2.49000000000083, -0.27227469891629996 
2.5000000000008513, -0.27231059783302325 
2.5100000000008724, -0.2723577126744447 
2.5200000000008935, -0.2724007983886942 
2.5300000000009146, -0.2724255787743096 
2.5400000000009357, -0.2724221208786392 
2.550000000000957, -0.2723864438979529 
2.560000000000978, -0.27231985684386945 
2.570000000000999, -0.2722269067654495 
2.58000000000102, -0.2721132461804032 
2.5900000000010412, -0.27198421110628695 
2.6000000000010624, -0.2718442097114675 
2.6100000000010835, -0.27169666194219605 
2.6200000000011046, -0.2715441996822781 
2.6300000000011257, -0.2713889409839759 
2.6400000000011468, -0.27123275380145506 
2.650000000001168, -0.27107748093194517 
2.660000000001189, -0.27092511210923076 
2.67000000000121, -0.27077787646818474 
2.680000000001231, -0.27063820560330887 
2.6900000000012523, -0.27050850536632265 
2.7000000000012734, -0.2703906998034366 
2.7100000000012945, -0.2702855928386953 
2.7200000000013156, -0.27019222024359035 
2.7300000000013367, -0.2701074718103155 
2.740000000001358, -0.2700262519847739 
2.750000000001379, -0.26994225562890883 
2.7600000000014, -0.26984913297809066 
2.770000000001421, -0.26974160138808123 
2.780000000001442, -0.2696160998079179 
2.7900000000014633, -0.26947084290984724 
2.8000000000014844, -0.2693054118257784 
2.8100000000015055, -0.26912014549619884 
2.8200000000015266, -0.2689155594491587 
2.8300000000015477, -0.26869191311321505 
2.840000000001569, -0.2684489613010038 
2.85000000000159, -0.26818589191717684 
2.860000000001611, -0.26790145831279355 
2.870000000001632, -0.2675943308261914 
2.8800000000016532, -0.2672636814761362 
2.8900000000016743, -0.26690994456808326 
2.9000000000016954, -0.26653555905851334 
2.9100000000017165, -0.26614536190918825 
2.9200000000017377, -0.2657463048569307 
2.9300000000017588, -0.265346413936953 
2.94000000000178, -0.2649533071624909 
2.950000000001801, -0.2645728457674739 
2.960000000001822, -0.26420840568459647 
2.970000000001843, -0.2638609023732946 
2.9800000000018643, -0.26352936006121064 
2.9900000000018854, -0.263211679688129 
3.0000000000019065, -0.2629053227171586 
3.0100000000019276, -0.2626077737262801 
3.0200000000019487, -0.26231676933667314 
3.03000000000197, -0.26203034343333287 
3.040000000001991, -0.261746746637113 
3.050000000002012, -0.26146427743995304 
3.060000000002033, -0.26118103739803505 
3.070000000002054, -0.2608946120880796 
3.0800000000020753, -0.26060170218324574 
3.0900000000020964, -0.260297806497534 
3.1000000000021175, -0.25997719690609145 
3.1100000000021386, -0.2596335596142266 
3.1200000000021597, -0.2592616160862168 
3.130000000002181, -0.25885954089128027 
3.140000000002202, -0.2584311439031297 
3.150000000002223, -0.25798631510204695 
3.160000000002244, -0.2575389830046008 
3.1700000000022652, -0.2571034841868098 
3.1800000000022863, -0.2566912537592039 
3.1900000000023074, -0.25630922643041865 
3.2000000000023285, -0.25596004138335265 
3.2100000000023496, -0.2556432853275311 
3.2200000000023707, -0.2553569450939338 
3.230000000002392, -0.25509859361078424 
3.240000000002413, -0.25486618095233726 
3.250000000002434, -0.25465848772995103 
3.260000000002455, -0.2544753448236526 
3.2700000000024763, -0.25431769735625326 
3.2800000000024974, -0.254187537908258 
3.2900000000025185, -0.25408767583000597 
3.3000000000025396, -0.2540212590372747 
3.3100000000025607, -0.2539909443580871 
3.3200000000025818, -0.2539976669508094 
3.330000000002603, -0.25403914559911145 
3.340000000002624, -0.2541085865839322 
3.350000000002645, -0.2541943578353438 
3.360000000002666, -0.2542813351962546 
3.3700000000026873, -0.25435388323135183 
3.3800000000027084, -0.2543993398382883 
3.3900000000027295, -0.2544103785724756 
3.4000000000027506, -0.25438531958230304 
3.4100000000027717, -0.25432673907877584 
3.420000000002793, -0.2542394676339553 
3.430000000002814, -0.2541289078750833 
3.440000000002835, -0.2540000325720918 
3.450000000002856, -0.2538569883029108 
3.460000000002877, -0.25370308049620505 
3.4700000000028983, -0.2535409457301195 
3.4800000000029194, -0.2533727951828182 
3.4900000000029405, -0.25320067167698107 
3.5000000000029616, -0.2530266853468046 
3.5100000000029827, -0.2528531854336987 
3.520000000003004, -0.25268280393803194 
3.530000000003025, -0.25251829597829206 
3.540000000003046, -0.2523621322710582 
3.550000000003067, -0.25221588898018366 
3.5600000000030882, -0.25207960780943994 
3.5700000000031094, -0.2519513939653012 
3.5800000000031305, -0.2518274939518288 
3.5900000000031516, -0.2517029146639781 
3.6000000000031727, -0.2515723872859751 
3.6100000000031938, -0.2514313073693272 
3.620000000003215, -0.25127631789770233 
3.630000000003236, -0.2511054094270012 
3.640000000003257, -0.25091763283939317 
3.650000000003278, -0.2507126264229679 
3.6600000000032993, -0.25049013960868993 
3.6700000000033204, -0.2502496608747244 
3.6800000000033415, -0.249990195244349 
3.6900000000033626, -0.24971021460386372 
3.7000000000033837, -0.24940781380420857 
3.710000000003405, -0.24908111935293978 
3.720000000003426, -0.24872897533940347 
3.730000000003447, -0.2483518328081622 
3.740000000003468, -0.24795259251263774 
3.750000000003489, -0.24753699003790336 
3.7600000000035103, -0.24711314675623602 
3.7700000000035314, -0.24669024846622847 
3.7800000000035525, -0.2462767940398401 
3.7900000000035736, -0.24587911096385318 
3.8000000000035947, -0.2455006533847309 
3.810000000003616, -0.24514215277074364 
3.820000000003637, -0.24480232590014506 
3.830000000003658, -0.2444787425582481 
3.840000000003679, -0.24416856173121007 
3.8500000000037002, -0.24386901341609465 
3.8600000000037213, -0.24357762942559616 
3.8700000000037424, -0.24329228169669412 
3.8800000000037635, -0.24301108751503636 
3.8900000000037847, -0.2427322165300272 
3.9000000000038058, -0.2424536086556351 
3.910000000003827, -0.2421726045213025 
3.920000000003848, -0.24188552287845325 
3.930000000003869, -0.24158731636445802 
3.94000000000389, -0.24127159801582274 
3.9500000000039113, -0.2409314644301043 
3.9600000000039324, -0.24056141047250149 
3.9700000000039535, -0.24015999385621284 
3.9800000000039746, -0.23973197491398818 
3.9900000000039957, -0.2392883451647932 
4.000000000004016, -0.23884374496270472 
4.010000000003993, -0.23841255402250422 
4.02000000000397, -0.2380057063837528 
4.030000000003946, -0.23762943479338022 
4.040000000003923, -0.23728577821023022 
4.0500000000039, -0.23697396744087115 
4.0600000000038765, -0.23669188415824985 
4.070000000003853, -0.23643718954645054 
4.08000000000383, -0.2362080495122504 
4.090000000003807, -0.2360035373016276 
4.100000000003783, -0.23582381861992477 
4.11000000000376, -0.23567018668002948 
4.120000000003737, -0.23554495609987383 
4.130000000003713, -0.23545116372274796 
4.14000000000369, -0.23539197594787126 
4.150000000003667, -0.23536969634586904 
4.1600000000036434, -0.23538436049532724 
4.17000000000362, -0.2354321567298659 
4.180000000003597, -0.23550429402845313 
4.1900000000035735, -0.23558720270262565 
4.20000000000355, -0.23566465792263286 
4.210000000003527, -0.23572137846812535 
4.220000000003504, -0.23574652107923572 
4.23000000000348, -0.23573539056783704 
4.240000000003457, -0.235688865238538 
4.250000000003434, -0.23561139436428663 
4.26000000000341, -0.23550884484535492 
4.270000000003387, -0.23538699363818782 
4.280000000003364, -0.2352508062790984 
4.2900000000033405, -0.23510428396481559 
4.300000000003317, -0.23495061023481228 
4.310000000003294, -0.23479241145034296 
4.320000000003271, -0.23463203543454014 
4.330000000003247, -0.2344718040728059 
4.340000000003224, -0.23431420739504039 
4.350000000003201, -0.23416199255223064 
4.360000000003177, -0.23401808135078497 
4.370000000003154, -0.23388525154015993 
4.380000000003131, -0.23376556801599394 
4.390000000003107, -0.23365966077973055 
4.400000000003084, -0.23356608377237564 
4.410000000003061, -0.23348106788712092 
4.4200000000030375, -0.23339890413800918 
4.430000000003014, -0.2333129350485666 
4.440000000002991, -0.23321681891628382 
4.450000000002968, -0.23310558226949 
4.460000000002944, -0.23297611015815814 
4.470000000002921, -0.2328270316301039 
4.480000000002898, -0.2326582104364982 
4.490000000002874, -0.2324701197241667 
4.500000000002851, -0.23226330383062327 
4.510000000002828, -0.23203801970248666 
4.520000000002804, -0.23179407824817386 
4.530000000002781, -0.2315308846874128 
4.540000000002758, -0.2312476831368057 
4.5500000000027345, -0.23094400894625414 
4.560000000002711, -0.23062030880425494 
4.570000000002688, -0.23027858898870082 
4.580000000002665, -0.22992283307622907 
4.590000000002641, -0.2295588946563138 
4.600000000002618, -0.22919372461825832 
4.610000000002595, -0.22883411330976253 
4.620000000002571, -0.2284854105117336 
4.630000000002548, -0.22815070679637683 
4.640000000002525, -0.2278307029739029 
4.6500000000025015, -0.2275241615875747 
4.660000000002478, -0.22722863706591379 
4.670000000002455, -0.22694117941948955 
4.6800000000024315, -0.2266588266682347 
4.690000000002408, -0.22637883819716292 
4.700000000002385, -0.22609870982904828 
4.710000000002362, -0.22581603996409272 
4.720000000002338, -0.22552830589442596 
4.730000000002315, -0.22523258963258677 
4.740000000002292, -0.22492528786172264 
4.750000000002268, -0.22460186942014565 
4.760000000002245, -0.22425681666683545 
4.770000000002222, -0.2238839886942449 
4.7800000000021985, -0.223477693072735 
4.790000000002175, -0.22303458001018778 
4.800000000002152, -0.22255593860983042 
4.810000000002129, -0.22204927899540056 
4.820000000002105, -0.22152792182175318 
4.830000000002082, -0.22100826347406075 
4.840000000002059, -0.22050589943476062 
4.850000000002035, -0.22003248205521544 
