t, s[1].omega / s[0].omega 
0, -0.46999776257465936 
0.009999999999999995, -0.46977185329868093 
0.019999999999999934, -0.4695413729190488 
0.029999999999999874, -0.46930558889777474 
0.04000000000000012, -0.469063592622694 
0.050000000000000405, -0.468814600269296 
0.06000000000000069, -0.4685581500279777 
0.07000000000000098, -0.4682941512295944 
0.08000000000000126, -0.4680228199345299 
0.09000000000000155, -0.467744569017594 
0.10000000000000184, -0.46745991042909363 
0.11000000000000212, -0.4671693975777164 
0.12000000000000241, -0.466873607194878 
0.130000000000002, -0.4665731404094994 
0.1400000000000009, -0.46626861269857345 
0.1499999999999998, -0.46596060424864516 
0.1599999999999987, -0.4656495652476312 
0.1699999999999976, -0.4653357256815089 
0.1799999999999965, -0.46501913643457593 
0.1899999999999954, -0.46470000326763194 
0.1999999999999943, -0.46437935529664987 
0.2099999999999932, -0.4640597800845286 
0.2199999999999921, -0.4637456772899459 
0.229999999999991, -0.4634426107885715 
0.2399999999999899, -0.4631559303282241 
0.2499999999999888, -0.4628893767388921 
0.2599999999999877, -0.4626443551603886 
0.2699999999999866, -0.46242005510088785 
0.2799999999999855, -0.4622141255340124 
0.2899999999999844, -0.4620234831082227 
0.2999999999999833, -0.4618449654867736 
0.3099999999999822, -0.4616757328366255 
0.3199999999999811, -0.4615134465807439 
0.32999999999998, -0.461356300873883 
0.3399999999999789, -0.461202979356622 
0.3499999999999778, -0.4610525871040223 
0.35999999999997667, -0.4609045804948244 
0.36999999999997557, -0.46075869100393263 
0.37999999999997447, -0.4606148163218192 
0.38999999999997337, -0.4604728431780809 
0.39999999999997227, -0.46033238590614933 
0.40999999999997117, -0.46019248094205495 
0.41999999999997006, -0.4600513493498134 
0.42999999999996896, -0.45990637209352603 
0.43999999999996786, -0.4597543626039016 
0.44999999999996676, -0.4595920775588643 
0.45999999999996566, -0.45941677075055204 
0.46999999999996456, -0.45922656949843177 
0.47999999999996346, -0.4590205552082341 
0.48999999999996235, -0.4587985762192791 
0.49999999999996125, -0.4585609138219958 
0.5099999999999602, -0.45830792856981484 
0.519999999999959, -0.45803976639857585 
0.529999999999958, -0.457756150577221 
0.5399999999999568, -0.457456253768294 
0.5499999999999557, -0.4571386396259716 
0.5599999999999546, -0.4568012811281267 
0.5699999999999535, -0.45644169837180454 
0.5799999999999524, -0.45605730332896377 
0.5899999999999513, -0.4556460658268729 
0.5999999999999502, -0.4552075625443151 
0.6099999999999491, -0.45474426596071343 
0.619999999999948, -0.4542625924504843 
0.6299999999999469, -0.45377299758784445 
0.6399999999999458, -0.45328864568754296 
0.6499999999999447, -0.45282293839886006 
0.6599999999999436, -0.45238691840642176 
0.6699999999999425, -0.4519876160712516 
0.6799999999999414, -0.4516277713770312 
0.6899999999999403, -0.45130663735862964 
0.6999999999999392, -0.45102124930243204 
0.7099999999999381, -0.4507676407622195 
0.719999999999937, -0.4505417483501395 
0.7299999999999359, -0.4503399641627125 
0.7399999999999348, -0.4501594034864026 
0.7499999999999337, -0.44999797968794814 
0.7599999999999326, -0.44985435970145266 
0.7699999999999315, -0.44972784131887067 
0.7799999999999304, -0.44961816169673813 
0.7899999999999293, -0.44952522233536285 
0.7999999999999282, -0.4494487078442491 
0.8099999999999271, -0.4493875974362823 
0.819999999999926, -0.44933963072635247 
0.8299999999999249, -0.4493008827067726 
0.8399999999999238, -0.44926567308326354 
0.8499999999999227, -0.4492269962128332 
0.8599999999999216, -0.4491774621754561 
0.8699999999999205, -0.4491104672439258 
0.8799999999999194, -0.4490211557621665 
0.8899999999999183, -0.448906832829985 
0.8999999999999172, -0.4487667694829288 
0.9099999999999161, -0.4486015985998538 
0.919999999999915, -0.4484125839493724 
0.9299999999999139, -0.44820097356933564 
0.9399999999999128, -0.4479675273371921 
0.9499999999999117, -0.4477122202629852 
0.9599999999999106, -0.4474340920703276 
0.9699999999999095, -0.4471312282166979 
0.9799999999999084, -0.4468008976037843 
0.9899999999999073, -0.4464399176924784 
0.9999999999999062, -0.44604533977169075 
1.0099999999999052, -0.44561549908109244 
1.019999999999904, -0.4451513084814098 
1.029999999999903, -0.4446574079762433 
1.039999999999902, -0.44414257907461935 
1.0499999999999008, -0.44361895423616005 
1.0599999999998997, -0.4431000879148564 
1.0699999999998986, -0.4425985895328404 
1.0799999999998975, -0.4421242427055542 
1.0899999999998964, -0.4416831847190668 
1.0999999999998953, -0.44127813166255886 
1.1099999999998942, -0.44090924184644786 
1.119999999999893, -0.44057515672270525 
1.129999999999892, -0.4402739145044191 
1.1399999999998909, -0.44000361742064253 
1.1499999999998898, -0.439762855040872 
1.1599999999998887, -0.43955093364453635 
1.1699999999998876, -0.4393679603654134 
1.1799999999998865, -0.4392148063571207 
1.1899999999998854, -0.43909294147152345 
1.1999999999998843, -0.43900410407508283 
1.2099999999998832, -0.4389497559586303 
1.219999999999882, -0.43893029459844535 
1.229999999999881, -0.43894407988456574 
1.2399999999998799, -0.43898648966915077 
1.2499999999998788, -0.43904939623665723 
1.2599999999998777, -0.43912150985653 
1.2699999999998766, -0.43918979781280265 
1.2799999999998755, -0.4392416646168414 
1.2899999999998744, -0.4392670925114267 
1.2999999999998733, -0.439259910756528 
1.3099999999998722, -0.4392178523400908 
1.319999999999871, -0.4391416684151216 
1.32999999999987, -0.4390338690101679 
1.3399999999998689, -0.43889757028993664 
1.3499999999998678, -0.4387356715168006 
1.3599999999998666, -0.4385503742098522 
1.3699999999998655, -0.4383429640442893 
1.3799999999998644, -0.4381137744922191 
1.3899999999998633, -0.4378622903253978 
1.3999999999998622, -0.4375873932026302 
1.4099999999998611, -0.4372877774698371 
1.41999999999986, -0.4369625508698166 
1.429999999999859, -0.43661196431829963 
1.4399999999998578, -0.4362380955939229 
1.4499999999998567, -0.43584520881744204 
1.4599999999998556, -0.435439535920459 
1.4699999999998545, -0.43502844044143546 
1.4799999999998534, -0.43461923169390404 
1.4899999999998523, -0.43421807920332745 
1.4999999999998512, -0.43382939377281804 
1.5099999999998501, -0.43345577401679514 
1.519999999999849, -0.43309837125452344 
1.529999999999848, -0.4327574334100811 
1.5399999999998468, -0.4324328360403773 
1.5499999999998457, -0.4321245078307195 
1.5599999999998446, -0.43183273754465723 
1.5699999999998435, -0.43155838564645066 
1.5799999999998424, -0.43130302411717547 
1.5899999999998413, -0.43106900730932746 
1.5999999999998402, -0.4308594457063261 
1.6099999999998391, -0.4306780202259678 
1.619999999999838, -0.43052854819744707 
1.629999999999837, -0.430414217655225 
1.6399999999998358, -0.430336484987374 
1.6499999999998347, -0.43029381916215154 
1.6599999999998336, -0.43028074390782234 
1.6699999999998325, -0.4302878032343839 
1.6799999999998314, -0.4303028756593796 
1.6899999999998303, -0.4303135894042315 
1.6999999999998292, -0.43030984773192194 
1.709999999999828, -0.43028534422320597 
1.719999999999827, -0.4302376175857522 
1.729999999999826, -0.4301670522122576 
1.7399999999998248, -0.43007558310575433 
1.7499999999998237, -0.42996565205039855 
1.7599999999998226, -0.4298395802483735 
1.7699999999998215, -0.4296992805212675 
1.7799999999998204, -0.42954617213717705 
1.7899999999998193, -0.4293811963016692 
1.7999999999998182, -0.42920488310990484 
1.809999999999817, -0.429017458832109 
1.819999999999816, -0.4288189996830865 
1.8299999999998149, -0.42860963496491244 
1.8399999999998138, -0.4283897789355063 
1.8499999999998127, -0.42816033255859554 
1.8599999999998116, -0.42792276384948497 
1.8699999999998105, -0.42767898358859624 
1.8799999999998094, -0.42743100656686134 
1.8899999999998083, -0.42718050454700746 
1.8999999999998072, -0.42692843929928037 
1.909999999999806, -0.4266749389690778 
1.919999999999805, -0.42641945338808096 
1.9299999999998039, -0.42616108277691966 
1.9399999999998028, -0.42589891423882803 
1.9499999999998017, -0.42563224243790126 
1.9599999999998006, -0.42536064110303745 
1.9699999999997995, -0.42508392345730145 
1.9799999999997984, -0.42480205303223145 
1.9899999999997973, -0.4245150521049064 
1.9999999999997962, -0.42422292723610894 
2.0099999999998173, -0.4239256071817187 
2.0199999999998384, -0.42362287485246714 
2.0299999999998595, -0.423314275995458 
2.0399999999998806, -0.4229990105881816 
2.0499999999999017, -0.42267586842671384 
2.059999999999923, -0.422343351385415 
2.069999999999944, -0.4220001725782098 
2.079999999999965, -0.4216462149908954 
2.089999999999986, -0.42128368677508615 
2.100000000000007, -0.4209178024435478 
2.1100000000000283, -0.4205563073067501 
2.1200000000000494, -0.42020780190142554 
2.1300000000000705, -0.419879652496917 
2.1400000000000916, -0.41957651125286627 
2.1500000000001127, -0.4192999542118277 
2.160000000000134, -0.4190490490011589 
2.170000000000155, -0.41882132951401996 
2.180000000000176, -0.4186137273743908 
2.190000000000197, -0.4184232434084233 
2.2000000000002182, -0.41824733386947066 
2.2100000000002393, -0.4180840771978237 
2.2200000000002604, -0.4179322027200941 
2.2300000000002815, -0.41779104219712215 
2.2400000000003026, -0.4176604338410989 
2.2500000000003237, -0.4175405777012665 
2.260000000000345, -0.41743181758108605 
2.270000000000366, -0.41733431767493584 
2.280000000000387, -0.4172476270202036 
2.290000000000408, -0.4171701921388661 
2.3000000000004293, -0.4170989715780055 
2.3100000000004504, -0.41702936549483927 
2.3200000000004715, -0.4169556183194367 
2.3300000000004926, -0.41687165737806514 
2.3400000000005137, -0.4167720924563749 
2.3500000000005348, -0.41665299466939665 
2.360000000000556, -0.41651218939889756 
2.370000000000577, -0.4163490468628102 
2.380000000000598, -0.4161639537776489 
2.390000000000619, -0.4159576989556106 
2.4000000000006403, -0.4157309367181334 
2.4100000000006614, -0.415483793897237 
2.4200000000006825, -0.4152156213140107 
2.4300000000007036, -0.4149248744740546 
2.4400000000007247, -0.4146091301610263 
2.450000000000746, -0.41426528819113084 
2.460000000000767, -0.41389004802600615 
2.470000000000788, -0.41348074964464426 
2.480000000000809, -0.4130365709257989 
2.49000000000083, -0.4125598454359147 
2.5000000000008513, -0.41205698236652133 
2.5100000000008724, -0.4115383741351395 
2.5200000000008935, -0.41101700943706837 
2.5300000000009146, -0.41050618221222396 
2.5400000000009357, -0.41001720858877205 
2.550000000000957, -0.4095580011594314 
2.560000000000978, -0.4091328006558343 
2.570000000000999, -0.4087428052384882 
2.58000000000102, -0.40838720550489427 
2.5900000000010412, -0.4080642137984195 
2.6000000000010624, -0.4077718763498277 
2.6100000000010835, -0.4075086233860502 
2.6200000000011046, -0.4072735969574984 
2.6300000000011257, -0.4070668141571702 
2.6400000000011468, -0.40688920445183074 
2.650000000001168, -0.4067425257014129 
2.660000000001189, -0.40662912635930226 
2.67000000000121, -0.4065514919710861 
2.680000000001231, -0.4065115109504619 
2.6900000000012523, -0.40650944890414065 
2.7000000000012734, -0.40654276460700745 
2.7100000000012945, -0.40660512414437805 
2.7200000000013156, -0.40668615736877844 
2.7300000000013367, -0.4067724294476019 
2.740000000001358, -0.4068496143088313 
2.750000000001379, -0.40690515342737016 
2.7600000000014, -0.40693031154208936 
2.770000000001421, -0.406920878909976 
2.780000000001442, -0.4068765478990217 
2.7900000000014633, -0.406799573208761 
2.8000000000014844, -0.4066933856289787 
2.8100000000015055, -0.4065615452655809 
2.8200000000015266, -0.40640711486289194 
2.8300000000015477, -0.4062323701499385 
2.840000000001569, -0.4060387328991967 
2.85000000000159, -0.40582684646065725 
2.860000000001611, -0.4055967603227793 
2.870000000001632, -0.40534822243239355 
2.8800000000016532, -0.40508108099075535 
2.8900000000016743, -0.4047957622449033 
2.9000000000016954, -0.40449372220296514 
2.9100000000017165, -0.40417770376180223 
2.9200000000017377, -0.40385163222200215 
2.9300000000017588, -0.40352010088197143 
2.94000000000178, -0.4031875964282694 
2.950000000001801, -0.4028577603733671 
2.960000000001822, -0.4025329613152124 
2.970000000001843, -0.4022142782977133 
2.9800000000018643, -0.4019017998099696 
2.9900000000018854, -0.4015950478191332 
3.0000000000019065, -0.40129336255419085 
3.0100000000019276, -0.4009961706303611 
3.0200000000019487, -0.4007031368719258 
3.03000000000197, -0.40041423676729754 
3.040000000001991, -0.40012978591111537 
3.050000000002012, -0.3998504424189929 
3.060000000002033, -0.39957717215224 
3.070000000002054, -0.39931114257793004 
3.0800000000020753, -0.3990534973351504 
3.0900000000020964, -0.3988049766230216 
3.1000000000021175, -0.3985654147913495 
3.1100000000021386, -0.3983332821861008 
3.1200000000021597, -0.3981055957216856 
3.130000000002181, -0.39787853968404185 
3.140000000002202, -0.39764881826036513 
3.150000000002223, -0.39741516508423 
3.160000000002244, -0.39717907608318886 
3.1700000000022652, -0.39694423135131707 
3.1800000000022863, -0.3967149876109904 
3.1900000000023074, -0.3964948822628371 
3.2000000000023285, -0.396285851386042 
3.2100000000023496, -0.39608824273351584 
3.2200000000023707, -0.3959012936830185 
3.230000000002392, -0.3957237053997825 
3.240000000002413, -0.3955540999779193 
3.250000000002434, -0.3953913045408337 
3.260000000002455, -0.39523449183117265 
3.2700000000024763, -0.395083229582682 
3.2800000000024974, -0.39493747997719353 
3.2900000000025185, -0.39479756630108354 
3.3000000000025396, -0.3946640966081993 
3.3100000000025607, -0.3945378112092992 
3.3200000000025818, -0.3944193145109431 
3.330000000002603, -0.39430867971118355 
3.340000000002624, -0.3942049868726626 
3.350000000002645, -0.39410594930877246 
3.360000000002666, -0.39400783550046214 
3.3700000000026873, -0.39390582911158145 
3.3800000000027084, -0.39379477871486984 
3.3900000000027295, -0.3936700764045326 
3.4000000000027506, -0.3935283263824884 
3.4100000000027717, -0.3933675834087839 
3.420000000002793, -0.3931871605853294 
3.430000000002814, -0.39298717008270023 
3.440000000002835, -0.392767993770755 
3.450000000002856, -0.392529818921483 
3.460000000002877, -0.39227229318220413 
3.4700000000028983, -0.39199430298384 
3.4800000000029194, -0.39169387228119606 
3.4900000000029405, -0.39136820508040643 
3.5000000000029616, -0.3910139392472408 
3.5100000000029827, -0.3906277140924544 
3.520000000003004, -0.39020713275382096 
3.530000000003025, -0.3897520609626858 
3.540000000003046, -0.3892659306428417 
3.550000000003067, -0.3887564421136939 
3.5600000000030882, -0.3882350703738462 
3.5700000000031094, -0.38771527112140636 
3.5800000000031305, -0.38721000874780115 
3.5900000000031516, -0.38672961448618104 
3.6000000000031727, -0.3862807130028416 
3.6100000000031938, -0.38586631439618646 
3.620000000003215, -0.38548667227064376 
3.630000000003236, -0.3851403929594995 
3.640000000003257, -0.3848254344521189 
3.650000000003278, -0.38453984554120624 
3.6600000000032993, -0.38428224213364354 
3.6700000000033204, -0.3840520778979728 
3.6800000000033415, -0.38384976721321845 
3.6900000000033626, -0.38367668969474333 
3.7000000000033837, -0.38353506599284315 
3.710000000003405, -0.3834276547883696 
3.720000000003426, -0.3833571937675486 
3.730000000003447, -0.38332551788583197 
3.740000000003468, -0.38333237561913447 
3.750000000003489, -0.38337415872393066 
3.7600000000035103, -0.3834430230603365 
3.7700000000035314, -0.3835270274057071 
3.7800000000035525, -0.3836116852316386 
3.7900000000035736, -0.3836826348275809 
3.8000000000035947, -0.38372839275622084 
3.810000000003616, -0.38374202548563346 
3.820000000003637, -0.3837212369799976 
3.830000000003658, -0.383667248775089 
3.840000000003679, -0.38358326211935645 
3.8500000000037002, -0.3834731319290136 
3.8600000000037213, -0.38334050158292354 
3.8700000000037424, -0.3831883663735729 
3.8800000000037635, -0.38301893176604784 
3.8900000000037847, -0.3828336460017775 
3.9000000000038058, -0.38263333714604447 
3.910000000003827, -0.38241842862453124 
3.920000000003848, -0.38218922732251503 
3.930000000003869, -0.3819462679992406 
3.94000000000389, -0.38169065810881053 
3.9500000000039113, -0.38142431550562284 
3.9600000000039324, -0.3811499690123717 
3.9700000000039535, -0.38087084572726954 
3.9800000000039746, -0.3805901046262371 
3.9900000000039957, -0.3803102216013391 
4.000000000004016, -0.3800325770106474 
4.010000000003993, -0.37975739562170363 
4.02000000000397, -0.3794840083301487 
4.030000000003946, -0.3792112686541755 
4.040000000003923, -0.37893793732740066 
4.0500000000039, -0.37866292330487034 
4.0600000000038765, -0.378385365802945 
4.070000000003853, -0.37810460222587944 
4.08000000000383, -0.3778200786088025 
4.090000000003807, -0.3775312407523273 
4.100000000003783, -0.37723741848673603 
4.11000000000376, -0.3769376972763183 
4.120000000003737, -0.3766307691137397 
4.130000000003713, -0.3763147772536002 
4.14000000000369, -0.37598722711224297 
4.150000000003667, -0.3756451248289464 
4.1600000000036434, -0.3752855710334511 
4.17000000000362, -0.3749069494654743 
4.180000000003597, -0.3745104826857826 
4.1900000000035735, -0.3741014016615011 
4.20000000000355, -0.37368879755261075 
4.210000000003527, -0.37328384225164163 
4.220000000003504, -0.37289713654433243 
4.23000000000348, -0.37253649213799944 
4.240000000003457, -0.3722060111188035 
4.250000000003434, -0.3719064426820375 
4.26000000000341, -0.37163623994557354 
4.270000000003387, -0.37139271810288055 
4.280000000003364, -0.37117297234457924 
4.2900000000033405, -0.37097446720701505 
4.300000000003317, -0.37079534734587954 
4.310000000003294, -0.37063455702184245 
4.320000000003271, -0.37049183880882347 
4.330000000003247, -0.37036764606517314 
4.340000000003224, -0.37026296588095464 
4.350000000003201, -0.37017901884770976 
4.360000000003177, -0.3701167909124224 
4.370000000003154, -0.3700763801048125 
4.380000000003131, -0.3700562264905821 
4.390000000003107, -0.37005243090465423 
4.400000000003084, -0.37005849002491675 
4.410000000003061, -0.370065755553812 
4.4200000000030375, -0.37006466861835413 
4.430000000003014, -0.3700464118906469 
4.440000000002991, -0.37000434646211805 
4.450000000002968, -0.36993470314595117 
4.460000000002944, -0.3698364085048365 
4.470000000002921, -0.369710320585691 
4.480000000002898, -0.369558284623691 
4.490000000002874, -0.3693823142926048 
4.500000000002851, -0.36918402429852837 
4.510000000002828, -0.36896431228092 
4.520000000002804, -0.36872324322706157 
4.530000000002781, -0.3684601027911164 
4.540000000002758, -0.36817362117533475 
4.5500000000027345, -0.3678623952755977 
4.560000000002711, -0.36752552390418425 
4.570000000002688, -0.36716339385625524 
4.580000000002665, -0.36677841853255455 
4.590000000002641, -0.3663754090867434 
4.600000000002618, -0.3659612831165955 
4.610000000002595, -0.36554406711887444 
4.620000000002571, -0.36513151368241553 
4.630000000002548, -0.36472986679685476 
4.640000000002525, -0.3643432000352824 
4.6500000000025015, -0.3639734258356674 
4.660000000002478, -0.36362078139348564 
4.670000000002455, -0.3632844943432594 
4.6800000000024315, -0.36296339729339794 
4.690000000002408, -0.3626563856719428 
4.700000000002385, -0.36236271229327893 
4.710000000002362, -0.36208215679062705 
4.720000000002338, -0.3618151089785456 
4.730000000002315, -0.36156258204687036 
4.740000000002292, -0.3613261387452671 
4.750000000002268, -0.3611076809066576 
4.760000000002245, -0.36090903275472375 
4.770000000002222, -0.3607312679082614 
4.7800000000021985, -0.36057382938061255 
4.790000000002175, -0.36043369522960894 
4.800000000002152, -0.3603050791574689 
4.810000000002129, -0.3601801906805505 
4.820000000002105, -0.36005113828793284 
4.830000000002082, -0.35991223501193115 
4.840000000002059, -0.35976145609796306 
4.850000000002035, -0.3596002683972873 
4.860000000002012, -0.35943216988154597 
