t, s[1].omega / s[0].omega 
0, -3.4499947274588187 
0.009999999999999995, -3.4493683175278136 
0.019999999999999934, -3.4485608085394155 
0.029999999999999874, -3.4477401225256763 
0.04000000000000012, -3.4472322132245616 
0.050000000000000405, -3.4469362006506605 
0.06000000000000069, -3.446557423567306 
0.07000000000000098, -3.4460406268417323 
0.08000000000000126, -3.445436751791256 
0.09000000000000155, -3.444833374244678 
0.10000000000000184, -3.444311247802683 
0.11000000000000212, -3.443854164902723 
0.12000000000000241, -3.4433614841135567 
0.130000000000002, -3.442772156204952 
0.1400000000000009, -3.442123309588021 
0.1499999999999998, -3.441586508603339 
0.1599999999999987, -3.4412338950304977 
0.1699999999999976, -3.4408932159021517 
0.1799999999999965, -3.440431301764974 
0.1899999999999954, -3.439793591059954 
0.1999999999999943, -3.438958780377239 
0.2099999999999932, -3.4381105297816985 
0.2199999999999921, -3.4376707158313344 
0.229999999999991, -3.43749682204336 
0.2399999999999899, -3.4372000293513225 
0.2499999999999888, -3.436714151441316 
0.2599999999999877, -3.436083472932971 
0.2699999999999866, -3.435386797356027 
0.2799999999999855, -3.4347757902952623 
0.2899999999999844, -3.4343250898242674 
0.2999999999999833, -3.433896101241416 
0.3099999999999822, -3.4333812156050643 
0.3199999999999811, -3.432790884912754 
0.32999999999998, -3.432221314916789 
0.3399999999999789, -3.431754295226143 
0.3499999999999778, -3.43133783116208 
0.35999999999997667, -3.4308705945043436 
0.36999999999997557, -3.430279306481482 
0.37999999999997447, -3.429534182686228 
0.38999999999997337, -3.4287799525293594 
0.39999999999997227, -3.4283674446435084 
0.40999999999997117, -3.4281973877868714 
0.41999999999997006, -3.4279188336109434 
0.42999999999996896, -3.427441650592545 
0.43999999999996786, -3.4267758697622055 
0.44999999999996676, -3.425968992349754 
0.45999999999996566, -3.425238271820903 
0.46999999999996456, -3.4248058125807552 
0.47999999999996346, -3.4244754695745803 
0.48999999999996235, -3.42404143055034 
0.49999999999996125, -3.423492641301201 
0.5099999999999602, -3.42289360705916 
0.519999999999959, -3.422334090893327 
0.529999999999958, -3.4218554325000854 
0.5399999999999568, -3.42139986511527 
0.5499999999999557, -3.4208760417493913 
0.5599999999999546, -3.4202447047905187 
0.5699999999999535, -3.419582226683487 
0.5799999999999524, -3.4191047745144614 
0.5899999999999513, -3.4188162764885903 
0.5999999999999502, -3.418490809049312 
0.6099999999999491, -3.4180130256535923 
0.619999999999948, -3.4173449867083363 
0.6299999999999469, -3.416486454164226 
0.6399999999999458, -3.415667339337451 
0.6499999999999447, -3.4152641709833857 
0.6599999999999436, -3.4150604247213736 
0.6699999999999425, -3.414723628149597 
0.6799999999999414, -3.4142175876005956 
0.6899999999999403, -3.4135939051834776 
0.6999999999999392, -3.41293949690762 
0.7099999999999381, -3.4123791801224024 
0.719999999999937, -3.4119346490752136 
0.7299999999999359, -3.4114804542015564 
0.7399999999999348, -3.4109386908024697 
0.7499999999999337, -3.4103343772225365 
0.7599999999999326, -3.4097863971500737 
0.7699999999999315, -3.4093657270708255 
0.7799999999999304, -3.4089782848992676 
0.7899999999999293, -3.4085127437393936 
0.7999999999999282, -3.407902460300511 
0.8099999999999271, -3.407119234236373 
0.819999999999926, -3.4063254536496843 
0.8299999999999249, -3.4059122827431842 
0.8399999999999238, -3.4057644495085584 
0.8499999999999227, -3.4055004185745994 
0.8599999999999216, -3.4050353873069894 
0.8699999999999205, -3.4043953198503774 
0.8799999999999194, -3.4036387120298386 
0.8899999999999183, -3.402948581385118 
0.8999999999999172, -3.4024962188951102 
0.9099999999999161, -3.4021285819885208 
0.919999999999915, -3.4016744655472424 
0.9299999999999139, -3.401120992018523 
0.9399999999999128, -3.4005355408199662 
0.9499999999999117, -3.400008005557172 
0.9599999999999106, -3.3995549375416116 
0.9699999999999095, -3.399105177890541 
0.9799999999999084, -3.398573982444323 
0.9899999999999073, -3.3979187702939475 
0.9999999999999062, -3.397211574465529 
1.0099999999999052, -3.396716743773735 
1.019999999999904, -3.3964769792397886 
1.029999999999903, -3.3962091893439608 
1.039999999999902, -3.395773135340329 
1.0499999999999008, -3.39514513308166 
1.0599999999998997, -3.394329352885717 
1.0699999999998986, -3.393494014037754 
1.0799999999998975, -3.3929929459831776 
1.0899999999998964, -3.3927352711616185 
1.0999999999998953, -3.3923966385284645 
1.1099999999998942, -3.3919083626497497 
1.119999999999893, -3.391316149853607 
1.129999999999892, -3.3907010429607816 
1.1399999999998909, -3.3901584542074206 
1.1499999999998898, -3.3897048974292856 
1.1599999999998887, -3.389243053804603 
1.1699999999998876, -3.3886952171476397 
1.1799999999998865, -3.388071573881704 
1.1899999999998854, -3.3875034474142476 
1.1999999999998843, -3.387108568097127 
1.2099999999998832, -3.3867751154757975 
1.219999999999882, -3.3863568669526023 
1.229999999999881, -3.3857852558784183 
1.2399999999998799, -3.3850217350552505 
1.2499999999998788, -3.384149470212693 
1.2599999999998777, -3.3835631570301112 
1.2699999999998766, -3.3833715904006554 
1.2799999999998755, -3.383159759790302 
1.2899999999998744, -3.3827567111043804 
1.2999999999998733, -3.382186289820498 
1.3099999999998722, -3.381504608793036 
1.319999999999871, -3.380832233887438 
1.32999999999987, -3.3803209005397035 
1.3399999999998689, -3.3799176507468216 
1.3499999999998678, -3.3794657152915706 
1.3599999999998666, -3.3789204336937244 
1.3699999999998655, -3.378334845090952 
1.3799999999998644, -3.3778148218271995 
1.3899999999998633, -3.3773869601816804 
1.3999999999998622, -3.376968282416996 
1.4099999999998611, -3.3764687060906646 
1.41999999999986, -3.375829707305221 
1.429999999999859, -3.3750602883834615 
1.4399999999998578, -3.374403920913842 
1.4499999999998567, -3.3741243604978344 
1.4599999999998556, -3.3739551623485626 
1.4699999999998545, -3.3736276467380124 
1.4799999999998534, -3.3731055645237626 
1.4899999999998523, -3.3724039290424175 
1.4999999999998512, -3.371597444534043 
1.5099999999998501, -3.3709387955929118 
1.519999999999849, -3.37056246712715 
1.529999999999848, -3.3702268290923776 
1.5399999999998468, -3.369777159427745 
1.5499999999998457, -3.369223391444785 
1.5599999999998446, -3.3686359407664375 
1.5699999999998435, -3.368100331171907 
1.5799999999998424, -3.367641316958572 
1.5899999999998413, -3.3671916470052325 
1.5999999999998402, -3.366665861956836 
1.6099999999998391, -3.366031439711777 
1.619999999999838, -3.3653742158719657 
1.629999999999837, -3.3649163786049976 
1.6399999999998358, -3.364650988140825 
1.6499999999998347, -3.3643451735772816 
1.6599999999998336, -3.3638850213465252 
1.6699999999998325, -3.363237030892376 
1.6799999999998314, -3.3623993980922933 
1.6899999999998303, -3.361569577243034 
1.6999999999998292, -3.3611224056258244 
1.709999999999828, -3.360912483706401 
1.719999999999827, -3.360598367001238 
1.729999999999826, -3.3601206295607966 
1.7399999999998248, -3.359525679282675 
1.7499999999998237, -3.358891821198765 
1.7599999999998226, -3.358329506690314 
1.7699999999998215, -3.3578787503058765 
1.7799999999998204, -3.3574375697220007 
1.7899999999998193, -3.356916752442841 
1.7999999999998182, -3.356318751087811 
1.809999999999817, -3.355750134844753 
1.819999999999816, -3.3553241510867897 
1.8299999999998149, -3.354970204404996 
1.8399999999998138, -3.3545570710292028 
1.8499999999998127, -3.354009511381327 
1.8599999999998116, -3.3532829650463265 
1.8699999999998105, -3.3524339562943775 
1.8799999999998094, -3.3518202518655307 
1.8899999999998083, -3.35162016613875 
1.8999999999998072, -3.351443930399771 
1.909999999999806, -3.351079134554636 
1.919999999999805, -3.350534140369267 
1.9299999999998039, -3.349853598953623 
1.9399999999998028, -3.3491430904357484 
1.9499999999998017, -3.348588322923564 
1.9599999999998006, -3.3481955057456374 
1.9699999999997995, -3.347784308534866 
1.9799999999997984, -3.3472762300522603 
1.9899999999997973, -3.34670185277434 
1.9999999999997962, -3.3461539781700695 
2.0099999999998173, -3.345695073023483 
2.0199999999998384, -3.3452788784642005 
2.0299999999998595, -3.344815516043925 
2.0399999999998806, -3.3442363740399133 
2.0499999999999017, -3.343520551087117 
2.059999999999923, -3.342814875236744 
2.069999999999944, -3.3424263013607094 
2.079999999999965, -3.3422556001638517 
2.089999999999986, -3.34198863980656 
2.100000000000007, -3.341533516581451 
2.1100000000000283, -3.3408909524391737 
2.1200000000000494, -3.3400926571489427 
2.1300000000000705, -3.3393303631768503 
2.1400000000000916, -3.3388715371564475 
2.1500000000001127, -3.33857537740347 
2.160000000000134, -3.3381948519918367 
2.170000000000155, -3.3376895367698913 
2.180000000000176, -3.337109232699582 
2.190000000000197, -3.336538022358776 
2.2000000000002182, -3.3360433382121615 
2.2100000000002393, -3.3356050898936545 
2.2200000000002604, -3.335133476021837 
2.2300000000002815, -3.3345647166238033 
2.2400000000003026, -3.3339129703748127 
2.2500000000003237, -3.3333398389784668 
2.260000000000345, -3.332995776645066 
2.270000000000366, -3.332728231848751 
2.280000000000387, -3.3323558777830655 
2.290000000000408, -3.3318165447777295 
2.3000000000004293, -3.331082205774142 
2.3100000000004504, -3.3302054964064434 
2.3200000000004715, -3.3295178283494664 
2.3300000000004926, -3.3292382462141794 
2.3400000000005137, -3.3290241871009414 
2.3500000000005348, -3.3286519444085316 
2.360000000000556, -3.3281276729946363 
2.370000000000577, -3.327508280259599 
2.380000000000598, -3.3268862112219586 
2.390000000000619, -3.3263689329296158 
2.4000000000006403, -3.325943216159911 
2.4100000000006614, -3.3254898149012 
2.4200000000006825, -3.3249480566784184 
2.4300000000007036, -3.3243510966320238 
2.4400000000007247, -3.32382473535177 
2.450000000000746, -3.323435406919556 
2.460000000000767, -3.3230778497072784 
2.470000000000788, -3.3226382310757443 
2.480000000000809, -3.3220530297823574 
2.49000000000083, -3.3212882501000487 
2.5000000000008513, -3.320460934043916 
2.5100000000008724, -3.3199631872262336 
2.5200000000008935, -3.319812652626562 
2.5300000000009146, -3.3196078839487284 
2.5400000000009357, -3.3192091674517172 
2.550000000000957, -3.3186392166406216 
2.560000000000978, -3.317947037498923 
2.570000000000999, -3.3172555438992495 
2.58000000000102, -3.316740663811681 
2.5900000000010412, -3.3163613884390584 
2.6000000000010624, -3.315942784193136 
2.6100000000010835, -3.315427396087304 
2.6200000000011046, -3.314855727098211 
2.6300000000011257, -3.314323009325256 
2.6400000000011468, -3.3138795976442488 
2.650000000001168, -3.3134695969374355 
2.660000000001189, -3.3130042954803196 
2.67000000000121, -3.312418969478596 
2.680000000001231, -3.311698024689048 
2.6900000000012523, -3.3110015204976273 
2.7000000000012734, -3.3106330995881814 
2.7100000000012945, -3.310473580343789 
2.7200000000013156, -3.31021217484325 
2.7300000000013367, -3.309762851651913 
2.740000000001358, -3.3091291381011247 
2.750000000001379, -3.308343939816941 
2.7600000000014, -3.3075889960216314 
2.770000000001421, -3.3071224397893153 
2.780000000001442, -3.30682257222817 
2.7900000000014633, -3.306447890372998 
2.8000000000014844, -3.3059518232592944 
2.8100000000015055, -3.3053806372352144 
2.8200000000015266, -3.3048166848980793 
2.8300000000015477, -3.304326652616478 
2.840000000001569, -3.3038938658151786 
2.85000000000159, -3.3034327396515772 
2.860000000001611, -3.302876139364048 
2.870000000001632, -3.302225096957156 
2.8800000000016532, -3.3016253076852373 
2.8900000000016743, -3.3012642571864874 
2.9000000000016954, -3.301020942972874 
2.9100000000017165, -3.300687761033399 
2.9200000000017377, -3.300190708222229 
2.9300000000017588, -3.2995036104169757 
2.94000000000178, -3.2986493777754 
2.950000000001801, -3.297886016665997 
2.960000000001822, -3.2975211037962984 
2.970000000001843, -3.297314030443512 
2.9800000000018643, -3.29698095913821 
2.9900000000018854, -3.2964943493738126 
3.0000000000019065, -3.2959041862041083 
3.0100000000019276, -3.2952906891655678 
3.0200000000019487, -3.2947552292641107 
3.03000000000197, -3.2943191802184715 
3.040000000001991, -3.293882177298189 
3.050000000002012, -3.293364230694965 
3.060000000002033, -3.2927696059940823 
3.070000000002054, -3.2922071349446407 
3.0800000000020753, -3.291797605448695 
3.0900000000020964, -3.291469796239285 
3.1000000000021175, -3.291084419277696 
3.1100000000021386, -3.290565453927221 
3.1200000000021597, -3.289868449071298 
3.130000000002181, -3.289019852393099 
3.140000000002202, -3.2883232328588408 
3.150000000002223, -3.2880622616314397 
3.160000000002244, -3.2879169559814203 
3.1700000000022652, -3.287607655843361 
3.1800000000022863, -3.287118676900916 
3.1900000000023074, -3.286493500280733 
3.2000000000023285, -3.2858110038672095 
3.2100000000023496, -3.285222573312184 
3.2200000000023707, -3.2847979965608785 
3.230000000002392, -3.2844025361804574 
3.240000000002413, -3.2839267810109014 
3.250000000002434, -3.283370394557555 
3.260000000002455, -3.2828123248922636 
3.2700000000024763, -3.2823465979331687 
3.2800000000024974, -3.281954744233945 
3.2900000000025185, -3.281542511976734 
3.3000000000025396, -3.2810310325000716 
3.3100000000025607, -3.2803714415478256 
3.3200000000025818, -3.279595453165979 
3.330000000002603, -3.278981693357288 
3.340000000002624, -3.278751076852952 
3.350000000002645, -3.278603796135247 
3.360000000002666, -3.2782924940618785 
3.3700000000026873, -3.2777922263267754 
3.3800000000027084, -3.277124828862159 
3.3900000000027295, -3.2763598164121968 
3.4000000000027506, -3.2757083530405 
3.4100000000027717, -3.2753093459873015 
3.420000000002793, -3.274975488531632 
3.430000000002814, -3.274548224833347 
3.440000000002835, -3.2740207305075044 
3.450000000002856, -3.273454634381389 
3.460000000002877, -3.2729354868294984 
3.4700000000028983, -3.2724928515587033 
3.4800000000029194, -3.272070465251469 
3.4900000000029405, -3.2715849281605762 
3.5000000000029616, -3.270984493305002 
3.5100000000029827, -3.2702946204407715 
3.520000000003004, -3.269722651900307 
3.530000000003025, -3.2694414368392914 
3.540000000003046, -3.269240580866717 
3.550000000003067, -3.2689100541587357 
3.5600000000030882, -3.2684009993864485 
3.5700000000031094, -3.267704852373754 
3.5800000000031305, -3.266869694907475 
3.5900000000031516, -3.2661562701592706 
3.6000000000031727, -3.26579364708783 
3.6100000000031938, -3.2655409990081665 
3.620000000003215, -3.265172436752865 
3.630000000003236, -3.264672988800586 
3.640000000003257, -3.2640957327052957 
3.650000000003278, -3.263522634045015 
3.6600000000032993, -3.2630282425682338 
3.6700000000033204, -3.2626010969677544 
3.6800000000033415, -3.2621497378821878 
3.6900000000033626, -3.261608960876778 
3.7000000000033837, -3.2609885206221962 
3.710000000003405, -3.2604230987753082 
3.720000000003426, -3.260057317250218 
3.730000000003447, -3.259783647553391 
3.740000000003468, -3.259431582631742 
3.750000000003489, -3.2589290771332555 
3.7600000000035103, -3.2582412341865306 
3.7700000000035314, -3.2573874535161003 
3.7800000000035525, -3.2566350637146173 
3.7900000000035736, -3.2563010147429514 
3.8000000000035947, -3.2561325202361937 
3.810000000003616, -3.255830569520653 
3.820000000003637, -3.2553634596424117 
3.830000000003658, -3.2547775406838406 
3.840000000003679, -3.2541472643253164 
3.8500000000037002, -3.253586075087597 
3.8600000000037213, -3.253147433645766 
3.8700000000037424, -3.252734887989148 
3.8800000000037635, -3.2522510609545767 
3.8900000000037847, -3.251685096888605 
3.9000000000038058, -3.251117627949037 
3.910000000003827, -3.2506703010261915 
3.920000000003848, -3.250323271335674 
3.930000000003869, -3.249953278228863 
3.94000000000389, -3.2494741700056586 
3.9500000000039113, -3.248834910673909 
3.9600000000039324, -3.2480294617523042 
3.9700000000039535, -3.247273518388968 
3.9800000000039746, -3.246926258619174 
3.9900000000039957, -3.2468070995803457 
4.000000000004016, -3.2465665685143614 
4.010000000003993, -3.2461372014718295 
4.02000000000397, -3.245551629228468 
4.030000000003946, -3.2448664878228044 
4.040000000003923, -3.2442154399462035 
4.0500000000039, -3.243742489236664 
4.0600000000038765, -3.2433718001631653 
4.070000000003853, -3.242949537280951 
4.08000000000383, -3.242434669081478 
4.090000000003807, -3.2418728060265765 
4.100000000003783, -3.241361097359362 
4.11000000000376, -3.2409424370093793 
4.120000000003737, -3.2405526499044086 
4.130000000003713, -3.2401036690692337 
4.14000000000369, -3.2395327477946196 
4.150000000003667, -3.2388164093952456 
4.1600000000036434, -3.2380869105467154 
4.17000000000362, -3.2376711077743137 
4.180000000003597, -3.2375308031354977 
4.1900000000035735, -3.2373269782497665 
4.20000000000355, -3.236937980795907 
4.210000000003527, -3.2363694757489427 
4.220000000003504, -3.2356491477258467 
4.23000000000348, -3.234895535271702 
4.240000000003457, -3.234346806898899 
4.250000000003434, -3.2340119293627523 
4.26000000000341, -3.233665043539422 
4.270000000003387, -3.233209897411964 
4.280000000003364, -3.2326686512738783 
4.2900000000033405, -3.232114476309209 
4.300000000003317, -3.231623796405727 
4.310000000003294, -3.2312010494805135 
4.320000000003271, -3.2307763999782786 
4.330000000003247, -3.2302724907913265 
4.340000000003224, -3.229650770941929 
4.350000000003201, -3.228968882534313 
4.360000000003177, -3.228462741068782 
4.370000000003154, -3.2282299807818653 
4.380000000003131, -3.228023508848275 
4.390000000003107, -3.2276718046998383 
4.400000000003084, -3.2271416394526065 
4.410000000003061, -3.2264281283595615 
4.4200000000030375, -3.2255982715946336 
4.430000000003014, -3.224929261514422 
4.440000000002991, -3.2245966906175667 
4.450000000002968, -3.2243402468054887 
4.460000000002944, -3.2239643231290116 
4.470000000002921, -3.2234639042310915 
4.480000000002898, -3.2228934532359745 
4.490000000002874, -3.2223342770324725 
4.500000000002851, -3.221853876511633 
4.510000000002828, -3.221434434946108 
4.520000000002804, -3.2209872461729736 
4.530000000002781, -3.2204496755064382 
4.540000000002758, -3.2198294348267025 
4.5500000000027345, -3.2192599429537077 
4.560000000002711, -3.2188986919645566 
4.570000000002688, -3.2186455969939103 
4.580000000002665, -3.2183191913820908 
4.590000000002641, -3.217843416611204 
4.600000000002618, -3.2171860971681445 
4.610000000002595, -3.2163539967077277 
4.620000000002571, -3.215563025316097 
4.630000000002548, -3.2151584646949667 
4.640000000002525, -3.2149825626642325 
4.6500000000025015, -3.2147096239938753 
4.660000000002478, -3.2142754093815022 
4.670000000002455, -3.2137199412721005 
4.6800000000024315, -3.2131101214142013 
4.690000000002408, -3.2125454025673834 
4.700000000002385, -3.2120925215589993 
4.710000000002362, -3.2116857473263565 
4.720000000002338, -3.2112227861753446 
4.730000000002315, -3.2106719109512873 
4.740000000002292, -3.2100892912543757 
4.750000000002268, -3.2096116757514785 
4.760000000002245, -3.209273238342449 
4.770000000002222, -3.2089472149871816 
4.7800000000021985, -3.2085261879158486 
4.790000000002175, -3.2079549653895496 
4.800000000002152, -3.207201905054368 
4.810000000002129, -3.206363895881951 
4.820000000002105, -3.2058101233460534 
4.830000000002082, -3.2056400868752357 
4.840000000002059, -3.2054756294015982 
4.850000000002035, -3.205134028467216 
4.860000000002012, -3.2046280790402015 
4.870000000001989, -3.2040050187775484 
4.880000000001965, -3.2033516891540983 
4.890000000001942, -3.2028073102102206 
4.900000000001919, -3.2024037856302137 
4.9100000000018955, -3.202009463593511 
4.920000000001872, -3.201534455361177 
4.930000000001849, -3.2009838620701054 
4.940000000001826, -3.200439825096697 
4.950000000001802, -3.1999980633457232 
4.960000000001779, -3.199634155437608 
4.970000000001756, -3.1992482859325966 
