t, s[1].omega / s[0].omega 
0, -2.6499959926651755 
0.009999999999999995, -2.649509245804135 
0.019999999999999934, -2.6488557622953475 
0.029999999999999874, -2.6480832955988687 
0.04000000000000012, -2.6473643086163046 
0.050000000000000405, -2.646914216003707 
0.06000000000000069, -2.6466940147282836 
0.07000000000000098, -2.6464879128528302 
0.08000000000000126, -2.646183596426016 
0.09000000000000155, -2.6457759240772445 
0.10000000000000184, -2.645304303734881 
0.11000000000000212, -2.6448405976022924 
0.12000000000000241, -2.6444539911372895 
0.130000000000002, -2.644147298074828 
0.1400000000000009, -2.6438609912248348 
0.1499999999999998, -2.643523773351929 
0.1599999999999987, -2.6430794919995044 
0.1699999999999976, -2.642484488317374 
0.1799999999999965, -2.64173221707225 
0.1899999999999954, -2.6409763947624816 
0.1999999999999943, -2.6405612439939903 
0.2099999999999932, -2.6405587913586066 
0.2199999999999921, -2.640630826138018 
0.229999999999991, -2.640541592337911 
0.2399999999999899, -2.6402627673148995 
0.2499999999999888, -2.6398282535106086 
0.2599999999999877, -2.639277987415995 
0.2699999999999866, -2.638673988576035 
0.2799999999999855, -2.6381218721189112 
0.2899999999999844, -2.6377126947659333 
0.2999999999999833, -2.637410154206594 
0.3099999999999822, -2.637100324451874 
0.3199999999999811, -2.636713566987505 
0.32999999999998, -2.636238880564833 
0.3399999999999789, -2.635721689403746 
0.3499999999999778, -2.6352790252966503 
0.35999999999997667, -2.635005141577864 
0.36999999999997557, -2.634838759927611 
0.37999999999997447, -2.634649214769295 
0.38999999999997337, -2.6343538842678047 
0.39999999999997227, -2.63391216139511 
0.40999999999997117, -2.6332921076883427 
0.41999999999997006, -2.63248482926923 
0.42999999999996896, -2.6316137065300587 
0.43999999999996786, -2.6310042662649606 
0.44999999999996676, -2.630811002974528 
0.45999999999996566, -2.630764321887184 
0.46999999999996456, -2.6306148095033843 
0.47999999999996346, -2.630314926073354 
0.48999999999996235, -2.629896419109205 
0.49999999999996125, -2.62940949507297 
0.5099999999999602, -2.6289203062292477 
0.519999999999959, -2.6284924145780093 
0.529999999999958, -2.628143869102945 
0.5399999999999568, -2.6278272002333805 
0.5499999999999557, -2.6274692197290346 
0.5599999999999546, -2.6270164408440353 
0.5699999999999535, -2.626444682465555 
0.5799999999999524, -2.6257999606435476 
0.5899999999999513, -2.625280179746377 
0.5999999999999502, -2.6250884652719186 
0.6099999999999491, -2.6251071736010787 
0.619999999999948, -2.6250779016838366 
0.6299999999999469, -2.6248850996816175 
0.6399999999999458, -2.6245184357201876 
0.6499999999999447, -2.6239889605853604 
0.6599999999999436, -2.6233186963267285 
0.6699999999999425, -2.6225908116825627 
0.6799999999999414, -2.6219867750732475 
0.6899999999999403, -2.6216281928323957 
0.6999999999999392, -2.6214014308052542 
0.7099999999999381, -2.621139828538136 
0.719999999999937, -2.6207820202259895 
0.7299999999999359, -2.620337757424778 
0.7399999999999348, -2.6198589998159827 
0.7499999999999337, -2.619431406800415 
0.7599999999999326, -2.619107257755206 
0.7699999999999315, -2.6188489580685492 
0.7799999999999304, -2.618576663333106 
0.7899999999999293, -2.6182232658227838 
0.7999999999999282, -2.6177397299067353 
0.8099999999999271, -2.617085180904003 
0.819999999999926, -2.616269201741526 
0.8299999999999249, -2.6154937940193546 
0.8399999999999238, -2.6151151622047 
0.8499999999999227, -2.615127423944186 
0.8599999999999216, -2.6151706987352688 
0.8699999999999205, -2.615045339707318 
0.8799999999999194, -2.614742846992432 
0.8899999999999183, -2.614303365565449 
0.8999999999999172, -2.613773653506254 
0.9099999999999161, -2.6132203397910354 
0.919999999999915, -2.6127315219762233 
0.9299999999999139, -2.6123580974521032 
0.9399999999999128, -2.6120501250868244 
0.9499999999999117, -2.6117150939481912 
0.9599999999999106, -2.6112977690037154 
0.9699999999999095, -2.610788570916898 
0.9799999999999084, -2.6102422410256896 
0.9899999999999073, -2.6098061624492535 
0.9999999999999062, -2.609589350005808 
1.0099999999999052, -2.6094954283216065 
1.019999999999904, -2.6093593491543983 
1.029999999999903, -2.609095501295339 
1.039999999999902, -2.6086750185593877 
1.0499999999999008, -2.6080803737592726 
1.0599999999998997, -2.607312903668718 
1.0699999999998986, -2.6064772011782753 
1.0799999999998975, -2.6058407400376487 
1.0899999999998964, -2.605559787528839 
1.0999999999998953, -2.6054377928807755 
1.1099999999998942, -2.6052503533640587 
1.119999999999893, -2.6049375207443908 
1.129999999999892, -2.604520477910044 
1.1399999999998909, -2.6040477931312873 
1.1499999999998898, -2.6035883462321663 
1.1599999999998887, -2.603198977238147 
1.1699999999998876, -2.6028801689303416 
1.1799999999998865, -2.6025784254313367 
1.1899999999998854, -2.6022260230653336 
1.1999999999998843, -2.6017698150465938 
1.2099999999998832, -2.601174102444851 
1.219999999999882, -2.6004580249675815 
1.229999999999881, -2.599809989358648 
1.2399999999998799, -2.599524624902432 
1.2499999999998788, -2.5995679601768105 
1.2599999999998777, -2.5996214018206576 
1.2699999999998766, -2.5995068794798684 
1.2799999999998755, -2.59920900811331 
1.2899999999998744, -2.598755066967896 
1.2999999999998733, -2.5981777825864527 
1.3099999999998722, -2.597539079229768 
1.319999999999871, -2.596958932063535 
1.32999999999987, -2.59654645518854 
1.3399999999998689, -2.5962621539190995 
1.3499999999998678, -2.5959772355419175 
1.3599999999998666, -2.5956159850535605 
1.3699999999998655, -2.5951675875538287 
1.3799999999998644, -2.59467102618324 
1.3899999999998633, -2.5942241218222817 
1.3999999999998622, -2.5939172076447563 
1.4099999999998611, -2.59371834371971 
1.41999999999986, -2.593518401708755 
1.429999999999859, -2.5932338486428543 
1.4399999999998578, -2.592817855625937 
1.4499999999998567, -2.5922339362346483 
1.4599999999998556, -2.5914606182007183 
1.4699999999998545, -2.5905828269896394 
1.4799999999998534, -2.5899020234402594 
1.4899999999998523, -2.5896580513096743 
1.4999999999998512, -2.589643234245978 
1.5099999999998501, -2.589559095833173 
1.519999999999849, -2.5893172331480434 
1.529999999999848, -2.588940027790698 
1.5399999999998468, -2.5884724419139213 
1.5499999999998457, -2.5879729764794073 
1.5599999999998446, -2.5875102947387267 
1.5699999999998435, -2.5871292779730095 
1.5799999999998424, -2.5868110312975596 
1.5899999999998413, -2.5864857875204734 
1.5999999999998402, -2.586089195635425 
1.6099999999998391, -2.5855848465541804 
1.619999999999838, -2.584977733741474 
1.629999999999837, -2.584382910639827 
1.6399999999998358, -2.5840289003069072 
1.6499999999998347, -2.583971533916068 
1.6599999999998336, -2.5839888135625237 
1.6699999999998325, -2.5838899062337366 
1.6799999999998314, -2.5836220790863456 
1.6899999999998303, -2.583188081056954 
1.6999999999998292, -2.5825986048831293 
1.709999999999828, -2.5818899287980925 
1.719999999999827, -2.581183540930707 
1.729999999999826, -2.580667919680215 
1.7399999999998248, -2.580382542803269 
1.7499999999998237, -2.580165622900643 
1.7599999999998226, -2.5798832115162544 
1.7699999999998215, -2.579503407558875 
1.7799999999998204, -2.579048192876777 
1.7899999999998193, -2.5785792810981607 
1.7999999999998182, -2.5781811644361596 
1.809999999999817, -2.577885525491389 
1.819999999999816, -2.5776393224115264 
1.8299999999998149, -2.577363717243975 
1.8399999999998138, -2.5769974570735634 
1.8499999999998127, -2.5764946768072603 
1.8599999999998116, -2.5758176685677805 
1.8699999999998105, -2.57498952492799 
1.8799999999998094, -2.574233303052296 
1.8899999999998083, -2.5738884282484915 
1.8999999999998072, -2.5739101145432497 
1.909999999999806, -2.573946707029093 
1.919999999999805, -2.5738166978847037 
1.9299999999998039, -2.573515716213442 
1.9399999999998028, -2.573083744943168 
1.9499999999998017, -2.572567558421172 
1.9599999999998006, -2.57203170684334 
1.9699999999997995, -2.5715568397839568 
1.9799999999997984, -2.571188219481483 
1.9899999999997973, -2.5708817188097397 
1.9999999999997962, -2.570551372428045 
2.0099999999998173, -2.5701410791732515 
2.0199999999998384, -2.5696349903692934 
2.0299999999998595, -2.569075595020113 
2.0399999999998806, -2.56860630935254 
2.0499999999999017, -2.5683707038783536 
2.059999999999923, -2.5683023328609655 
2.069999999999944, -2.5682176963008887 
2.079999999999965, -2.568009449546057 
2.089999999999986, -2.567646186286284 
2.100000000000007, -2.567117035885491 
2.1100000000000283, -2.5664206103361797 
2.1200000000000494, -2.5656179203976146 
2.1300000000000705, -2.5649096534361506 
2.1400000000000916, -2.5645056184145583 
2.1500000000001127, -2.5643290622515993 
2.160000000000134, -2.564154250188028 
2.170000000000155, -2.563875048631284 
2.180000000000176, -2.5634894678818325 
2.190000000000197, -2.5630343178038153 
2.2000000000002182, -2.5625735633522497 
2.2100000000002393, -2.5621759653383904 
2.2200000000002604, -2.561859936674076 
2.2300000000002815, -2.5615811316733406 
2.2400000000003026, -2.561271796582044 
2.2500000000003237, -2.5608740898705245 
2.260000000000345, -2.560343314966483 
2.270000000000366, -2.559654066046496 
2.280000000000387, -2.558879163047902 
2.290000000000408, -2.558298590994517 
2.3000000000004293, -2.5581530586890593 
2.3100000000004504, -2.5582469930204508 
2.3200000000004715, -2.5582642776403826 
2.3300000000004926, -2.558096518301027 
2.3400000000005137, -2.557758797163613 
2.3500000000005348, -2.5572877708435136 
2.360000000000556, -2.556727121669372 
2.370000000000577, -2.5561493762135754 
2.380000000000598, -2.555655720332246 
2.390000000000619, -2.5552971864113783 
2.4000000000006403, -2.5550082371578267 
2.4100000000006614, -2.5546894220366334 
2.4200000000006825, -2.554289320804558 
2.4300000000007036, -2.5538039621373 
2.4400000000007247, -2.553286203578694 
2.450000000000746, -2.5528626499219986 
2.460000000000767, -2.55262643655066 
2.470000000000788, -2.5525042401095535 
2.480000000000809, -2.552355736693415 
2.49000000000083, -2.5520971411258566 
2.5000000000008513, -2.5516932889239614 
2.5100000000008724, -2.5511207353306284 
2.5200000000008935, -2.55037013795885 
2.5300000000009146, -2.5495201944902606 
2.5400000000009357, -2.5488225888142115 
2.550000000000957, -2.5484936546719466 
2.560000000000978, -2.548390732844949 
2.570000000000999, -2.5482572081924935 
2.58000000000102, -2.547997397206944 
2.5900000000010412, -2.5476209833276027 
2.6000000000010624, -2.547168449177413 
2.6100000000010835, -2.54669981538558 
2.6200000000011046, -2.5462802604055588 
2.6300000000011257, -2.545937639192374 
2.6400000000011468, -2.5456413986771373 
2.650000000001168, -2.545327223584757 
2.660000000001189, -2.544935546875877 
2.67000000000121, -2.544423339667186 
2.680000000001231, -2.5437722074956666 
2.6900000000012523, -2.5430608366528165 
2.7000000000012734, -2.542549275914892 
2.7100000000012945, -2.5424354415507144 
2.7200000000013156, -2.5425267714488875 
2.7300000000013367, -2.542538021089716 
2.740000000001358, -2.5423688135382543 
2.750000000001379, -2.5420282612753287 
2.7600000000014, -2.5415452898032287 
2.770000000001421, -2.540956623846306 
2.780000000001442, -2.540335079229442 
2.7900000000014633, -2.5398006943871474 
2.8000000000014844, -2.5394300580609075 
2.8100000000015055, -2.53915713709356 
2.8200000000015266, -2.5388648913136684 
2.8300000000015477, -2.538493530926503 
2.840000000001569, -2.5380379928653647 
2.85000000000159, -2.5375417124357584 
2.860000000001611, -2.537108125689132 
2.870000000001632, -2.536826445630221 
2.8800000000016532, -2.5366564105731735 
2.8900000000016743, -2.536482559411789 
2.9000000000016954, -2.5362207170660627 
2.9100000000017165, -2.535827249268425 
2.9200000000017377, -2.535270604096429 
2.9300000000017588, -2.534529923080477 
2.94000000000178, -2.533664797473617 
2.950000000001801, -2.532923800140312 
2.960000000001822, -2.5325743715238977 
2.970000000001843, -2.5325072742090584 
2.9800000000018643, -2.5324306081857246 
2.9900000000018854, -2.5322180664920233 
3.0000000000019065, -2.5318734576348434 
3.0100000000019276, -2.53143548756089 
3.0200000000019487, -2.5309578593107034 
3.03000000000197, -2.5305060244882833 
3.040000000001991, -2.5301267118338293 
3.050000000002012, -2.5298131111295348 
3.060000000002033, -2.5295082721999504 
3.070000000002054, -2.5291471379132826 
3.0800000000020753, -2.5286832532800614 
3.0900000000020964, -2.528092994145255 
3.1000000000021175, -2.5274213225786553 
3.1100000000021386, -2.5268703113711983 
3.1200000000021597, -2.5266691661361635 
3.130000000002181, -2.5267257476430443 
3.140000000002202, -2.526761977537359 
3.150000000002223, -2.5266368880409997 
3.160000000002244, -2.5263375050255004 
3.1700000000022652, -2.525884296261963 
3.1800000000022863, -2.52530360936965 
3.1900000000023074, -2.524651658793507 
3.2000000000023285, -2.5240473879602106 
3.2100000000023496, -2.523614747897939 
3.2200000000023707, -2.5233350389683613 
3.230000000002392, -2.523077433807913 
3.240000000002413, -2.5227524137011232 
3.250000000002434, -2.52233952219048 
3.260000000002455, -2.521863247287759 
3.2700000000024763, -2.5213995075337032 
3.2800000000024974, -2.521047843257398 
3.2900000000025185, -2.5208244634749906 
3.3000000000025396, -2.5206427830696727 
3.3100000000025607, -2.520409229573212 
3.3200000000025818, -2.5200669487480636 
3.330000000002603, -2.5195787402649144 
3.340000000002624, -2.5189123971243594 
3.350000000002645, -2.518078189725522 
3.360000000002666, -2.517245281045127 
3.3700000000026873, -2.5167352248498163 
3.3800000000027084, -2.516616700226982 
3.3900000000027295, -2.516601907465339 
3.4000000000027506, -2.5164736860785686 
3.4100000000027717, -2.5161962945008143 
3.420000000002793, -2.515800826939001 
3.430000000002814, -2.515333121008016 
3.440000000002835, -2.5148531256130235 
3.450000000002856, -2.5144235319016284 
3.460000000002877, -2.514073134503334 
3.4700000000028983, -2.513770814341636 
3.4800000000029194, -2.513449373578058 
3.4900000000029405, -2.513051058391903 
3.5000000000029616, -2.512540551210207 
3.5100000000029827, -2.5119185353036024 
3.520000000003004, -2.511293125492939 
3.530000000003025, -2.5109040691968287 
3.540000000003046, -2.5108490537148223 
3.550000000003067, -2.510914335819273 
3.5600000000030882, -2.5108783002195096 
3.5700000000031094, -2.5106716946430456 
3.5800000000031305, -2.5103004420053265 
3.5900000000031516, -2.5097831727649 
3.6000000000031727, -2.5091509217633874 
3.6100000000031938, -2.508484776120264 
3.620000000003215, -2.5079289371089684 
3.630000000003236, -2.5075708163113446 
3.640000000003257, -2.507325338591042 
3.650000000003278, -2.5070585110233523 
3.6600000000032993, -2.506709131655033 
3.6700000000033204, -2.5062756407092706 
3.6800000000033415, -2.5057987417264243 
3.6900000000033626, -2.505366450835436 
3.7000000000033837, -2.5050579507534283 
3.710000000003405, -2.5048514344629034 
3.720000000003426, -2.5046542795637747 
3.730000000003447, -2.504387276017032 
3.740000000003468, -2.504002314510065 
3.750000000003489, -2.503462824562903 
3.7600000000035103, -2.5027410095868605 
3.7700000000035314, -2.5018808519778437 
3.7800000000035525, -2.5011163225978263 
3.7900000000035736, -2.500745577971103 
3.8000000000035947, -2.5007037886507213 
3.810000000003616, -2.500680965858497 
3.820000000003637, -2.5005188187556655 
3.830000000003658, -2.5002112542331427 
3.840000000003679, -2.49979508667405 
3.8500000000037002, -2.499318621815918 
3.8600000000037213, -2.49884390988073 
3.8700000000037424, -2.4984299274773027 
3.8800000000037635, -2.4980944655103148 
3.8900000000037847, -2.4977954766652233 
3.9000000000038058, -2.4974647612030934 
3.910000000003827, -2.497049519487378 
3.920000000003848, -2.496519902506281 
3.930000000003869, -2.495890162823909 
3.94000000000389, -2.4952952619017403 
3.9500000000039113, -2.494972164702596 
3.9600000000039324, -2.4949583750679545 
3.9700000000039535, -2.495017859155586 
3.9800000000039746, -2.494957090666052 
3.9900000000039957, -2.4947259382299793 
4.000000000004016, -2.4943339264610467 
4.010000000003993, -2.4937997171357793 
4.02000000000397, -2.4931579781794224 
4.030000000003946, -2.4924982748976148 
4.040000000003923, -2.4919658999933403 
4.0500000000039, -2.4916290800477876 
4.0600000000038765, -2.491388590802582 
4.070000000003853, -2.4911168213998525 
4.08000000000383, -2.490760846937712 
4.090000000003807, -2.490322946115369 
4.100000000003783, -2.489847276183895 
4.11000000000376, -2.4894240565295127 
4.120000000003737, -2.489127698825687 
4.130000000003713, -2.488929233340124 
4.14000000000369, -2.4887347492931786 
4.150000000003667, -2.488467146517375 
4.1600000000036434, -2.4880800465291806 
4.17000000000362, -2.4875378825509484 
4.180000000003597, -2.486814283462865 
4.1900000000035735, -2.485955079070741 
4.20000000000355, -2.4851920809938433 
4.210000000003527, -2.484817061437024 
4.220000000003504, -2.484768005632275 
4.23000000000348, -2.4847418501330263 
4.240000000003457, -2.484580657358397 
4.250000000003434, -2.484276418958022 
4.26000000000341, -2.483864809382418 
4.270000000003387, -2.483393473578704 
4.280000000003364, -2.482923721062321 
4.2900000000033405, -2.4825135041240154 
4.300000000003317, -2.4821804236642406 
4.310000000003294, -2.481884379243798 
4.320000000003271, -2.4815587332093934 
4.330000000003247, -2.481150209360522 
4.340000000003224, -2.4806265389561295 
4.350000000003201, -2.4799941304877278 
4.360000000003177, -2.479373644069961 
4.370000000003154, -2.4790082104520055 
4.380000000003131, -2.478975986947246 
4.390000000003107, -2.4790525813048707 
4.400000000003084, -2.479022153481229 
4.410000000003061, -2.478820782770926 
4.4200000000030375, -2.4784570338925813 
4.430000000003014, -2.4779517519964536 
4.440000000002991, -2.477337164506996 
4.450000000002968, -2.4766897469742055 
4.460000000002944, -2.4761413682700413 
4.470000000002921, -2.4757762875528346 
4.480000000002898, -2.4755233581699887 
4.490000000002874, -2.475256718061368 
4.500000000002851, -2.4749124930480053 
4.510000000002828, -2.474483877488211 
4.520000000002804, -2.4740056015723355 
4.530000000002781, -2.473563722882776 
4.540000000002758, -2.4732497158770688 
4.5500000000027345, -2.4730558153557443 
4.560000000002711, -2.4728863004162847 
4.570000000002688, -2.4726533077360324 
4.580000000002665, -2.4723062398573736 
4.590000000002641, -2.4718114169856564 
4.600000000002618, -2.4711404357733326 
4.610000000002595, -2.4703092486104703 
4.620000000002571, -2.469484590270124 
4.630000000002548, -2.4689678751264386 
4.640000000002525, -2.4688263438508313 
4.6500000000025015, -2.468796222938466 
4.660000000002478, -2.4686672470597495 
4.670000000002455, -2.4683979320109732 
4.6800000000024315, -2.4680148227616674 
4.690000000002408, -2.467561298454165 
4.700000000002385, -2.467095376749319 
4.710000000002362, -2.466677696956842 
4.720000000002338, -2.4663359132556573 
4.730000000002315, -2.4660428081642753 
4.740000000002292, -2.465736315461838 
4.750000000002268, -2.465358695699465 
4.760000000002245, -2.4648697468425382 
4.770000000002222, -2.4642526305162926 
4.7800000000021985, -2.463572012765684 
4.790000000002175, -2.463051620497892 
4.800000000002152, -2.46289818472854 
4.810000000002129, -2.4629832131366833 
4.820000000002105, -2.463031830948568 
4.830000000002082, -2.4629162370180753 
4.840000000002059, -2.4626296731754156 
4.850000000002035, -2.4621964701392787 
4.860000000002012, -2.4616462517792432 
4.870000000001989, -2.4610321917118303 
4.880000000001965, -2.4604549019292583 
4.890000000001942, -2.460020482239163 
4.900000000001919, -2.459725873538348 
4.9100000000018955, -2.459464134126116 
4.920000000001872, -2.4591473325816446 
4.930000000001849, -2.458745779027222 
4.940000000001826, -2.458271647894945 
4.950000000001802, -2.45778935982469 
4.960000000001779, -2.4574118784071217 
4.970000000001756, -2.457195129365401 
