t, s[1].omega / s[0].omega 
0, -1.3099973726276954 
0.009999999999999995, -1.3097055328690694 
0.019999999999999934, -1.309358511413864 
0.029999999999999874, -1.3089637722696446 
0.04000000000000012, -1.3085342239074378 
0.050000000000000405, -1.308088360621375 
0.06000000000000069, -1.307649140441023 
0.07000000000000098, -1.3072406124337472 
0.08000000000000126, -1.3068822794317942 
0.09000000000000155, -1.3065831283882736 
0.10000000000000184, -1.3063386421952492 
0.11000000000000212, -1.30613287714424 
0.12000000000000241, -1.305944237402325 
0.130000000000002, -1.3057512503044664 
0.1400000000000009, -1.3055356073347681 
0.1499999999999998, -1.305282329478041 
0.1599999999999987, -1.3049785569276817 
0.1699999999999976, -1.304612631435593 
0.1799999999999965, -1.3041747148808578 
0.1899999999999954, -1.3036597454980694 
0.1999999999999943, -1.3030728407610288 
0.2099999999999932, -1.3024356787923135 
0.2199999999999921, -1.3017898104240988 
0.229999999999991, -1.3011910816966614 
0.2399999999999899, -1.3006924227072127 
0.2499999999999888, -1.3003218873516058 
0.2599999999999877, -1.3000709706592746 
0.2699999999999866, -1.2999023759096937 
0.2799999999999855, -1.2997699165191205 
0.2899999999999844, -1.299635353308555 
0.2999999999999833, -1.2994744234136586 
0.3099999999999822, -1.299274548102731 
0.3199999999999811, -1.2990298899317845 
0.32999999999998, -1.29873745105614 
0.3399999999999789, -1.2983955605931652 
0.3499999999999778, -1.2980051298497846 
0.35999999999997667, -1.297573814628649 
0.36999999999997557, -1.2971223245948438 
0.37999999999997447, -1.2966894037307242 
0.38999999999997337, -1.2963285049278208 
0.39999999999997227, -1.2960904233254336 
0.40999999999997117, -1.2959975487191513 
0.41999999999997006, -1.2960286055718533 
0.42999999999996896, -1.2961280875445085 
0.43999999999996786, -1.2962325970979975 
0.44999999999996676, -1.2962937334583564 
0.45999999999996566, -1.2962861185647818 
0.46999999999996456, -1.296203438056305 
0.47999999999996346, -1.2960504981650047 
0.48999999999996235, -1.2958367273756095 
0.49999999999996125, -1.2955728140643852 
0.5099999999999602, -1.2952701758288667 
0.519999999999959, -1.2949423622397531 
0.529999999999958, -1.294607190907462 
0.5399999999999568, -1.2942878108164446 
0.5499999999999557, -1.2940104531643943 
0.5599999999999546, -1.2937978362662768 
0.5699999999999535, -1.2936606178853327 
0.5799999999999524, -1.2935921770260457 
0.5899999999999513, -1.2935704364589058 
0.5999999999999502, -1.2935653358121537 
0.6099999999999491, -1.2935472648753312 
0.619999999999948, -1.2934927600916823 
0.6299999999999469, -1.2933866365203628 
0.6399999999999458, -1.2932216174681503 
0.6499999999999447, -1.2929968841221593 
0.6599999999999436, -1.292716577885942 
0.6699999999999425, -1.292388806093304 
0.6799999999999414, -1.2920252902355074 
0.6899999999999403, -1.2916413734974719 
0.6999999999999392, -1.2912556524521388 
0.7099999999999381, -1.290888261508041 
0.719999999999937, -1.290557289032059 
0.7299999999999359, -1.290274120804405 
0.7399999999999348, -1.2900398860591702 
0.7499999999999337, -1.2898451470189776 
0.7599999999999326, -1.2896730647096488 
0.7699999999999315, -1.289504071163743 
0.7799999999999304, -1.2893195933136992 
0.7899999999999293, -1.289103711248067 
0.7999999999999282, -1.288843230485802 
0.8099999999999271, -1.2885273475532766 
0.819999999999926, -1.288147950241204 
0.8299999999999249, -1.2877011251892119 
0.8399999999999238, -1.2871898874470495 
0.8499999999999227, -1.2866274407276965 
0.8599999999999216, -1.2860393547721543 
0.8699999999999205, -1.285462214971886 
0.8799999999999194, -1.2849366014286245 
0.8899999999999183, -1.2844950414732605 
0.8999999999999172, -1.2841502830241336 
0.9099999999999161, -1.2838913969140004 
0.919999999999915, -1.2836905132342447 
0.9299999999999139, -1.2835149608433942 
0.9399999999999128, -1.2833368403423335 
0.9499999999999117, -1.2831363610599966 
0.9599999999999106, -1.2829004242043696 
0.9699999999999095, -1.2826195916607555 
0.9799999999999084, -1.2822857089600757 
0.9899999999999073, -1.2818913717291256 
0.9999999999999062, -1.2814320121111584 
1.0099999999999052, -1.2809111396943142 
1.019999999999904, -1.2803480086398629 
1.029999999999903, -1.2797836900779702 
1.039999999999902, -1.2792776772103511 
1.0499999999999008, -1.2788889185890808 
1.0599999999998997, -1.2786478551299107 
1.0699999999998986, -1.2785398433817061 
1.0799999999998975, -1.278514560120812 
1.0899999999998964, -1.278512526181411 
1.0999999999998953, -1.2784875624456071 
1.1099999999998942, -1.278414221450022 
1.119999999999893, -1.2782838300317538 
1.129999999999892, -1.2780971863787889 
1.1399999999998909, -1.2778588852783446 
1.1499999999998898, -1.2775746394594438 
1.1599999999998887, -1.2772513515115878 
1.1699999999998876, -1.2768993812533431 
1.1799999999998865, -1.2765361546966865 
1.1899999999998854, -1.2761891294086802 
1.1999999999998843, -1.275894517611079 
1.2099999999998832, -1.2756884579663148 
1.219999999999882, -1.2755922597016125 
1.229999999999881, -1.2756004145423472 
1.2399999999998799, -1.2756806674034962 
1.2499999999998788, -1.275786459545531 
1.2599999999998777, -1.275872988077289 
1.2699999999998766, -1.275908027424895 
1.2799999999998755, -1.2758748303886345 
1.2899999999998744, -1.2757695015104864 
1.2999999999998733, -1.2755964653227536 
1.3099999999998722, -1.2753645515024548 
1.319999999999871, -1.2750847454089365 
1.32999999999987, -1.2747696314602857 
1.3399999999998689, -1.274433957282656 
1.3499999999998678, -1.2740952994727697 
1.3599999999998666, -1.2737734986181137 
1.3699999999998655, -1.2734878136894294 
1.3799999999998644, -1.2732521200185243 
1.3899999999998633, -1.2730703502630125 
1.3999999999998622, -1.2729349192972934 
1.4099999999998611, -1.2728291042408602 
1.41999999999986, -1.2727318285921083 
1.429999999999859, -1.2726223268350654 
1.4399999999998578, -1.272483112325749 
1.4499999999998567, -1.2723011598689795 
1.4599999999998556, -1.272068045668771 
1.4699999999998545, -1.2717798183732534 
1.4799999999998534, -1.2714370447914631 
1.4899999999998523, -1.271045147587043 
1.4999999999998512, -1.270614904595231 
1.5099999999998501, -1.27016271181561 
1.519999999999849, -1.2697098852318347 
1.529999999999848, -1.2692801266744487 
1.5399999999998468, -1.2688948102130084 
1.5499999999998457, -1.2685672100413388 
1.5599999999998446, -1.2682983535768668 
1.5699999999998435, -1.2680770557795589 
1.5799999999998424, -1.2678841908127645 
1.5899999999998413, -1.2676984662599813 
1.5999999999998402, -1.267500580928318 
1.6099999999998391, -1.2672745757337316 
1.619999999999838, -1.2670071744207054 
1.629999999999837, -1.2666866176578147 
1.6399999999998358, -1.2663022784239741 
1.6499999999998347, -1.265845940719421 
1.6599999999998336, -1.2653152012748805 
1.6699999999998325, -1.2647186636385275 
1.6799999999998314, -1.2640810403867788 
1.6899999999998303, -1.2634442936984756 
1.6999999999998292, -1.2628604192894717 
1.709999999999828, -1.2623752513241397 
1.719999999999827, -1.2620105069483525 
1.729999999999826, -1.2617559864109569 
1.7399999999998248, -1.2615775378661298 
1.7499999999998237, -1.2614338706264872 
1.7599999999998226, -1.261290377609906 
1.7699999999998215, -1.2611242057663328 
1.7799999999998204, -1.2609225192810973 
1.7899999999998193, -1.2606783864440847 
1.7999999999998182, -1.2603873206780354 
1.809999999999817, -1.260045707618819 
1.819999999999816, -1.2596515673533155 
1.8299999999998149, -1.259207969300708 
1.8399999999998138, -1.2587289024999728 
1.8499999999998127, -1.2582454020740532 
1.8599999999998116, -1.2578063261390393 
1.8699999999998105, -1.2574669662694562 
1.8799999999998094, -1.2572657130014178 
1.8899999999998083, -1.257202605156642 
1.8999999999998072, -1.2572376363819764 
1.909999999999806, -1.257310825212976 
1.919999999999805, -1.2573675570560814 
1.9299999999998039, -1.2573729409643293 
1.9399999999998028, -1.2573124443292818 
1.9499999999998017, -1.2571853491907015 
1.9599999999998006, -1.256997670702173 
1.9699999999997995, -1.2567575813966623 
1.9799999999997984, -1.2564737212424169 
1.9899999999997973, -1.2561558253985816 
1.9999999999997962, -1.2558169310657832 
2.0099999999998173, -1.2554760720880602 
2.0199999999998384, -1.255159482642957 
2.0299999999998595, -1.2548976635589686 
2.0399999999998806, -1.2547170618365708 
2.0499999999999017, -1.2546293219827744 
2.059999999999923, -1.254624736292789 
2.069999999999944, -1.2546746944443055 
2.079999999999965, -1.2547414802730867 
2.089999999999986, -1.254789321713045 
2.100000000000007, -1.25479166949214 
2.1100000000000283, -1.2547334471070024 
2.1200000000000494, -1.2546097096753608 
2.1300000000000705, -1.2544228117155645 
2.1400000000000916, -1.2541796854201532 
2.1500000000001127, -1.253890070476971 
2.160000000000134, -1.253565886082243 
2.170000000000155, -1.2532214167090434 
2.180000000000176, -1.2528735340535941 
2.190000000000197, -1.2525408968664649 
2.2000000000002182, -1.2522413320207342 
2.2100000000002393, -1.2519877115151206 
2.2200000000002604, -1.2517840895699144 
2.2300000000002815, -1.2516242884464313 
2.2400000000003026, -1.251493781079804 
2.2500000000003237, -1.2513737007952983 
2.260000000000345, -1.2512448934094467 
2.270000000000366, -1.2510905930437581 
2.280000000000387, -1.2508975651541412 
2.290000000000408, -1.250656356452493 
2.3000000000004293, -1.250361373918305 
2.3100000000004504, -1.2500112126217848 
2.3200000000004715, -1.2496093122988017 
2.3300000000004926, -1.2491647652054831 
2.3400000000005137, -1.2486928632167387 
2.3500000000005348, -1.2482146968395706 
2.360000000000556, -1.2477549465045459 
2.370000000000577, -1.2473373735973865 
2.380000000000598, -1.2469788009829605 
2.390000000000619, -1.246684060546759 
2.4000000000006403, -1.2464448035324616 
2.4100000000006614, -1.2462430129886717 
2.4200000000006825, -1.24605696928652 
2.4300000000007036, -1.2458662606272441 
2.4400000000007247, -1.2456539707952625 
2.450000000000746, -1.2454063971534581 
2.460000000000767, -1.2451117335422264 
2.470000000000788, -1.2447590948504843 
2.480000000000809, -1.2443388612468254 
2.49000000000083, -1.2438449806974818 
2.5000000000008513, -1.2432793809502964 
2.5100000000008724, -1.242657530032867 
2.5200000000008935, -1.2420122995283294 
2.5300000000009146, -1.241391673669624 
2.5400000000009357, -1.240847100579428 
2.550000000000957, -1.2404153264867583 
2.560000000000978, -1.2401039139689736 
2.570000000000999, -1.2398905897843657 
2.58000000000102, -1.2397362712821287 
2.5900000000010412, -1.2396015089494417 
2.6000000000010624, -1.239456600783797 
2.6100000000010835, -1.2392833537411385 
2.6200000000011046, -1.239071985694332 
2.6300000000011257, -1.2388170947627808 
2.6400000000011468, -1.238514823583222 
2.650000000001168, -1.2381619572039686 
2.660000000001189, -1.237757267827249 
2.67000000000121, -1.2373053509891312 
2.680000000001231, -1.2368225117259146 
2.6900000000012523, -1.2363420872290871 
2.7000000000012734, -1.2359135107979309 
2.7100000000012945, -1.2355893517805285 
2.7200000000013156, -1.235402488711449 
2.7300000000013367, -1.2353477209433523 
2.740000000001358, -1.2353831690058823 
2.750000000001379, -1.2354506827966723 
2.7600000000014, -1.2354991037725658 
2.770000000001421, -1.2354964763938026 
2.780000000001442, -1.235429829381588 
2.7900000000014633, -1.23529882006576 
2.8000000000014844, -1.2351091555053448 
2.8100000000015055, -1.2348684016272766 
2.8200000000015266, -1.2345844644752624 
2.8300000000015477, -1.2342662360847303 
2.840000000001569, -1.2339257834774489 
2.85000000000159, -1.233581156676148 
2.860000000001611, -1.233258025495859 
2.870000000001632, -1.2329875074600947 
2.8800000000016532, -1.2327984568744976 
2.8900000000016743, -1.2327063341347144 
2.9000000000016954, -1.2327050328160578 
2.9100000000017165, -1.2327675054154867 
2.9200000000017377, -1.2328549505363322 
2.9300000000017588, -1.2329287530391775 
2.94000000000178, -1.232959238665256 
2.950000000001801, -1.2329289863641528 
2.960000000001822, -1.232831787251329 
2.970000000001843, -1.232669549183935 
2.9800000000018643, -1.2324490940647501 
2.9900000000018854, -1.2321799362557562 
3.0000000000019065, -1.231873360027779 
3.0100000000019276, -1.2315425592453726 
3.0200000000019487, -1.2312031719358048 
3.03000000000197, -1.2308731994359907 
3.040000000001991, -1.2305712896936034 
3.050000000002012, -1.2303131148598665 
3.060000000002033, -1.2301070283602638 
3.070000000002054, -1.2299512517689182 
3.0800000000020753, -1.2298342578815555 
3.0900000000020964, -1.2297380669112286 
3.1000000000021175, -1.2296426077075402 
3.1100000000021386, -1.229529293425422 
3.1200000000021597, -1.2293830462158148 
3.130000000002181, -1.2291930305271952 
3.140000000002202, -1.228952734779687 
3.150000000002223, -1.22865991514974 
3.160000000002244, -1.2283166457002175 
3.1700000000022652, -1.2279295110309572 
3.1800000000022863, -1.227509821993678 
3.1900000000023074, -1.227073537645111 
3.2000000000023285, -1.226640336707018 
3.2100000000023496, -1.2262312214368933 
3.2200000000023707, -1.2258645233751282 
3.230000000002392, -1.2255513005377934 
3.240000000002413, -1.2252921700068002 
3.250000000002434, -1.225077397693408 
3.260000000002455, -1.2248902419473366 
3.2700000000024763, -1.2247115681005905 
3.2800000000024974, -1.2245234019635056 
3.2900000000025185, -1.2243103876382218 
3.3000000000025396, -1.224059603574396 
3.3100000000025607, -1.2237598471345443 
3.3200000000025818, -1.2234014128461064 
3.330000000002603, -1.222977038463873 
3.340000000002624, -1.222484280774796 
3.350000000002645, -1.2219290111221186 
3.360000000002666, -1.2213288622827072 
3.3700000000026873, -1.2207144787354116 
3.3800000000027084, -1.2201260442045778 
3.3900000000027295, -1.219603964246978 
3.4000000000027506, -1.2191762649087328 
3.4100000000027717, -1.2188490941722496 
3.420000000002793, -1.2186063033059034 
3.430000000002814, -1.2184180967391076 
3.440000000002835, -1.2182525640703414 
3.450000000002856, -1.218083580406109 
3.460000000002877, -1.2178930063399604 
3.4700000000028983, -1.2176690023842558 
3.4800000000029194, -1.2174031386854083 
3.4900000000029405, -1.2170880812952372 
3.5000000000029616, -1.216716721821832 
3.5100000000029827, -1.2162832859457846 
3.520000000003004, -1.2157868916200036 
3.530000000003025, -1.2152374722596078 
3.540000000003046, -1.2146621139684672 
3.550000000003067, -1.2141068550599425 
3.5600000000030882, -1.213627788152603 
3.5700000000031094, -1.2132707164062415 
3.5800000000031305, -1.2130499330455495 
3.5900000000031516, -1.2129419230753622 
3.6000000000031727, -1.2128989047302865 
3.6100000000031938, -1.2128707206566847 
3.620000000003215, -1.2128202274341502 
3.630000000003236, -1.2127270686737295 
3.640000000003257, -1.2125838169628909 
3.650000000003278, -1.2123902148326144 
3.6600000000032993, -1.2121487904108785 
3.6700000000033204, -1.211862732690791 
3.6800000000033415, -1.2115359082970887 
3.6900000000033626, -1.211174779005381 
3.7000000000033837, -1.2107918763176257 
3.710000000003405, -1.2104096963292201 
3.720000000003426, -1.2100622312463185 
3.730000000003447, -1.209790159030049 
3.740000000003468, -1.2096279120029696 
3.750000000003489, -1.2095875821482411 
3.7600000000035103, -1.2096503424696916 
3.7700000000035314, -1.209772535668001 
3.7800000000035525, -1.2099024515754793 
3.7900000000035736, -1.2099967980210609 
3.8000000000035947, -1.2100289853581772 
3.810000000003616, -1.2099888132760965 
3.820000000003637, -1.2098775835063766 
3.830000000003658, -1.2097026874860601 
3.840000000003679, -1.2094738162017196 
3.8500000000037002, -1.2092012816565223 
3.8600000000037213, -1.208896126125377 
3.8700000000037424, -1.2085713980231128 
3.8800000000037635, -1.2082437088054847 
3.8900000000037847, -1.2079337709865596 
3.9000000000038058, -1.2076644448215377 
3.910000000003827, -1.207455718583738 
3.920000000003848, -1.2073182186835794 
3.930000000003869, -1.207248711790309 
3.94000000000389, -1.2072304004837993 
3.9500000000039113, -1.2072377970531918 
3.9600000000039324, -1.2072433934840097 
3.9700000000039535, -1.2072232120286177 
3.9800000000039746, -1.2071598791780047 
3.9900000000039957, -1.2070433800260993 
4.000000000004016, -1.2068703243412786 
4.010000000003993, -1.2066425862352521 
4.02000000000397, -1.2063659710921797 
4.030000000003946, -1.2060493098032004 
4.040000000003923, -1.2057040928809724 
4.0500000000039, -1.2053444138283491 
4.0600000000038765, -1.2049866452895202 
4.070000000003853, -1.204648121697234 
4.08000000000383, -1.2043444473523617 
4.090000000003807, -1.204085967771481 
4.100000000003783, -1.2038748928014615 
4.11000000000376, -1.203704610496945 
4.120000000003737, -1.2035615799445332 
4.130000000003713, -1.203428735091393 
4.14000000000369, -1.2032887746190553 
4.150000000003667, -1.203126299683465 
4.1600000000036434, -1.2029287424039157 
4.17000000000362, -1.2026866305712085 
4.180000000003597, -1.2023937805872016 
4.1900000000035735, -1.2020477468424389 
4.20000000000355, -1.2016505547609662 
4.210000000003527, -1.2012095250161212 
4.220000000003504, -1.2007378361004026 
4.23000000000348, -1.2002543093867541 
4.240000000003457, -1.1997817790175938 
4.250000000003434, -1.1993435848422562 
4.26000000000341, -1.1989585229519988 
4.270000000003387, -1.1986358758940105 
4.280000000003364, -1.1983729235723 
4.2900000000033405, -1.1981564170175245 
4.300000000003317, -1.1979671515757424 
4.310000000003294, -1.1977850164400212 
4.320000000003271, -1.19759223204601 
4.330000000003247, -1.19737419539413 
4.340000000003224, -1.1971187527272409 
4.350000000003201, -1.1968151112882455 
4.360000000003177, -1.196453376181278 
4.370000000003154, -1.1960253707975546 
4.380000000003131, -1.1955270826617892 
4.390000000003107, -1.1949625557345123 
4.400000000003084, -1.1943480935710125 
4.410000000003061, -1.193714392475107 
4.4200000000030375, -1.1931035809769153 
4.430000000003014, -1.1925595780577005 
4.440000000002991, -1.1921143193390453 
4.450000000002968, -1.191776814209174 
4.460000000002944, -1.191531817617131 
4.470000000002921, -1.1913485644441968 
4.480000000002898, -1.1911931826333162 
4.490000000002874, -1.191037644036752 
4.500000000002851, -1.190862655850707 
4.510000000002828, -1.1906561770395652 
4.520000000002804, -1.1904103864772624 
4.530000000002781, -1.190119037210486 
4.540000000002758, -1.1897760760773355 
4.5500000000027345, -1.189375951872042 
4.560000000002711, -1.1889160039935274 
4.570000000002688, -1.1884011284470613 
4.580000000002665, -1.1878498126196937 
4.590000000002641, -1.1872982550064195 
4.600000000002618, -1.1867970423609822 
4.610000000002595, -1.1863966553360135 
4.620000000002571, -1.1861264773694185 
4.630000000002548, -1.185980836471714 
4.640000000002525, -1.185922932975036 
4.6500000000025015, -1.185903110653944 
4.660000000002478, -1.1858776823503416 
4.670000000002455, -1.185818273594328 
4.6800000000024315, -1.1857114859405444 
4.690000000002408, -1.1855539361830119 
4.700000000002385, -1.1853471161727331 
4.710000000002362, -1.1850940293945365 
4.720000000002338, -1.1847978985827683 
4.730000000002315, -1.1844627327274513 
4.740000000002292, -1.18409555515118 
4.750000000002268, -1.1837099225567984 
4.760000000002245, -1.1833294758684985 
4.770000000002222, -1.1829887001012585 
4.7800000000021985, -1.1827272772344384 
4.790000000002175, -1.1825770357560046 
4.800000000002152, -1.1825469220674898 
4.810000000002129, -1.1826160126552108 
4.820000000002105, -1.182740443034463 
4.830000000002082, -1.1828697907984889 
4.840000000002059, -1.182962545036979 
4.850000000002035, -1.1829935869251775 
4.860000000002012, -1.182953560903067 
4.870000000001989, -1.182844026950335 
4.880000000001965, -1.1826722139025352 
4.890000000001942, -1.1824473678950291 
4.900000000001919, -1.1821791298903075 
4.9100000000018955, -1.1818776380237155 
4.920000000001872, -1.1815548190500051 
4.930000000001849, -1.1812261342377997 
4.940000000001826, -1.1809116377280595 
