t, s[1].omega / s[0].omega 
0, -1.6299971284949237 
0.009999999999999995, -1.6296762216859233 
0.019999999999999934, -1.6292916113621954 
0.029999999999999874, -1.6288537603849698 
0.04000000000000012, -1.628382990510627 
0.050000000000000405, -1.627910628239394 
0.06000000000000069, -1.62747417839369 
0.07000000000000098, -1.627104066111747 
0.08000000000000126, -1.6268082828660035 
0.09000000000000155, -1.6265684015272566 
0.10000000000000184, -1.6263515054228364 
0.11000000000000212, -1.6261261932828752 
0.12000000000000241, -1.6258703008588646 
0.130000000000002, -1.6255700571671567 
0.1400000000000009, -1.625217033562158 
0.1499999999999998, -1.6248081916749126 
0.1599999999999987, -1.6243517407174821 
0.1699999999999976, -1.623877903760429 
0.1799999999999965, -1.6234452095002296 
0.1899999999999954, -1.623124175747361 
0.1999999999999943, -1.6229545496658062 
0.2099999999999932, -1.6229125533241437 
0.2199999999999921, -1.6229270181801545 
0.229999999999991, -1.622925344565673 
0.2399999999999899, -1.6228631992219118 
0.2499999999999888, -1.6227256393422818 
0.2599999999999877, -1.6225155809539529 
0.2699999999999866, -1.6222437594978003 
0.2799999999999855, -1.6219242976327657 
0.2899999999999844, -1.6215746013821406 
0.2999999999999833, -1.6212165067802502 
0.3099999999999822, -1.6208749347607818 
0.3199999999999811, -1.6205716775937435 
0.32999999999998, -1.6203166703207277 
0.3399999999999789, -1.6201032466645802 
0.3499999999999778, -1.6199113643028376 
0.35999999999997667, -1.6197158401463096 
0.36999999999997557, -1.6194934395908578 
0.37999999999997447, -1.6192256130975042 
0.38999999999997337, -1.6188980816561744 
0.39999999999997227, -1.618500337563144 
0.40999999999997117, -1.6180277244091321 
0.41999999999997006, -1.617487467171739 
0.42999999999996896, -1.616907280293972 
0.43999999999996786, -1.6163395274156893 
0.44999999999996676, -1.6158488802684954 
0.45999999999996566, -1.6154803653876115 
0.46999999999996456, -1.615231003731883 
0.47999999999996346, -1.6150552089570467 
0.48999999999996235, -1.6148972767022087 
0.49999999999996125, -1.6147172597861332 
0.5099999999999602, -1.614495634257335 
0.519999999999959, -1.6142264995807825 
0.529999999999958, -1.6139111388879381 
0.5399999999999568, -1.61355662227384 
0.5499999999999557, -1.61317935720241 
0.5599999999999546, -1.612810028733334 
0.5699999999999535, -1.6124917807307981 
0.5799999999999524, -1.612263725787485 
0.5899999999999513, -1.6121365961567578 
0.5999999999999502, -1.6120832728034604 
0.6099999999999491, -1.6120545444447167 
0.619999999999948, -1.612003454367167 
0.6299999999999469, -1.6118991117332946 
0.6399999999999458, -1.6117275221452538 
0.6499999999999447, -1.6114866323515542 
0.6599999999999436, -1.6111816401141994 
0.6699999999999425, -1.6108228580246162 
0.6799999999999414, -1.6104259534113983 
0.6899999999999403, -1.6100128932022255 
0.6999999999999392, -1.6096107883702893 
0.7099999999999381, -1.609246056197805 
0.719999999999937, -1.608934681872731 
0.7299999999999359, -1.6086746094598396 
0.7399999999999348, -1.6084469866317144 
0.7499999999999337, -1.6082254630709485 
0.7599999999999326, -1.6079855381562946 
0.7699999999999315, -1.6077082156788935 
0.7799999999999304, -1.607379024637525 
0.7899999999999293, -1.6069866322372008 
0.7999999999999282, -1.606524845580313 
0.8099999999999271, -1.6060004104351795 
0.819999999999926, -1.605445399712367 
0.8299999999999249, -1.604923794100286 
0.8399999999999238, -1.6045133016584128 
0.8499999999999227, -1.604259640894136 
0.8599999999999216, -1.604142263444849 
0.8699999999999205, -1.6040914485899396 
0.8799999999999194, -1.6040357820338234 
0.8899999999999183, -1.6039319171202948 
0.8999999999999172, -1.6037648900096304 
0.9099999999999161, -1.6035363132663725 
0.919999999999915, -1.6032548743436166 
0.9299999999999139, -1.602932881373425 
0.9399999999999128, -1.6025872949224964 
0.9499999999999117, -1.6022417483524827 
0.9599999999999106, -1.6019247565516026 
0.9699999999999095, -1.6016608533192969 
0.9799999999999084, -1.6014585808499557 
0.9899999999999073, -1.6013053592897273 
0.9999999999999062, -1.6011738590091213 
1.0099999999999052, -1.6010336209096898 
1.019999999999904, -1.6008594613062495 
1.029999999999903, -1.6006340696028207 
1.039999999999902, -1.6003471198389172 
1.0499999999999008, -1.5999940471851124 
1.0599999999998997, -1.5995764332009237 
1.0699999999998986, -1.5991045187005022 
1.0799999999998975, -1.5986007449966062 
1.0899999999998964, -1.5981008477640959 
1.0999999999998953, -1.5976471508735541 
1.1099999999998942, -1.597272112605419 
1.119999999999893, -1.5969812766751759 
1.129999999999892, -1.5967512466981046 
1.1399999999998909, -1.5965450766466573 
1.1499999999998898, -1.5963298446947305 
1.1599999999998887, -1.5960838697983137 
1.1699999999998876, -1.5957949094885295 
1.1799999999998865, -1.5954564637521844 
1.1899999999998854, -1.5950672287900494 
1.1999999999998843, -1.5946358410423922 
1.2099999999998832, -1.5941899032706053 
1.219999999999882, -1.5937814858438555 
1.229999999999881, -1.5934741307973261 
1.2399999999998799, -1.5933069314078987 
1.2499999999998788, -1.593263820429723 
1.2599999999998777, -1.5932826740631385 
1.2699999999998766, -1.593294113042595 
1.2799999999998755, -1.5932513141756828 
1.2899999999998744, -1.5931351131049802 
1.2999999999998733, -1.59294518028773 
1.3099999999998722, -1.5926903827983883 
1.319999999999871, -1.5923835497896301 
1.32999999999987, -1.5920404575357479 
1.3399999999998689, -1.5916807909005173 
1.3499999999998678, -1.5913279681558508 
1.3599999999998666, -1.5910050534263793 
1.3699999999998655, -1.5907270644613942 
1.3799999999998644, -1.5904944212332863 
1.3899999999998633, -1.5902927615813858 
1.3999999999998622, -1.5900991851116073 
1.4099999999998611, -1.5898899353523486 
1.41999999999986, -1.5896448783999966 
1.429999999999859, -1.5893481641440776 
1.4399999999998578, -1.5889874409379823 
1.4499999999998567, -1.5885544242589955 
1.4599999999998556, -1.5880487684300757 
1.4699999999998545, -1.5874855319554664 
1.4799999999998534, -1.586902758324133 
1.4899999999998523, -1.5863597822445898 
1.4999999999998512, -1.5859163379650918 
1.5099999999998501, -1.5855994287802946 
1.519999999999849, -1.5853872043151078 
1.529999999999848, -1.5852273651868727 
1.5399999999998468, -1.5850692191022633 
1.5499999999998457, -1.584880962861049 
1.5599999999998446, -1.5846487744985553 
1.5699999999998435, -1.5843694902804266 
1.5799999999998424, -1.5840456813649992 
1.5899999999998413, -1.5836857223603704 
1.5999999999998402, -1.5833080191682227 
1.6099999999998391, -1.5829453416628176 
1.619999999999838, -1.5826410738128138 
1.629999999999837, -1.5824312423734455 
1.6399999999998358, -1.5823216307605024 
1.6499999999998347, -1.5822816836032398 
1.6599999999998336, -1.5822617622296593 
1.6699999999998325, -1.582216351995121 
1.6799999999998314, -1.5821163202000081 
1.6899999999998303, -1.5819490693227396 
1.6999999999998292, -1.5817135373650844 
1.709999999999828, -1.5814155872765503 
1.719999999999827, -1.5810658337712493 
1.729999999999826, -1.5806796983546765 
1.7399999999998248, -1.5802781387261147 
1.7499999999998237, -1.5798865420267474 
1.7599999999998226, -1.5795295543148486 
1.7699999999998215, -1.5792225328481053 
1.7799999999998204, -1.5789646628153977 
1.7899999999998193, -1.5787394689392147 
1.7999999999998182, -1.5785225483488186 
1.809999999999817, -1.57829010767288 
1.819999999999816, -1.5780229401313708 
1.8299999999998149, -1.577706025702711 
1.8399999999998138, -1.5773271560880662 
1.8499999999998127, -1.5768779885841238 
1.8599999999998116, -1.5763599236505423 
1.8699999999998105, -1.5757948725179751 
1.8799999999998094, -1.5752344987045783 
1.8899999999998083, -1.574752571564895 
1.8999999999998072, -1.5744099821354687 
1.909999999999806, -1.5742141123851934 
1.919999999999805, -1.5741150263813717 
1.9299999999998039, -1.574042536438116 
1.9399999999998028, -1.5739433790845179 
1.9499999999998017, -1.5737920058611257 
1.9599999999998006, -1.5735829269007007 
1.9699999999997995, -1.5733205298471113 
1.9799999999997984, -1.573013653243474 
1.9899999999997973, -1.5726752952065828 
1.9999999999997962, -1.5723251744554063 
2.0099999999998173, -1.571991062782558 
2.0199999999998384, -1.5717037273101497 
2.0299999999998595, -1.571484308568691 
2.0399999999998806, -1.5713322867233965 
2.0499999999999017, -1.5712249723880232 
2.059999999999923, -1.5711286826156958 
2.069999999999944, -1.5710116101788916 
2.079999999999965, -1.5708507234728328 
2.089999999999986, -1.5706325529571674 
2.100000000000007, -1.5703513094572217 
2.1100000000000283, -1.5700072607975981 
2.1200000000000494, -1.56960668699284 
2.1300000000000705, -1.569163389290453 
2.1400000000000916, -1.56870040363869 
2.1500000000001127, -1.568249046414743 
2.160000000000134, -1.567842041482899 
2.170000000000155, -1.5675010661315139 
2.180000000000176, -1.5672261864114643 
2.190000000000197, -1.5669965884250057 
2.2000000000002182, -1.5667822209020268 
2.2100000000002393, -1.5665558861349294 
2.2200000000002604, -1.56629807936601 
2.2300000000002815, -1.565995714919019 
2.2400000000003026, -1.5656396663660082 
2.2500000000003237, -1.5652250565682588 
2.260000000000345, -1.5647565517326474 
2.270000000000366, -1.5642584126903307 
2.280000000000387, -1.563782492369362 
2.290000000000408, -1.5633987813341461 
2.3000000000004293, -1.5631597303253355 
2.3100000000004504, -1.5630624319093065 
2.3200000000004715, -1.5630493434514008 
2.3300000000004926, -1.5630470569507324 
2.3400000000005137, -1.5630022495266416 
2.3500000000005348, -1.562891083124828 
2.360000000000556, -1.5627107968064233 
2.370000000000577, -1.5624689022107046 
2.380000000000598, -1.562176963407773 
2.390000000000619, -1.5618492487615314 
2.4000000000006403, -1.561504079591304 
2.4100000000006614, -1.5611646641903436 
2.4200000000006825, -1.560855903634696 
2.4300000000007036, -1.5605962435820917 
2.4400000000007247, -1.5603892022768255 
2.450000000000746, -1.560221458268401 
2.460000000000767, -1.560068927918194 
2.470000000000788, -1.5599055984000074 
2.480000000000809, -1.5597095459317885 
2.49000000000083, -1.55946473804928 
2.5000000000008513, -1.5591604768092142 
2.5100000000008724, -1.5587909153220632 
2.5200000000008935, -1.5583562195576874 
2.5300000000009146, -1.5578657790048904 
2.5400000000009357, -1.557342275784452 
2.550000000000957, -1.556822955426623 
2.560000000000978, -1.5563525733236483 
2.570000000000999, -1.5559661331277335 
2.58000000000102, -1.5556708884633341 
2.5900000000010412, -1.5554436377054321 
2.6000000000010624, -1.5552461910699753 
2.6100000000010835, -1.5550438700181748 
2.6200000000011046, -1.5548137640890674 
2.6300000000011257, -1.554543312990469 
2.6400000000011468, -1.5542261723247992 
2.650000000001168, -1.5538604485380232 
2.660000000001189, -1.5534514558595602 
2.67000000000121, -1.5530188670921725 
2.680000000001231, -1.5526036820834173 
2.6900000000012523, -1.5522636671930068 
2.7000000000012734, -1.5520478644104732 
2.7100000000012945, -1.5519634219903657 
2.7200000000013156, -1.5519674634619023 
2.7300000000013367, -1.5519936843231035 
2.740000000001358, -1.5519859812329735 
2.750000000001379, -1.5519135388477898 
2.7600000000014, -1.5517677523902278 
2.770000000001421, -1.5515530684851706 
2.780000000001442, -1.551279879040143 
2.7900000000014633, -1.5509615157300158 
2.8000000000014844, -1.5506143116539184 
2.8100000000015055, -1.5502584807003736 
2.8200000000015266, -1.5499170062858654 
2.8300000000015477, -1.5496106399752896 
2.840000000001569, -1.5493505061704822 
2.85000000000159, -1.5491332394106478 
2.860000000001611, -1.5489424979840702 
2.870000000001632, -1.5487555140515818 
2.8800000000016532, -1.5485498378452704 
2.8900000000016743, -1.548306809640362 
2.9000000000016954, -1.5480118775094174 
2.9100000000017165, -1.5476539878924749 
2.9200000000017377, -1.5472263150081131 
2.9300000000017588, -1.5467297274795568 
2.94000000000178, -1.5461789260253682 
2.950000000001801, -1.54560825452168 
2.960000000001822, -1.54506999469282 
2.970000000001843, -1.544617762895107 
2.9800000000018643, -1.544279614414401 
2.9900000000018854, -1.5440423722031063 
3.0000000000019065, -1.5438630985327455 
3.0100000000019276, -1.5436952452079056 
3.0200000000019487, -1.5435061052046841 
3.03000000000197, -1.5432788567362103 
3.040000000001991, -1.5430071238111198 
3.050000000002012, -1.5426901645702593 
3.060000000002033, -1.5423320715202813 
3.070000000002054, -1.5419453467023503 
3.0800000000020753, -1.5415567452752306 
3.0900000000020964, -1.5412089478154407 
3.1000000000021175, -1.5409488635958328 
3.1100000000021386, -1.540802608299897 
3.1200000000021597, -1.5407563299396754 
3.130000000002181, -1.540762727758771 
3.140000000002202, -1.5407666064728494 
3.150000000002223, -1.5407264897021684 
3.160000000002244, -1.540621110788582 
3.1700000000022652, -1.5404453687976611 
3.1800000000022863, -1.5402038136822542 
3.1900000000023074, -1.5399061031828876 
3.2000000000023285, -1.5395653465351289 
3.2100000000023496, -1.5391984069069782 
3.2200000000023707, -1.5388262259040215 
3.230000000002392, -1.5384718149791095 
3.240000000002413, -1.5381547299075797 
3.250000000002434, -1.537884029566578 
3.260000000002455, -1.537654380928527 
3.2700000000024763, -1.5374484524472336 
3.2800000000024974, -1.5372437222946185 
3.2900000000025185, -1.5370187435534417 
3.3000000000025396, -1.5367557866480452 
3.3100000000025607, -1.536440532436059 
3.3200000000025818, -1.5360613604603015 
3.330000000002603, -1.5356106457445613 
3.340000000002624, -1.5350896094105093 
3.350000000002645, -1.5345164479702007 
3.360000000002666, -1.5339332451443601 
3.3700000000026873, -1.533401619704239 
3.3800000000027084, -1.5329790619066317 
3.3900000000027295, -1.5326867563718178 
3.4000000000027506, -1.5324978661105937 
3.4100000000027717, -1.5323584625746565 
3.420000000002793, -1.532218398546965 
3.430000000002814, -1.5320468252477055 
3.440000000002835, -1.531830723012082 
3.450000000002856, -1.5315675581526922 
3.460000000002877, -1.5312600533516985 
3.4700000000028983, -1.530915386350437 
3.4800000000029194, -1.5305482620879038 
3.4900000000029405, -1.5301851849388253 
3.5000000000029616, -1.5298640747523227 
3.5100000000029827, -1.5296227610148299 
3.520000000003004, -1.52947894385267 
3.530000000003025, -1.529417506359274 
3.540000000003046, -1.529397814297151 
3.550000000003067, -1.5293737090710127 
3.5600000000030882, -1.5293096617438826 
3.5700000000031094, -1.5291859081967503 
3.5800000000031305, -1.52899593673825 
3.5900000000031516, -1.5287419399095523 
3.6000000000031727, -1.5284315039747347 
3.6100000000031938, -1.5280764054435407 
3.620000000003215, -1.5276929292701342 
3.630000000003236, -1.52730212269107 
3.640000000003257, -1.5269278250496705 
3.650000000003278, -1.5265911551606424 
3.6600000000032993, -1.5263030734545464 
3.6700000000033204, -1.5260596873558587 
3.6800000000033415, -1.5258441305487518 
3.6900000000033626, -1.525633615577759 
3.7000000000033837, -1.5254062995655047 
3.710000000003405, -1.52514426217019 
3.720000000003426, -1.5248331032114368 
3.730000000003447, -1.5244608691387325 
3.740000000003468, -1.5240189405970297 
3.750000000003489, -1.5235067127621584 
3.7600000000035103, -1.522940233840516 
3.7700000000035314, -1.5223606117566015 
3.7800000000035525, -1.5218314391090124 
3.7900000000035736, -1.5214150696899365 
3.8000000000035947, -1.521137218317557 
3.810000000003616, -1.5209714833780923 
3.820000000003637, -1.5208601276819014 
3.830000000003658, -1.5207481575249617 
3.840000000003679, -1.5206016712844046 
3.8500000000037002, -1.5204069831614553 
3.8600000000037213, -1.520162441486833 
3.8700000000037424, -1.5198720561835564 
3.8800000000037635, -1.519543595573081 
3.8900000000037847, -1.5191905563135393 
3.9000000000038058, -1.518835714652207 
3.910000000003827, -1.518511660493226 
3.920000000003848, -1.5182527976119284 
3.930000000003869, -1.518079285287698 
3.94000000000389, -1.5179842874207847 
3.9500000000039113, -1.5179364352749314 
3.9600000000039324, -1.5178949836174276 
3.9700000000039535, -1.5178248346147827 
3.9800000000039746, -1.5177033978137306 
3.9900000000039957, -1.5175202375737362 
4.000000000004016, -1.5172738511451893 
4.010000000003993, -1.5169687804406133 
4.02000000000397, -1.5166143125673581 
4.030000000003946, -1.5162246572393576 
4.040000000003923, -1.5158194790938673 
4.0500000000039, -1.5154228364391074 
4.0600000000038765, -1.5150586843992437 
4.070000000003853, -1.51474329721859 
4.08000000000383, -1.5144785745551181 
4.090000000003807, -1.5142513354160345 
4.100000000003783, -1.514039408602407 
4.11000000000376, -1.513819643060095 
4.120000000003737, -1.5135726057339036 
4.130000000003713, -1.5132830340468657 
4.14000000000369, -1.5129384532664472 
4.150000000003667, -1.5125288556523975 
4.1600000000036434, -1.5120496415073972 
4.17000000000362, -1.5115089076038948 
4.180000000003597, -1.5109371037543213 
4.1900000000035735, -1.5103907137754704 
4.20000000000355, -1.5099373309942004 
4.210000000003527, -1.509621320780608 
4.220000000003504, -1.5094358223277298 
4.23000000000348, -1.509329826456939 
4.240000000003457, -1.509241957488937 
4.250000000003434, -1.5091279240614792 
4.26000000000341, -1.5089665453580934 
4.270000000003387, -1.508752804153296 
4.280000000003364, -1.5084897040199436 
4.2900000000033405, -1.5081840659068029 
4.300000000003317, -1.5078466081813622 
4.310000000003294, -1.5074947684621134 
4.320000000003271, -1.50715510658148 
4.330000000003247, -1.5068603504324452 
4.340000000003224, -1.5066379981540952 
4.350000000003201, -1.5064957804051804 
4.360000000003177, -1.5064159931680483 
4.370000000003154, -1.506363950530632 
4.380000000003131, -1.5063027562265991 
4.390000000003107, -1.5062039261459108 
4.400000000003084, -1.5060505742274022 
4.410000000003061, -1.5058358305869908 
4.4200000000030375, -1.505560057669189 
4.430000000003014, -1.5052289420052016 
4.440000000002991, -1.5048530542101468 
4.450000000002968, -1.5044484170609491 
4.460000000002944, -1.5040366928265394 
4.470000000002921, -1.5036429639553563 
4.480000000002898, -1.5032898014753155 
4.490000000002874, -1.5029892474657758 
4.500000000002851, -1.5027376642175247 
4.510000000002828, -1.5025176929570665 
4.520000000002804, -1.5023058606554651 
4.530000000002781, -1.5020799629360693 
4.540000000002758, -1.5018221981461894 
4.5500000000027345, -1.5015186084836711 
4.560000000002711, -1.5011576640003268 
4.570000000002688, -1.5007306542885939 
4.580000000002665, -1.5002357634670815 
4.590000000002641, -1.4996863125249225 
4.600000000002618, -1.4991197617164211 
4.610000000002595, -1.4985974430298832 
4.620000000002571, -1.4981837523610968 
4.630000000002548, -1.4979106645321012 
4.640000000002525, -1.497757579308261 
4.6500000000025015, -1.4976675848178982 
4.660000000002478, -1.4975820752023568 
4.670000000002455, -1.4974627755822267 
4.6800000000024315, -1.497293367048848 
4.690000000002408, -1.4970714945892345 
4.700000000002385, -1.4968013648624467 
4.710000000002362, -1.4964905265750255 
4.720000000002338, -1.496150602530907 
4.730000000002315, -1.4958002350565929 
4.740000000002292, -1.4954668963643738 
4.750000000002268, -1.4951827897398968 
4.760000000002245, -1.4949728179425983 
4.770000000002222, -1.494841093136428 
4.7800000000021985, -1.4947673585648782 
4.790000000002175, -1.494716548077873 
4.800000000002152, -1.4946529905924184 
4.810000000002129, -1.4945498679743 
4.820000000002105, -1.4943916617379225 
4.830000000002082, -1.4941724043935163 
4.840000000002059, -1.4938930213109076 
4.850000000002035, -1.4935595925338392 
4.860000000002012, -1.493183006598532 
4.870000000001989, -1.4927794996914527 
4.880000000001965, -1.4923706946343864 
4.890000000001942, -1.4919812074849106 
4.900000000001919, -1.4916327172212056 
4.9100000000018955, -1.4913362776649448 
4.920000000001872, -1.4910876596137013 
4.930000000001849, -1.4908695366182747 
4.940000000001826, -1.4906588696214036 
