t, s[1].omega / s[0].omega 
0, -2.6249960301423276 
0.009999999999999995, -2.624547145928385 
0.019999999999999934, -2.6240035053533655 
0.029999999999999874, -2.623405796418912 
0.04000000000000012, -2.622851593285164 
0.050000000000000405, -2.622438139851977 
0.06000000000000069, -2.6221421134359204 
0.07000000000000098, -2.621858266409716 
0.08000000000000126, -2.6215208912338794 
0.09000000000000155, -2.621119687464363 
0.10000000000000184, -2.6206749429180127 
0.11000000000000212, -2.6202295876525965 
0.12000000000000241, -2.619830648760999 
0.130000000000002, -2.619489329335902 
0.1400000000000009, -2.6191715751139637 
0.1499999999999998, -2.6188288760849217 
0.1599999999999987, -2.618423358544804 
0.1699999999999976, -2.6179317605037156 
0.1799999999999965, -2.6173551756393163 
0.1899999999999954, -2.616762551682479 
0.1999999999999943, -2.6163051937795867 
0.2099999999999932, -2.6160583115098293 
0.2199999999999921, -2.615903902893669 
0.229999999999991, -2.615699757797305 
0.2399999999999899, -2.6153950618085715 
0.2499999999999888, -2.61499401356564 
0.2599999999999877, -2.6145186873468598 
0.2699999999999866, -2.614007562949211 
0.2799999999999855, -2.6135204564368486 
0.2899999999999844, -2.6131099650124976 
0.2999999999999833, -2.61276782432989 
0.3099999999999822, -2.612434479356813 
0.3199999999999811, -2.61206065987584 
0.32999999999998, -2.61162999029359 
0.3399999999999789, -2.6111582278315333 
0.3499999999999778, -2.610702017056063 
0.35999999999997667, -2.610333719058765 
0.36999999999997557, -2.610060218678756 
0.37999999999997447, -2.6098123503724215 
0.38999999999997337, -2.609519872721403 
0.39999999999997227, -2.609144818483232 
0.40999999999997117, -2.6086696580147146 
0.41999999999997006, -2.6080931323528667 
0.42999999999996896, -2.6074600478327894 
0.43999999999996786, -2.60689592585267 
0.44999999999996676, -2.6065188587659645 
0.45999999999996566, -2.606280392192088 
0.46999999999996456, -2.6060435223640868 
0.47999999999996346, -2.6057359160082245 
0.48999999999996235, -2.605351558977738 
0.49999999999996125, -2.604912069342239 
0.5099999999999602, -2.604455496308948 
0.519999999999959, -2.6040273538619276 
0.529999999999958, -2.603652886280549 
0.5399999999999568, -2.6033154611472007 
0.5499999999999557, -2.6029708024376186 
0.5599999999999546, -2.602578398073919 
0.5699999999999535, -2.6021151570762835 
0.5799999999999524, -2.601584181070719 
0.5899999999999513, -2.6010473804856717 
0.5999999999999502, -2.6006304384685137 
0.6099999999999491, -2.600391234108991 
0.619999999999948, -2.600229623777182 
0.6299999999999469, -2.6000219932807194 
0.6399999999999458, -2.5997169503881583 
0.6499999999999447, -2.5993101254021735 
0.6599999999999436, -2.598814288787301 
0.6699999999999425, -2.5982625547702507 
0.6799999999999414, -2.5977253077414977 
0.6899999999999403, -2.5972848884669864 
0.6999999999999392, -2.5969497837682747 
0.7099999999999381, -2.5966456883533833 
0.719999999999937, -2.5963057178643463 
0.7299999999999359, -2.5959081191190956 
0.7399999999999348, -2.5954642926828773 
0.7499999999999337, -2.5950151902445313 
0.7599999999999326, -2.59461788200132 
0.7699999999999315, -2.5942943785538497 
0.7799999999999304, -2.594007205501814 
0.7899999999999293, -2.593699228914008 
0.7999999999999282, -2.5933281413378877 
0.8099999999999271, -2.5928681002331606 
0.819999999999926, -2.5923082637553296 
0.8299999999999249, -2.59168116413848 
0.8399999999999238, -2.591109368607712 
0.8499999999999227, -2.590736103387726 
0.8599999999999216, -2.590533611284049 
0.8699999999999205, -2.590347590724012 
0.8799999999999194, -2.5900837089420197 
0.8899999999999183, -2.58972807420282 
0.8999999999999172, -2.589298716395164 
0.9099999999999161, -2.588827772990207 
0.919999999999915, -2.588361372324717 
0.9299999999999139, -2.587944689699291 
0.9399999999999128, -2.5875873215290635 
0.9499999999999117, -2.5872517913425686 
0.9599999999999106, -2.58688919356888 
0.9699999999999095, -2.5864700199741346 
0.9799999999999084, -2.585990377224241 
0.9899999999999073, -2.5854875000712747 
0.9999999999999062, -2.5850529271899836 
1.0099999999999052, -2.5847587847825078 
1.019999999999904, -2.5845580007889106 
1.029999999999903, -2.584345024045564 
1.039999999999902, -2.5840545740216934 
1.0499999999999008, -2.583665689759665 
1.0599999999998997, -2.5831767509274997 
1.0699999999998986, -2.5826049292653233 
1.0799999999998975, -2.582012563727379 
1.0899999999998964, -2.581509989316655 
1.0999999999998953, -2.5811567567761515 
1.1099999999998942, -2.5808840792772942 
1.119999999999893, -2.5805930035737483 
1.129999999999892, -2.580240666767442 
1.1399999999998909, -2.5798287542519853 
1.1499999999998898, -2.5793841389515992 
1.1599999999998887, -2.578953030231922 
1.1699999999998876, -2.578575727631444 
1.1799999999998865, -2.578250665029039 
1.1899999999998854, -2.5779377803048407 
1.1999999999998843, -2.5775907406344176 
1.2099999999998832, -2.5771756667141092 
1.219999999999882, -2.576672655095197 
1.229999999999881, -2.576089466954989 
1.2399999999998799, -2.575506736079351 
1.2499999999998788, -2.5750754859845877 
1.2599999999998777, -2.57484862758666 
1.2699999999998766, -2.5746986924091226 
1.2799999999998755, -2.5744931316808004 
1.2899999999998744, -2.574188449315233 
1.2999999999998733, -2.5737909407058828 
1.3099999999998722, -2.5733233297259757 
1.319999999999871, -2.5728237141873502 
1.32999999999987, -2.572348465075254 
1.3399999999998689, -2.5719452026067704 
1.3499999999998678, -2.5716060286429356 
1.3599999999998666, -2.5712759045108 
1.3699999999998655, -2.5709072327633966 
1.3799999999998644, -2.570481891526316 
1.3899999999998633, -2.5700117443229855 
1.3999999999998622, -2.569549810590467 
1.4099999999998611, -2.569174001343449 
1.41999999999986, -2.5689050141744305 
1.429999999999859, -2.568676780559763 
1.4399999999998578, -2.5684118107640304 
1.4499999999998567, -2.568067361789746 
1.4599999999998556, -2.567625629849647 
1.4699999999998545, -2.5670830784154104 
1.4799999999998534, -2.5664682878411678 
1.4899999999998523, -2.5658781991230484 
1.4999999999998512, -2.5654400062660607 
1.5099999999998501, -2.565161717893756 
1.519999999999849, -2.564925775462919 
1.529999999999848, -2.5646397201094233 
1.5399999999998468, -2.5642807009104946 
1.5499999999998457, -2.5638619168563275 
1.5599999999998446, -2.5634154569035887 
1.5699999999998435, -2.5629860217646043 
1.5799999999998424, -2.5626069844581933 
1.5899999999998413, -2.562273447831502 
1.5999999999998402, -2.5619471284053104 
1.6099999999998391, -2.561584757053354 
1.619999999999838, -2.561155935709831 
1.629999999999837, -2.5606474105557164 
1.6399999999998358, -2.5600839006924887 
1.6499999999998347, -2.559566952217847 
1.6599999999998336, -2.5592250646342274 
1.6699999999998325, -2.559046905926099 
1.6799999999998314, -2.5588935524031635 
1.6899999999998303, -2.558664126889288 
1.6999999999998292, -2.5583330539960554 
1.709999999999828, -2.5579084870650974 
1.719999999999827, -2.557412267639046 
1.729999999999826, -2.5568871830073148 
1.7399999999998248, -2.5564012169071484 
1.7499999999998237, -2.556006877853773 
1.7599999999998226, -2.5556835655791788 
1.7699999999998215, -2.5553641584234037 
1.7799999999998204, -2.55500145508328 
1.7899999999998193, -2.5545833164504095 
1.7999999999998182, -2.554127477852062 
1.809999999999817, -2.55368588549708 
1.819999999999816, -2.553320873309167 
1.8299999999998149, -2.5530396037152348 
1.8399999999998138, -2.5527847918934965 
1.8499999999998127, -2.55249342880373 
1.8599999999998116, -2.5521272934048858 
1.8699999999998105, -2.551666211592387 
1.8799999999998094, -2.551104597149716 
1.8899999999998083, -2.550477617208131 
1.8999999999998072, -2.54990007743553 
1.909999999999806, -2.5495031138707196 
1.919999999999805, -2.5492678736946077 
1.9299999999998039, -2.54905805413655 
1.9399999999998028, -2.548784177399571 
1.9499999999998017, -2.5484299251832225 
1.9599999999998006, -2.5480115447681695 
1.9699999999997995, -2.547560978118648 
1.9799999999997984, -2.547121845520979 
1.9899999999997973, -2.5467303344765164 
1.9999999999997962, -2.5463878361986003 
2.0099999999998173, -2.546058974804514 
2.0199999999998384, -2.5456997993683848 
2.0299999999998595, -2.545280026808388 
2.0399999999998806, -2.544788647780913 
2.0499999999999017, -2.5442520855949002 
2.059999999999923, -2.5437650852244036 
2.069999999999944, -2.54343910550992 
2.079999999999965, -2.5432581639651586 
2.089999999999986, -2.543096789131174 
2.100000000000007, -2.542862617006322 
2.1100000000000283, -2.542528690973243 
2.1200000000000494, -2.542098559106854 
2.1300000000000705, -2.5415896481654445 
2.1400000000000916, -2.541043564933623 
2.1500000000001127, -2.5405357459270865 
2.160000000000134, -2.540132421592455 
2.170000000000155, -2.53981704713021 
2.180000000000176, -2.5395140645947936 
2.190000000000197, -2.539169023677115 
2.2000000000002182, -2.5387677037645604 
2.2100000000002393, -2.5383251527275688 
2.2200000000002604, -2.537885431159744 
2.2300000000002815, -2.537505095903013 
2.2400000000003026, -2.537200452861866 
2.2500000000003237, -2.5369293074231622 
2.260000000000345, -2.5366341410551536 
2.270000000000366, -2.536274352173076 
2.280000000000387, -2.535825837739517 
2.290000000000408, -2.5352780046748107 
2.3000000000004293, -2.5346571553161583 
2.3100000000004504, -2.5340703109915683 
2.3200000000004715, -2.5336607755810783 
2.3300000000004926, -2.5334328862812465 
2.3400000000005137, -2.5332485412450128 
2.3500000000005348, -2.5330025396944214 
2.360000000000556, -2.532670167614884 
2.370000000000577, -2.5322646855643356 
2.380000000000598, -2.531814494161197 
2.390000000000619, -2.531360907412121 
2.4000000000006403, -2.530946855484432 
2.4100000000006614, -2.5305886506091464 
2.4200000000006825, -2.530260309925703 
2.4300000000007036, -2.529916081683363 
2.4400000000007247, -2.5295209237498493 
2.450000000000746, -2.5290595028372644 
2.460000000000767, -2.5285464171247307 
2.470000000000788, -2.5280535790498684 
2.480000000000809, -2.527689613232238 
2.49000000000083, -2.5274761422680045 
2.5000000000008513, -2.527312225305741 
2.5100000000008724, -2.527096338132859 
2.5200000000008935, -2.526787072357245 
2.5300000000009146, -2.526379298967931 
2.5400000000009357, -2.525882781411944 
2.550000000000957, -2.525328322836915 
2.560000000000978, -2.524785795110961 
2.570000000000999, -2.5243414735340606 
2.58000000000102, -2.5240118366338993 
2.5900000000010412, -2.5237249152052277 
2.6000000000010624, -2.5234085680112264 
2.6100000000010835, -2.52303564024941 
2.6200000000011046, -2.5226120819805056 
2.6300000000011257, -2.5221698398190977 
2.6400000000011468, -2.5217614616810553 
2.650000000001168, -2.5214228329406945 
2.660000000001189, -2.5211359941295393 
2.67000000000121, -2.5208492742789805 
2.680000000001231, -2.5205160409407266 
2.6900000000012523, -2.5201060122576737 
2.7000000000012734, -2.5196013103914137 
2.7100000000012945, -2.519007462868343 
2.7200000000013156, -2.5183952073407334 
2.7300000000013367, -2.5179106592538654 
2.740000000001358, -2.517633090288574 
2.750000000001379, -2.517462167287406 
2.7600000000014, -2.517260810366289 
2.770000000001421, -2.516973520984137 
2.780000000001442, -2.5166020097044797 
2.7900000000014633, -2.5161682562738252 
2.8000000000014844, -2.5157069991415417 
2.8100000000015055, -2.5152636406503115 
2.8200000000015266, -2.514874100250819 
2.8300000000015477, -2.514535572657769 
2.840000000001569, -2.514207634666162 
2.85000000000159, -2.5138465258479408 
2.860000000001611, -2.513426694384931 
2.870000000001632, -2.5129453491757476 
2.8800000000016532, -2.512440195302925 
2.8900000000016743, -2.5120047997483095 
2.9000000000016954, -2.511717791437613 
2.9100000000017165, -2.5115374583918877 
2.9200000000017377, -2.51135409602517 
2.9300000000017588, -2.5110962956270373 
2.94000000000178, -2.5107420906953704 
2.950000000001801, -2.510291861053627 
2.960000000001822, -2.509760498671901 
2.970000000001843, -2.509193685729583 
2.9800000000018643, -2.5086784256434975 
2.9900000000018854, -2.5082865741438907 
3.0000000000019065, -2.5079914434587502 
3.0100000000019276, -2.507706676833634 
3.0200000000019487, -2.5073759631955737 
3.03000000000197, -2.50698712446942 
3.040000000001991, -2.506555772795827 
3.050000000002012, -2.5061218013263273 
3.060000000002033, -2.5057358077760528 
3.070000000002054, -2.505416843367315 
3.0800000000020753, -2.505133375599865 
3.0900000000020964, -2.5048344257952384 
3.1000000000021175, -2.504479467022226 
3.1100000000021386, -2.5040424302018476 
3.1200000000021597, -2.503510051395578 
3.130000000002181, -2.502902641096617 
3.140000000002202, -2.502318110410662 
3.150000000002223, -2.50190234343022 
3.160000000002244, -2.5016791693867066 
3.1700000000022652, -2.50151654928748 
3.1800000000022863, -2.501297967809159 
3.1900000000023074, -2.500989672249023 
3.2000000000023285, -2.5006011882363834 
3.2100000000023496, -2.500157423794017 
3.2200000000023707, -2.4996960365916623 
3.230000000002392, -2.49926287789619 
3.240000000002413, -2.49888759663693 
3.250000000002434, -2.4985573827102914 
3.260000000002455, -2.4982278754936003 
3.2700000000024763, -2.4978585739688475 
3.2800000000024974, -2.497428637044395 
3.2900000000025185, -2.4969415512858544 
3.3000000000025396, -2.496445488469257 
3.3100000000025607, -2.4960380871768164 
3.3200000000025818, -2.495778943663307 
3.330000000002603, -2.4956064805380747 
3.340000000002624, -2.4954146921531533 
3.350000000002645, -2.495143101124683 
3.360000000002666, -2.4947750568488245 
3.3700000000026873, -2.494312718582968 
3.3800000000027084, -2.493773779449397 
3.3900000000027295, -2.4932095393132934 
3.4000000000027506, -2.4927094768918536 
3.4100000000027717, -2.492335296280553 
3.420000000002793, -2.4920480210854405 
3.430000000002814, -2.491762067000521 
3.440000000002835, -2.4914272759590634 
3.450000000002856, -2.491035145089083 
3.460000000002877, -2.4906034385635194 
3.4700000000028983, -2.4901736777502825 
3.4800000000029194, -2.4897953427815254 
3.4900000000029405, -2.4894833719994813 
3.5000000000029616, -2.4892035151359417 
3.5100000000029827, -2.488905109142636 
3.520000000003004, -2.4885489475329345 
3.530000000003025, -2.4881099309507335 
3.540000000003046, -2.487575723425671 
3.550000000003067, -2.486968188089821 
3.5600000000030882, -2.4863861795486084 
3.5700000000031094, -2.4859731693132456 
3.5800000000031305, -2.4857504172469223 
3.5900000000031516, -2.485587445849934 
3.6000000000031727, -2.4853696493127693 
3.6100000000031938, -2.485063519839047 
3.620000000003215, -2.484678293853154 
3.630000000003236, -2.4842385529527817 
3.640000000003257, -2.483781347584947 
3.650000000003278, -2.4833515071654673 
3.6600000000032993, -2.4829781260777866 
3.6700000000033204, -2.4826494636083867 
3.6800000000033415, -2.482322605616421 
3.6900000000033626, -2.4819571568040537 
3.7000000000033837, -2.4815311743723583 
3.710000000003405, -2.4810455512695495 
3.720000000003426, -2.4805439608761697 
3.730000000003447, -2.480123334177826 
3.740000000003468, -2.479854171560585 
3.750000000003489, -2.4796848913073375 
3.7600000000035103, -2.4795061761102057 
3.7700000000035314, -2.479250881575637 
3.7800000000035525, -2.4788997470223 
3.7900000000035736, -2.4784547299893633 
3.8000000000035947, -2.477931762864263 
3.810000000003616, -2.477375409476838 
3.820000000003637, -2.476867427921824 
3.830000000003658, -2.476475572606434 
3.840000000003679, -2.476177559058541 
3.8500000000037002, -2.4758929065078545 
3.8600000000037213, -2.4755658655506374 
3.8700000000037424, -2.47518213758742 
3.8800000000037635, -2.474754760819077 
3.8900000000037847, -2.4743216166901854 
3.9000000000038058, -2.473934976981197 
3.910000000003827, -2.473619459947547 
3.920000000003848, -2.473346469434366 
3.930000000003869, -2.473063513666244 
3.94000000000389, -2.472727944169484 
3.9500000000039113, -2.4723127976595554 
3.9600000000039324, -2.471802772344085 
3.9700000000039535, -2.4712073925882856 
3.9800000000039746, -2.4706011581004463 
3.9900000000039957, -2.4701254381177806 
4.000000000004016, -2.4698500780812847 
4.010000000003993, -2.469677114261917 
4.02000000000397, -2.4694765085591666 
4.030000000003946, -2.4691944712969316 
4.040000000003923, -2.4688317571705465 
4.0500000000039, -2.4684092432243863 
4.0600000000038765, -2.467960141612763 
4.070000000003853, -2.467527312714509 
4.08000000000383, -2.467144620138769 
4.090000000003807, -2.4668111546932487 
4.100000000003783, -2.466490830571469 
4.11000000000376, -2.4661412044217856 
4.120000000003737, -2.4657343366525377 
4.130000000003713, -2.4652611201864367 
4.14000000000369, -2.4647461014587164 
4.150000000003667, -2.464273050398153 
4.1600000000036434, -2.4639446544367845 
4.17000000000362, -2.4637593028884384 
4.180000000003597, -2.463608378485824 
4.1900000000035735, -2.463398301325605 
4.20000000000355, -2.4630946601596877 
4.210000000003527, -2.4626959187989024 
4.220000000003504, -2.462214190829815 
4.23000000000348, -2.461680210663597 
4.240000000003457, -2.4611567922301867 
4.250000000003434, -2.460719200372844 
4.26000000000341, -2.4603855631578933 
4.270000000003387, -2.4600966226753505 
4.280000000003364, -2.4597855706976257 
4.2900000000033405, -2.459422375379085 
4.300000000003317, -2.4590078269346374 
4.310000000003294, -2.4585683984884747 
4.320000000003271, -2.4581561836604804 
4.330000000003247, -2.457817901517103 
4.340000000003224, -2.4575468308028134 
4.350000000003201, -2.4572905940283425 
4.360000000003177, -2.4569965915846725 
4.370000000003154, -2.456631368162528 
4.380000000003131, -2.4561755477515965 
4.390000000003107, -2.4556235019944994 
4.400000000003084, -2.4550082539491442 
4.410000000003061, -2.4544365074524115 
4.4200000000030375, -2.454036088044039 
4.430000000003014, -2.4538044191819974 
4.440000000002991, -2.4536160148053847 
4.450000000002968, -2.4533739210531182 
4.460000000002944, -2.4530527380461615 
4.470000000002921, -2.4526632177554992 
4.480000000002898, -2.4522313674869993 
4.490000000002874, -2.4517955089946364 
4.500000000002851, -2.4513954838130214 
4.510000000002828, -2.4510477356339715 
4.520000000002804, -2.450731631730628 
4.530000000002781, -2.4504058787534464 
4.540000000002758, -2.4500343018534996 
4.5500000000027345, -2.449595286918261 
4.560000000002711, -2.4490871902293927 
4.570000000002688, -2.4485537343924855 
4.580000000002665, -2.4481035808962277 
4.590000000002641, -2.4478280079961774 
4.600000000002618, -2.447678908876125 
4.610000000002595, -2.4475303623098625 
4.620000000002571, -2.447303741681515 
4.630000000002548, -2.446980265910516 
4.640000000002525, -2.4465673618098025 
4.6500000000025015, -2.446084566223848 
4.660000000002478, -2.4455703918968767 
4.670000000002455, -2.445087177565433 
4.6800000000024315, -2.4446895250787937 
4.690000000002408, -2.4443702808411287 
4.700000000002385, -2.44406993600924 
4.710000000002362, -2.443736830163377 
4.720000000002338, -2.4433507307823374 
4.730000000002315, -2.4429176036015288 
4.740000000002292, -2.442472752661391 
4.750000000002268, -2.4420784413381926 
4.760000000002245, -2.441776411267844 
4.770000000002222, -2.4415394842412295 
4.7800000000021985, -2.4413017450936176 
4.790000000002175, -2.4410109595208214 
4.800000000002152, -2.440639291246821 
4.810000000002129, -2.440173212849138 
4.820000000002105, -2.4396143207737486 
4.830000000002082, -2.4390045800157276 
4.840000000002059, -2.4384510923058667 
4.850000000002035, -2.4380615947116793 
4.860000000002012, -2.437816439893429 
4.870000000001989, -2.437600561708741 
4.880000000001965, -2.437333280163384 
4.890000000001942, -2.436995250303953 
4.900000000001919, -2.436598121594784 
4.9100000000018955, -2.436169748642875 
4.920000000001872, -2.435750572922386 
4.930000000001849, -2.4353762519861784 
4.940000000001826, -2.4350516061050627 
4.950000000001802, -2.4347472641713206 
4.960000000001779, -2.434421856440279 
4.970000000001756, -2.434042041499721 
