t, s[1].omega / s[0].omega 
0, -2.6249960292537424 
0.009999999999999995, -2.6245379751321094 
0.019999999999999934, -2.62396651013814 
0.029999999999999874, -2.623325179641172 
0.04000000000000012, -2.6227301822762366 
0.050000000000000405, -2.6223065216639987 
0.06000000000000069, -2.6220290274263065 
0.07000000000000098, -2.6217668135302388 
0.08000000000000126, -2.621440737123798 
0.09000000000000155, -2.62104013909812 
0.10000000000000184, -2.6205893159052023 
0.11000000000000212, -2.620138261807276 
0.12000000000000241, -2.6197411564625277 
0.130000000000002, -2.6194094551787126 
0.1400000000000009, -2.6191030646910423 
0.1499999999999998, -2.6187667163276815 
0.1599999999999987, -2.6183571072130927 
0.1699999999999976, -2.6178455774867393 
0.1799999999999965, -2.6172291775543917 
0.1899999999999954, -2.616588628776531 
0.1999999999999943, -2.6161168791617055 
0.2099999999999932, -2.6159115927670005 
0.2199999999999921, -2.615816622968111 
0.229999999999991, -2.615654111166685 
0.2399999999999899, -2.615368301399662 
0.2499999999999888, -2.6149686713138083 
0.2599999999999877, -2.6144817902100557 
0.2699999999999866, -2.613950711514318 
0.2799999999999855, -2.6134441473535537 
0.2899999999999844, -2.613026373724911 
0.2999999999999833, -2.612690591123393 
0.3099999999999822, -2.612366447356605 
0.3199999999999811, -2.6119956334245242 
0.32999999999998, -2.6115589190481177 
0.3399999999999789, -2.611074345893857 
0.3499999999999778, -2.6106095623963146 
0.35999999999997667, -2.6102517708607116 
0.36999999999997557, -2.6100057358481856 
0.37999999999997447, -2.6097855275270474 
0.38999999999997337, -2.609509668010029 
0.39999999999997227, -2.6091363690042244 
0.40999999999997117, -2.6086451512232083 
0.41999999999997006, -2.60803060239449 
0.42999999999996896, -2.6073404978641648 
0.43999999999996786, -2.6067287233641325 
0.44999999999996676, -2.6063508000896194 
0.45999999999996566, -2.6061472336886253 
0.46999999999996456, -2.6059438770040186 
0.47999999999996346, -2.6056539870661837 
0.48999999999996235, -2.6052735000316027 
0.49999999999996125, -2.604828928645105 
0.5099999999999602, -2.6043641158518285 
0.519999999999959, -2.6039310056132883 
0.529999999999958, -2.60355854157823 
0.5399999999999568, -2.603228173051588 
0.5499999999999557, -2.602889340734094 
0.5599999999999546, -2.6024952620611397 
0.5699999999999535, -2.602018061661663 
0.5799999999999524, -2.6014588079369667 
0.5899999999999513, -2.6008909669548395 
0.5999999999999502, -2.600473003048449 
0.6099999999999491, -2.6002767188999876 
0.619999999999948, -2.6001701822492596 
0.6299999999999469, -2.6000012494923044 
0.6399999999999458, -2.5997136070449076 
0.6499999999999447, -2.599305961249071 
0.6599999999999436, -2.5987932487773238 
0.6699999999999425, -2.5982112573073284 
0.6799999999999414, -2.5976410202078197 
0.6899999999999403, -2.5971845510441955 
0.6999999999999392, -2.5968568506478973 
0.7099999999999381, -2.5965680719219737 
0.719999999999937, -2.59623744350279 
0.7299999999999359, -2.595839826101558 
0.7399999999999348, -2.5953887657679378 
0.7499999999999337, -2.5949323418011945 
0.7599999999999326, -2.5945378245497217 
0.7699999999999315, -2.5942291965417352 
0.7799999999999304, -2.593960186840581 
0.7899999999999293, -2.5936646505864625 
0.7999999999999282, -2.59329494892702 
0.8099999999999271, -2.5928206694541807 
0.819999999999926, -2.59222528964473 
0.8299999999999249, -2.5915419416173053 
0.8399999999999238, -2.590921041439993 
0.8499999999999227, -2.5905504555329584 
0.8599999999999216, -2.5903953534023776 
0.8699999999999205, -2.5902564953225715 
0.8799999999999194, -2.5900197108484933 
0.8899999999999183, -2.5896731021745807 
0.8999999999999172, -2.58924021262155 
0.9099999999999161, -2.5887581445587537 
0.919999999999915, -2.5882791818502318 
0.9299999999999139, -2.5878558626689188 
0.9399999999999128, -2.5875012717448964 
0.9499999999999117, -2.587172879999668 
0.9599999999999106, -2.5868136548311464 
0.9699999999999095, -2.5863888765203393 
0.9799999999999084, -2.585892783493274 
0.9899999999999073, -2.585368636786602 
0.9999999999999062, -2.5849290124861475 
1.0099999999999052, -2.584662519452899 
1.019999999999904, -2.5845058025482475 
1.029999999999903, -2.584328537654705 
1.039999999999902, -2.5840564120188256 
1.0499999999999008, -2.5836681727838293 
1.0599999999998997, -2.583161919859514 
1.0699999999998986, -2.5825541812409396 
1.0799999999998975, -2.5819149001238726 
1.0899999999998964, -2.5813797872428 
1.0999999999998953, -2.5810290555735906 
1.1099999999998942, -2.580779042513945 
1.119999999999893, -2.580507134961017 
1.129999999999892, -2.580162742239941 
1.1399999999998909, -2.5797490589012946 
1.1499999999998898, -2.5792976562869963 
1.1599999999998887, -2.5788622470011227 
1.1699999999998876, -2.578489016702238 
1.1799999999998865, -2.5781747749282777 
1.1899999999998854, -2.5778729471836614 
1.1999999999998843, -2.577530829919289 
1.2099999999998832, -2.577109376182398 
1.219999999999882, -2.576583232286576 
1.229999999999881, -2.575956932865595 
1.2399999999998799, -2.5753260837388074 
1.2499999999998788, -2.5748845069267885 
1.2599999999998777, -2.574701761030013 
1.2699999999998766, -2.5746104052648433 
1.2799999999998755, -2.574445161072961 
1.2899999999998744, -2.5741587617819297 
1.2999999999998733, -2.5737627606247573 
1.3099999999998722, -2.5732843785384714 
1.319999999999871, -2.5727663089312247 
1.32999999999987, -2.5722731790579507 
1.3399999999998689, -2.5718630171332943 
1.3499999999998678, -2.571529468383674 
1.3599999999998666, -2.5712079488965918 
1.3699999999998655, -2.570842174011429 
1.3799999999998644, -2.570410684830935 
1.3899999999998633, -2.569926654224492 
1.3999999999998622, -2.5694531903566853 
1.4099999999998611, -2.5690850824753033 
1.41999999999986, -2.5688448078759842 
1.429999999999859, -2.568648865535473 
1.4399999999998578, -2.5684057567236045 
1.4499999999998567, -2.568068211353462 
1.4599999999998556, -2.567616458496106 
1.4699999999998545, -2.5670437245849445 
1.4799999999998534, -2.5663783330379704 
1.4899999999998523, -2.565734961562836 
1.4999999999998512, -2.56527725470201 
1.5099999999998501, -2.565020933063934 
1.519999999999849, -2.564817186733869 
1.529999999999848, -2.564551952867487 
1.5399999999998468, -2.5642001283910454 
1.5499999999998457, -2.563778709613544 
1.5599999999998446, -2.5633250690181617 
1.5699999999998435, -2.5628905462005935 
1.5799999999998424, -2.562513143319849 
1.5899999999998413, -2.5621870867287124 
1.5999999999998402, -2.5618687507904214 
1.6099999999998391, -2.5615086288130122 
1.619999999999838, -2.561071058157595 
1.629999999999837, -2.560538106042621 
1.6399999999998358, -2.5599356528555335 
1.6499999999998347, -2.559388351929205 
1.6599999999998336, -2.559061636907879 
1.6699999999998325, -2.5589386018183897 
1.6799999999998314, -2.5588397346571528 
1.6899999999998303, -2.5586436519907827 
1.6999999999998292, -2.55832519372509 
1.709999999999828, -2.5578968358094594 
1.719999999999827, -2.5573834599748624 
1.729999999999826, -2.5568324837360206 
1.7399999999998248, -2.556323264027699 
1.7499999999998237, -2.5559220030774825 
1.7599999999998226, -2.5556073215548394 
1.7699999999998215, -2.555298854869855 
1.7799999999998204, -2.554940364953169 
1.7899999999998193, -2.55451762433092 
1.7999999999998182, -2.554051034119738 
1.809999999999817, -2.553602203207105 
1.819999999999816, -2.5532456818156537 
1.8299999999998149, -2.5529874252357065 
1.8399999999998138, -2.55275686960737 
1.8499999999998127, -2.5524809192151454 
1.8599999999998116, -2.552116963227192 
1.8699999999998105, -2.551641324993279 
1.8799999999998094, -2.551043677655645 
1.8899999999998083, -2.55035990954446 
1.8999999999998072, -2.54972916022687 
1.909999999999806, -2.5493232570291577 
1.919999999999805, -2.549122157036167 
1.9299999999998039, -2.5489513344748844 
1.9399999999998028, -2.548701075632421 
1.9499999999998017, -2.5483550235511183 
1.9599999999998006, -2.547934080737412 
1.9699999999997995, -2.54747531831553 
1.9799999999997984, -2.5470284985519456 
1.9899999999997973, -2.546635155738765 
1.9999999999997962, -2.5462976492165614 
2.0099999999998173, -2.5459759569022165 
2.0199999999998384, -2.54561946755807 
2.0299999999998595, -2.5451925943259233 
2.0399999999998806, -2.544680505324746 
2.0499999999999017, -2.5441119730633526 
2.059999999999923, -2.543603307978965 
2.069999999999944, -2.543296518640591 
2.079999999999965, -2.5431681594363527 
2.089999999999986, -2.543057502741639 
2.100000000000007, -2.542854454372346 
2.1100000000000283, -2.542531815242889 
2.1200000000000494, -2.54209613898921 
2.1300000000000705, -2.541566656167648 
2.1400000000000916, -2.540988902976935 
2.1500000000001127, -2.540451248489872 
2.160000000000134, -2.5400376382251837 
2.170000000000155, -2.53973213409841 
2.180000000000176, -2.539443251065465 
2.190000000000197, -2.53910551666172 
2.2000000000002182, -2.5387024810588317 
2.2100000000002393, -2.538251626215733 
2.2200000000002604, -2.537804727072607 
2.2300000000002815, -2.537428777890226 
2.2400000000003026, -2.537141238306484 
2.2500000000003237, -2.536890238987181 
2.260000000000345, -2.5366090153065803 
2.270000000000366, -2.5362518598778694 
2.280000000000387, -2.535790535409533 
2.290000000000408, -2.5352090917408714 
2.3000000000004293, -2.534532789001248 
2.3100000000004504, -2.5338904241384688 
2.3200000000004715, -2.5334688773489296 
2.3300000000004926, -2.533278024845465 
2.3400000000005137, -2.5331396385133376 
2.3500000000005348, -2.5329233554797734 
2.360000000000556, -2.532603122517841 
2.370000000000577, -2.532197119564559 
2.380000000000598, -2.5317386368181993 
2.390000000000619, -2.531274623268196 
2.4000000000006403, -2.53085433994216 
2.4100000000006614, -2.5304977916182203 
2.4200000000006825, -2.5301762175092115 
2.4300000000007036, -2.529836840547726 
2.4400000000007247, -2.5294386921279997 
2.450000000000746, -2.528962620259036 
2.460000000000767, -2.5284236061623573 
2.470000000000788, -2.527908260858123 
2.480000000000809, -2.5275533688615717 
2.49000000000083, -2.527384170929941 
2.5000000000008513, -2.5272703547230124 
2.5100000000008724, -2.527088832426367 
2.5200000000008935, -2.5267946150345484 
2.5300000000009146, -2.5263845094149375 
2.5400000000009357, -2.5258693348749035 
2.550000000000957, -2.5252817774321312 
2.560000000000978, -2.524702049545725 
2.570000000000999, -2.5242373069295057 
2.58000000000102, -2.52391334704921 
2.5900000000010412, -2.5236432855306252 
2.6000000000010624, -2.5233391639854617 
2.6100000000010835, -2.522969095255231 
2.6200000000011046, -2.522540300060945 
2.6300000000011257, -2.5220900000975357 
2.6400000000011468, -2.5216800756605102 
2.650000000001168, -2.5213519590309685 
2.660000000001189, -2.521082515918184 
2.67000000000121, -2.520810991076684 
2.680000000001231, -2.5204844153030668 
2.6900000000012523, -2.520068112597621 
2.7000000000012734, -2.5195390228962697 
2.7100000000012945, -2.518898256092315 
2.7200000000013156, -2.5182268092889712 
2.7300000000013367, -2.5177104578744336 
2.740000000001358, -2.5174570021887477 
2.750000000001379, -2.517336885739308 
2.7600000000014, -2.517175849553865 
2.770000000001421, -2.5169092539822753 
2.780000000001442, -2.5165428275800377 
2.7900000000014633, -2.5161035517260038 
2.8000000000014844, -2.51563105856683 
2.8100000000015055, -2.515176969146819 
2.8200000000015266, -2.514783493663896 
2.8300000000015477, -2.5144492720178437 
2.840000000001569, -2.514128223853714 
2.85000000000159, -2.5137693573694553 
2.860000000001611, -2.5133423295170036 
2.870000000001632, -2.5128421574388744 
2.8800000000016532, -2.512312139743284 
2.8900000000016743, -2.5118676931518364 
2.9000000000016954, -2.5116075128152806 
2.9100000000017165, -2.511475591827329 
2.9200000000017377, -2.511334486746076 
2.9300000000017588, -2.511101147590069 
2.94000000000178, -2.5107534191115723 
2.950000000001801, -2.5102928635263337 
2.960000000001822, -2.5097346270638967 
2.970000000001843, -2.5091285216717436 
2.9800000000018643, -2.5085780411836103 
2.9900000000018854, -2.5081762444551803 
3.0000000000019065, -2.507894774385581 
3.0100000000019276, -2.507627614428005 
3.0200000000019487, -2.5073066167137723 
3.03000000000197, -2.506917964101761 
3.040000000001991, -2.5064799853400155 
3.050000000002012, -2.506039248695722 
3.060000000002033, -2.505655157880867 
3.070000000002054, -2.505348818604136 
3.0800000000020753, -2.505081819484404 
3.0900000000020964, -2.5047951697807513 
3.1000000000021175, -2.5044429473136676 
3.1100000000021386, -2.5039945618964525 
3.1200000000021597, -2.5034311872992445 
3.130000000002181, -2.502771109695037 
3.140000000002202, -2.50213134230471 
3.150000000002223, -2.501701355612615 
3.160000000002244, -2.501516425141151 
3.1700000000022652, -2.501405350739423 
3.1800000000022863, -2.50122234676581 
3.1900000000023074, -2.5009303827561338 
3.2000000000023285, -2.5005438774621394 
3.2100000000023496, -2.500092502739838 
3.2200000000023707, -2.499618938577947 
3.230000000002392, -2.499175565889124 
3.240000000002413, -2.498797943607021 
3.250000000002434, -2.4984731569474983 
3.260000000002455, -2.4981501877903627 
3.2700000000024763, -2.497781677061495 
3.2800000000024974, -2.4973425507594995 
3.2900000000025185, -2.4968350226862004 
3.3000000000025396, -2.496315472447763 
3.3100000000025607, -2.495905131779491 
3.3200000000025818, -2.4956783983763016 
3.330000000002603, -2.495554480374983 
3.340000000002624, -2.495402035709183 
3.350000000002645, -2.4951518386139884 
3.360000000002666, -2.494787643148487 
3.3700000000026873, -2.494312507874251 
3.3800000000027084, -2.4937444079342668 
3.3900000000027295, -2.4931399473870717 
3.4000000000027506, -2.4926066978513433 
3.4100000000027717, -2.492225984238684 
3.420000000002793, -2.491953784200898 
3.430000000002814, -2.4916849180675014 
3.440000000002835, -2.4913588719367494 
3.450000000002856, -2.490966126637079 
3.460000000002877, -2.490527418214355 
3.4700000000028983, -2.490091244232294 
3.4800000000029194, -2.4897157193820596 
3.4900000000029405, -2.489417105481537 
3.5000000000029616, -2.489153929487015 
3.5100000000029827, -2.488867651967828 
3.520000000003004, -2.4885138338638475 
3.530000000003025, -2.4880628952028707 
3.540000000003046, -2.4874969654841252 
3.550000000003067, -2.486836107350918 
3.5600000000030882, -2.48619853212097 
3.5700000000031094, -2.485770815417037 
3.5800000000031305, -2.4855853218824273 
3.5900000000031516, -2.485473146695183 
3.6000000000031727, -2.4852907178811767 
3.6100000000031938, -2.485001037940079 
3.620000000003215, -2.4846180813258774 
3.630000000003236, -2.484171155582295 
3.640000000003257, -2.4837022947445626 
3.650000000003278, -2.4832626774362523 
3.6600000000032993, -2.482887057953847 
3.6700000000033204, -2.482563715403337 
3.6800000000033415, -2.482243439315039 
3.6900000000033626, -2.481879057648508 
3.7000000000033837, -2.481444219542827 
3.710000000003405, -2.480937987978342 
3.720000000003426, -2.480410919007977 
3.730000000003447, -2.479983168863527 
3.740000000003468, -2.4797436781513733 
3.750000000003489, -2.4796243068576316 
3.7600000000035103, -2.479488312521245 
3.7700000000035314, -2.479257718596677 
3.7800000000035525, -2.4789134219924405 
3.7900000000035736, -2.4784588217344403 
3.8000000000035947, -2.477910422822624 
3.810000000003616, -2.47731682652119 
3.820000000003637, -2.4767748443346016 
3.830000000003658, -2.476371939663233 
3.840000000003679, -2.476085544701506 
3.8500000000037002, -2.475817392955614 
3.8600000000037213, -2.475499896485581 
3.8700000000037424, -2.475116480816983 
3.8800000000037635, -2.474682323861855 
3.8900000000037847, -2.474241600971277 
3.9000000000038058, -2.473856027969953 
3.910000000003827, -2.473553671500331 
3.920000000003848, -2.4732991564430846 
3.930000000003869, -2.473031145735415 
3.94000000000389, -2.472701259751906 
3.9500000000039113, -2.472278372689722 
3.9600000000039324, -2.4717420656158895 
3.9700000000039535, -2.4710979224318237 
3.9800000000039746, -2.47043152371758 
3.9900000000039957, -2.4699229220600323 
4.000000000004016, -2.469668717988403 
4.010000000003993, -2.4695436219889864 
4.02000000000397, -2.4693821382946277 
4.030000000003946, -2.4691208639611677 
4.040000000003923, -2.468763922371557 
4.0500000000039, -2.468336961762662 
4.0600000000038765, -2.467877996523922 
4.070000000003853, -2.4674357751773632 
4.08000000000383, -2.467049771486319 
4.090000000003807, -2.466720502473019 
4.100000000003783, -2.466407180721345 
4.11000000000376, -2.466060602646407 
4.120000000003737, -2.465647725166739 
4.130000000003713, -2.465156042463322 
4.14000000000369, -2.4646120881712084 
4.150000000003667, -2.464117859129746 
4.1600000000036434, -2.4638040036245767 
4.17000000000362, -2.4636670601573383 
4.180000000003597, -2.463567643998929 
4.1900000000035735, -2.4633924387644677 
4.20000000000355, -2.46310445747733 
4.210000000003527, -2.4627045605941165 
4.220000000003504, -2.4622064798626813 
4.23000000000348, -2.461643156356618 
4.240000000003457, -2.4610862004931824 
4.250000000003434, -2.460628239404881 
4.26000000000341, -2.4602968380842904 
4.270000000003387, -2.460021889763336 
4.280000000003364, -2.4597222045616176 
4.2900000000033405, -2.459362028144984 
4.300000000003317, -2.45894218572485 
4.310000000003294, -2.4584932424644945 
4.320000000003271, -2.4580768430360496 
4.330000000003247, -2.4577484175729887 
4.340000000003224, -2.457498079135763 
4.350000000003201, -2.4572627079036904 
4.360000000003177, -2.4569817038450017 
4.370000000003154, -2.4566173727602743 
4.380000000003131, -2.456146457099088 
4.390000000003107, -2.455558390187798 
4.400000000003084, -2.454886318787332 
4.410000000003061, -2.454258659278511 
4.4200000000030375, -2.4538429574463674 
4.430000000003014, -2.4536420641071106 
4.440000000002991, -2.4534953245578044 
4.450000000002968, -2.453281735959639 
4.460000000002944, -2.45297315739613 
4.470000000002921, -2.45258434020261 
4.480000000002898, -2.4521458542017265 
4.490000000002874, -2.451701450737869 
4.500000000002851, -2.451296769892456 
4.510000000002828, -2.4509513301194645 
4.520000000002804, -2.450642387147837 
4.530000000002781, -2.45032275383186 
4.540000000002758, -2.4499504409689896 
4.5500000000027345, -2.4494991619605404 
4.560000000002711, -2.44896403443934 
4.570000000002688, -2.4483945498314035 
4.580000000002665, -2.4479261023702197 
4.590000000002641, -2.44767718268786 
4.600000000002618, -2.4475845863294468 
4.610000000002595, -2.4474876591354358 
4.620000000002571, -2.4472927142922254 
4.630000000002548, -2.446981663874825 
4.640000000002525, -2.4465654655779074 
4.6500000000025015, -2.446066161144784 
4.660000000002478, -2.445526067767515 
4.670000000002455, -2.4450172971305943 
4.6800000000024315, -2.444608117737512 
4.690000000002408, -2.4442943325119937 
4.700000000002385, -2.444005388173342 
4.710000000002362, -2.4436792089613064 
4.720000000002338, -2.443291717139563 
4.730000000002315, -2.442849264281967 
4.740000000002292, -2.442392864429225 
4.750000000002268, -2.4419973313625585 
4.760000000002245, -2.4417126369277646 
4.770000000002222, -2.441503666976215 
4.7800000000021985, -2.44129085290172 
4.790000000002175, -2.4410142454433115 
4.800000000002152, -2.440642868000747 
4.810000000002129, -2.440160211188505 
4.820000000002105, -2.439564106335564 
4.830000000002082, -2.438898640572112 
4.840000000002059, -2.438293141252992 
4.850000000002035, -2.4378895736438233 
4.860000000002012, -2.43766924817123 
4.870000000001989, -2.4374864865491124 
4.880000000001965, -2.4372412416205416 
4.890000000001942, -2.4369119680796834 
4.900000000001919, -2.4365136031352774 
4.9100000000018955, -2.436078546553815 
4.920000000001872, -2.435653296095543 
4.930000000001849, -2.4352788580755735 
4.940000000001826, -2.434960801967785 
4.950000000001802, -2.4346657066192177 
4.960000000001779, -2.434346320913038 
4.970000000001756, -2.433964043838206 
4.980000000001732, -2.433493084156408 
