t, s[1].omega / s[0].omega 
0, -3.7999940707705244 
0.009999999999999995, -3.799307869228604 
0.019999999999999934, -3.7984663404517356 
0.029999999999999874, -3.797691751718967 
0.04000000000000012, -3.7972241687210215 
0.050000000000000405, -3.7968188776693133 
0.06000000000000069, -3.796285549016987 
0.07000000000000098, -3.795638820239868 
0.08000000000000126, -3.7949570360277796 
0.09000000000000155, -3.7943450039143456 
0.10000000000000184, -3.7938161226630065 
0.11000000000000212, -3.7932614155752256 
0.12000000000000241, -3.7926225558030495 
0.130000000000002, -3.791958233420334 
0.1400000000000009, -3.7914006703886045 
0.1499999999999998, -3.7909291197270796 
0.1599999999999987, -3.7904126969778096 
0.1699999999999976, -3.789769556196309 
0.1799999999999965, -3.7889731291296505 
0.1899999999999954, -3.7881918015998495 
0.1999999999999943, -3.7877504991487094 
0.2099999999999932, -3.787443402153736 
0.2199999999999921, -3.78698575130102 
0.229999999999991, -3.786344951642205 
0.2399999999999899, -3.78555406233736 
0.2499999999999888, -3.78477432039045 
0.2599999999999877, -3.7842409948122926 
0.2699999999999866, -3.7838099922341746 
0.2799999999999855, -3.783282505350351 
0.2899999999999844, -3.782652576691526 
0.2999999999999833, -3.781993749743885 
0.3099999999999822, -3.781394938925794 
0.3199999999999811, -3.7808634600047 
0.32999999999998, -3.780307277213854 
0.3399999999999789, -3.7796624805186516 
0.3499999999999778, -3.778974766454487 
0.35999999999997667, -3.778409492603766 
0.36999999999997557, -3.777973726797614 
0.37999999999997447, -3.77749814207394 
0.38999999999997337, -3.7768871060523432 
0.39999999999997227, -3.776103395135057 
0.40999999999997117, -3.775250350470723 
0.41999999999997006, -3.7747011578987184 
0.42999999999996896, -3.7744031029294214 
0.43999999999996786, -3.773996245473876 
0.44999999999996676, -3.773409903470206 
0.45999999999996566, -3.772680572381683 
0.46999999999996456, -3.771918571248844 
0.47999999999996346, -3.7713246690597293 
0.48999999999996235, -3.77086048879234 
0.49999999999996125, -3.7703382060909347 
0.5099999999999602, -3.7697215785394604 
0.519999999999959, -3.7690760397107126 
0.529999999999958, -3.768489109714859 
0.5399999999999568, -3.7679638021632487 
0.5499999999999557, -3.767416511986851 
0.5599999999999546, -3.7667749354868945 
0.5699999999999535, -3.7660545707342705 
0.5799999999999524, -3.765440583431478 
0.5899999999999513, -3.76503100440718 
0.5999999999999502, -3.764618027753972 
0.6099999999999491, -3.7640649196788027 
0.619999999999948, -3.7633327928357447 
0.6299999999999469, -3.7624579895839583 
0.6399999999999458, -3.761751813475068 
0.6499999999999447, -3.7613926364807235 
0.6599999999999436, -3.7610273969915653 
0.6699999999999425, -3.7604973239359225 
0.6799999999999414, -3.759829751437011 
0.6899999999999403, -3.759104696077557 
0.6999999999999392, -3.758471546655607 
0.7099999999999381, -3.7579689510293988 
0.719999999999937, -3.757449685426195 
0.7299999999999359, -3.7568438913847317 
0.7399999999999348, -3.756199135233074 
0.7499999999999337, -3.755616564947349 
0.7599999999999326, -3.7551071771679396 
0.7699999999999315, -3.754582994854882 
0.7799999999999304, -3.7539623527234234 
0.7899999999999293, -3.753221609838689 
0.7999999999999282, -3.7525089343785774 
0.8099999999999271, -3.7520686485783075 
0.819999999999926, -3.7517300415600596 
0.8299999999999249, -3.75126086088387 
0.8399999999999238, -3.750612231815192 
0.8499999999999227, -3.749791388621908 
0.8599999999999216, -3.748971535675312 
0.8699999999999205, -3.7484643470177064 
0.8799999999999194, -3.7481009045351295 
0.8899999999999183, -3.7476212860357023 
0.8999999999999172, -3.7470088709414666 
0.9099999999999161, -3.7463267620900007 
0.919999999999915, -3.7456821825869255 
0.9299999999999139, -3.7451442832603092 
0.9399999999999128, -3.7446255249497127 
0.9499999999999117, -3.7440321929435982 
0.9599999999999106, -3.743377702286696 
0.9699999999999095, -3.74277687786372 
0.9799999999999084, -3.7422859923607716 
0.9899999999999073, -3.7418034201931176 
0.9999999999999062, -3.7412283635974894 
1.0099999999999052, -3.7405087407421953 
1.019999999999904, -3.7396980263303847 
1.029999999999903, -3.7391068170958093 
1.039999999999902, -3.7387981780469937 
1.0499999999999008, -3.7384318348335364 
1.0599999999998997, -3.7378851917540823 
1.0699999999998986, -3.7371658404363237 
1.0799999999998975, -3.736347068871029 
1.0899999999998964, -3.7356786414713192 
1.0999999999998953, -3.735245817608026 
1.1099999999998942, -3.7347976260511686 
1.119999999999893, -3.734232085992687 
1.129999999999892, -3.733587031464412 
1.1399999999998909, -3.732949331242081 
1.1499999999998898, -3.7323898848308543 
1.1599999999998887, -3.7318714043560917 
1.1699999999998876, -3.731297619855307 
1.1799999999998865, -3.7306370711753027 
1.1899999999998854, -3.7299822109175955 
1.1999999999998843, -3.7294803599467756 
1.2099999999998832, -3.7290559494990303 
1.219999999999882, -3.728555293343812 
1.229999999999881, -3.727907221850221 
1.2399999999998799, -3.7270921652992945 
1.2499999999998788, -3.72628942926485 
1.2599999999998777, -3.725844986372053 
1.2699999999998766, -3.725553775551147 
1.2799999999998755, -3.7251173004833205 
1.2899999999998744, -3.724508246870928 
1.2999999999998733, -3.7237708728948475 
1.3099999999998722, -3.72303553647068 
1.319999999999871, -3.722483698378208 
1.32999999999987, -3.722027579337373 
1.3399999999998689, -3.7214997088846724 
1.3499999999998678, -3.7208836147343005 
1.3599999999998666, -3.7202513304525118 
1.3699999999998655, -3.719684159463818 
1.3799999999998644, -3.7191717879701307 
1.3899999999998633, -3.718628598982793 
1.3999999999998622, -3.7179877933770884 
1.4099999999998611, -3.7172707961045335 
1.41999999999986, -3.7166696348517205 
1.429999999999859, -3.7162777699635376 
1.4399999999998578, -3.715881216214688 
1.4499999999998567, -3.715343415906466 
1.4599999999998556, -3.7146281540290316 
1.4699999999998545, -3.7137654708638124 
1.4799999999998534, -3.7130411427951615 
1.4899999999998523, -3.71266648886131 
1.4999999999998512, -3.712316613312015 
1.5099999999998501, -3.711810827257459 
1.519999999999849, -3.711169023614791 
1.529999999999848, -3.7104634094267666 
1.5399999999998468, -3.7098269615659745 
1.5499999999998457, -3.7093188074092636 
1.5599999999998446, -3.7088129523745605 
1.5699999999998435, -3.7082251512803284 
1.5799999999998424, -3.7075866655891296 
1.5899999999998413, -3.707001384291604 
1.5999999999998402, -3.7065020463390974 
1.6099999999998391, -3.7060037177351552 
1.619999999999838, -3.705418305806581 
1.629999999999837, -3.7047029699056155 
1.6399999999998358, -3.703943830991669 
1.6499999999998347, -3.703427024083397 
1.6599999999998336, -3.7031168246795927 
1.6699999999998325, -3.7027204313160476 
1.6799999999998314, -3.7021486870205726 
1.6899999999998303, -3.7014008558060176 
1.6999999999998292, -3.700562790345155 
1.709999999999828, -3.699927633226398 
1.719999999999827, -3.699541172602049 
1.729999999999826, -3.699114784774882 
1.7399999999998248, -3.6985575106578574 
1.7499999999998237, -3.69791064846208 
1.7599999999998226, -3.697261151994355 
1.7699999999998215, -3.6966965924763335 
1.7799999999998204, -3.696189488364508 
1.7899999999998193, -3.6956351904524105 
1.7999999999998182, -3.6949984737916473 
1.809999999999817, -3.6943574200240716 
1.819999999999816, -3.6938403503277635 
1.8299999999998149, -3.6933993264977 
1.8399999999998138, -3.69290127933427 
1.8499999999998127, -3.6922714245613144 
1.8599999999998116, -3.6914845676841788 
1.8699999999998105, -3.6906972722390785 
1.8799999999998094, -3.6902463443810616 
1.8899999999998083, -3.689967468241317 
1.8999999999998072, -3.6895546498680636 
1.909999999999806, -3.688964013724129 
1.919999999999805, -3.6882273395901146 
1.9299999999998039, -3.6874619071810235 
1.9399999999998028, -3.686887025429266 
1.9499999999998017, -3.6864557031748775 
1.9599999999998006, -3.6859649484652586 
1.9699999999997995, -3.6853736697328032 
1.9799999999997984, -3.684739208492231 
1.9899999999997973, -3.6841489763031943 
1.9999999999997962, -3.6836291020563623 
2.0099999999998173, -3.6831093089836764 
2.0199999999998384, -3.6825098635475 
2.0299999999998595, -3.681823096060177 
2.0399999999998806, -3.681186531507776 
2.0499999999999017, -3.6807474224026526 
2.059999999999923, -3.6803616934290018 
2.069999999999944, -3.679867110682035 
2.079999999999965, -3.679208622512874 
2.089999999999986, -3.678380520778444 
2.100000000000007, -3.6775811536746317 
2.1100000000000283, -3.6771395293245623 
2.1200000000000494, -3.6768378386825935 
2.1300000000000705, -3.67639793811057 
2.1400000000000916, -3.6758019824699604 
2.1500000000001127, -3.6751028488551873 
2.160000000000134, -3.674416637374965 
2.170000000000155, -3.6738733689497627 
2.180000000000176, -3.673398777356115 
2.190000000000197, -3.672860214807623 
2.2000000000002182, -3.672243998951759 
2.2100000000002393, -3.671628594666582 
2.2200000000002604, -3.6710953952410916 
2.2300000000002815, -3.670609617688464 
2.2400000000003026, -3.670078777140284 
2.2500000000003237, -3.6694368862298914 
2.260000000000345, -3.6686897236200364 
2.270000000000366, -3.6680408024746365 
2.280000000000387, -3.667670094505388 
2.290000000000408, -3.6673394223274713 
2.3000000000004293, -3.666861174277676 
2.3100000000004504, -3.6662057750057664 
2.3200000000004715, -3.665391724255618 
2.3300000000004926, -3.6646093407519245 
2.3400000000005137, -3.6641312943584565 
2.3500000000005348, -3.6637713113610575 
2.360000000000556, -3.663298921740344 
2.370000000000577, -3.6627028682051552 
2.380000000000598, -3.662044978592134 
2.390000000000619, -3.6614235521883707 
2.4000000000006403, -3.6608983097084176 
2.4100000000006614, -3.6603931200474458 
2.4200000000006825, -3.659817398419836 
2.4300000000007036, -3.6591736234295134 
2.4400000000007247, -3.6585728639007358 
2.450000000000746, -3.658098801302627 
2.460000000000767, -3.6576543324105883 
2.470000000000788, -3.6571261080594355 
2.480000000000809, -3.656455156171527 
2.49000000000083, -3.655646383212922 
2.5000000000008513, -3.6549417516430034 
2.5100000000008724, -3.654588239680101 
2.5200000000008935, -3.6542965479575478 
2.5300000000009146, -3.6538427544900607 
2.5400000000009357, -3.653217467897364 
2.550000000000957, -3.65246193241967 
2.560000000000978, -3.6517276160081176 
2.570000000000999, -3.6512090328284272 
2.58000000000102, -3.650785607876552 
2.5900000000010412, -3.650281170247787 
2.6000000000010624, -3.64968253705144 
2.6100000000010835, -3.6490565541065862 
2.6200000000011046, -3.6484858842244607 
2.6300000000011257, -3.6479792418886783 
2.6400000000011468, -3.6474583334210635 
2.650000000001168, -3.646851372512193 
2.660000000001189, -3.646165195782296 
2.67000000000121, -3.6455545164281795 
2.680000000001231, -3.6451404751902237 
2.6900000000012523, -3.644758198481431 
2.7000000000012734, -3.6442589623031436 
2.7100000000012945, -3.6435942226354 
2.7200000000013156, -3.642764818719487 
2.7300000000013367, -3.6419832218627333 
2.740000000001358, -3.6415592860008195 
2.750000000001379, -3.6412596316533112 
2.7600000000014, -3.6408214252385114 
2.770000000001421, -3.6402312681493987 
2.780000000001442, -3.639542502488049 
2.7900000000014633, -3.638867660740415 
2.8000000000014844, -3.638329344521624 
2.8100000000015055, -3.637858225632756 
2.8200000000015266, -3.6373260267469414 
2.8300000000015477, -3.6367164029372914 
2.840000000001569, -3.636105639103674 
2.85000000000159, -3.635578974913823 
2.860000000001611, -3.6351040656673335 
2.870000000001632, -3.6345874229308466 
2.8800000000016532, -3.6339609399584516 
2.8900000000016743, -3.6332179267609748 
2.9000000000016954, -3.6325387530804343 
2.9100000000017165, -3.6321499664834045 
2.9200000000017377, -3.631845989267908 
2.9300000000017588, -3.63140514888502 
2.94000000000178, -3.630789136775588 
2.950000000001801, -3.6300100788299248 
2.960000000001822, -3.6292091510866307 
2.970000000001843, -3.6286716404922847 
2.9800000000018643, -3.628308984759849 
2.9900000000018854, -3.627865197094598 
3.0000000000019065, -3.6272977231487644 
3.0100000000019276, -3.62665816389246 
3.0200000000019487, -3.626035731918919 
3.03000000000197, -3.6255005267840175 
3.040000000001991, -3.6250046577286157 
3.050000000002012, -3.624451728692063 
3.060000000002033, -3.6238184967242155 
3.070000000002054, -3.6231930699800676 
3.0800000000020753, -3.62270192145258 
3.0900000000020964, -3.622283845802214 
3.1000000000021175, -3.621803463504546 
3.1100000000021386, -3.621189306519495 
3.1200000000021597, -3.6204149054924195 
3.130000000002181, -3.619616199208545 
3.140000000002202, -3.6191377854946536 
3.150000000002223, -3.6188739844264575 
3.160000000002244, -3.618498958199985 
3.1700000000022652, -3.617950058843637 
3.1800000000022863, -3.617257791692616 
3.1900000000023074, -3.616512519656684 
3.2000000000023285, -3.6159071739633086 
3.2100000000023496, -3.615464348590828 
3.2200000000023707, -3.614997997699079 
3.230000000002392, -3.6144364913863436 
3.240000000002413, -3.613819649464145 
3.250000000002434, -3.613234302339748 
3.260000000002455, -3.612721926874913 
3.2700000000024763, -3.6122280081883766 
3.2800000000024974, -3.6116687668690135 
3.2900000000025185, -3.6110055457162566 
3.3000000000025396, -3.6103154620131477 
3.3100000000025607, -3.6098125666146865 
3.3200000000025818, -3.6094722273591144 
3.330000000002603, -3.6090717274512882 
3.340000000002624, -3.6085183385363573 
3.350000000002645, -3.607789243121565 
3.360000000002666, -3.60694215369812 
3.3700000000026873, -3.606279887307332 
3.3800000000027084, -3.6059342019730907 
3.3900000000027295, -3.6055860205318533 
3.4000000000027506, -3.6050902977513113 
3.4100000000027717, -3.604471300945582 
3.420000000002793, -3.60379958686545 
3.430000000002814, -3.6031907751713192 
3.440000000002835, -3.6026943360445274 
3.450000000002856, -3.602203834179247 
3.460000000002877, -3.601636791693308 
3.4700000000028983, -3.601013135036672 
3.4800000000029194, -3.600437491023096 
3.4900000000029405, -3.5999636718895696 
3.5000000000029616, -3.599507099781524 
3.5100000000029827, -3.5989723315357667 
3.520000000003004, -3.598304819134442 
3.530000000003025, -3.5975255429010273 
3.540000000003046, -3.5968843575766343 
3.550000000003067, -3.5965603770918952 
3.5600000000030882, -3.5962650985390683 
3.5700000000031094, -3.595809445661799 
3.5800000000031305, -3.595182000721942 
3.5900000000031516, -3.5944158398341663 
3.6000000000031727, -3.593669587030589 
3.6100000000031938, -3.5931636631625556 
3.620000000003215, -3.5927728721311256 
3.630000000003236, -3.5922991065275354 
3.640000000003257, -3.5917213656573255 
3.650000000003278, -3.591098522842684 
3.6600000000032993, -3.5905156774814606 
3.6700000000033204, -3.5900072247182457 
3.6800000000033415, -3.589508298812197 
3.6900000000033626, -3.5889379688365017 
3.7000000000033837, -3.5882837963301157 
3.710000000003405, -3.5876584110253185 
3.720000000003426, -3.587207401071166 
3.730000000003447, -3.5868313992418392 
3.740000000003468, -3.58637153941469 
3.750000000003489, -3.585762963125635 
3.7600000000035103, -3.584984210642974 
3.7700000000035314, -3.584161415267084 
3.7800000000035525, -3.5836442651374307 
3.7900000000035736, -3.583369380432953 
3.8000000000035947, -3.5830042014378862 
3.810000000003616, -3.582476111269026 
3.820000000003637, -3.5818215984640815 
3.830000000003658, -3.5811231641587242 
3.840000000003679, -3.580527593697262 
3.8500000000037002, -3.5800617058237245 
3.8600000000037213, -3.5795824204045266 
3.8700000000037424, -3.5790192585016256 
3.8800000000037635, -3.5784072963127307 
3.8900000000037847, -3.5778411175078957 
3.9000000000038058, -3.5773561956066815 
3.910000000003827, -3.5768820958057654 
3.920000000003848, -3.5763343016946885 
3.930000000003869, -3.575665841824061 
3.94000000000389, -3.5749274048599675 
3.9500000000039113, -3.5743696383332533 
3.9600000000039324, -3.57406181870752 
3.9700000000039535, -3.573729792299468 
3.9800000000039746, -3.573238962726163 
3.9900000000039957, -3.572575799938469 
4.000000000004016, -3.5717729692871627 
4.010000000003993, -3.5710360664182637 
4.02000000000397, -3.57058851833686 
4.030000000003946, -3.5702309928464673 
4.040000000003923, -3.569765363500534 
4.0500000000039, -3.569186045157553 
4.0600000000038765, -3.568553642245326 
4.070000000003853, -3.567958130402149 
4.08000000000383, -3.5674488146414185 
4.090000000003807, -3.5669588701652137 
4.100000000003783, -3.5664021201842586 
4.11000000000376, -3.5657699586205225 
4.120000000003737, -3.565164580406042 
4.130000000003713, -3.564701837630051 
4.14000000000369, -3.5642999872591354 
4.150000000003667, -3.563826595397946 
4.1600000000036434, -3.5632160844158327 
4.17000000000362, -3.5624450441093054 
4.180000000003597, -3.5616495612660075 
4.1900000000035735, -3.5611706282834907 
4.20000000000355, -3.5609154898054856 
4.210000000003527, -3.5605588647924287 
4.220000000003504, -3.560032559145474 
4.23000000000348, -3.5593672489619506 
4.240000000003457, -3.5586431424859035 
4.250000000003434, -3.5580319201771347 
4.26000000000341, -3.5575816419302853 
4.270000000003387, -3.5571277457773056 
4.280000000003364, -3.556585135787131 
4.2900000000033405, -3.555981602925479 
4.300000000003317, -3.555402116047708 
4.310000000003294, -3.554897990397902 
4.320000000003271, -3.5544225606495203 
4.330000000003247, -3.553892097209336 
4.340000000003224, -3.553254874332579 
4.350000000003201, -3.5525460712489 
4.360000000003177, -3.5519760545847925 
4.370000000003154, -3.551638707706276 
4.380000000003131, -3.5513037397894167 
4.390000000003107, -3.550826668216562 
4.400000000003084, -3.5501793304481133 
4.410000000003061, -3.5493764123810996 
4.4200000000030375, -3.5486057339651706 
4.430000000003014, -3.5481443033063256 
4.440000000002991, -3.5478215877260633 
4.450000000002968, -3.5473934909357916 
4.460000000002944, -3.546835920013296 
4.470000000002921, -3.5462008505859637 
4.480000000002898, -3.5455780027575443 
4.490000000002874, -3.5450495817926706 
4.500000000002851, -3.544574187301618 
4.510000000002828, -3.5440496530901306 
4.520000000002804, -3.543445885034629 
4.530000000002781, -3.542832244748607 
4.540000000002758, -3.542328754906495 
4.5500000000027345, -3.541910803010526 
4.560000000002711, -3.541456182894481 
4.570000000002688, -3.5408866726018324 
4.580000000002665, -3.540165096566961 
4.590000000002641, -3.5393672160072414 
4.600000000002618, -3.538811376855218 
4.610000000002595, -3.5385463181897903 
4.620000000002571, -3.538236757942164 
4.630000000002548, -3.5377570141199803 
4.640000000002525, -3.5371211982807944 
4.6500000000025015, -3.5363845003859176 
4.660000000002478, -3.5357101081465623 
4.670000000002455, -3.5352353157357164 
4.6800000000024315, -3.5348178526602303 
4.690000000002408, -3.5343184617546393 
4.700000000002385, -3.5337353095765396 
4.710000000002362, -3.533136744660994 
4.720000000002338, -3.532599198264259 
4.730000000002315, -3.5321200060431908 
4.740000000002292, -3.5316229866058366 
4.750000000002268, -3.5310390181840434 
4.760000000002245, -3.5303609590892804 
4.770000000002222, -3.5297253402937714 
4.7800000000021985, -3.5293126614882233 
4.790000000002175, -3.5289922654454786 
4.800000000002152, -3.5285719855801405 
4.810000000002129, -3.5279928687296738 
4.820000000002105, -3.5272426049418115 
4.830000000002082, -3.526416353225367 
4.840000000002059, -3.5258280509194733 
4.850000000002035, -3.525510664661751 
4.860000000002012, -3.52515521764074 
4.870000000001989, -3.524657553862158 
4.880000000001965, -3.52404869410976 
4.890000000001942, -3.5234005291202117 
4.900000000001919, -3.522818773772614 
4.9100000000018955, -3.5223370642701455 
4.920000000001872, -3.5218555681894435 
4.930000000001849, -3.521298927738448 
4.940000000001826, -3.520684810219092 
4.950000000001802, -3.520119032798482 
4.960000000001779, -3.5196657422442383 
4.970000000001756, -3.519238804684945 
