t, s[1].omega / s[0].omega 
0, -0.13999781560916139 
0.009999999999999995, -0.1397861992355859 
0.019999999999999934, -0.13958692938136202 
0.029999999999999874, -0.13939682673176493 
0.04000000000000012, -0.13921145846488006 
0.050000000000000405, -0.13902606821616276 
0.06000000000000069, -0.1388363527054603 
0.07000000000000098, -0.13863888084021997 
0.08000000000000126, -0.13843113206089677 
0.09000000000000155, -0.13821126719549431 
0.10000000000000184, -0.1379777890809342 
0.11000000000000212, -0.13772922540481652 
0.12000000000000241, -0.13746392381374195 
0.130000000000002, -0.13718002364141543 
0.1400000000000009, -0.1368756617806332 
0.1499999999999998, -0.13654945616626576 
0.1599999999999987, -0.13620124681415918 
0.1699999999999976, -0.1358329321279985 
0.1799999999999965, -0.13544905586576028 
0.1899999999999954, -0.13505672189772155 
0.1999999999999943, -0.13466460841016115 
0.2099999999999932, -0.1342813039255784 
0.2199999999999921, -0.13391359445911508 
0.229999999999991, -0.1335653603516405 
0.2399999999999899, -0.13323738090684595 
0.2499999999999888, -0.13292789855992523 
0.2599999999999877, -0.13263354810478584 
0.2699999999999866, -0.13235026473174935 
0.2799999999999855, -0.13207393561671246 
0.2899999999999844, -0.13180072598091624 
0.2999999999999833, -0.13152712190765664 
0.3099999999999822, -0.13124977673830845 
0.3199999999999811, -0.13096524753380417 
0.32999999999998, -0.1306696955975585 
0.3399999999999789, -0.13035862920831845 
0.3499999999999778, -0.1300268047605863 
0.35999999999997667, -0.1296684695917704 
0.36999999999997557, -0.12927817545737397 
0.37999999999997447, -0.12885229861339906 
0.38999999999997337, -0.12839103784651834 
0.39999999999997227, -0.1279000797711214 
0.40999999999997117, -0.1273907772706668 
0.41999999999997006, -0.12687818870876388 
0.42999999999996896, -0.12637760322767463 
0.43999999999996786, -0.12590117821951624 
0.44999999999996676, -0.12545610555161404 
0.45999999999996566, -0.12504462040493236 
0.46999999999996456, -0.1246652208046906 
0.47999999999996346, -0.1243142329975047 
0.48999999999996235, -0.12398713466524018 
0.49999999999996125, -0.12367941819451271 
0.5099999999999602, -0.12338701487357892 
0.519999999999959, -0.12310638747522373 
0.529999999999958, -0.12283439233057152 
0.5399999999999568, -0.1225679709027335 
0.5499999999999557, -0.12230369385959058 
0.5599999999999546, -0.12203717764350401 
0.5699999999999535, -0.12176245898225586 
0.5799999999999524, -0.12147157979281775 
0.5899999999999513, -0.12115487887132995 
0.5999999999999502, -0.1208026096141193 
0.6099999999999491, -0.12040809558415111 
0.619999999999948, -0.11997145621358493 
0.6299999999999469, -0.11950169090233524 
0.6399999999999458, -0.1190151937610577 
0.6499999999999447, -0.11853107438941476 
0.6599999999999436, -0.11806593487864418 
0.6699999999999425, -0.11763071509853044 
0.6799999999999414, -0.11723030983384819 
0.6899999999999403, -0.11686500806212263 
0.6999999999999392, -0.11653245156096756 
0.7099999999999381, -0.11622929155693791 
0.719999999999937, -0.11595228457836186 
0.7299999999999359, -0.11569888469208649 
0.7399999999999348, -0.11546747658892872 
0.7499999999999337, -0.11525736145096566 
0.7599999999999326, -0.11506853409404576 
0.7699999999999315, -0.11490121451694049 
0.7799999999999304, -0.1147550473345745 
0.7899999999999293, -0.11462790753668603 
0.7999999999999282, -0.11451443655438427 
0.8099999999999271, -0.11440485030038057 
0.819999999999926, -0.11428507771221577 
0.8299999999999249, -0.1141393289589242 
0.8399999999999238, -0.11395499414760993 
0.8499999999999227, -0.11372761509126028 
0.8599999999999216, -0.11346268244585664 
0.8699999999999205, -0.11317298161387986 
0.8799999999999194, -0.1128734896796291 
0.8899999999999183, -0.11257701530705744 
0.8999999999999172, -0.11229226502157894 
0.9099999999999161, -0.11202403420647514 
0.919999999999915, -0.11177440885536254 
0.9299999999999139, -0.1115440838233864 
0.9399999999999128, -0.11133339583210884 
0.9499999999999117, -0.11114300660485807 
0.9599999999999106, -0.11097430017570038 
0.9699999999999095, -0.11082955828898469 
0.9799999999999084, -0.11071192042084141 
0.9899999999999073, -0.11062505914615975 
0.9999999999999062, -0.11057243619507753 
1.0099999999999052, -0.11055600123286687 
1.019999999999904, -0.11057434995686281 
1.029999999999903, -0.11062077179326162 
1.039999999999902, -0.11068222210088438 
1.0499999999999008, -0.11074055565738146 
1.0599999999998997, -0.11077656505168858 
1.0699999999998986, -0.11077541337569614 
1.0799999999998975, -0.11073054309350856 
1.0899999999998964, -0.1106439734978468 
1.0999999999998953, -0.11052348692815597 
1.1099999999998942, -0.11037893874878364 
1.119999999999893, -0.11021956410903914 
1.129999999999892, -0.1100528088813874 
1.1399999999998909, -0.10988428373066919 
1.1499999999998898, -0.10971824809794484 
1.1599999999998887, -0.10955821577914322 
1.1699999999998876, -0.10940749313253192 
1.1799999999998865, -0.10926958835072353 
1.1899999999998854, -0.1091484676793166 
1.1999999999998843, -0.10904861622087163 
1.2099999999998832, -0.10897481889139109 
1.219999999999882, -0.10893154438584471 
1.229999999999881, -0.10892184094733093 
1.2399999999998799, -0.10894580552167125 
1.2499999999998788, -0.10899901147755411 
1.2599999999998777, -0.10907167685455973 
1.2699999999998766, -0.10914947442629588 
1.2799999999998755, -0.1092162950327785 
1.2899999999998744, -0.10925806339054792 
1.2999999999998733, -0.10926582547901995 
1.3099999999998722, -0.10923673807555205 
1.319999999999871, -0.10917297748542727 
1.32999999999987, -0.1090796582789632 
1.3399999999998689, -0.10896290287273798 
1.3499999999998678, -0.10882861755552027 
1.3599999999998666, -0.10868198180497982 
1.3699999999998655, -0.1085274209857254 
1.3799999999998644, -0.1083688283925895 
1.3899999999998633, -0.10820987654753353 
1.3999999999998622, -0.10805431858998818 
1.4099999999998611, -0.1079062031920254 
1.41999999999986, -0.10776991972815375 
1.429999999999859, -0.10764997893897647 
1.4399999999998578, -0.10755045093691278 
1.4499999999998567, -0.10747406083540294 
1.4599999999998556, -0.10742109965231958 
1.4699999999998545, -0.10738851271119847 
1.4799999999998534, -0.10736966319526095 
1.4899999999998523, -0.10735515401034582 
1.4999999999998512, -0.10733463863198225 
1.5099999999998501, -0.1072989773832552 
1.519999999999849, -0.10724185541415547 
1.529999999999848, -0.10716031346253377 
1.5399999999998468, -0.10705426858123235 
1.5499999999998457, -0.10692552241612616 
1.5599999999998446, -0.10677676970284555 
1.5699999999998435, -0.10661089481547818 
1.5799999999998424, -0.10643061836837178 
1.5899999999998413, -0.10623843553818683 
1.5999999999998402, -0.10603675629106069 
1.6099999999998391, -0.10582816024454803 
1.619999999999838, -0.10561567558850873 
1.629999999999837, -0.10540297203836806 
1.6399999999998358, -0.10519434040603488 
1.6499999999998347, -0.10499435217373532 
1.6599999999998336, -0.10480718008491648 
1.6699999999998325, -0.10463570481743481 
1.6799999999998314, -0.10448067446432022 
1.6899999999998303, -0.10434024296445936 
1.6999999999998292, -0.10421013211188343 
1.709999999999828, -0.10408443825057936 
1.719999999999827, -0.10395682593230182 
1.729999999999826, -0.10382167673560642 
1.7399999999998248, -0.10367481501082784 
1.7499999999998237, -0.10351367411343322 
1.7599999999998226, -0.1033370215654178 
1.7699999999998215, -0.10314448341753561 
1.7799999999998204, -0.1029360857452672 
1.7899999999998193, -0.10271194443679033 
1.7999999999998182, -0.10247215748977974 
1.809999999999817, -0.10221691044602965 
1.819999999999816, -0.10194677820009335 
1.8299999999998149, -0.1016631649123548 
1.8399999999998138, -0.10136875177866082 
1.8499999999998127, -0.10106774299584768 
1.8599999999998116, -0.1007656835185464 
1.8699999999998105, -0.10046874138429451 
1.8799999999998094, -0.10018258973982727 
1.8899999999998083, -0.09991125196596574 
1.8999999999998072, -0.09965632481455786 
1.909999999999806, -0.09941683158156368 
1.919999999999805, -0.09918969122099325 
1.9299999999998039, -0.0989705682553696 
1.9399999999998028, -0.09875477938506051 
1.9499999999998017, -0.09853798442218308 
1.9599999999998006, -0.09831653032922583 
1.9699999999997995, -0.09808746676711728 
1.9799999999997984, -0.09784834491809911 
1.9899999999997973, -0.09759693406263611 
1.9999999999997962, -0.09733097113354522 
2.0099999999998173, -0.09704803490660072 
2.0199999999998384, -0.09674562726689914 
2.0299999999998595, -0.09642153825865135 
2.0399999999998806, -0.09607453089217616 
2.0499999999999017, -0.09570525863793988 
2.059999999999923, -0.09531711997201031 
2.069999999999944, -0.09491657260248275 
2.079999999999965, -0.09451248991933384 
2.089999999999986, -0.094114559285171 
2.100000000000007, -0.09373127667136841 
2.1100000000000283, -0.09336834294963521 
2.1200000000000494, -0.0930280069722685 
2.1300000000000705, -0.09270937714729338 
2.1400000000000916, -0.09240933224102486 
2.1500000000001127, -0.09212357230324668 
2.160000000000134, -0.09184747673296298 
2.170000000000155, -0.09157662380276212 
2.180000000000176, -0.09130697424332052 
2.190000000000197, -0.09103479963579036 
2.2000000000002182, -0.09075645644170845 
2.2100000000002393, -0.09046809903239696 
2.2200000000002604, -0.0901654217558602 
2.2300000000002815, -0.08984354245698908 
2.2400000000003026, -0.08949718848671284 
2.2500000000003237, -0.08912138238234274 
2.260000000000345, -0.0887127528943865 
2.270000000000366, -0.08827130170444675 
2.280000000000387, -0.08780195714826976 
2.290000000000408, -0.0873148952754632 
2.3000000000004293, -0.08682394598819122 
2.3100000000004504, -0.08634348530491893 
2.3200000000004715, -0.08588521296672821 
2.3300000000004926, -0.0854562028803097 
2.3400000000005137, -0.08505868612294074 
2.3500000000005348, -0.08469108808309411 
2.360000000000556, -0.08434951261212718 
2.370000000000577, -0.08402906071762002 
2.380000000000598, -0.08372471591022884 
2.390000000000619, -0.08343178011818583 
2.4000000000006403, -0.08314595511769621 
2.4100000000006614, -0.0828631792734052 
2.4200000000006825, -0.08257930450835976 
2.4300000000007036, -0.08228967675334053 
2.4400000000007247, -0.08198869650420325 
2.450000000000746, -0.08166950947534828 
2.460000000000767, -0.08132411326020088 
2.470000000000788, -0.08094429214201757 
2.480000000000809, -0.08052369864152764 
2.49000000000083, -0.08006081416740932 
2.5000000000008513, -0.07956151075709074 
2.5100000000008724, -0.07903935439883067 
2.5200000000008935, -0.0785127225567271 
2.5300000000009146, -0.07799993703969325 
2.5400000000009357, -0.07751495532800877 
2.550000000000957, -0.07706543874164391 
2.560000000000978, -0.07665322942151011 
2.570000000000999, -0.07627612164249412 
2.58000000000102, -0.0759297877623887 
2.5900000000010412, -0.07560924232950958 
2.6000000000010624, -0.07530970640595613 
2.6100000000010835, -0.07502697098805447 
2.6200000000011046, -0.0747574065699159 
2.6300000000011257, -0.07449772618477876 
2.6400000000011468, -0.0742445514180933 
2.650000000001168, -0.07399379634147016 
2.660000000001189, -0.07373991060565357 
2.67000000000121, -0.07347515692247283 
2.680000000001231, -0.07318936485312769 
2.6900000000012523, -0.07287088994527716 
2.7000000000012734, -0.0725094180889885 
2.7100000000012945, -0.0721002640044098 
2.7200000000013156, -0.07164811158372361 
2.7300000000013367, -0.07116738153780292 
2.740000000001358, -0.07067823809638962 
2.750000000001379, -0.07020045026880559 
2.7600000000014, -0.06974859710985407 
2.770000000001421, -0.0693304394726452 
2.780000000001442, -0.06894792057251922 
2.7900000000014633, -0.06859926211141978 
2.8000000000014844, -0.06828095816696211 
2.8100000000015055, -0.06798917169415547 
2.8200000000015266, -0.06772051301372052 
2.8300000000015477, -0.0674723514003833 
2.840000000001569, -0.06724280381322217 
2.85000000000159, -0.06703047173906965 
2.860000000001611, -0.06683391895795587 
2.870000000001632, -0.06665083771593924 
2.8800000000016532, -0.0664768913682244 
2.8900000000016743, -0.06630443255709968 
2.9000000000016954, -0.06612173286933283 
2.9100000000017165, -0.06591383995446645 
2.9200000000017377, -0.06566604367209446 
2.9300000000017588, -0.06536941330786955 
2.94000000000178, -0.06502551448736713 
2.950000000001801, -0.06464680683050102 
2.960000000001822, -0.06425206774560857 
2.970000000001843, -0.06385992627538245 
2.9800000000018643, -0.06348427263027871 
2.9900000000018854, -0.06313295868358901 
3.0000000000019065, -0.06280887276217043 
3.0100000000019276, -0.06251184533715351 
3.0200000000019487, -0.06224036782349958 
3.03000000000197, -0.06199277440791754 
3.040000000001991, -0.06176791306637989 
3.050000000002012, -0.0615654367758192 
3.060000000002033, -0.06138581047591196 
3.070000000002054, -0.061230045303164136 
3.0800000000020753, -0.06109908575890273 
3.0900000000020964, -0.06099273006425996 
3.1000000000021175, -0.060908039365523456 
3.1100000000021386, -0.06083751330753079 
3.1200000000021597, -0.06076793150639535 
3.130000000002181, -0.06068134614684012 
3.140000000002202, -0.060559313985923825 
3.150000000002223, -0.06038932121831767 
3.160000000002244, -0.060169777990206876 
3.1700000000022652, -0.059910101360332924 
3.1800000000022863, -0.05962603119560115 
3.1900000000023074, -0.059333678027221594 
3.2000000000023285, -0.059045604150360455 
3.2100000000023496, -0.058769771869415385 
3.2200000000023707, -0.05851036990796819 
3.230000000002392, -0.05826925628716119 
3.240000000002413, -0.05804726634518589 
3.250000000002434, -0.05784514346404538 
3.260000000002455, -0.057664107234848994 
3.2700000000024763, -0.05750613077595913 
3.2800000000024974, -0.057373954718431784 
3.2900000000025185, -0.05727078302033521 
3.3000000000025396, -0.057199525257394565 
3.3100000000025607, -0.05716142977034574 
3.3200000000025818, -0.05715410523216915 
3.330000000002603, -0.057169395239977314 
3.340000000002624, -0.05719231459627531 
3.350000000002645, -0.057202693723027345 
3.360000000002666, -0.0571802295022925 
3.3700000000026873, -0.05711108088357221 
3.3800000000027084, -0.05699213896985934 
3.3900000000027295, -0.05683038622079874 
3.4000000000027506, -0.056638453713034054 
3.4100000000027717, -0.05642968231433735 
3.420000000002793, -0.056215075272168666 
3.430000000002814, -0.0560024600772784 
3.440000000002835, -0.055797008926738 
3.450000000002856, -0.055602218856433086 
3.460000000002877, -0.055420842610448426 
3.4700000000028983, -0.055255596103425154 
3.4800000000029194, -0.05510962549522608 
3.4900000000029405, -0.05498674111492009 
3.5000000000029616, -0.0548913791024949 
3.5100000000029827, -0.05482817838230932 
3.520000000003004, -0.054801005451710905 
3.530000000003025, -0.054811304038025435 
3.540000000003046, -0.05485592094344679 
3.550000000003067, -0.05492514871558807 
3.5600000000030882, -0.055002395686665005 
3.5700000000031094, -0.05506685411706354 
3.5800000000031305, -0.0550989883450993 
3.5900000000031516, -0.055086298866677895 
3.6000000000031727, -0.05502606716446211 
3.6100000000031938, -0.05492391840435422 
3.620000000003215, -0.054789932777632 
3.630000000003236, -0.05463490538561846 
3.640000000003257, -0.05446817575611827 
3.650000000003278, -0.054297014330042304 
3.6600000000032993, -0.05412692933673998 
3.6700000000033204, -0.053962309059603676 
3.6800000000033415, -0.05380707173509386 
3.6900000000033626, -0.053665192289501104 
3.7000000000033837, -0.05354105883819206 
3.710000000003405, -0.05343961180562826 
3.720000000003426, -0.053366173504816136 
3.730000000003447, -0.05332582466732141 
3.740000000003468, -0.05332218472332301 
3.750000000003489, -0.05335559962798878 
3.7600000000035103, -0.053421132165805366 
3.7700000000035314, -0.053507326912441824 
3.7800000000035525, -0.05359704046897053 
3.7900000000035736, -0.05367096464502735 
3.8000000000035947, -0.053712726229487126 
3.810000000003616, -0.053712989422854976 
3.820000000003637, -0.05367050615789089 
3.830000000003658, -0.05359021681979711 
3.840000000003679, -0.05348015524546027 
3.8500000000037002, -0.05334885716473396 
3.8600000000037213, -0.05320395004439006 
3.8700000000037424, -0.05305176627151714 
3.8800000000037635, -0.05289754693008466 
3.8900000000037847, -0.05274587748371105 
3.9000000000038058, -0.05260114831141148 
3.910000000003827, -0.05246793501735364 
3.920000000003848, -0.052351226317334666 
3.930000000003869, -0.05225641164993651 
3.94000000000389, -0.05218890778473072 
3.9500000000039113, -0.05215329708818071 
3.9600000000039324, -0.05215193491869036 
3.9700000000039535, -0.052183233416421816 
3.9800000000039746, -0.05224024363410532 
3.9900000000039957, -0.052310510227171515 
4.000000000004016, -0.05237797819564351 
4.010000000003993, -0.052426686484332116 
4.02000000000397, -0.05244467186118105 
4.030000000003946, -0.052426191781241784 
4.040000000003923, -0.05237151434843407 
4.0500000000039, -0.05228502927367632 
4.0600000000038765, -0.052173020855731646 
4.070000000003853, -0.05204202464958677 
4.08000000000383, -0.05189800219324351 
4.090000000003807, -0.05174615329429407 
4.100000000003783, -0.05159109141080152 
4.11000000000376, -0.05143716794887193 
4.120000000003737, -0.0512888086102727 
4.130000000003713, -0.051150765180271604 
4.14000000000369, -0.05102818778441737 
4.150000000003667, -0.0509264071339096 
4.1600000000036434, -0.0508503175576487 
4.17000000000362, -0.05080331444868706 
4.180000000003597, -0.05078591026929223 
4.1900000000035735, -0.050794437215248345 
4.20000000000355, -0.050820521980272905 
4.210000000003527, -0.0508519977794616 
4.220000000003504, -0.050875337206020055 
4.23000000000348, -0.050878751524609835 
4.240000000003457, -0.05085457264974789 
4.250000000003434, -0.050799982295088274 
4.26000000000341, -0.05071619110944221 
4.270000000003387, -0.05060689021490396 
4.280000000003364, -0.050476797322073996 
4.2900000000033405, -0.05033070742736662 
4.300000000003317, -0.05017307679453283 
4.310000000003294, -0.05000799303638394 
4.320000000003271, -0.0498393631317543 
4.330000000003247, -0.04967118466275809 
4.340000000003224, -0.04950779180276025 
4.350000000003201, -0.049353970727274495 
4.360000000003177, -0.049214832384834234 
4.370000000003154, -0.049095342156491854 
4.380000000003131, -0.04899946782172962 
4.390000000003107, -0.04892904244072456 
4.400000000003084, -0.04888264019949603 
4.410000000003061, -0.04885495591009263 
4.4200000000030375, -0.04883719367024163 
4.430000000003014, -0.048818633344796414 
4.440000000002991, -0.04878892148858224 
4.450000000002968, -0.048740157592392475 
4.460000000002944, -0.048667960714557944 
4.470000000002921, -0.048571331331679055 
4.480000000002898, -0.048451730084913984 
4.490000000002874, -0.0483119772157357 
4.500000000002851, -0.04815539020447661 
4.510000000002828, -0.047985301576881245 
4.520000000002804, -0.04780491815652869 
4.530000000002781, -0.04761741745639725 
4.540000000002758, -0.047426171086568915 
4.5500000000027345, -0.047234987960014164 
4.560000000002711, -0.04704826230203461 
4.570000000002688, -0.04687090337550685 
4.580000000002665, -0.04670794303393084 
4.590000000002641, -0.04656378935261236 
4.600000000002618, -0.046441223637059895 
4.610000000002595, -0.046340396474075715 
4.620000000002571, -0.046258204262521044 
4.630000000002548, -0.046188423726541084 
4.640000000002525, -0.04612275543818377 
4.6500000000025015, -0.04605251105969759 
4.660000000002478, -0.04597031875726271 
4.670000000002455, -0.04587121385730687 
4.6800000000024315, -0.0457528525356723 
4.690000000002408, -0.04561503458439799 
4.700000000002385, -0.045458940928397126 
4.710000000002362, -0.04528643845368306 
4.720000000002338, -0.04509963126571029 
4.730000000002315, -0.044900689026084205 
4.740000000002292, -0.044691905229506154 
4.750000000002268, -0.044475907484864324 
4.760000000002245, -0.04425592153892367 
4.770000000002222, -0.044035964636517475 
4.7800000000021985, -0.04382082512368358 
4.790000000002175, -0.043615707524027214 
