t, s[1].omega / s[0].omega 
0, -3.7499941670530275 
0.009999999999999995, -3.7493017271294407 
0.019999999999999934, -3.7484168377087457 
0.029999999999999874, -3.747587891948882 
0.04000000000000012, -3.7471401135481033 
0.050000000000000405, -3.7467903090394024 
0.06000000000000069, -3.746291386214734 
0.07000000000000098, -3.7456572023020085 
0.08000000000000126, -3.744971686298656 
0.09000000000000155, -3.7443512713929294 
0.10000000000000184, -3.743833281501048 
0.11000000000000212, -3.7433025590320392 
0.12000000000000241, -3.7426765685361127 
0.130000000000002, -3.742001301842987 
0.1400000000000009, -3.7414380749381864 
0.1499999999999998, -3.7409996525697435 
0.1599999999999987, -3.740529084721947 
0.1699999999999976, -3.739922246432547 
0.1799999999999965, -3.7391256095061616 
0.1899999999999954, -3.7382440131908594 
0.1999999999999943, -3.737723820450866 
0.2099999999999932, -3.7375093971323237 
0.2199999999999921, -3.7371601451067358 
0.229999999999991, -3.7365906846852965 
0.2399999999999899, -3.7358298896881643 
0.2499999999999888, -3.734984515692647 
0.2599999999999877, -3.734349856383093 
0.2699999999999866, -3.7339434974715027 
0.2799999999999855, -3.7334824626503584 
0.2899999999999844, -3.732894167103433 
0.2999999999999833, -3.732239820573814 
0.3099999999999822, -3.7316214972678887 
0.3199999999999811, -3.7310883191005466 
0.32999999999998, -3.7305696190537665 
0.3399999999999789, -3.729965555971755 
0.3499999999999778, -3.7292612673419834 
0.35999999999997667, -3.7286130733385585 
0.36999999999997557, -3.728185462827573 
0.37999999999997447, -3.727806287928698 
0.38999999999997337, -3.7272988915540934 
0.39999999999997227, -3.7265988145912545 
0.40999999999997117, -3.725692386009265 
0.41999999999997006, -3.7248605249574744 
0.42999999999996896, -3.7245068926764717 
0.43999999999996786, -3.7242620035454848 
0.44999999999996676, -3.7238182915929046 
0.45999999999996566, -3.7231837357657134 
0.46999999999996456, -3.7224228376568234 
0.47999999999996346, -3.7216974344058924 
0.48999999999996235, -3.721177018222386 
0.49999999999996125, -3.7207206311432435 
0.5099999999999602, -3.7201707139064064 
0.519999999999959, -3.7195351799186036 
0.529999999999958, -3.718913744104454 
0.5399999999999568, -3.7183802800904133 
0.5499999999999557, -3.7178841229251134 
0.5599999999999546, -3.717323132660573 
0.5699999999999535, -3.7166316376288515 
0.5799999999999524, -3.7158644641931695 
0.5899999999999513, -3.715312273909972 
0.5999999999999502, -3.7150117419598168 
0.6099999999999491, -3.714646064858239 
0.619999999999948, -3.7140889724628203 
0.6299999999999469, -3.7133148091310573 
0.6399999999999458, -3.712378818820592 
0.6499999999999447, -3.7116691253506437 
0.6599999999999436, -3.7113564896402877 
0.6699999999999425, -3.7110156494017312 
0.6799999999999414, -3.7104924714000043 
0.6899999999999403, -3.7098310117492317 
0.6999999999999392, -3.7091235151821507 
0.7099999999999381, -3.7085116906003877 
0.719999999999937, -3.7080186339175625 
0.7299999999999359, -3.707498496155682 
0.7399999999999348, -3.7068826736552367 
0.7499999999999337, -3.706233165394339 
0.7599999999999326, -3.705682781349039 
0.7699999999999315, -3.7052231204552455 
0.7799999999999304, -3.7047299884477467 
0.7899999999999293, -3.7041105755459354 
0.7999999999999282, -3.7033216428298545 
0.8099999999999271, -3.702513376712848 
0.819999999999926, -3.7020794986562833 
0.8299999999999249, -3.7018549704530543 
0.8399999999999238, -3.701475075075193 
0.8499999999999227, -3.700879833048907 
0.8599999999999216, -3.700084192041193 
0.8699999999999205, -3.6992111236496497 
0.8799999999999194, -3.698607967345204 
0.8899999999999183, -3.6982493257528075 
0.8999999999999172, -3.6978136535521555 
0.9099999999999161, -3.6972366718495144 
0.919999999999915, -3.6965798486577794 
0.9299999999999139, -3.6959452923404728 
0.9399999999999128, -3.6954053244169254 
0.9499999999999117, -3.6949000410799 
0.9599999999999106, -3.694320789323947 
0.9699999999999095, -3.6936474320798625 
0.9799999999999084, -3.693008315568604 
0.9899999999999073, -3.6925518035396463 
0.9999999999999062, -3.692154065172486 
1.0099999999999052, -3.6916537601213086 
1.019999999999904, -3.690978067215288 
1.029999999999903, -3.690103008952517 
1.039999999999902, -3.689272722356185 
1.0499999999999008, -3.6889080476411777 
1.0599999999998997, -3.688691506409506 
1.0699999999998986, -3.6882824469810784 
1.0799999999998975, -3.687670146160129 
1.0899999999998964, -3.686905163909485 
1.0999999999998953, -3.686136415956909 
1.1099999999998942, -3.685591171450331 
1.119999999999893, -3.685167277015317 
1.129999999999892, -3.684659724338988 
1.1399999999998909, -3.684048680736064 
1.1499999999998898, -3.6834151230853927 
1.1599999999998887, -3.682852257309952 
1.1699999999998876, -3.682354016130504 
1.1799999999998865, -3.6818268393623663 
1.1899999999998854, -3.681189675469425 
1.1999999999998843, -3.680451401862392 
1.2099999999998832, -3.6798291745359712 
1.219999999999882, -3.6794759119714664 
1.229999999999881, -3.679138579783637 
1.2399999999998799, -3.678640061290674 
1.2499999999998788, -3.677935878999154 
1.2599999999998777, -3.6770280774109274 
1.2699999999998766, -3.6761973415846114 
1.2799999999998755, -3.6758184764457775 
1.2899999999998744, -3.675549902197153 
1.2999999999998733, -3.675103642007689 
1.3099999999998722, -3.674489421968503 
1.319999999999871, -3.6737784575046595 
1.32999999999987, -3.6731051247554327 
1.3399999999998689, -3.6725842529636834 
1.3499999999998678, -3.672107270718823 
1.3599999999998666, -3.6715468035481016 
1.3699999999998655, -3.6709089310085927 
1.3799999999998644, -3.670305746533951 
1.3899999999998633, -3.66981311203849 
1.3999999999998622, -3.6693495217125474 
1.4099999999998611, -3.6688056904170088 
1.41999999999986, -3.668112561943816 
1.429999999999859, -3.6672917921418446 
1.4399999999998578, -3.666655525722706 
1.4499999999998567, -3.666386411934551 
1.4599999999998556, -3.6661084170009772 
1.4699999999998545, -3.665628965135383 
1.4799999999998534, -3.6649398170877303 
1.4899999999998523, -3.664074462010383 
1.4999999999998512, -3.66327881102663 
1.5099999999998501, -3.6628383993808704 
1.519999999999849, -3.6624898473310146 
1.529999999999848, -3.6620046214176925 
1.5399999999998468, -3.6613925064172017 
1.5499999999998457, -3.660733449221671 
1.5599999999998446, -3.6601324385093195 
1.5699999999998435, -3.65962477698078 
1.5799999999998424, -3.659111972360036 
1.5899999999998413, -3.6585069829997643 
1.5999999999998402, -3.65783323594085 
1.6099999999998391, -3.657254486560872 
1.619999999999838, -3.656840228804929 
1.629999999999837, -3.6564258145051083 
1.6399999999998358, -3.655885442676529 
1.6499999999998347, -3.6551587467025066 
1.6599999999998336, -3.6542603425026776 
1.6699999999998325, -3.6535432776986454 
1.6799999999998314, -3.6532797798799854 
1.6899999999998303, -3.65303611373792 
1.6999999999998292, -3.652582426828242 
1.709999999999828, -3.6519361714375824 
1.719999999999827, -3.6511565028518143 
1.729999999999826, -3.6504249523665053 
1.7399999999998248, -3.6499305175497754 
1.7499999999998237, -3.6495083227070175 
1.7599999999998226, -3.648987224287398 
1.7699999999998215, -3.648371940259164 
1.7799999999998204, -3.6477515634321507 
1.7899999999998193, -3.647208664476319 
1.7999999999998182, -3.646719973995764 
1.809999999999817, -3.646188987287234 
1.819999999999816, -3.6455427917191607 
1.8299999999998149, -3.6448064061729246 
1.8399999999998138, -3.6442151861353516 
1.8499999999998127, -3.64388568288582 
1.8599999999998116, -3.6435504394529707 
1.8699999999998105, -3.6430486994808184 
1.8799999999998094, -3.6423411587589305 
1.8899999999998083, -3.641435835831513 
1.8999999999998072, -3.6406202726241994 
1.909999999999806, -3.6402490358865784 
1.919999999999805, -3.639981093695959 
1.9299999999998039, -3.6395396233100383 
1.9399999999998028, -3.6389346317875066 
1.9499999999998017, -3.6382365960290897 
1.9599999999998006, -3.637573285889239 
1.9699999999997995, -3.6370542811350965 
1.9799999999997984, -3.6365814676962946 
1.9899999999997973, -3.636029087624158 
1.9999999999997962, -3.635396899623391 
2.0099999999998173, -3.634794447421432 
2.0199999999998384, -3.634308479402835 
2.0299999999998595, -3.633860264106759 
2.0399999999998806, -3.6333365738787506 
2.0499999999999017, -3.632665288575821 
2.059999999999923, -3.6318452643456816 
2.069999999999944, -3.6311496362190376 
2.079999999999965, -3.6308542926461578 
2.089999999999986, -3.630616821543763 
2.100000000000007, -3.630186727798521 
2.1100000000000283, -3.6295485051052445 
2.1200000000000494, -3.62872744061655 
2.1300000000000705, -3.6279017332481387 
2.1400000000000916, -3.6273881843315436 
2.1500000000001127, -3.6270409961496197 
2.160000000000134, -3.6265890373590466 
2.170000000000155, -3.6260067584562505 
2.180000000000176, -3.6253628620980862 
2.190000000000197, -3.624757168856757 
2.2000000000002182, -3.624242071015319 
2.2100000000002393, -3.623745543029692 
2.2200000000002604, -3.6231685764033372 
2.2300000000002815, -3.6224984506459057 
2.2400000000003026, -3.6218712181679713 
2.2500000000003237, -3.6214391121360556 
2.260000000000345, -3.621069813996457 
2.270000000000366, -3.6205957600590146 
2.280000000000387, -3.6199467349641727 
2.290000000000408, -3.6190930918518056 
2.3000000000004293, -3.618227258328507 
2.3100000000004504, -3.6177993123229144 
2.3200000000004715, -3.6176024270811893 
2.3300000000004926, -3.61724440766427 
2.3400000000005137, -3.6166857623980087 
2.3500000000005348, -3.6159752547952264 
2.360000000000556, -3.6152229635444555 
2.370000000000577, -3.6146340218261046 
2.380000000000598, -3.6142006630807098 
2.390000000000619, -3.613723747067592 
2.4000000000006403, -3.613143507578426 
2.4100000000006614, -3.61251962918926 
2.4200000000006825, -3.611956477663231 
2.4300000000007036, -3.611472519680204 
2.4400000000007247, -3.61098441320865 
2.450000000000746, -3.6104010998473965 
2.460000000000767, -3.6096831952576425 
2.470000000000788, -3.6089520182091617 
2.480000000000809, -3.6085076894754877 
2.49000000000083, -3.608250360792416 
2.5000000000008513, -3.607880981185565 
2.5100000000008724, -3.6073157393173134 
2.5200000000008935, -3.6065398849900396 
2.5300000000009146, -3.605630197118257 
2.5400000000009357, -3.6049629554023808 
2.550000000000957, -3.6046558403382654 
2.560000000000978, -3.604319627196562 
2.570000000000999, -3.603815869218033 
2.58000000000102, -3.6031857292923517 
2.5900000000010412, -3.602515302015145 
2.6000000000010624, -3.6019238559238977 
2.6100000000010835, -3.601438866768241 
2.6200000000011046, -3.6009391487678526 
2.6300000000011257, -3.6003471516679673 
2.6400000000011468, -3.5997025521996044 
2.650000000001168, -3.5991496090191433 
2.660000000001189, -3.5987240096398936 
2.67000000000121, -3.5982911192779232 
2.680000000001231, -3.597743844517763 
2.6900000000012523, -3.597022551218763 
2.7000000000012734, -3.596157993710245 
2.7100000000012945, -3.5955070660070936 
2.7200000000013156, -3.5952726385222165 
2.7300000000013367, -3.595033598867802 
2.740000000001358, -3.594586501610439 
2.750000000001379, -3.5939424384192002 
2.7600000000014, -3.5931493269866683 
2.770000000001421, -3.5923931210104483 
2.780000000001442, -3.5919036383479814 
2.7900000000014633, -3.591518275266818 
2.8000000000014844, -3.591033984063693 
2.8100000000015055, -3.590442243426144 
2.8200000000015266, -3.5898198167218496 
2.8300000000015477, -3.589258430697811 
2.840000000001569, -3.5887692835739657 
2.85000000000159, -3.5882677187157634 
2.860000000001611, -3.587669396446157 
2.870000000001632, -3.586968957755034 
2.8800000000016532, -3.586336220838665 
2.8900000000016743, -3.5859539431281875 
2.9000000000016954, -3.5856381374421202 
2.9100000000017165, -3.5851926009567334 
2.9200000000017377, -3.5845582557528806 
2.9300000000017588, -3.5837129790547175 
2.94000000000178, -3.5828198670723395 
2.950000000001801, -3.5823216298592313 
2.960000000001822, -3.582096900687296 
2.970000000001843, -3.581746993036127 
2.9800000000018643, -3.5812129785259175 
2.9900000000018854, -3.580548154402097 
3.0000000000019065, -3.5798499147551057 
3.0100000000019276, -3.5792686396407136 
3.0200000000019487, -3.5788099966329527 
3.03000000000197, -3.5783204973402634 
3.040000000001991, -3.5777363402005955 
3.050000000002012, -3.5771123382261236 
3.060000000002033, -3.5765699971792806 
3.070000000002054, -3.57612221577212 
3.0800000000020753, -3.575662477267835 
3.0900000000020964, -3.575096965673211 
3.1000000000021175, -3.574372504147449 
3.1100000000021386, -3.5735615484393137 
3.1200000000021597, -3.5730237397831246 
3.130000000002181, -3.572809640536179 
3.140000000002202, -3.572529422640657 
3.150000000002223, -3.5720446240936354 
3.160000000002244, -3.5713591894803285 
3.1700000000022652, -3.5705177403124564 
3.1800000000022863, -3.569761302929648 
3.1900000000023074, -3.5693304467744484 
3.2000000000023285, -3.5689821287212418 
3.2100000000023496, -3.5685098335169023 
3.2200000000023707, -3.567919688608517 
3.230000000002392, -3.567287794109599 
3.240000000002413, -3.566709868779161 
3.250000000002434, -3.5662164592205983 
3.260000000002455, -3.5657234758013248 
3.2700000000024763, -3.565142504751212 
3.2800000000024974, -3.5644732593704895 
3.2900000000025185, -3.5638661535295255 
3.3000000000025396, -3.5634623139152692 
3.3100000000025607, -3.5631116081865626 
3.3200000000025818, -3.562649484078232 
3.330000000002603, -3.5620109009465666 
3.340000000002624, -3.5611674979169203 
3.350000000002645, -3.5602951190956085 
3.360000000002666, -3.559840758790063 
3.3700000000026873, -3.5596491206922005 
3.3800000000027084, -3.5593171549973293 
3.3900000000027295, -3.558789027028542 
3.4000000000027506, -3.5581127056017925 
3.4100000000027717, -3.5573829372747254 
3.420000000002793, -3.556780422365372 
3.430000000002814, -3.556337599442332 
3.440000000002835, -3.5558768126684868 
3.450000000002856, -3.555317471751568 
3.460000000002877, -3.5547023073937893 
3.4700000000028983, -3.554139273685472 
3.4800000000029194, -3.553666810019788 
3.4900000000029405, -3.553206377191972 
3.5000000000029616, -3.552663040860608 
3.5100000000029827, -3.551979302613552 
3.520000000003004, -3.5512049812617774 
3.530000000003025, -3.5506443404118224 
3.540000000003046, -3.550396767629902 
3.550000000003067, -3.55012091531061 
3.5600000000030882, -3.5496557860464413 
3.5700000000031094, -3.5489875520546073 
3.5800000000031305, -3.548138219230051 
3.5900000000031516, -3.547329047277534 
3.6000000000031727, -3.546879155117439 
3.6100000000031938, -3.546574947229425 
3.620000000003215, -3.5461473217852264 
3.630000000003236, -3.5455815785028064 
3.640000000003257, -3.5449435784333603 
3.650000000003278, -3.5443326118835037 
3.6600000000032993, -3.543819792818779 
3.6700000000033204, -3.5433459552769393 
3.6800000000033415, -3.5428046679860117 
3.6900000000033626, -3.5421699021311985 
3.7000000000033837, -3.541543013767574 
3.710000000003405, -3.541081631191055 
3.720000000003426, -3.5407157599301087 
3.730000000003447, -3.5402806017485724 
3.740000000003468, -3.5396934558640973 
3.750000000003489, -3.538910351713303 
3.7600000000035103, -3.5380240392893922 
3.7700000000035314, -3.537463326949703 
3.7800000000035525, -3.537272429123262 
3.7900000000035736, -3.5370065215550164 
3.8000000000035947, -3.536534703592212 
3.810000000003616, -3.535890077287862 
3.820000000003637, -3.5351413311260793 
3.830000000003658, -3.5344654620642175 
3.840000000003679, -3.53399837628836 
3.8500000000037002, -3.533580186878288 
3.8600000000037213, -3.53306927265404 
3.8700000000037424, -3.5324723501885344 
3.8800000000037635, -3.531877948365485 
3.8900000000037847, -3.5313667141552836 
3.9000000000038058, -3.530908655344143 
3.910000000003827, -3.530410103525619 
3.920000000003848, -3.5297960944396722 
3.930000000003869, -3.529059176682838 
3.94000000000389, -3.5283948732563104 
3.9500000000039113, -3.528050635503741 
3.9600000000039324, -3.5278071264431494 
3.9700000000039535, -3.5274168103760366 
3.9800000000039746, -3.5268297701557407 
3.9900000000039957, -3.5260395495347012 
4.000000000004016, -3.5251553257570003 
4.010000000003993, -3.524550488348967 
4.02000000000397, -3.5242584679733207 
4.030000000003946, -3.52391621775717 
4.040000000003923, -3.523416171123004 
4.0500000000039, -3.522801626749147 
4.0600000000038765, -3.522157266567504 
4.070000000003853, -3.521589230194131 
4.08000000000383, -3.521115925700877 
4.090000000003807, -3.5206276640860827 
4.100000000003783, -3.5200485268838433 
4.11000000000376, -3.519408271873915 
4.120000000003737, -3.518854406682977 
4.130000000003713, -3.518451848575281 
4.14000000000369, -3.518061256379938 
4.150000000003667, -3.5175622553244574 
4.1600000000036434, -3.5168932723036526 
4.17000000000362, -3.516042701988082 
4.180000000003597, -3.5152634529227407 
4.1900000000035735, -3.514932923759159 
4.20000000000355, -3.5147565405033183 
4.210000000003527, -3.5144044766082567 
4.220000000003504, -3.513854474624145 
4.23000000000348, -3.513148593866716 
4.240000000003457, -3.5123921291272735 
4.250000000003434, -3.5118019245434136 
4.26000000000341, -3.5113935819317987 
4.270000000003387, -3.5109576596339394 
4.280000000003364, -3.5104158527618052 
4.2900000000033405, -3.509811501777765 
4.300000000003317, -3.5092424669677187 
4.310000000003294, -3.5087569006834136 
4.320000000003271, -3.508297272459347 
4.330000000003247, -3.507770673477456 
4.340000000003224, -3.50711899546143 
4.350000000003201, -3.506384145349064 
4.360000000003177, -3.5058256659611344 
4.370000000003154, -3.5055511359924827 
4.380000000003131, -3.505271473848991 
4.390000000003107, -3.5048216024381333 
4.400000000003084, -3.504173203957522 
4.410000000003061, -3.5033303195175103 
4.4200000000030375, -3.502485947808128 
4.430000000003014, -3.502010785177564 
4.440000000002991, -3.501746568097553 
4.450000000002968, -3.5013692399789407 
4.460000000002944, -3.500837472368084 
4.470000000002921, -3.50020750247117 
4.480000000002898, -3.4995726590097442 
4.490000000002874, -3.4990339329570554 
4.500000000002851, -3.498573488461095 
4.510000000002828, -3.498073742224453 
4.520000000002804, -3.497480473271157 
4.530000000002781, -3.4968498277917917 
4.540000000002758, -3.4963338134060793 
4.5500000000027345, -3.4959479311102784 
4.560000000002711, -3.495544740691922 
4.570000000002688, -3.495020958746088 
4.580000000002665, -3.4943208320657626 
4.590000000002641, -3.493457871966901 
4.600000000002618, -3.492747585100033 
4.610000000002595, -3.492483750675382 
4.620000000002571, -3.492294912903694 
4.630000000002548, -3.4919148945371425 
4.640000000002525, -3.4913430783222394 
4.6500000000025015, -3.490624285409479 
4.660000000002478, -3.4898797978877782 
4.670000000002455, -3.4893235344598326 
4.6800000000024315, -3.4889264914924603 
4.690000000002408, -3.4884836792803093 
4.700000000002385, -3.4879359102186065 
4.710000000002362, -3.48733446614839 
4.720000000002338, -3.486777223244257 
4.730000000002315, -3.486302000660495 
4.740000000002292, -3.485844705242637 
4.750000000002268, -3.485314252841267 
4.760000000002245, -3.4846569439034356 
4.770000000002222, -3.48392478449451 
4.7800000000021985, -3.4833855386262775 
4.790000000002175, -3.483124411728558 
4.800000000002152, -3.4828468543514277 
4.810000000002129, -3.4823968569047166 
4.820000000002105, -3.4817491691819127 
4.830000000002082, -3.4809102341824762 
4.840000000002059, -3.480073159882693 
4.850000000002035, -3.4795992537205507 
4.860000000002012, -3.4793339155250265 
4.870000000001989, -3.4789595157343607 
4.880000000001965, -3.4784334215933717 
4.890000000001942, -3.477810759269871 
4.900000000001919, -3.477182828654277 
4.9100000000018955, -3.4766470055645167 
4.920000000001872, -3.4761887331602765 
4.930000000001849, -3.475694259761731 
4.940000000001826, -3.4751062751834274 
4.950000000001802, -3.4744743645738807 
4.960000000001779, -3.4739530399260614 
4.970000000001756, -3.4735736113290576 
