t, s[1].omega / s[0].omega 
0, -4.9999913324689 
0.009999999999999995, -4.998998752956654 
0.019999999999999934, -4.99787557552508 
0.029999999999999874, -4.997105515512213 
0.04000000000000012, -4.996435104512984 
0.050000000000000405, -4.99556873563692 
0.06000000000000069, -4.994573853932385 
0.07000000000000098, -4.99367015969992 
0.08000000000000126, -4.992904645412195 
0.09000000000000155, -4.992054133258284 
0.10000000000000184, -4.991132371147471 
0.11000000000000212, -4.990272139468082 
0.12000000000000241, -4.989467389360363 
0.130000000000002, -4.988584808682323 
0.1400000000000009, -4.987624374333552 
0.1499999999999998, -4.98681292765764 
0.1599999999999987, -4.986079628623976 
0.1699999999999976, -4.9852105959275335 
0.1799999999999965, -4.984147184121214 
0.1899999999999954, -4.98320802734508 
0.1999999999999943, -4.982609233464675 
0.2099999999999932, -4.981866964090458 
0.2199999999999921, -4.980876378965652 
0.229999999999991, -4.979759388151827 
0.2399999999999899, -4.978995133650372 
0.2499999999999888, -4.97832791099699 
0.2599999999999877, -4.977466504389052 
0.2699999999999866, -4.976478047492 
0.2799999999999855, -4.975578252737028 
0.2899999999999844, -4.9748160107988095 
0.2999999999999833, -4.973970976350666 
0.3099999999999822, -4.973054125138911 
0.3199999999999811, -4.972198029938468 
0.32999999999998, -4.971398485142201 
0.3399999999999789, -4.970522967067908 
0.3499999999999778, -4.9695646205039425 
0.35999999999997667, -4.968751610561508 
0.36999999999997557, -4.968027880615317 
0.37999999999997447, -4.96717237045985 
0.38999999999997337, -4.966118676306525 
0.39999999999997227, -4.965158684842655 
0.40999999999997117, -4.9645612212659005 
0.41999999999997006, -4.963840333748259 
0.42999999999996896, -4.962872056448576 
0.43999999999996786, -4.961756346722166 
0.44999999999996676, -4.9609635956630616 
0.45999999999996566, -4.960308688774834 
0.46999999999996456, -4.959466723252089 
0.47999999999996346, -4.958490763109667 
0.48999999999996235, -4.957581280793466 
0.49999999999996125, -4.956819056449204 
0.5099999999999602, -4.9559874551814795 
0.519999999999959, -4.95507630593801 
0.529999999999958, -4.954218489664863 
0.5399999999999568, -4.95342464237249 
0.5499999999999557, -4.952564504192074 
0.5599999999999546, -4.951607401602378 
0.5699999999999535, -4.950776007407136 
0.5799999999999524, -4.950066353363065 
0.5899999999999513, -4.949239258043521 
0.5999999999999502, -4.948209216144867 
0.6099999999999491, -4.9471989925299145 
0.619999999999948, -4.9465858557912785 
0.6299999999999469, -4.945905968463812 
0.6399999999999458, -4.944980422644354 
0.6499999999999447, -4.943872529747622 
0.6599999999999436, -4.943014408659403 
0.6699999999999425, -4.9423733032270425 
0.6799999999999414, -4.941565193646787 
0.6899999999999403, -4.9406104416478245 
0.6999999999999392, -4.939682649929657 
0.7099999999999381, -4.938912099703492 
0.719999999999937, -4.938101218931853 
0.7299999999999359, -4.9371988366873625 
0.7399999999999348, -4.936333366233781 
0.7499999999999337, -4.935543525392598 
0.7599999999999326, -4.934706621830136 
0.7699999999999315, -4.93375686025001 
0.7799999999999304, -4.932887186959437 
0.7899999999999293, -4.9321888571419565 
0.7999999999999282, -4.931404306078761 
0.8099999999999271, -4.930418054443456 
0.819999999999926, -4.929349060121768 
0.8299999999999249, -4.928676494460481 
0.8399999999999238, -4.928052970663005 
0.8499999999999227, -4.927190493205488 
0.8599999999999216, -4.926114276903038 
0.8699999999999205, -4.925160978879388 
0.8799999999999194, -4.9245152555420315 
0.8899999999999183, -4.923754739096813 
0.8999999999999172, -4.922833366674561 
0.9099999999999161, -4.921888946989488 
0.919999999999915, -4.921094178245154 
0.9299999999999139, -4.920308189084381 
0.9399999999999128, -4.919422002758034 
0.9499999999999117, -4.918543540487468 
0.9599999999999106, -4.917752303458712 
0.9699999999999095, -4.91694405070203 
0.9799999999999084, -4.916016825393392 
0.9899999999999073, -4.915093782075587 
0.9999999999999062, -4.914386546866976 
1.0099999999999052, -4.913656261465016 
1.019999999999904, -4.912736221299674 
1.029999999999903, -4.911640351216379 
1.039999999999902, -4.91083513139756 
1.0499999999999008, -4.9102648912497475 
1.0599999999998997, -4.90948581433698 
1.0699999999998986, -4.908475278398861 
1.0799999999998975, -4.907433516875824 
1.0899999999998964, -4.906729961422811 
1.0999999999998953, -4.906025280685583 
1.1099999999998942, -4.905152059037986 
1.119999999999893, -4.904206030615495 
1.129999999999892, -4.903368725612847 
1.1399999999998909, -4.902602512156105 
1.1499999999998898, -4.901744751751645 
1.1599999999998887, -4.900851997210375 
1.1699999999998876, -4.900048792502886 
1.1799999999998865, -4.89926905803805 
1.1899999999998854, -4.8983842039730545 
1.1999999999998843, -4.897417727424973 
1.2099999999998832, -4.896652494257502 
1.219999999999882, -4.895979243268796 
1.229999999999881, -4.895144501774001 
1.2399999999998799, -4.894089274725706 
1.2499999999998788, -4.893099969682805 
1.2599999999998777, -4.8925218170904055 
1.2699999999998766, -4.891845591218873 
1.2799999999998755, -4.890930575515236 
1.2899999999998744, -4.889865045267541 
1.2999999999998733, -4.889028905234227 
1.3099999999998722, -4.888364552369313 
1.319999999999871, -4.887555387234302 
1.32999999999987, -4.8866315788487436 
1.3399999999998689, -4.885747385415068 
1.3499999999998678, -4.884978682644277 
1.3599999999998666, -4.884161461639549 
1.3699999999998655, -4.883265224299722 
1.3799999999998644, -4.882433135494934 
1.3899999999998633, -4.881672983132704 
1.3999999999998622, -4.88084507188839 
1.4099999999998611, -4.879882797877824 
1.41999999999986, -4.879000145320644 
1.429999999999859, -4.878352599952732 
1.4399999999998578, -4.877617721302661 
1.4499999999998567, -4.8766646507191895 
1.4599999999998556, -4.87556042968191 
1.4699999999998545, -4.874819921605389 
1.4799999999998534, -4.874244482082586 
1.4899999999998523, -4.873447109680276 
1.4999999999998512, -4.872444500631935 
1.5099999999998501, -4.871462727660146 
1.519999999999849, -4.8707640847233655 
1.529999999999848, -4.870029196269316 
1.5399999999998468, -4.869152961173582 
1.5499999999998457, -4.868243706831722 
1.5599999999998446, -4.867438549881959 
1.5699999999998435, -4.866660581931044 
1.5799999999998424, -4.8657884477067 
1.5899999999998413, -4.864912843549688 
1.5999999999998402, -4.864148909614961 
1.6099999999998391, -4.863379466589942 
1.619999999999838, -4.862479064914385 
1.629999999999837, -4.861492506720089 
1.6399999999998358, -4.860760857972496 
1.6499999999998347, -4.860126859348374 
1.6599999999998336, -4.859306144151203 
1.6699999999998325, -4.8582524453837825 
1.6799999999998314, -4.8572427309706505 
1.6899999999998303, -4.856656277705269 
1.6999999999998292, -4.855994848328124 
1.709999999999828, -4.855108959445743 
1.719999999999827, -4.854089759058502 
1.729999999999826, -4.853245819268918 
1.7399999999998248, -4.852557834716153 
1.7499999999998237, -4.851752958488138 
1.7599999999998226, -4.850854820998142 
1.7699999999998215, -4.849999328941886 
1.7799999999998204, -4.849230989960494 
1.7899999999998193, -4.848410870762832 
1.7999999999998182, -4.84751109281789 
1.809999999999817, -4.846697096560891 
1.819999999999816, -4.845969032067738 
1.8299999999998149, -4.84515929388462 
1.8399999999998138, -4.844188104145662 
1.8499999999998127, -4.843254305288261 
1.8599999999998116, -4.842637334363558 
1.8699999999998105, -4.84196375343223 
1.8799999999998094, -4.841062611074877 
1.8899999999998083, -4.8399610664938875 
1.8999999999998072, -4.839110407741854 
1.909999999999806, -4.838544190324445 
1.919999999999805, -4.837801204761652 
1.9299999999998039, -4.836865846939626 
1.9399999999998028, -4.835894036154639 
1.9499999999998017, -4.835139654489733 
1.9599999999998006, -4.834411486812349 
1.9699999999997995, -4.833562289041121 
1.9799999999997984, -4.8326790291745265 
1.9899999999997973, -4.831877215118405 
1.9999999999997962, -4.8311056826981496 
2.0099999999998173, -4.830241818447854 
2.0199999999998384, -4.829347947202888 
2.0299999999998595, -4.828601638663963 
2.0399999999998806, -4.8278790369069675 
2.0499999999999017, -4.827019109409785 
2.059999999999923, -4.825996237338196 
2.069999999999944, -4.825158836573342 
2.079999999999965, -4.82459303246077 
2.089999999999986, -4.823871565601541 
2.100000000000007, -4.822910470670733 
2.1100000000000283, -4.821823047223856 
2.1200000000000494, -4.821091777574403 
2.1300000000000705, -4.820487189869161 
2.1400000000000916, -4.819688332915108 
2.1500000000001127, -4.818740959644382 
2.160000000000134, -4.81783832267014 
2.170000000000155, -4.817112819776209 
2.180000000000176, -4.816342213340868 
2.190000000000197, -4.815473119407674 
2.2000000000002182, -4.814624317100698 
2.2100000000002393, -4.813856890079444 
2.2200000000002604, -4.813064777254613 
2.2300000000002815, -4.812165120280719 
2.2400000000003026, -4.81130045380676 
2.2500000000003237, -4.810609325771897 
2.260000000000345, -4.809878669260448 
2.270000000000366, -4.808971879059245 
2.280000000000387, -4.807920874432152 
2.290000000000408, -4.807172584648535 
2.3000000000004293, -4.806619179236058 
2.3100000000004504, -4.8058613269166806 
2.3200000000004715, -4.804870058265425 
2.3300000000004926, -4.80383071849529 
2.3400000000005137, -4.803152128560163 
2.3500000000005348, -4.802502213716318 
2.360000000000556, -4.801672496883843 
2.370000000000577, -4.800739766242803 
2.380000000000598, -4.799893783919094 
2.390000000000619, -4.799165402169758 
2.4000000000006403, -4.79836287389389 
2.4100000000006614, -4.797490723612373 
2.4200000000006825, -4.796680343927415 
2.4300000000007036, -4.79593105709876 
2.4400000000007247, -4.7951159709123665 
2.450000000000746, -4.7941876958586205 
2.460000000000767, -4.793357902286287 
2.470000000000788, -4.7927102090493765 
2.480000000000809, -4.791973040196508 
2.49000000000083, -4.791032352747054 
2.5000000000008513, -4.789967141822218 
2.5100000000008724, -4.789271145738809 
2.5200000000008935, -4.788716914739487 
2.5300000000009146, -4.787941226832405 
2.5400000000009357, -4.7869499419586905 
2.550000000000957, -4.785959860074426 
2.560000000000978, -4.785287415360299 
2.570000000000999, -4.784602435325696 
2.58000000000102, -4.7837608952934 
2.5900000000010412, -4.782854740254143 
2.6000000000010624, -4.782044766463439 
2.6100000000010835, -4.781304583850293 
2.6200000000011046, -4.780480262740422 
2.6300000000011257, -4.779612199905493 
2.6400000000011468, -4.778836920076019 
2.650000000001168, -4.77810006422881 
2.660000000001189, -4.777267239359783 
2.67000000000121, -4.77631233864681 
2.680000000001231, -4.7755055078413395 
2.6900000000012523, -4.774897141395606 
2.7000000000012734, -4.774165681592831 
2.7100000000012945, -4.773212343012807 
2.7200000000013156, -4.7721360813499825 
2.7300000000013367, -4.771445973239505 
2.740000000001358, -4.770889453299125 
2.750000000001379, -4.770114801951715 
2.7600000000014, -4.769146404893693 
2.770000000001421, -4.7681927492652445 
2.780000000001442, -4.76750324301903 
2.7900000000014633, -4.766795331961621 
2.8000000000014844, -4.765953678703929 
2.8100000000015055, -4.7650750370489625 
2.8200000000015266, -4.764286590304645 
2.8300000000015477, -4.763536477351803 
2.840000000001569, -4.762697370955174 
2.85000000000159, -4.761830649181904 
2.860000000001611, -4.761085819748594 
2.870000000001632, -4.760365665404306 
2.8800000000016532, -4.759526216408547 
2.8900000000016743, -4.7585434550796615 
2.9000000000016954, -4.757729533395521 
2.9100000000017165, -4.757160105424059 
2.9200000000017377, -4.7564533981351556 
2.9300000000017588, -4.755514796903272 
2.94000000000178, -4.754432871441186 
2.950000000001801, -4.7537016098737315 
2.960000000001822, -4.753140945216115 
2.970000000001843, -4.752382214117079 
2.9800000000018643, -4.7514499907774 
2.9900000000018854, -4.750522044248701 
3.0000000000019065, -4.749806313450277 
3.0100000000019276, -4.749084850832214 
3.0200000000019487, -4.748248196583036 
3.03000000000197, -4.747392113364274 
3.040000000001991, -4.746619083199828 
3.050000000002012, -4.745865758237839 
3.060000000002033, -4.745017338442855 
3.070000000002054, -4.744139763009612 
3.0800000000020753, -4.743418410739655 
3.0900000000020964, -4.742727293036188 
3.1000000000021175, -4.741899404258271 
3.1100000000021386, -4.740894984056448 
3.1200000000021597, -4.740025600401805 
3.130000000002181, -4.739484713422302 
3.140000000002202, -4.738824176957969 
3.150000000002223, -4.737928622897335 
3.160000000002244, -4.736862234990825 
3.1700000000022652, -4.736052916354028 
3.1800000000022863, -4.735476703197868 
3.1900000000023074, -4.734742635768994 
3.2000000000023285, -4.73385138544411 
3.2100000000023496, -4.732945815915285 
3.2200000000023707, -4.732202416911841 
3.230000000002392, -4.731473546074449 
3.240000000002413, -4.73064267777926 
3.250000000002434, -4.729800052276152 
3.260000000002455, -4.729042094473199 
3.2700000000024763, -4.728295784553452 
3.2800000000024974, -4.727446472069946 
3.2900000000025185, -4.726539714268331 
3.3000000000025396, -4.725822136236204 
3.3100000000025607, -4.725177503581677 
3.3200000000025818, -4.724386757374815 
3.330000000002603, -4.72338830501252 
3.340000000002624, -4.722416965231046 
3.350000000002645, -4.721858517456841 
3.360000000002666, -4.721260788756451 
3.3700000000026873, -4.720430563792489 
3.3800000000027084, -4.719413631091102 
3.3900000000027295, -4.718519990494107 
3.4000000000027506, -4.717902561130488 
3.4100000000027717, -4.717194946137697 
3.420000000002793, -4.716343255055802 
3.430000000002814, -4.715461255483918 
3.440000000002835, -4.714694754721113 
3.450000000002856, -4.713962462025616 
3.460000000002877, -4.713137619062227 
3.4700000000028983, -4.7122938673775945 
3.4800000000029194, -4.711550709003632 
3.4900000000029405, -4.710825608644725 
3.5000000000029616, -4.709991979551419 
3.5100000000029827, -4.70904658923834 
3.520000000003004, -4.7082814036248894 
3.530000000003025, -4.7076949643916715 
3.540000000003046, -4.7069720050059995 
3.550000000003067, -4.706026646286637 
3.5600000000030882, -4.704965663774291 
3.5700000000031094, -4.704290235420072 
3.5800000000031305, -4.7037500506610455 
3.5900000000031516, -4.702997879502886 
3.6000000000031727, -4.70205736858028 
3.6100000000031938, -4.701116779793237 
3.620000000003215, -4.700426136730024 
3.630000000003236, -4.69973823492871 
3.640000000003257, -4.698921604250431 
3.650000000003278, -4.698062171456716 
3.6600000000032993, -4.697282614880708 
3.6700000000033204, -4.696550610660404 
3.6800000000033415, -4.695736596366903 
3.6900000000033626, -4.694873471821649 
3.7000000000033837, -4.694131776351337 
3.710000000003405, -4.693445403553179 
3.720000000003426, -4.692653390332556 
3.730000000003447, -4.691695995324267 
3.740000000003468, -4.690804515951505 
3.750000000003489, -4.690242708848398 
3.7600000000035103, -4.689618627184532 
3.7700000000035314, -4.688769766583546 
3.7800000000035525, -4.6877165223421535 
3.7900000000035736, -4.686840045109836 
3.8000000000035947, -4.686293832693207 
3.810000000003616, -4.685621562825363 
3.820000000003637, -4.684764858841955 
3.830000000003658, -4.6838354087743275 
3.840000000003679, -4.683060331518517 
3.8500000000037002, -4.682374123576082 
3.8600000000037213, -4.681588754821395 
3.8700000000037424, -4.680743931131524 
3.8800000000037635, -4.679960992663234 
3.8900000000037847, -4.679235431789279 
3.9000000000038058, -4.678444963788941 
3.910000000003827, -4.677557619654543 
3.920000000003848, -4.676769912846943 
3.930000000003869, -4.676131658469725 
3.94000000000389, -4.6754131840170565 
3.9500000000039113, -4.674507654042044 
3.9600000000039324, -4.673482985925533 
3.9700000000039535, -4.672799125386311 
3.9800000000039746, -4.672280244523856 
3.9900000000039957, -4.671554697370274 
4.000000000004016, -4.670606673976802 
4.010000000003993, -4.669601050649883 
4.02000000000397, -4.668921306950262 
4.030000000003946, -4.668305559130892 
4.040000000003923, -4.66752713943732 
4.0500000000039, -4.666645128339979 
4.0600000000038765, -4.66581619756424 
4.070000000003853, -4.66510647297084 
4.08000000000383, -4.664350609201551 
4.090000000003807, -4.663511739362497 
4.100000000003783, -4.662718250557107 
4.11000000000376, -4.662008173109669 
4.120000000003737, -4.6612596463198 
4.130000000003713, -4.660381715942447 
4.14000000000369, -4.659484273401541 
4.150000000003667, -4.6588415770554095 
4.1600000000036434, -4.658229199206149 
4.17000000000362, -4.6574350240521 
4.180000000003597, -4.656422117945814 
4.1900000000035735, -4.655467681295642 
4.20000000000355, -4.654930900730335 
4.210000000003527, -4.654339285777451 
4.220000000003504, -4.653527311653908 
4.23000000000348, -4.652559354299141 
4.240000000003457, -4.651700143274961 
4.250000000003434, -4.651061566101983 
4.26000000000341, -4.650349859548736 
4.270000000003387, -4.649520189194215 
4.280000000003364, -4.648682346312453 
4.2900000000033405, -4.64793814240579 
4.300000000003317, -4.647207537573512 
4.310000000003294, -4.6463837102996965 
4.320000000003271, -4.645547365214613 
4.330000000003247, -4.644843600380833 
4.340000000003224, -4.644157546139061 
4.350000000003201, -4.643347055706286 
4.360000000003177, -4.642381951429053 
4.370000000003154, -4.641559758359016 
4.380000000003131, -4.641029134985435 
4.390000000003107, -4.64038720499454 
4.400000000003084, -4.639518816950571 
4.410000000003061, -4.63846779610555 
4.4200000000030375, -4.6376532512713 
4.430000000003014, -4.6371206704581205 
4.440000000002991, -4.636440936196761 
4.450000000002968, -4.635585556231612 
4.460000000002944, -4.634674098396649 
4.470000000002921, -4.633922793910747 
4.480000000002898, -4.633243544820894 
4.490000000002874, -4.632464271672042 
4.500000000002851, -4.6316321625292245 
4.510000000002828, -4.630865821532604 
4.520000000002804, -4.630152905711068 
4.530000000002781, -4.6293726308972225 
4.540000000002758, -4.628493202791262 
4.5500000000027345, -4.627711887062768 
4.560000000002711, -4.6270911468757205 
4.570000000002688, -4.626394950236242 
4.580000000002665, -4.625512330588359 
4.590000000002641, -4.624487985727032 
4.600000000002618, -4.623773174482487 
4.610000000002595, -4.623278366009509 
4.620000000002571, -4.622592223809607 
4.630000000002548, -4.621684951059281 
4.640000000002525, -4.620682027578523 
4.6500000000025015, -4.619961926890011 
4.660000000002478, -4.619365575655857 
4.670000000002455, -4.618621665083474 
4.6800000000024315, -4.617765231414884 
4.690000000002408, -4.61693413174539 
4.700000000002385, -4.616222425983477 
4.710000000002362, -4.615491485250769 
4.720000000002338, -4.614669656634822 
4.730000000002315, -4.61386991257633 
4.740000000002292, -4.613169779900163 
4.750000000002268, -4.612455780233375 
4.760000000002245, -4.6116177358486485 
4.770000000002222, -4.610691914264529 
4.7800000000021985, -4.609992437538109 
4.790000000002175, -4.609433651234626 
4.800000000002152, -4.6087200498469265 
4.810000000002129, -4.607784329868296 
4.820000000002105, -4.606747781387094 
4.830000000002082, -4.606096751684467 
4.840000000002059, -4.605577572244519 
4.850000000002035, -4.6048552515011085 
4.860000000002012, -4.603953304915254 
4.870000000001989, -4.6030364602487746 
4.880000000001965, -4.602345761422203 
4.890000000001942, -4.601683317563248 
4.900000000001919, -4.600900921855943 
4.9100000000018955, -4.600069202987422 
4.920000000001872, -4.599305548100249 
4.930000000001849, -4.598598074345398 
4.940000000001826, -4.597821230666903 
4.950000000001802, -4.596968098414746 
4.960000000001779, -4.596219287356949 
4.970000000001756, -4.59557724867378 
4.980000000001732, -4.594855353094185 
4.990000000001709, -4.593961236060334 
5.000000000001686, -4.592989164686787 
5.0100000000016625, -4.5923559137086665 
5.020000000001639, -4.591839089470804 
5.030000000001616, -4.59111972478174 
