t, s[1].omega / s[0].omega 
0, -3.8249940213306823 
0.009999999999999995, -3.824302189477541 
0.019999999999999934, -3.823454624804861 
0.029999999999999874, -3.8226795828317535 
0.04000000000000012, -3.8222133867082535 
0.050000000000000405, -3.821801254035324 
0.06000000000000069, -3.82125823518774 
0.07000000000000098, -3.8206027659175943 
0.08000000000000126, -3.8199160274096173 
0.09000000000000155, -3.819304119940474 
0.10000000000000184, -3.81877253388324 
0.11000000000000212, -3.8182085788646267 
0.12000000000000241, -3.817560387356662 
0.130000000000002, -3.8168963664615836 
0.1400000000000009, -3.8163442293541108 
0.1499999999999998, -3.815866057243647 
0.1599999999999987, -3.815333129862771 
0.1699999999999976, -3.814668389874689 
0.1799999999999965, -3.8138563105251655 
0.1899999999999954, -3.8131054352363036 
0.1999999999999943, -3.8127021864985253 
0.2099999999999932, -3.8123761833981624 
0.2199999999999921, -3.8118841128987286 
0.229999999999991, -3.8112092636305492 
0.2399999999999899, -3.8103935591755764 
0.2499999999999888, -3.8096367638570428 
0.2599999999999877, -3.8091417948532067 
0.2699999999999866, -3.8087013458473806 
0.2799999999999855, -3.808148959300239 
0.2899999999999844, -3.80750086325866 
0.2999999999999833, -3.8068392657859915 
0.3099999999999822, -3.8062493785638303 
0.3199999999999811, -3.8057166934589346 
0.32999999999998, -3.8051413299672285 
0.3399999999999789, -3.8044770785220927 
0.3499999999999778, -3.8038015398243337 
0.35999999999997667, -3.8032696906324888 
0.36999999999997557, -3.802825772815676 
0.37999999999997447, -3.8023123086586295 
0.38999999999997337, -3.8016524933551645 
0.39999999999997227, -3.800825756441964 
0.40999999999997117, -3.8000236082995356 
0.41999999999997006, -3.7995879338192373 
0.42999999999996896, -3.7992783467070517 
0.43999999999996786, -3.7988101605176006 
0.44999999999996676, -3.798165712373426 
0.45999999999996566, -3.7973933193357174 
0.46999999999996456, -3.7966526524789677 
0.47999999999996346, -3.7961223199015834 
0.48999999999996235, -3.7956569521118384 
0.49999999999996125, -3.7951001992749616 
0.5099999999999602, -3.7944591445874742 
0.519999999999959, -3.7938165953415 
0.529999999999958, -3.793245104828208 
0.5399999999999568, -3.7927163824912347 
0.5499999999999557, -3.7921379474715367 
0.5599999999999546, -3.7914602489260245 
0.5699999999999535, -3.7907566780173547 
0.5799999999999524, -3.7902254901390378 
0.5899999999999513, -3.789822906154587 
0.5999999999999502, -3.7893469973360006 
0.6099999999999491, -3.788714153913003 
0.619999999999948, -3.7879001742663148 
0.6299999999999469, -3.7870442280968057 
0.6399999999999458, -3.786522930649151 
0.6499999999999447, -3.7862094971262343 
0.6599999999999436, -3.7857699177806565 
0.6699999999999425, -3.7851627126210894 
0.6799999999999414, -3.784437939494782 
0.6899999999999403, -3.783717408792403 
0.6999999999999392, -3.7831538205343755 
0.7099999999999381, -3.782666070012609 
0.719999999999937, -3.7821080432793956 
0.7299999999999359, -3.781470783550495 
0.7399999999999348, -3.7808376998281057 
0.7499999999999337, -3.7802831783422044 
0.7599999999999326, -3.7797673367490616 
0.7699999999999315, -3.779197421241181 
0.7799999999999304, -3.7785148797397303 
0.7899999999999293, -3.777767504291816 
0.7999999999999282, -3.7771954590318435 
0.8099999999999271, -3.776830805059088 
0.819999999999926, -3.7764130722838813 
0.8299999999999249, -3.775830898280635 
0.8399999999999238, -3.7750640379757323 
0.8499999999999227, -3.774189462595481 
0.8599999999999216, -3.7735457885910355 
0.8699999999999205, -3.7731876094360537 
0.8799999999999194, -3.77277225298612 
0.8899999999999183, -3.7722032708188658 
0.8999999999999172, -3.771523861852979 
0.9099999999999161, -3.7708288089826683 
0.919999999999915, -3.770241184891429 
0.9299999999999139, -3.7697336939397013 
0.9399999999999128, -3.769177158014503 
0.9499999999999117, -3.768540285332972 
0.9599999999999106, -3.767901909548061 
0.9699999999999095, -3.7673594332856886 
0.9799999999999084, -3.7668684331622466 
0.9899999999999073, -3.7663232642673847 
0.9999999999999062, -3.7656548930218845 
1.0099999999999052, -3.7648679929237985 
1.019999999999904, -3.7641938652978544 
1.029999999999903, -3.7638261563793676 
1.039999999999902, -3.763481258527585 
1.0499999999999008, -3.7629710758493244 
1.0599999999998997, -3.7622786454768438 
1.0699999999998986, -3.7614427306622167 
1.0799999999998975, -3.7606950113572966 
1.0899999999998964, -3.760241371360025 
1.0999999999998953, -3.7598323803735205 
1.1099999999998942, -3.7592982089249873 
1.119999999999893, -3.7586575027024467 
1.129999999999892, -3.757989063107048 
1.1399999999998909, -3.757390758521454 
1.1499999999998898, -3.7568683050300287 
1.1599999999998887, -3.756317335731809 
1.1699999999998876, -3.7556818156969562 
1.1799999999998865, -3.7550196272589806 
1.1899999999998854, -3.7544693382467678 
1.1999999999998843, -3.7540137090524865 
1.2099999999998832, -3.7535147214349633 
1.219999999999882, -3.752888483190077 
1.229999999999881, -3.7521028658278412 
1.2399999999998799, -3.751296995511285 
1.2499999999998788, -3.750819398634314 
1.2599999999998777, -3.7505284940648416 
1.2699999999998766, -3.7501051463815727 
1.2799999999998755, -3.7495001623817372 
1.2899999999998744, -3.7487444653138176 
1.2999999999998733, -3.747964567074561 
1.3099999999998722, -3.7473923710502577 
1.319999999999871, -3.746957254263433 
1.32999999999987, -3.746450245819999 
1.3399999999998689, -3.745840687656134 
1.3499999999998678, -3.7451926294679083 
1.3599999999998666, -3.7445945600009445 
1.3699999999998655, -3.7440659851583087 
1.3799999999998644, -3.743527317839502 
1.3899999999998633, -3.7429032028882707 
1.3999999999998622, -3.742208028224355 
1.4099999999998611, -3.741602744891724 
1.41999999999986, -3.741172452777024 
1.429999999999859, -3.740744411314521 
1.4399999999998578, -3.740191231777311 
1.4499999999998567, -3.7394668040291443 
1.4599999999998556, -3.7386018409248174 
1.4699999999998545, -3.7379059071154783 
1.4799999999998534, -3.7375647125973517 
1.4899999999998523, -3.737220923000259 
1.4999999999998512, -3.7367056487067316 
1.5099999999998501, -3.736040166970671 
1.519999999999849, -3.7352973434940693 
1.529999999999848, -3.7346416609749324 
1.5399999999998468, -3.7341468048027315 
1.5499999999998457, -3.7336532343445485 
1.5599999999998446, -3.73306997223632 
1.5699999999998435, -3.732431265324135 
1.5799999999998424, -3.731831357732679 
1.5899999999998413, -3.731307348385387 
1.5999999999998402, -3.7307916471191795 
1.6099999999998391, -3.730198182217925 
1.619999999999838, -3.7294922613742494 
1.629999999999837, -3.7287808600750543 
1.6399999999998358, -3.728299078473035 
1.6499999999998347, -3.7279506178766786 
1.6599999999998336, -3.7275018024185185 
1.6699999999998325, -3.726882638733206 
1.6799999999998314, -3.726083492463558 
1.6899999999998303, -3.7252345196086756 
1.6999999999998292, -3.724681947946634 
1.709999999999828, -3.7243445754140483 
1.719999999999827, -3.723909425689804 
1.729999999999826, -3.7233264140432376 
1.7399999999998248, -3.72264704241868 
1.7499999999998237, -3.721972711909303 
1.7599999999998226, -3.7214123896660865 
1.7699999999998215, -3.720912871081125 
1.7799999999998204, -3.720354689474893 
1.7899999999998193, -3.719720414495748 
1.7999999999998182, -3.719096938864813 
1.809999999999817, -3.7185742371688866 
1.819999999999816, -3.718095824461934 
1.8299999999998149, -3.717556841411048 
1.8399999999998138, -3.716891740627175 
1.8499999999998127, -3.7161065609268205 
1.8599999999998116, -3.715433580703811 
1.8699999999998105, -3.7150748054245355 
1.8799999999998094, -3.714748777162203 
1.8899999999998083, -3.7142597153535055 
1.8999999999998072, -3.7135913899397464 
1.909999999999806, -3.7127786615063605 
1.919999999999805, -3.7120232612997364 
1.9299999999998039, -3.711547449789606 
1.9399999999998028, -3.71114646166633 
1.9499999999998017, -3.7106334514531154 
1.9599999999998006, -3.7100136934685866 
1.9699999999997995, -3.709359308405773 
1.9799999999997984, -3.7087630446020037 
1.9899999999997973, -3.708243857604316 
1.9999999999997962, -3.707709920305036 
2.0099999999998173, -3.7070928896331723 
2.0199999999998384, -3.706426609915917 
2.0299999999998595, -3.705856151051396 
2.0399999999998806, -3.705414444684204 
2.0499999999999017, -3.704956449999851 
2.059999999999923, -3.7043810630920335 
2.069999999999944, -3.703643224512856 
2.079999999999965, -3.7028015455417487 
2.089999999999986, -3.7021922407980368 
2.100000000000007, -3.7018945288246634 
2.1100000000000283, -3.7015447323177617 
2.1200000000000494, -3.7010165119480107 
2.1300000000000705, -3.7003312814487153 
2.1400000000000916, -3.6995640220154313 
2.1500000000001127, -3.698910271291237 
2.160000000000134, -3.698444383431731 
2.170000000000155, -3.6979747069279467 
2.180000000000176, -3.6974069974490873 
2.190000000000197, -3.6967754311167935 
2.2000000000002182, -3.696167830700502 
2.2100000000002393, -3.695633936887873 
2.2200000000002604, -3.6951229444860596 
2.2300000000002815, -3.6945475386258977 
2.2400000000003026, -3.6938710362193468 
2.2500000000003237, -3.6931837326489556 
2.260000000000345, -3.6926884317088833 
2.270000000000366, -3.6923203694078524 
2.280000000000387, -3.6918727482449527 
2.290000000000408, -3.691267297539524 
2.3000000000004293, -3.6904826783184603 
2.3100000000004504, -3.689628973495212 
2.3200000000004715, -3.6890636265466172 
2.3300000000004926, -3.6887522518001896 
2.3400000000005137, -3.6883542221462426 
2.3500000000005348, -3.687796551177108 
2.360000000000556, -3.68712204929878 
2.370000000000577, -3.686424352879623 
2.380000000000598, -3.6858411025432405 
2.390000000000619, -3.68535724016483 
2.4000000000006403, -3.684833350762978 
2.4100000000006614, -3.6842263398297277 
2.4200000000006825, -3.6835979124716416 
2.4300000000007036, -3.6830465097690728 
2.4400000000007247, -3.6825614485186504 
2.450000000000746, -3.6820483541694826 
2.460000000000767, -3.6814312990177194 
2.470000000000788, -3.6806898554564613 
2.480000000000809, -3.679977080262283 
2.49000000000083, -3.6795508120445346 
2.5000000000008513, -3.6792423386791264 
2.5100000000008724, -3.678805426500773 
2.5200000000008935, -3.6781913370759844 
2.5300000000009146, -3.6774090173594565 
2.5400000000009357, -3.676593281211818 
2.550000000000957, -3.676040870552362 
2.560000000000978, -3.6756723544602385 
2.570000000000999, -3.6752214112734207 
2.58000000000102, -3.674643757377423 
2.5900000000010412, -3.6739925419386807 
2.6000000000010624, -3.673360234455347 
2.6100000000010835, -3.6728189445041033 
2.6200000000011046, -3.6723143328480816 
2.6300000000011257, -3.6717484114092658 
2.6400000000011468, -3.671105192108859 
2.650000000001168, -3.6704828078464518 
2.660000000001189, -3.669993223199725 
2.67000000000121, -3.6695572614447594 
2.680000000001231, -3.6690481364397582 
2.6900000000012523, -3.6683997920771225 
2.7000000000012734, -3.6675988678809865 
2.7100000000012945, -3.666840684830246 
2.7200000000013156, -3.6664352355816527 
2.7300000000013367, -3.6661556735348975 
2.740000000001358, -3.665728095168503 
2.750000000001379, -3.665126426688115 
2.7600000000014, -3.6643874493709925 
2.770000000001421, -3.663639480645626 
2.780000000001442, -3.6630876292179737 
2.7900000000014633, -3.662657706473741 
2.8000000000014844, -3.66216113763224 
2.8100000000015055, -3.6615681422262476 
2.8200000000015266, -3.6609398747825352 
2.8300000000015477, -3.6603618146009334 
2.840000000001569, -3.659850776600913 
2.85000000000159, -3.6593329328774864 
2.860000000001611, -3.658731951149479 
2.870000000001632, -3.6580432483641303 
2.8800000000016532, -3.657410569376425 
2.8900000000016743, -3.6569831600419618 
2.9000000000016954, -3.656609122557744 
2.9100000000017165, -3.656123288792505 
2.9200000000017377, -3.6554727212455567 
2.9300000000017588, -3.654651863065766 
2.94000000000178, -3.6538470985876765 
2.950000000001801, -3.6533898209602627 
2.960000000001822, -3.653088647875537 
2.970000000001843, -3.6526589535485834 
2.9800000000018643, -3.6520761176512346 
2.9900000000018854, -3.651391625644558 
3.0000000000019065, -3.6507129405796044 
3.0100000000019276, -3.650164951140842 
3.0200000000019487, -3.649690037707866 
3.03000000000197, -3.649158078707855 
3.040000000001991, -3.6485474790057153 
3.050000000002012, -3.6479325400521865 
3.060000000002033, -3.6474022822778034 
3.070000000002054, -3.646926661363023 
3.0800000000020753, -3.6464106655444626 
3.0900000000020964, -3.6457846861425494 
3.1000000000021175, -3.6450389402956453 
3.1100000000021386, -3.6443499397537833 
3.1200000000021597, -3.6439544507885673 
3.130000000002181, -3.6436511834065577 
3.140000000002202, -3.643211434103365 
3.150000000002223, -3.6425957416984707 
3.160000000002244, -3.6418167403167403 
3.1700000000022652, -3.64101460775984 
3.1800000000022863, -3.64047397549093 
3.1900000000023074, -3.640107222056149 
3.2000000000023285, -3.639659270914103 
3.2100000000023496, -3.6390882454149116 
3.2200000000023707, -3.638446553176822 
3.230000000002392, -3.6378240553913934 
3.240000000002413, -3.637288848878118 
3.250000000002434, -3.636790063031513 
3.260000000002455, -3.636232077885137 
3.2700000000024763, -3.635594407778883 
3.2800000000024974, -3.63496975079122 
3.2900000000025185, -3.6344820608407344 
3.3000000000025396, -3.634061876386555 
3.3100000000025607, -3.633574493152672 
3.3200000000025818, -3.6329504847658973 
3.330000000002603, -3.6321666501395775 
3.340000000002624, -3.6313749912999738 
3.350000000002645, -3.6309166061488463 
3.360000000002666, -3.6306504592676028 
3.3700000000026873, -3.630261643251682 
3.3800000000027084, -3.629699231024733 
3.3900000000027295, -3.6289961682412057 
3.4000000000027506, -3.628251423992876 
3.4100000000027717, -3.6276605446173265 
3.420000000002793, -3.62722099761149 
3.430000000002814, -3.6267454707583973 
3.440000000002835, -3.626174487476507 
3.450000000002856, -3.6255544797901877 
3.460000000002877, -3.6249729286386208 
3.4700000000028983, -3.6244630654287704 
3.4800000000029194, -3.623963620468989 
3.4900000000029405, -3.6233923388573386 
3.5000000000029616, -3.6227182835485996 
3.5100000000029827, -3.6220380443809552 
3.520000000003004, -3.6215606632727537 
3.530000000003025, -3.621218819625047 
3.540000000003046, -3.6207981390591635 
3.550000000003067, -3.620220208255158 
3.5600000000030882, -3.6194656895700303 
3.5700000000031094, -3.618618105651275 
3.5800000000031305, -3.618005851289393 
3.5900000000031516, -3.6176810449518895 
3.6000000000031727, -3.6173133176518277 
3.6100000000031938, -3.616794571688336 
3.620000000003215, -3.616158618849662 
3.630000000003236, -3.615483505332411 
3.640000000003257, -3.614889514928798 
3.650000000003278, -3.614401748812979 
3.6600000000032993, -3.613901159663674 
3.6700000000033204, -3.6133201442055203 
3.6800000000033415, -3.6126948839506126 
3.6900000000033626, -3.612133906913705 
3.7000000000033837, -3.611665930112031 
3.710000000003405, -3.611197017707437 
3.720000000003426, -3.610638761910022 
3.730000000003447, -3.60994420799821 
3.740000000003468, -3.6091666682969574 
3.750000000003489, -3.6085918968452844 
3.7600000000035103, -3.6082982247644586 
3.7700000000035314, -3.6079719277125273 
3.7800000000035525, -3.6074759076466036 
3.7900000000035736, -3.6068098161413396 
3.8000000000035947, -3.606020614225158 
3.810000000003616, -3.605309904220145 
3.820000000003637, -3.6048540140800904 
3.830000000003658, -3.604457544870166 
3.840000000003679, -3.603958245461096 
3.8500000000037002, -3.6033613113322263 
3.8600000000037213, -3.6027356160726662 
3.8700000000037424, -3.602164733305151 
3.8800000000037635, -3.6016637393950135 
3.8900000000037847, -3.6011524892858695 
3.9000000000038058, -3.600560158368919 
3.910000000003827, -3.5998991391262116 
3.920000000003848, -3.5993100002307434 
3.930000000003869, -3.5988883738071764 
3.94000000000389, -3.5984932091682453 
3.9500000000039113, -3.597993268862035 
3.9600000000039324, -3.5973365991405535 
3.9700000000039535, -3.5965201606873576 
3.9800000000039746, -3.59575192211965 
3.9900000000039957, -3.5953426707518523 
4.000000000004016, -3.5950670851458932 
4.010000000003993, -3.594653163127508 
4.02000000000397, -3.594079701234199 
4.030000000003946, -3.593392684019939 
4.040000000003923, -3.5926991109681916 
4.0500000000039, -3.592147663394447 
4.0600000000038765, -3.591695490590344 
4.070000000003853, -3.591194769447255 
4.08000000000383, -3.5906098281792254 
4.090000000003807, -3.5899993071937013 
4.100000000003783, -3.5894535370702494 
4.11000000000376, -3.588974670774898 
4.120000000003737, -3.5884813288947774 
4.130000000003713, -3.5878975730851863 
4.14000000000369, -3.587196423288378 
4.150000000003667, -3.586492211907308 
4.1600000000036434, -3.586035509517636 
4.17000000000362, -3.585738739187227 
4.180000000003597, -3.5853491868070018 
4.1900000000035735, -3.5847924961371307 
4.20000000000355, -3.5840638679392796 
4.210000000003527, -3.583239127293061 
4.220000000003504, -3.582599941583825 
4.23000000000348, -3.5822305950895883 
4.240000000003457, -3.581849005883285 
4.250000000003434, -3.581337894008982 
4.26000000000341, -3.580725774617785 
4.270000000003387, -3.5800872187911863 
4.280000000003364, -3.5795155036962205 
4.2900000000033405, -3.579024020666888 
4.300000000003317, -3.578517321262287 
4.310000000003294, -3.577930831519443 
4.320000000003271, -3.5772944481855133 
4.330000000003247, -3.576736407409682 
4.340000000003224, -3.5763036578822494 
4.350000000003201, -3.575874707560751 
4.360000000003177, -3.5753469156625903 
4.370000000003154, -3.574669953325766 
4.380000000003131, -3.573859952385084 
4.390000000003107, -3.5731739044086246 
4.400000000003084, -3.572840479748416 
4.410000000003061, -3.572564854307205 
4.4200000000030375, -3.5721308109563465 
4.430000000003014, -3.571532691425456 
4.440000000002991, -3.570813328999928 
4.450000000002968, -3.5701016072019085 
4.460000000002944, -3.5695728219611915 
4.470000000002921, -3.5691488272866345 
4.480000000002898, -3.5686626451272248 
4.490000000002874, -3.568086254552214 
4.500000000002851, -3.5674780550219025 
4.510000000002828, -3.5669219618054804 
4.520000000002804, -3.566432141566324 
4.530000000002781, -3.5659382618987827 
4.540000000002758, -3.565364211198182 
4.5500000000027345, -3.5646881310547975 
4.560000000002711, -3.5640220776887377 
4.570000000002688, -3.563572748091635 
4.580000000002665, -3.5632504302331443 
4.590000000002641, -3.5628422276777956 
4.600000000002618, -3.562276089514229 
4.610000000002595, -3.5615363892294196 
4.620000000002571, -3.560700607669017 
4.630000000002548, -3.56007701010489 
4.640000000002525, -3.559743996863393 
4.6500000000025015, -3.5593897347502477 
4.660000000002478, -3.558892596732785 
4.670000000002455, -3.5582806581360096 
4.6800000000024315, -3.5576253395531645 
4.690000000002408, -3.557034437006332 
4.700000000002385, -3.556545932598805 
4.710000000002362, -3.556058934084588 
4.720000000002338, -3.555496250906516 
4.730000000002315, -3.554876731787984 
4.740000000002292, -3.5543075485515407 
4.750000000002268, -3.553848627259282 
4.760000000002245, -3.553411309922674 
4.770000000002222, -3.552896052118558 
4.7800000000021985, -3.5522468433970062 
4.790000000002175, -3.5514681094054303 
4.800000000002152, -3.550779841213253 
4.810000000002129, -3.55042815494802 
4.820000000002105, -3.550164244593968 
4.830000000002082, -3.549752975833195 
4.840000000002059, -3.5491715530195846 
4.850000000002035, -3.5484493698989206 
4.860000000002012, -3.547701989869549 
4.870000000001989, -3.5471442613686683 
4.880000000001965, -3.5467414334133673 
4.890000000001942, -3.546291378683395 
4.900000000001919, -3.5457404160579693 
4.9100000000018955, -3.5451332742712474 
4.920000000001872, -3.544552807398927 
4.930000000001849, -3.5440445819119453 
4.940000000001826, -3.543561755155813 
4.950000000001802, -3.543021054296694 
4.960000000001779, -3.542384224681643 
4.970000000001756, -3.541718394888318 
