t, s[1].omega / s[0].omega 
0, -1.8099969681832904 
0.009999999999999995, -1.8096606746457116 
0.019999999999999934, -1.8092623653674067 
0.029999999999999874, -1.8088144201485439 
0.04000000000000012, -1.8083418946844738 
0.050000000000000405, -1.807883026290206 
0.06000000000000069, -1.8074786190388359 
0.07000000000000098, -1.80715050663479 
0.08000000000000126, -1.8068871318083872 
0.09000000000000155, -1.8066534103852738 
0.10000000000000184, -1.8064134323128074 
0.11000000000000212, -1.8061434757647 
0.12000000000000241, -1.805831819255912 
0.130000000000002, -1.8054752500050806 
0.1400000000000009, -1.805080035304405 
0.1499999999999998, -1.8046687393482088 
0.1599999999999987, -1.8042856786495274 
0.1699999999999976, -1.803984723195392 
0.1799999999999965, -1.8037943950943718 
0.1899999999999954, -1.8036922007420384 
0.1999999999999943, -1.8036207163140499 
0.2099999999999932, -1.8035247191822712 
0.2199999999999921, -1.8033716471176011 
0.229999999999991, -1.803150379436501 
0.2399999999999899, -1.8028627236167298 
0.2499999999999888, -1.8025174833563635 
0.2599999999999877, -1.802129131187972 
0.2699999999999866, -1.8017190745000964 
0.2799999999999855, -1.801315389739163 
0.2899999999999844, -1.8009465609749493 
0.2999999999999833, -1.800629251617897 
0.3099999999999822, -1.800358733169963 
0.3199999999999811, -1.8001119941256711 
0.32999999999998, -1.7998607708819279 
0.3399999999999789, -1.799581968483063 
0.3499999999999778, -1.7992598907221633 
0.35999999999997667, -1.7988848475413057 
0.36999999999997557, -1.7984547989410486 
0.37999999999997447, -1.7979838638021541 
0.38999999999997337, -1.797514417239078 
0.39999999999997227, -1.7971153655397445 
0.40999999999997117, -1.796846150246503 
0.41999999999997006, -1.7967076934772777 
0.42999999999996896, -1.79663971323127 
0.43999999999996786, -1.7965683959013163 
0.44999999999996676, -1.7964461095569821 
0.45999999999996566, -1.7962562346358997 
0.46999999999996456, -1.7960009722699595 
0.47999999999996346, -1.7956908746501106 
0.48999999999996235, -1.7953410132807015 
0.49999999999996125, -1.7949713353498606 
0.5099999999999602, -1.7946064373874901 
0.519999999999959, -1.7942703929038726 
0.529999999999958, -1.7939770619017135 
0.5399999999999568, -1.7937228837629493 
0.5499999999999557, -1.793488836505416 
0.5599999999999546, -1.7932496861631715 
0.5699999999999535, -1.792982451032638 
0.5799999999999524, -1.7926692991548667 
0.5899999999999513, -1.7922969127123447 
0.5999999999999502, -1.7918572758987874 
0.6099999999999491, -1.7913540522651128 
0.619999999999948, -1.7908149453964861 
0.6299999999999469, -1.7903000526250659 
0.6399999999999458, -1.789884030025214 
0.6499999999999447, -1.7896070278083223 
0.6599999999999436, -1.789441490594816 
0.6699999999999425, -1.789318186412714 
0.6799999999999414, -1.7891763002352068 
0.6899999999999403, -1.7889853372929259 
0.6999999999999392, -1.7887387178157332 
0.7099999999999381, -1.788441916792658 
0.719999999999937, -1.788106608978127 
0.7299999999999359, -1.78775070670769 
0.7399999999999348, -1.7873993189214303 
0.7499999999999337, -1.7870801199478694 
0.7599999999999326, -1.7868112435403127 
0.7699999999999315, -1.786590488763665 
0.7799999999999304, -1.7863965836368696 
0.7899999999999293, -1.7862005205441236 
0.7999999999999282, -1.7859762294846728 
0.8099999999999271, -1.7857046933718277 
0.819999999999926, -1.785373329961662 
0.8299999999999249, -1.7849751245284913 
0.8399999999999238, -1.7845109409993565 
0.8499999999999227, -1.7839961144245688 
0.8599999999999216, -1.783467882289005 
0.8699999999999205, -1.782982658295309 
0.8799999999999194, -1.7825916082610518 
0.8899999999999183, -1.7823065172748518 
0.8999999999999172, -1.7820927150757744 
0.9099999999999161, -1.7818980914777374 
0.919999999999915, -1.7816832147640949 
0.9299999999999139, -1.7814290266060406 
0.9399999999999128, -1.7811307147121629 
0.9499999999999117, -1.7807919762634115 
0.9599999999999106, -1.7804250303192937 
0.9699999999999095, -1.7800544320987401 
0.9799999999999084, -1.7797168347400596 
0.9899999999999073, -1.7794472670293313 
0.9999999999999062, -1.7792563691267596 
1.0099999999999052, -1.7791211633744903 
1.019999999999904, -1.778999981331054 
1.029999999999903, -1.7788541603872514 
1.039999999999902, -1.778658712002414 
1.0499999999999008, -1.778401794908509 
1.0599999999998997, -1.778080651517921 
1.0699999999998986, -1.7776992940560294 
1.0799999999998975, -1.7772694484933815 
1.0899999999998964, -1.776813476099647 
1.0999999999998953, -1.7763650354458012 
1.1099999999998942, -1.7759612705654781 
1.119999999999893, -1.775625442270956 
1.129999999999892, -1.7753525926190477 
1.1399999999998909, -1.7751140002152161 
1.1499999999998898, -1.7748757774217423 
1.1599999999998887, -1.7746127416273538 
1.1699999999998876, -1.7743105201886178 
1.1799999999998865, -1.7739626656704952 
1.1899999999998854, -1.7735705330372202 
1.1999999999998843, -1.7731491292411037 
1.2099999999998832, -1.7727355211570461 
1.219999999999882, -1.7723860283127706 
1.229999999999881, -1.772147773074466 
1.2399999999998799, -1.7720212366606265 
1.2499999999998788, -1.7719571157898855 
1.2599999999998777, -1.7718917906705844 
1.2699999999998766, -1.7717800509253059 
1.2799999999998755, -1.771602362327363 
1.2899999999998744, -1.771356972447533 
1.2999999999998733, -1.7710512681077504 
1.3099999999998722, -1.7706977836996298 
1.319999999999871, -1.7703141585703623 
1.32999999999987, -1.7699237979025721 
1.3399999999998689, -1.7695530888396953 
1.3499999999998678, -1.7692230600666021 
1.3599999999998666, -1.7689393674855811 
1.3699999999998655, -1.7686890911576896 
1.3799999999998644, -1.7684479439829706 
1.3899999999998633, -1.7681910696988776 
1.3999999999998622, -1.7678989073912317 
1.4099999999998611, -1.7675573447121313 
1.41999999999986, -1.767157052689118 
1.429999999999859, -1.7666970842581393 
1.4399999999998578, -1.7661951215869407 
1.4499999999998567, -1.7656990899792457 
1.4599999999998556, -1.7652811947918405 
1.4699999999998545, -1.7649978285470826 
1.4799999999998534, -1.7648437318499197 
1.4899999999998523, -1.7647564376217513 
1.4999999999998512, -1.7646650414920289 
1.5099999999998501, -1.764525905723754 
1.519999999999849, -1.7643247447989594 
1.529999999999848, -1.7640643245083614 
1.5399999999998468, -1.7637549082238269 
1.5499999999998457, -1.7634112573831722 
1.5599999999998446, -1.7630533701666393 
1.5699999999998435, -1.7627059512667942 
1.5799999999998424, -1.76239226917453 
1.5899999999998413, -1.7621238379645867 
1.5999999999998402, -1.7618941547147053 
1.6099999999998391, -1.76168230956125 
1.619999999999838, -1.7614626327566492 
1.629999999999837, -1.7612124567957177 
1.6399999999998358, -1.76091456493216 
1.6499999999998347, -1.7605565258842877 
1.6599999999998336, -1.7601309797994908 
1.6699999999998325, -1.759640027293382 
1.6799999999998314, -1.7591042351508217 
1.6899999999998303, -1.7585703572736957 
1.6999999999998292, -1.7581028960175307 
1.709999999999828, -1.7577501353410916 
1.719999999999827, -1.7575093110413078 
1.729999999999826, -1.757331663776973 
1.7399999999998248, -1.757160531495856 
1.7499999999998237, -1.7569591572675232 
1.7599999999998226, -1.7567129406625117 
1.7699999999998215, -1.756420830913235 
1.7799999999998204, -1.7560892978238485 
1.7899999999998193, -1.7557321418811191 
1.7999999999998182, -1.7553731981948595 
1.809999999999817, -1.7550448940132746 
1.819999999999816, -1.7547760580715956 
1.8299999999998149, -1.7545742374332438 
1.8399999999998138, -1.7544196688546634 
1.8499999999998127, -1.7542772691003627 
1.8599999999998116, -1.7541134198919797 
1.8699999999998105, -1.7539047110797266 
1.8799999999998094, -1.753638221566224 
1.8899999999998083, -1.7533088607080896 
1.8999999999998072, -1.7529180690102142 
1.909999999999806, -1.7524754597109495 
1.919999999999805, -1.752002498862592 
1.9299999999998039, -1.7515341095205308 
1.9399999999998028, -1.7511112971922664 
1.9499999999998017, -1.7507623984550722 
1.9599999999998006, -1.7504856793035017 
1.9699999999997995, -1.7502519383495099 
1.9799999999997984, -1.7500244817063995 
1.9899999999997973, -1.7497756062378407 
1.9999999999997962, -1.749489911290161 
2.0099999999998173, -1.7491608972647659 
2.0199999999998384, -1.748789269791399 
2.0299999999998595, -1.7483866561651673 
2.0399999999998806, -1.7479828701485283 
2.0499999999999017, -1.7476266244569867 
2.059999999999923, -1.7473657798508069 
2.069999999999944, -1.7472134127124346 
2.079999999999965, -1.7471348127294604 
2.089999999999986, -1.7470717768299795 
2.100000000000007, -1.746975360471641 
2.1100000000000283, -1.7468193612127738 
2.1200000000000494, -1.7465965708717257 
2.1300000000000705, -1.7463107777077362 
2.1400000000000916, -1.745971769818216 
2.1500000000001127, -1.7455943214967324 
2.160000000000134, -1.7451990929810635 
2.170000000000155, -1.7448118451147696 
2.180000000000176, -1.7444576103335199 
2.190000000000197, -1.7441505382311422 
2.2000000000002182, -1.7438864080544332 
2.2100000000002393, -1.7436451059903888 
2.2200000000002604, -1.743401001291194 
2.2300000000002815, -1.7431318670347316 
2.2400000000003026, -1.7428213985348755 
2.2500000000003237, -1.7424581449180412 
2.260000000000345, -1.7420361226150398 
2.270000000000366, -1.7415609827416723 
2.280000000000387, -1.7410615565501746 
2.290000000000408, -1.7405965149026237 
2.3000000000004293, -1.7402355759224615 
2.3100000000004504, -1.740013071227197 
2.3200000000004715, -1.7398985904657305 
2.3300000000004926, -1.7398223787828315 
2.3400000000005137, -1.7397227566599671 
2.3500000000005348, -1.7395680145964447 
2.360000000000556, -1.7393511554013237 
2.370000000000577, -1.7390779578246267 
2.380000000000598, -1.7387598587985948 
2.390000000000619, -1.738412562213282 
2.4000000000006403, -1.738056974227185 
2.4100000000006614, -1.7377176745441711 
2.4200000000006825, -1.7374157239701102 
2.4300000000007036, -1.7371588815904921 
2.4400000000007247, -1.7369374065381287 
2.450000000000746, -1.7367292096759914 
2.460000000000767, -1.736509280017081 
2.470000000000788, -1.736256281118742 
2.480000000000809, -1.7359541845155557 
2.49000000000083, -1.7355915414484127 
2.5000000000008513, -1.735162114382965 
2.5100000000008724, -1.7346694823641617 
2.5200000000008935, -1.7341355661863944 
2.5300000000009146, -1.7336069279084474 
2.5400000000009357, -1.733145198145569 
2.550000000000957, -1.7327947781020199 
2.560000000000978, -1.7325517723246044 
2.570000000000999, -1.732369829069834 
2.58000000000102, -1.7321952449453903 
2.5900000000010412, -1.7319925635600932 
2.6000000000010624, -1.731746998224897 
2.6100000000010835, -1.7314566740885233 
2.6200000000011046, -1.731127004033306 
2.6300000000011257, -1.7307705467207104 
2.6400000000011468, -1.7304099926742496 
2.650000000001168, -1.7300777879328983 
2.660000000001189, -1.7298051748950498 
2.67000000000121, -1.7296037968293043 
2.680000000001231, -1.7294567546066926 
2.6900000000012523, -1.7293287751662305 
2.7000000000012734, -1.729184055632415 
2.7100000000012945, -1.7289970210402803 
2.7200000000013156, -1.728753645055218 
2.7300000000013367, -1.7284486516064586 
2.740000000001358, -1.728083347259129 
2.750000000001379, -1.7276660170975002 
2.7600000000014, -1.7272144771168556 
2.770000000001421, -1.7267579282509007 
2.780000000001442, -1.7263328327323104 
2.7900000000014633, -1.7259692494358032 
2.8000000000014844, -1.7256743020264402 
2.8100000000015055, -1.7254283810547382 
2.8200000000015266, -1.7251987581417378 
2.8300000000015477, -1.7249562411908284 
2.840000000001569, -1.7246819563770142 
2.85000000000159, -1.7243657999954407 
2.860000000001611, -1.724004092165052 
2.870000000001632, -1.7236015141223178 
2.8800000000016532, -1.7231782423249768 
2.8900000000016743, -1.7227765321981514 
2.9000000000016954, -1.7224523305768602 
2.9100000000017165, -1.7222436069894005 
2.9200000000017377, -1.7221394602119802 
2.9300000000017588, -1.7220863409528744 
2.94000000000178, -1.7220238847798686 
2.950000000001801, -1.7219120442107727 
2.960000000001822, -1.7217348797610998 
2.970000000001843, -1.7214924102925362 
2.9800000000018643, -1.7211927185537177 
2.9900000000018854, -1.720848424313867 
3.0000000000019065, -1.720476625215661 
3.0100000000019276, -1.7200993415557086 
3.0200000000019487, -1.7197408790533282 
3.03000000000197, -1.7194204963078683 
3.040000000001991, -1.7191438178798382 
3.050000000002012, -1.7188998904464619 
3.060000000002033, -1.7186668450415037 
3.070000000002054, -1.718421095692912 
3.0800000000020753, -1.7181430565188762 
3.0900000000020964, -1.7178178737919976 
3.1000000000021175, -1.7174346158205396 
3.1100000000021386, -1.7169881697310838 
3.1200000000021597, -1.7164866172475797 
3.130000000002181, -1.7159625600002897 
3.140000000002202, -1.7154769632357834 
3.150000000002223, -1.7150970724668653 
3.160000000002244, -1.7148518472625267 
3.1700000000022652, -1.7147090615707181 
3.1800000000022863, -1.714602785754392 
3.1900000000023074, -1.7144766376590816 
3.2000000000023285, -1.7143019229209577 
3.2100000000023496, -1.7140720001478926 
3.2200000000023707, -1.713791602727418 
3.230000000002392, -1.713470965524649 
3.240000000002413, -1.713125289433552 
3.250000000002434, -1.7127761199046638 
3.260000000002455, -1.7124494925084988 
3.2700000000024763, -1.7121673459437765 
3.2800000000024974, -1.711936247005795 
3.2900000000025185, -1.711743373321249 
3.3000000000025396, -1.7115634179518353 
3.3100000000025607, -1.7113694409011129 
3.3200000000025818, -1.7111397746613448 
3.330000000002603, -1.7108594721192865 
3.340000000002624, -1.7105192847207065 
3.350000000002645, -1.7101155437587536 
3.360000000002666, -1.7096528827534705 
3.3700000000026873, -1.7091496325740512 
3.3800000000027084, -1.7086420347020295 
3.3900000000027295, -1.7081788592315157 
3.4000000000027506, -1.7078005301399546 
3.4100000000027717, -1.7075144620259077 
3.420000000002793, -1.7072916873684623 
3.430000000002814, -1.7070888205727854 
3.440000000002835, -1.7068710640695546 
3.450000000002856, -1.7066193537894763 
3.460000000002877, -1.7063265075000729 
3.4700000000028983, -1.705992728681095 
3.4800000000029194, -1.7056255520537646 
3.4900000000029405, -1.7052441541313108 
3.5000000000029616, -1.7048828989224465 
3.5100000000029827, -1.7045840845764482 
3.520000000003004, -1.7043755545007955 
3.530000000003025, -1.704249756791684 
3.540000000003046, -1.704167278359942 
3.550000000003067, -1.7040805997567916 
3.5600000000030882, -1.7039541627565562 
3.5700000000031094, -1.703769669190685 
3.5800000000031305, -1.7035221686891293 
3.5900000000031516, -1.703214930924268 
3.6000000000031727, -1.7028568325607059 
3.6100000000031938, -1.7024624813564233 
3.620000000003215, -1.7020532538337463 
3.630000000003236, -1.7016559834687228 
3.640000000003257, -1.701296293024773 
3.650000000003278, -1.700987828921678 
3.6600000000032993, -1.7007250259870692 
3.6700000000033204, -1.7004865826442956 
3.6800000000033415, -1.700246535267521 
3.6900000000033626, -1.6999831077717655 
3.7000000000033837, -1.6996808806471004 
3.710000000003405, -1.6993294198591908 
3.720000000003426, -1.6989233922451235 
3.730000000003447, -1.6984676249620794 
3.740000000003468, -1.697987145347992 
3.750000000003489, -1.6975340829904741 
3.7600000000035103, -1.6971739419178615 
3.7700000000035314, -1.6969457574906925 
3.7800000000035525, -1.6968302747842947 
3.7900000000035736, -1.6967647912421473 
3.8000000000035947, -1.6966861531609598 
3.810000000003616, -1.696557137827957 
3.820000000003637, -1.696366082586863 
3.830000000003658, -1.696116151922239 
3.840000000003679, -1.6958171256207724 
3.8500000000037002, -1.6954825973247007 
3.8600000000037213, -1.6951305320332501 
3.8700000000037424, -1.6947833783096553 
3.8800000000037635, -1.6944639434530928 
3.8900000000037847, -1.6941868652279748 
3.9000000000038058, -1.6939513958356016 
3.910000000003827, -1.693741795045152 
3.920000000003848, -1.6935347114901844 
3.930000000003869, -1.6933072581198876 
3.94000000000389, -1.6930410635530855 
3.9500000000039113, -1.6927225211412202 
3.9600000000039324, -1.6923422659516265 
3.9700000000039535, -1.6918968559133227 
3.9800000000039746, -1.6913942283404204 
3.9900000000039957, -1.6908614889668088 
4.000000000004016, -1.6903476555892296 
4.010000000003993, -1.6899095692693282 
4.02000000000397, -1.6895806423649193 
4.030000000003946, -1.6893485086034257 
4.040000000003923, -1.6891670119279492 
4.0500000000039, -1.6889878921150128 
4.0600000000038765, -1.688780401061234 
4.070000000003853, -1.6885317069230368 
4.08000000000383, -1.68823998852696 
4.090000000003807, -1.687909923804114 
4.100000000003783, -1.6875531047437018 
4.11000000000376, -1.6871913727323762 
4.120000000003737, -1.686857211857926 
4.130000000003713, -1.686583879959641 
4.14000000000369, -1.6863867682519764 
4.150000000003667, -1.686251939613595 
4.1600000000036434, -1.686144097040002 
4.17000000000362, -1.6860250579240461 
4.180000000003597, -1.6858666705204441 
4.1900000000035735, -1.6856535310439333 
4.20000000000355, -1.6853802245947587 
4.210000000003527, -1.685048273759956 
4.220000000003504, -1.6846651636812293 
4.23000000000348, -1.684245483007416 
4.240000000003457, -1.683812380543717 
4.250000000003434, -1.6833958102218294 
4.26000000000341, -1.6830242388023842 
4.270000000003387, -1.6827117943801468 
4.280000000003364, -1.682450555854065 
4.2900000000033405, -1.6822159598128874 
4.300000000003317, -1.6819800713841413 
4.310000000003294, -1.6817209885593705 
4.320000000003271, -1.6814244252855552 
4.330000000003247, -1.6810817384157026 
4.340000000003224, -1.6806897075206977 
4.350000000003201, -1.6802551426951642 
4.360000000003177, -1.6798038054708866 
4.370000000003154, -1.6793855678836505 
4.380000000003131, -1.6790601870420179 
4.390000000003107, -1.6788606892493045 
4.400000000003084, -1.6787661226198558 
4.410000000003061, -1.6787163354609143 
4.4200000000030375, -1.678651018597052 
4.430000000003014, -1.678533889540804 
4.440000000002991, -1.6783529462119464 
4.450000000002968, -1.6781108393546695 
4.460000000002944, -1.6778169997583192 
4.470000000002921, -1.6774845619126135 
4.480000000002898, -1.6771305731181443 
4.490000000002874, -1.676776299078989 
4.500000000002851, -1.676444199137562 
4.510000000002828, -1.676150675647954 
4.520000000002804, -1.675898697306979 
4.530000000002781, -1.6756763242944566 
4.540000000002758, -1.6754623601069312 
4.5500000000027345, -1.6752342542612744 
4.560000000002711, -1.6749729732534224 
4.570000000002688, -1.674663868505655 
4.580000000002665, -1.6742960837711238 
4.590000000002641, -1.6738636463297016 
4.600000000002618, -1.6733703442865302 
4.610000000002595, -1.6728379888880043 
4.620000000002571, -1.6723120433867362 
4.630000000002548, -1.6718522669289517 
4.640000000002525, -1.6715027129401157 
4.6500000000025015, -1.6712623539251303 
4.660000000002478, -1.671088374063587 
4.670000000002455, -1.6709277883747244 
4.6800000000024315, -1.6707432639353414 
4.690000000002408, -1.6705177429403872 
4.700000000002385, -1.6702476842474774 
4.710000000002362, -1.6699367667234117 
4.720000000002338, -1.66959431184785 
4.730000000002315, -1.6692375472339225 
4.740000000002292, -1.6688935686093025 
4.750000000002268, -1.6685944606462662 
4.760000000002245, -1.6683628613498005 
4.770000000002222, -1.6681974770208252 
4.7800000000021985, -1.668072846809866 
4.790000000002175, -1.6679532779314723 
4.800000000002152, -1.6678075052581687 
4.810000000002129, -1.6676151235372725 
4.820000000002105, -1.6673660450874621 
4.830000000002082, -1.6670578005187924 
4.840000000002059, -1.6666939438968202 
4.850000000002035, -1.6662845608799792 
4.860000000002012, -1.6658480901556227 
4.870000000001989, -1.6654118442906536 
4.880000000001965, -1.6650073327585115 
4.890000000001942, -1.6646587808947166 
4.900000000001919, -1.664370826963212 
4.9100000000018955, -1.6641264009333199 
4.920000000001872, -1.6638973445703222 
4.930000000001849, -1.663657429696021 
4.940000000001826, -1.6633882466579226 
