t, s[1].omega / s[0].omega 
0, -3.474994680749603 
0.009999999999999995, -3.4743437849205394 
0.019999999999999934, -3.4734664643253055 
0.029999999999999874, -3.472560510324393 
0.04000000000000012, -3.4720564018416247 
0.050000000000000405, -3.471813490804908 
0.06000000000000069, -3.47145669303684 
0.07000000000000098, -3.47093401221064 
0.08000000000000126, -3.47031191627987 
0.09000000000000155, -3.46969267292454 
0.10000000000000184, -3.4691688615549787 
0.11000000000000212, -3.468717259996062 
0.12000000000000241, -3.468217250005979 
0.130000000000002, -3.467602645396191 
0.1400000000000009, -3.4669322724083207 
0.1499999999999998, -3.4664234096219078 
0.1599999999999987, -3.4661157773685956 
0.1699999999999976, -3.4657864844117867 
0.1799999999999965, -3.4653014459894864 
0.1899999999999954, -3.4645997773349793 
0.1999999999999943, -3.4636552963586675 
0.2099999999999932, -3.462763171264386 
0.2199999999999921, -3.4624507655228216 
0.229999999999991, -3.462367252608613 
0.2399999999999899, -3.4620758623263335 
0.2499999999999888, -3.4615584492637446 
0.2599999999999877, -3.4608763882531703 
0.2699999999999866, -3.4601324140502157 
0.2799999999999855, -3.459527694159301 
0.2899999999999844, -3.459111208556674 
0.2999999999999833, -3.4586843044739766 
0.3099999999999822, -3.458147016425046 
0.3199999999999811, -3.4575386649902873 
0.32999999999998, -3.4569831983105876 
0.3399999999999789, -3.4565400158833226 
0.3499999999999778, -3.456124126892848 
0.35999999999997667, -3.455626290927512 
0.36999999999997557, -3.4549688431925936 
0.37999999999997447, -3.4541421793150784 
0.38999999999997337, -3.453432253595748 
0.39999999999997227, -3.453198244161979 
0.40999999999997117, -3.453089513187469 
0.41999999999997006, -3.4527740237414184 
0.42999999999996896, -3.4522208852811813 
0.43999999999996786, -3.4514415543973067 
0.44999999999996676, -3.450527725208569 
0.45999999999996566, -3.44984704122016 
0.46999999999996456, -3.449536583480671 
0.47999999999996346, -3.449226745610531 
0.48999999999996235, -3.4487589803813634 
0.49999999999996125, -3.448170877877531 
0.5099999999999602, -3.4475539231235866 
0.519999999999959, -3.447006457135656 
0.529999999999958, -3.446546726425294 
0.5399999999999568, -3.44607800929508 
0.5499999999999557, -3.4455055163629353 
0.5599999999999546, -3.444824399831867 
0.5699999999999535, -3.4442089190151086 
0.5799999999999524, -3.443859175844376 
0.5899999999999513, -3.4436009369299057 
0.5999999999999502, -3.443217871719675 
0.6099999999999491, -3.442635816289413 
0.619999999999948, -3.441807706650926 
0.6299999999999469, -3.4408091482090546 
0.6399999999999458, -3.4401497066377744 
0.6499999999999447, -3.4400066142752883 
0.6599999999999436, -3.43983129033199 
0.6699999999999425, -3.4394254485875555 
0.6799999999999414, -3.4388349519808954 
0.6899999999999403, -3.43813482625609 
0.6999999999999392, -3.4374644701969204 
0.7099999999999381, -3.4369687167091216 
0.719999999999937, -3.436557120915537 
0.7299999999999359, -3.436070212653477 
0.7399999999999348, -3.4354810773723123 
0.7499999999999337, -3.4348812534032263 
0.7599999999999326, -3.4344020596817146 
0.7699999999999315, -3.4340139616577425 
0.7799999999999304, -3.433589443629468 
0.7899999999999293, -3.4330332063373077 
0.7999999999999282, -3.4322821089481144 
0.8099999999999271, -3.4313996292093543 
0.819999999999926, -3.430831374294132 
0.8299999999999249, -3.4307301265120045 
0.8399999999999238, -3.4305909604725726 
0.8499999999999227, -3.430207600009271 
0.8599999999999216, -3.4295958910578177 
0.8699999999999205, -3.4287890351642836 
0.8799999999999194, -3.427948414439198 
0.8899999999999183, -3.4274059841943845 
0.8999999999999172, -3.4270961619841858 
0.9099999999999161, -3.4267146916628244 
0.919999999999915, -3.426194354875907 
0.9299999999999139, -3.425594173826371 
0.9399999999999128, -3.4250170026721465 
0.9499999999999117, -3.424527958078393 
0.9599999999999106, -3.424086127773225 
0.9699999999999095, -3.423586774500206 
0.9799999999999084, -3.422958998270942 
0.9899999999999073, -3.422236040323815 
0.9999999999999062, -3.4216764812054863 
1.0099999999999052, -3.4214270165772653 
1.019999999999904, -3.4212003316152577 
1.029999999999903, -3.4208000659753433 
1.039999999999902, -3.4201802058214916 
1.0499999999999008, -3.419312102981715 
1.0599999999998997, -3.4183330245530223 
1.0699999999998986, -3.4177573803246104 
1.0799999999998975, -3.417598078558245 
1.0899999999998964, -3.417357155932728 
1.0999999999998953, -3.41690949949133 
1.1099999999998942, -3.4163095051391332 
1.119999999999893, -3.4156424897549997 
1.129999999999892, -3.415038092137318 
1.1399999999998909, -3.4145736788009 
1.1499999999998898, -3.414139196046559 
1.1599999999998887, -3.413615721301569 
1.1699999999998876, -3.4129983328027853 
1.1799999999998865, -3.412410991000052 
1.1899999999998854, -3.411990282133069 
1.1999999999998843, -3.411647797919786 
1.2099999999998832, -3.4112314534783708 
1.219999999999882, -3.410654998534123 
1.229999999999881, -3.4098588482867362 
1.2399999999998799, -3.40892268236368 
1.2499999999998788, -3.4083458500608854 
1.2599999999998777, -3.408265349695651 
1.2699999999998766, -3.408133123898309 
1.2799999999998755, -3.4077520644923007 
1.2899999999998744, -3.4071558177041537 
1.2999999999998733, -3.4063968748171156 
1.3099999999998722, -3.4056272709443562 
1.319999999999871, -3.4050989669536333 
1.32999999999987, -3.404745851624431 
1.3399999999998689, -3.404329225397735 
1.3499999999998678, -3.4037925204382296 
1.3599999999998666, -3.4031972765368095 
1.3699999999998655, -3.4026544214064494 
1.3799999999998644, -3.4022044363441233 
1.3899999999998633, -3.401776596143359 
1.3999999999998622, -3.4012698984650656 
1.4099999999998611, -3.400614958691692 
1.41999999999986, -3.3998363223029515 
1.429999999999859, -3.399235571236596 
1.4399999999998578, -3.399033488153671 
1.4499999999998567, -3.3988797856822472 
1.4599999999998556, -3.398528654716034 
1.4699999999998545, -3.3979500439466066 
1.4799999999998534, -3.3971376197839525 
1.4899999999998523, -3.3961937767445356 
1.4999999999998512, -3.3955376352325572 
1.5099999999998501, -3.395284967703082 
1.519999999999849, -3.3950175135317897 
1.529999999999848, -3.3945756930236852 
1.5399999999998468, -3.393999736539996 
1.5499999999998457, -3.3933748657825205 
1.5599999999998446, -3.392806843690419 
1.5699999999998435, -3.3923436717907194 
1.5799999999998424, -3.3918983638590183 
1.5899999999998413, -3.3913647074040085 
1.5999999999998402, -3.390723315707549 
1.6099999999998391, -3.3901022462038064 
1.619999999999838, -3.389701133205037 
1.629999999999837, -3.3894270694182667 
1.6399999999998358, -3.3890709340114866 
1.6499999999998347, -3.3885405552028915 
1.6599999999998336, -3.3877816791052346 
1.6699999999998325, -3.386809538721123 
1.6799999999998314, -3.3860287519258017 
1.6899999999998303, -3.3858257288405307 
1.6999999999998292, -3.38572802763196 
1.709999999999828, -3.3854077452067477 
1.719999999999827, -3.384878877007116 
1.729999999999826, -3.3842045708345694 
1.7399999999998248, -3.3834931254569818 
1.7499999999998237, -3.3829261271518534 
1.7599999999998226, -3.382520538610831 
1.7699999999998215, -3.382094262424192 
1.7799999999998204, -3.381561297997797 
1.7899999999998193, -3.380961370785042 
1.7999999999998182, -3.38042184681638 
1.809999999999817, -3.380004566808329 
1.819999999999816, -3.379616881439585 
1.8299999999998149, -3.3791473677393604 
1.8399999999998138, -3.378518826865922 
1.8499999999998127, -3.3776985253271166 
1.8599999999998116, -3.3769007676364824 
1.8699999999998105, -3.3765807315174485 
1.8799999999998094, -3.376526537517323 
1.8899999999998083, -3.376304581098244 
1.8999999999998072, -3.375842313040001 
1.909999999999806, -3.3751642911833897 
1.919999999999805, -3.3743215402340994 
1.9299999999998039, -3.373551773285636 
1.9399999999998028, -3.3731232443188057 
1.9499999999998017, -3.3728248827365013 
1.9599999999998006, -3.372414172783185 
1.9699999999997995, -3.371875048222722 
1.9799999999997984, -3.371280496921348 
1.9899999999997973, -3.370731590998672 
1.9999999999997962, -3.370270466468763 
2.0099999999998173, -3.3698358395312495 
2.0199999999998384, -3.369326088605837 
2.0299999999998595, -3.368682814042683 
2.0399999999998806, -3.367963697781659 
2.0499999999999017, -3.3674505158345958 
2.059999999999923, -3.367239018085177 
2.069999999999944, -3.3670218162399315 
2.079999999999965, -3.3666228616100278 
2.089999999999986, -3.366004537700924 
2.100000000000007, -3.3651439443410234 
2.1100000000000283, -3.364179827310366 
2.1200000000000494, -3.3636004591707165 
2.1300000000000705, -3.363428986667356 
2.1400000000000916, -3.36319312509454 
2.1500000000001127, -3.362760573744729 
2.160000000000134, -3.3621809573956596 
2.170000000000155, -3.361536481282534 
2.180000000000176, -3.3609442993662313 
2.190000000000197, -3.3604792201099984 
2.2000000000002182, -3.3600519429579103 
2.2100000000002393, -3.3595440412714646 
2.2200000000002604, -3.3589345205323546 
2.2300000000002815, -3.358330688098949 
2.2400000000003026, -3.357901455353864 
2.2500000000003237, -3.357590762217202 
2.260000000000345, -3.3572242128586174 
2.270000000000366, -3.3567056432026057 
2.280000000000387, -3.35597408082498 
2.290000000000408, -3.355033558073907 
2.3000000000004293, -3.354256365340403 
2.3100000000004504, -3.354055757143377 
2.3200000000004715, -3.3539946204686046 
2.3300000000004926, -3.3537123547265097 
2.3400000000005137, -3.3532073509868274 
2.3500000000005348, -3.35253390234059 
2.360000000000556, -3.35178635434355 
2.370000000000577, -3.3511696658253785 
2.380000000000598, -3.3507659391201825 
2.390000000000619, -3.3503802115370633 
2.4000000000006403, -3.3498887383801863 
2.4100000000006614, -3.3493091690008874 
2.4200000000006825, -3.3487456526180495 
2.4300000000007036, -3.3482884575640335 
2.4400000000007247, -3.347892600911051 
2.450000000000746, -3.3474526869791483 
2.460000000000767, -3.346883345712525 
2.470000000000788, -3.346136347878629 
2.480000000000809, -3.3453284323830963 
2.49000000000083, -3.3448817541046916 
2.5000000000008513, -3.3447995917075337 
2.5100000000008724, -3.3446358636600912 
2.5200000000008935, -3.3442406808947 
2.5300000000009146, -3.3436220234152207 
2.5400000000009357, -3.342801317798177 
2.550000000000957, -3.3419425704259 
2.560000000000978, -3.341403166475556 
2.570000000000999, -3.341130522851043 
2.58000000000102, -3.3407946657499834 
2.5900000000010412, -3.340311921569698 
2.6000000000010624, -3.339732219919919 
2.6100000000010835, -3.3391494447802095 
2.6200000000011046, -3.3386457089780754 
2.6300000000011257, -3.338213235713085 
2.6400000000011468, -3.337755945753544 
2.650000000001168, -3.337189349663695 
2.660000000001189, -3.3365050880388543 
2.67000000000121, -3.3358746899357774 
2.680000000001231, -3.335541619241659 
2.6900000000012523, -3.3353491825637525 
2.7000000000012734, -3.3350402417239073 
2.7100000000012945, -3.334534090063511 
2.7200000000013156, -3.3337965911289396 
2.7300000000013367, -3.3328415746037576 
2.740000000001358, -3.332004537487072 
2.750000000001379, -3.331695022170024 
2.7600000000014, -3.3315584945628807 
2.770000000001421, -3.3312461342271633 
2.780000000001442, -3.330748008717845 
2.7900000000014633, -3.3301297639685705 
2.8000000000014844, -3.329487123618712 
2.8100000000015055, -3.3289438577852195 
2.8200000000015266, -3.328517821612798 
2.8300000000015477, -3.3280791388832305 
2.840000000001569, -3.3275408360380965 
2.85000000000159, -3.3269236385333327 
2.860000000001611, -3.326373881993296 
2.870000000001632, -3.326002744523476 
2.8800000000016532, -3.325687944674079 
2.8900000000016743, -3.3252823208198157 
2.9000000000016954, -3.324709038427077 
2.9100000000017165, -3.3239124425492035 
2.9200000000017377, -3.3229679827722998 
2.9300000000017588, -3.3223594703060186 
2.94000000000178, -3.322270331366088 
2.950000000001801, -3.3221706139545946 
2.960000000001822, -3.321832377722277 
2.970000000001843, -3.3212858028757566 
2.9800000000018643, -3.320585942220795 
2.9900000000018854, -3.319849413359182 
3.0000000000019065, -3.319287869130163 
3.0100000000019276, -3.318912750081348 
3.0200000000019487, -3.318517049030478 
3.03000000000197, -3.318011004995642 
3.040000000001991, -3.317430434287467 
3.050000000002012, -3.316886662452535 
3.060000000002033, -3.316450909287455 
3.070000000002054, -3.3160613574599296 
3.0800000000020753, -3.3156140844768074 
3.0900000000020964, -3.3150291268578966 
3.1000000000021175, -3.3142663957687986 
3.1100000000021386, -3.313474634545165 
3.1200000000021597, -3.313079166090234 
3.130000000002181, -3.3130145272043388 
3.140000000002202, -3.3128440498300065 
3.150000000002223, -3.3124419617565706 
3.160000000002244, -3.3118202661368827 
3.1700000000022652, -3.311004234473441 
3.1800000000022863, -3.3101626931030497 
3.1900000000023074, -3.3096360371766513 
3.2000000000023285, -3.3093615014116993 
3.2100000000023496, -3.3090245642548397 
3.2200000000023707, -3.308545237271704 
3.230000000002392, -3.3079720462416753 
3.240000000002413, -3.307398202683892 
3.250000000002434, -3.3069033013225644 
3.260000000002455, -3.3064775574937415 
3.2700000000024763, -3.306027941588682 
3.2800000000024974, -3.3054699359392097 
3.2900000000025185, -3.3047868202750825 
3.3000000000025396, -3.304134701841568 
3.3100000000025607, -3.303784767012684 
3.3200000000025818, -3.30361546017051 
3.330000000002603, -3.303343646676074 
3.340000000002624, -3.3028755897099473 
3.350000000002645, -3.3021826669742476 
3.360000000002666, -3.301263622467977 
3.3700000000026873, -3.300374310440412 
3.3800000000027084, -3.2999669586899225 
3.3900000000027295, -3.2998232542633006 
3.4000000000027506, -3.2995452840097172 
3.4100000000027717, -3.299082016498608 
3.420000000002793, -3.2984925836787298 
3.430000000002814, -3.2978640540121953 
3.440000000002835, -3.2973094814689183 
3.450000000002856, -3.2968716274690095 
3.460000000002877, -3.2964459293341712 
3.4700000000028983, -3.2959307235400592 
3.4800000000029194, -3.295318284265349 
3.4900000000029405, -3.2947303302461526 
3.5000000000029616, -3.294333206858134 
3.5100000000029827, -3.2940497505173427 
3.520000000003004, -3.293701172334658 
3.530000000003025, -3.2931963446559136 
3.540000000003046, -3.2924785703229498 
3.550000000003067, -3.291543757459383 
3.5600000000030882, -3.290723330185279 
3.5700000000031094, -3.2904701326859245 
3.5800000000031305, -3.2904227812130977 
3.5900000000031516, -3.2901798029892277 
3.6000000000031727, -3.2897171734906214 
3.6100000000031938, -3.2890908024036607 
3.620000000003215, -3.2883815608497406 
3.630000000003236, -3.2877547266840503 
3.640000000003257, -3.2873216777127916 
3.650000000003278, -3.286942757677109 
3.6600000000032993, -3.286476951349166 
3.6700000000033204, -3.285914020794082 
3.6800000000033415, -3.285342431492483 
3.6900000000033626, -3.284880972743513 
3.7000000000033837, -3.284511471703395 
3.710000000003405, -3.2841205560714037 
3.720000000003426, -3.283615598127638 
3.730000000003447, -3.282932312087167 
3.740000000003468, -3.2820795879046543 
3.750000000003489, -3.2813832689275904 
3.7600000000035103, -3.2811985536883874 
3.7700000000035314, -3.2811555914486332 
3.7800000000035525, -3.2809089658197075 
3.7900000000035736, -3.280432257651711 
3.8000000000035947, -3.2797561309036105 
3.810000000003616, -3.278944685266359 
3.820000000003637, -3.278228299167208 
3.830000000003658, -3.277817033474265 
3.840000000003679, -3.2775119849914907 
3.8500000000037002, -3.2771048200185833 
3.8600000000037213, -3.276579304524886 
3.8700000000037424, -3.2760048415668344 
3.8800000000037635, -3.275481868192043 
3.8900000000037847, -3.2750463167561734 
3.9000000000038058, -3.274636195632546 
3.910000000003827, -3.2741557338318446 
3.920000000003848, -3.2735385257492062 
3.930000000003869, -3.2727975631693154 
3.94000000000389, -3.2721810218732132 
3.9500000000039113, -3.271947005278528 
3.9600000000039324, -3.2718308531531997 
3.9700000000039535, -3.271553052339148 
3.9800000000039746, -3.2710602154604325 
3.9900000000039957, -3.270344160454011 
4.000000000004016, -3.2694386777381803 
4.010000000003993, -3.2686316208445065 
4.02000000000397, -3.2682599513374364 
4.030000000003946, -3.2680577148613184 
4.040000000003923, -3.267723293238558 
4.0500000000039, -3.267233360795985 
4.0600000000038765, -3.266650147650411 
4.070000000003853, -3.2660658600289656 
4.08000000000383, -3.2655657846298793 
4.090000000003807, -3.2651446601294127 
4.100000000003783, -3.2647003293616352 
4.11000000000376, -3.2641523479811325 
4.120000000003737, -3.2635032131727995 
4.130000000003713, -3.262912650545174 
4.14000000000369, -3.262576562531583 
4.150000000003667, -3.2623605867901935 
4.1600000000036434, -3.2620469793857696 
4.17000000000362, -3.2615535929907105 
4.180000000003597, -3.260838132719157 
4.1900000000035735, -3.259899674639798 
4.20000000000355, -3.2590381955186842 
4.210000000003527, -3.2587074705111356 
4.220000000003504, -3.2586175517367644 
4.23000000000348, -3.258366888645951 
4.240000000003457, -3.25791668092264 
4.250000000003434, -3.2573257684123065 
4.26000000000341, -3.2566764063501354 
4.270000000003387, -3.256095257121969 
4.280000000003364, -3.255655805429723 
4.2900000000033405, -3.2552541008843408 
4.300000000003317, -3.25477226283623 
4.310000000003294, -3.2541925691856406 
4.320000000003271, -3.2536086727974727 
4.330000000003247, -3.2531734124074725 
4.340000000003224, -3.252860923571325 
4.350000000003201, -3.2525178803721366 
4.360000000003177, -3.252044784522662 
4.370000000003154, -3.2513797339074166 
4.380000000003131, -3.250496822777696 
4.390000000003107, -3.2496406251015673 
4.400000000003084, -3.2493083586010294 
4.410000000003061, -3.2492890890304325 
4.4200000000030375, -3.2491152672854127 
4.430000000003014, -3.2487094030660444 
4.440000000002991, -3.2481186612602477 
4.450000000002968, -3.2474051465103813 
4.460000000002944, -3.2467152841899867 
4.470000000002921, -3.246230282324614 
4.480000000002898, -3.245875901579219 
4.490000000002874, -3.2454656587335875 
4.500000000002851, -3.2449477281340036 
4.510000000002828, -3.2443746677130165 
4.520000000002804, -3.24386291809351 
4.530000000002781, -3.243461173946135 
4.540000000002758, -3.243089783824302 
4.5500000000027345, -3.2426472641618993 
4.560000000002711, -3.242059581379742 
4.570000000002688, -3.241288218053806 
4.580000000002665, -3.2404826299813045 
4.590000000002641, -3.2400791437416543 
4.600000000002618, -3.240037955857771 
4.610000000002595, -3.239907849460098 
4.620000000002571, -3.239546792605708 
4.630000000002548, -3.238972455654642 
4.640000000002525, -3.2382143308906186 
4.6500000000025015, -3.23739853825956 
4.660000000002478, -3.236817754293564 
4.670000000002455, -3.2365058358212493 
4.6800000000024315, -3.236185080773784 
4.690000000002408, -3.235737247691926 
4.700000000002385, -3.2351896939815887 
4.710000000002362, -3.2346285156988466 
4.720000000002338, -3.2341408840259027 
4.730000000002315, -3.2337287089026345 
4.740000000002292, -3.2333120415028143 
4.750000000002268, -3.2328016464897056 
4.760000000002245, -3.2321480496548696 
4.770000000002222, -3.2314149443978337 
4.7800000000021985, -3.2309071423502744 
4.790000000002175, -3.230750428798481 
4.800000000002152, -3.2306137626728186 
4.810000000002129, -3.2302919438524027 
4.820000000002105, -3.2297566356912832 
4.830000000002082, -3.2290003404798875 
4.840000000002059, -3.2280877302242397 
4.850000000002035, -3.2273567118415394 
4.860000000002012, -3.227051065394785 
4.870000000001989, -3.226842426736502 
4.880000000001965, -3.2264879289045716 
4.890000000001942, -3.2259874956850316 
4.900000000001919, -3.225407015569356 
4.9100000000018955, -3.2248392069843064 
4.920000000001872, -3.2243594966180296 
4.930000000001849, -3.2239481761467785 
4.940000000001826, -3.2235032848717173 
4.950000000001802, -3.2229512519463093 
4.960000000001779, -3.222299543123772 
4.970000000001756, -3.2217162591636233 
