t, s[1].omega / s[0].omega 
0, -1.5499971950451965 
0.009999999999999995, -1.549689582966277 
0.019999999999999934, -1.5493309600111838 
0.029999999999999874, -1.5489299091411801 
0.04000000000000012, -1.5485021772294656 
0.050000000000000405, -1.5480709535693664 
0.06000000000000069, -1.547663649120909 
0.07000000000000098, -1.5473038523950184 
0.08000000000000126, -1.5470014854233496 
0.09000000000000155, -1.5467482774800618 
0.10000000000000184, -1.5465227553913228 
0.11000000000000212, -1.5463003590407867 
0.12000000000000241, -1.5460608493772603 
0.130000000000002, -1.5457900586504574 
0.1400000000000009, -1.545478377774493 
0.1499999999999998, -1.5451195125607513 
0.1599999999999987, -1.5447119433474177 
0.1699999999999976, -1.5442641502125458 
0.1799999999999965, -1.543802029516726 
0.1899999999999954, -1.543371552500378 
0.1999999999999943, -1.5430260073365267 
0.2099999999999932, -1.5427973753763138 
0.2199999999999921, -1.5426739565511387 
0.229999999999991, -1.54260790530558 
0.2399999999999899, -1.5425445320890971 
0.2499999999999888, -1.542445509372378 
0.2599999999999877, -1.5422937432721642 
0.2699999999999866, -1.5420871466628765 
0.2799999999999855, -1.5418312808162993 
0.2899999999999844, -1.541535261365639 
0.2999999999999833, -1.5412110684057982 
0.3099999999999822, -1.5408746350785425 
0.3199999999999811, -1.5405461670503402 
0.32999999999998, -1.5402469749125234 
0.3399999999999789, -1.5399923825100852 
0.3499999999999778, -1.539784710415269 
0.35999999999997667, -1.5396118816989999 
0.36999999999997557, -1.5394526719728334 
0.37999999999997447, -1.539284268074591 
0.38999999999997337, -1.5390875441265985 
0.39999999999997227, -1.5388488445929802 
0.40999999999997117, -1.5385597111566836 
0.41999999999997006, -1.538216461350886 
0.42999999999996896, -1.5378208104861726 
0.43999999999996786, -1.5373817605307825 
0.44999999999996676, -1.5369178211232177 
0.45999999999996566, -1.536457142612221 
0.46999999999996456, -1.5360323052053642 
0.47999999999996346, -1.5356689407447572 
0.48999999999996235, -1.5353738862028006 
0.49999999999996125, -1.5351324578764225 
0.5099999999999602, -1.5349175182911112 
0.519999999999959, -1.5347020579153097 
0.529999999999958, -1.5344662627274468 
0.5399999999999568, -1.534197853254271 
0.5499999999999557, -1.5338896526248624 
0.5599999999999546, -1.53353817512204 
0.5699999999999535, -1.5331452615153176 
0.5799999999999524, -1.532723180263007 
0.5899999999999513, -1.5323007680922616 
0.5999999999999502, -1.5319232554425166 
0.6099999999999491, -1.5316370299948785 
0.619999999999948, -1.5314630036863814 
0.6299999999999469, -1.531380910418806 
0.6399999999999458, -1.5313413703589875 
0.6499999999999447, -1.5312932634155985 
0.6599999999999436, -1.531202569965799 
0.6699999999999425, -1.5310550533325549 
0.6799999999999414, -1.5308501371970429 
0.6899999999999403, -1.5305942723837527 
0.6999999999999392, -1.5302972638855201 
0.7099999999999381, -1.5299715565541172 
0.719999999999937, -1.5296329855637394 
0.7299999999999359, -1.5293007575453608 
0.7399999999999348, -1.528994476224489 
0.7499999999999337, -1.5287280674039405 
0.7599999999999326, -1.5285039417910804 
0.7699999999999315, -1.5283117921203606 
0.7799999999999304, -1.5281328856357814 
0.7899999999999293, -1.5279464585013174 
0.7999999999999282, -1.5277343639939587 
0.8099999999999271, -1.527482766559297 
0.819999999999926, -1.52718204884774 
0.8299999999999249, -1.5268267058757488 
0.8399999999999238, -1.5264164559995301 
0.8499999999999227, -1.525958876810811 
0.8599999999999216, -1.5254725781979994 
0.8699999999999205, -1.5249880764479709 
0.8799999999999194, -1.5245422970958071 
0.8899999999999183, -1.5241653413133744 
0.8999999999999172, -1.5238661453525393 
0.9099999999999161, -1.5236287728969748 
0.919999999999915, -1.523422881919916 
0.9299999999999139, -1.5232185236912752 
0.9399999999999128, -1.52299443750489 
0.9499999999999117, -1.5227383882363106 
0.9599999999999106, -1.5224441713323007 
0.9699999999999095, -1.5221095242148874 
0.9799999999999084, -1.5217369685962925 
0.9899999999999073, -1.5213379155037392 
0.9999999999999062, -1.5209380173962443 
1.0099999999999052, -1.5205776732971417 
1.019999999999904, -1.5202998823054363 
1.029999999999903, -1.5201270448791941 
1.039999999999902, -1.520044756236145 
1.0499999999999008, -1.520009251695772 
1.0599999999998997, -1.5199711406345218 
1.0699999999998986, -1.5198945819284124 
1.0799999999998975, -1.519762341345786 
1.0899999999998964, -1.5195714312639415 
1.0999999999998953, -1.51932691198636 
1.1099999999998942, -1.519037825699681 
1.119999999999893, -1.5187158725468815 
1.129999999999892, -1.5183757872176273 
1.1399999999998909, -1.5180355683503168 
1.1499999999998898, -1.5177145022492367 
1.1599999999998887, -1.5174282014796685 
1.1699999999998876, -1.5171827850754487 
1.1799999999998865, -1.516972207095097 
1.1899999999998854, -1.516780773893465 
1.1999999999998843, -1.5165888250520276 
1.2099999999998832, -1.5163778060932487 
1.219999999999882, -1.5161326768396346 
1.229999999999881, -1.5158421679793028 
1.2399999999998799, -1.5154985783177248 
1.2499999999998788, -1.515098597624105 
1.2599999999998777, -1.514645854100907 
1.2699999999998766, -1.5141547030227964 
1.2799999999998755, -1.5136528784718195 
1.2899999999998744, -1.5131786195799992 
1.2999999999998733, -1.5127688730499647 
1.3099999999998722, -1.5124425140882831 
1.319999999999871, -1.5121910335751148 
1.32999999999987, -1.5119853280051436 
1.3399999999998689, -1.5117918944479571 
1.3499999999998678, -1.5115849512220032 
1.3599999999998666, -1.5113492510960334 
1.3699999999998655, -1.5110773400788051 
1.3799999999998644, -1.5107664196089097 
1.3899999999998633, -1.5104176091456525 
1.3999999999998622, -1.5100384070461041 
1.4099999999998611, -1.5096474400798543 
1.41999999999986, -1.509277560094036 
1.429999999999859, -1.5089701808545404 
1.4399999999998578, -1.5087572802273503 
1.4499999999998567, -1.5086412853830615 
1.4599999999998556, -1.5085914014115367 
1.4699999999998545, -1.5085604815492932 
1.4799999999998534, -1.5085065946237335 
1.4899999999998523, -1.5084042131187634 
1.4999999999998512, -1.5082438600181018 
1.5099999999998501, -1.5080267395827862 
1.519999999999849, -1.507759768995404 
1.529999999999848, -1.507453008888336 
1.5399999999998468, -1.5071192654792898 
1.5499999999998457, -1.5067745531578693 
1.5599999999998446, -1.5064375328304416 
1.5699999999998435, -1.5061263225539834 
1.5799999999998424, -1.5058530136981543 
1.5899999999998413, -1.5056189134302027 
1.5999999999998402, -1.505413959137188 
1.6099999999998391, -1.5052207132307 
1.619999999999838, -1.5050199694830009 
1.629999999999837, -1.5047947141025966 
1.6399999999998358, -1.5045314740474534 
1.6499999999998347, -1.5042201811227003 
1.6599999999998336, -1.5038542421515728 
1.6699999999998325, -1.5034320377091894 
1.6799999999998314, -1.5029601922933646 
1.6899999999998303, -1.5024575417583463 
1.6999999999998292, -1.5019565605351095 
1.709999999999828, -1.5014975188064754 
1.719999999999827, -1.501113734471113 
1.729999999999826, -1.5008154383305938 
1.7399999999998248, -1.5005855101353007 
1.7499999999998237, -1.5003910321500027 
1.7599999999998226, -1.500199682875377 
1.7699999999998215, -1.4999889525456493 
1.7799999999998204, -1.4997465324979897 
1.7899999999998193, -1.49946689403882 
1.7999999999998182, -1.499148580997005 
1.809999999999817, -1.498794233248276 
1.819999999999816, -1.498413649409618 
1.8299999999998149, -1.4980284090592322 
1.8399999999998138, -1.4976734259452391 
1.8499999999998127, -1.4973886691922793 
1.8599999999998116, -1.4972001038273626 
1.8699999999998105, -1.497102588477601 
1.8799999999998094, -1.4970610355441631 
1.8899999999998083, -1.4970290024832948 
1.8999999999998072, -1.4969681199570144 
1.909999999999806, -1.4968564766716042 
1.919999999999805, -1.49668696325115 
1.9299999999998039, -1.4964619448280616 
1.9399999999998028, -1.4961888150767308 
1.9499999999998017, -1.49587789250891 
1.9599999999998006, -1.4955422504606426 
1.9699999999997995, -1.4951981343904392 
1.9799999999997984, -1.494864134377941 
1.9899999999997973, -1.4945577208641028 
1.9999999999997962, -1.4942897940266908 
2.0099999999998173, -1.4940603724431591 
2.0199999999998384, -1.4938585526960475 
2.0299999999998595, -1.493666724567862 
2.0399999999998806, -1.4934659938461639 
2.0499999999999017, -1.4932398218617962 
2.059999999999923, -1.492975176439097 
2.069999999999944, -1.4926623781353012 
2.079999999999965, -1.492295243398098 
2.089999999999986, -1.4918726284538448 
2.100000000000007, -1.4914016139756925 
2.1100000000000283, -1.490901205668521 
2.1200000000000494, -1.490403419246574 
2.1300000000000705, -1.4899473738101636 
2.1400000000000916, -1.4895651132724628 
2.1500000000001127, -1.489266391747117 
2.160000000000134, -1.4890347438188374 
2.170000000000155, -1.4888384145614448 
2.180000000000176, -1.4886459329791548 
2.190000000000197, -1.4884350435572593 
2.2000000000002182, -1.4881932659248571 
2.2100000000002393, -1.4879146972563375 
2.2200000000002604, -1.4875973738664634 
2.2300000000002815, -1.4872432061930039 
2.2400000000003026, -1.486860905484329 
2.2500000000003237, -1.4864706830581553 
2.260000000000345, -1.4861064842616152 
2.270000000000366, -1.4858089916241228 
2.280000000000387, -1.485607276749476 
2.290000000000408, -1.4855003604819546 
2.3000000000004293, -1.4854557660650605 
2.3100000000004504, -1.4854268801234864 
2.3200000000004715, -1.485373362635327 
2.3300000000004926, -1.4852711449991958 
2.3400000000005137, -1.485111633117024 
2.3500000000005348, -1.4848964027009157 
2.360000000000556, -1.4846324093826841 
2.370000000000577, -1.4843295312466627 
2.380000000000598, -1.4840002087959152 
2.390000000000619, -1.483659951378851 
2.4000000000006403, -1.4833269314920758 
2.4100000000006614, -1.483019085801231 
2.4200000000006825, -1.4827488845371448 
2.4300000000007036, -1.482518527232057 
2.4400000000007247, -1.4823189634961267 
2.450000000000746, -1.482133430454008 
2.460000000000767, -1.4819428835584936 
2.470000000000788, -1.4817301421157656 
2.480000000000809, -1.4814815664877377 
2.49000000000083, -1.4811871168927908 
2.5000000000008513, -1.4808403048041752 
2.5100000000008724, -1.4804391781033632 
2.5200000000008935, -1.4799887307437647 
2.5300000000009146, -1.4795040669640758 
2.5400000000009357, -1.4790120949187953 
2.550000000000957, -1.4785481567136514 
2.560000000000978, -1.4781453181465314 
2.570000000000999, -1.477820144847921 
2.58000000000102, -1.477565108039411 
2.5900000000010412, -1.4773543207738773 
2.6000000000010624, -1.4771572361122307 
2.6100000000010835, -1.4769493697261258 
2.6200000000011046, -1.4767153021585728 
2.6300000000011257, -1.4764466309110162 
2.6400000000011468, -1.4761391846861718 
2.650000000001168, -1.4757921203475441 
2.660000000001189, -1.4754099102861438 
2.67000000000121, -1.4750069289939662 
2.680000000001231, -1.4746118966104953 
2.6900000000012523, -1.47426587982925 
2.7000000000012734, -1.4740079780405049 
2.7100000000012945, -1.4738535929904502 
2.7200000000013156, -1.4737830006137673 
2.7300000000013367, -1.4737518567125858 
2.740000000001358, -1.4737136435882938 
2.750000000001379, -1.473635913537343 
2.7600000000014, -1.47350369270036 
2.770000000001421, -1.4733149779991348 
2.780000000001442, -1.473074961207375 
2.7900000000014633, -1.4727923201943969 
2.8000000000014844, -1.4724780482573974 
2.8100000000015055, -1.4721459065535987 
2.8200000000015266, -1.4718128848031193 
2.8300000000015477, -1.4714977587297964 
2.840000000001569, -1.4712167358894654 
2.85000000000159, -1.4709777280097074 
2.860000000001611, -1.4707769514962705 
2.870000000001632, -1.4706003837238406 
2.8800000000016532, -1.470428868665063 
2.8900000000016743, -1.4702434317179276 
2.9000000000016954, -1.4700284002433857 
2.9100000000017165, -1.469772248782725 
2.9200000000017377, -1.4694674414672448 
2.9300000000017588, -1.4691105728561646 
2.94000000000178, -1.4687035138239435 
2.950000000001801, -1.4682555045243708 
2.960000000001822, -1.4677851509331752 
2.970000000001843, -1.4673200938042106 
2.9800000000018643, -1.4668917143201705 
2.9900000000018854, -1.4665246399797758 
3.0000000000019065, -1.4662261781336436 
3.0100000000019276, -1.4659836527270715 
3.0200000000019487, -1.4657719990523912 
3.03000000000197, -1.4655650538869889 
3.040000000001991, -1.4653426803532965 
3.050000000002012, -1.465091860732341 
3.060000000002033, -1.4648046428725652 
3.070000000002054, -1.4644762356966263 
3.0800000000020753, -1.4641052013805778 
3.0900000000020964, -1.4636965689494494 
3.1000000000021175, -1.4632673063223245 
3.1100000000021386, -1.462850552022083 
3.1200000000021597, -1.4624913438311515 
3.130000000002181, -1.4622288491317579 
3.140000000002202, -1.462073529691858 
3.150000000002223, -1.4619991152163128 
3.160000000002244, -1.46195777627439 
3.1700000000022652, -1.4619039405853873 
3.1800000000022863, -1.4618085199716382 
3.1900000000023074, -1.4616598061600403 
3.2000000000023285, -1.4614577626858485 
3.2100000000023496, -1.4612082776027124 
3.2200000000023707, -1.4609200320090538 
3.230000000002392, -1.4606039714175272 
3.240000000002413, -1.4602742298737623 
3.250000000002434, -1.459948698581385 
3.260000000002455, -1.4596471370648991 
3.2700000000024763, -1.4593859240431784 
3.2800000000024974, -1.4591716380113662 
3.2900000000025185, -1.4589978792145888 
3.3000000000025396, -1.4588477536824773 
3.3100000000025607, -1.4586999887634795 
3.3200000000025818, -1.4585346880446026 
3.330000000002603, -1.4583364312387148 
3.340000000002624, -1.4580949472688922 
3.350000000002645, -1.4578047404295038 
3.360000000002666, -1.457464880072512 
3.3700000000026873, -1.4570795247274806 
3.3800000000027084, -1.4566590776068988 
3.3900000000027295, -1.456221126427151 
3.4000000000027506, -1.455789539509775 
3.4100000000027717, -1.4553899808531092 
3.420000000002793, -1.4550419343441325 
3.430000000002814, -1.4547509680456687 
3.440000000002835, -1.4545067717656823 
3.450000000002856, -1.4542886820820975 
3.460000000002877, -1.4540742225666832 
3.4700000000028983, -1.453844896027143 
3.4800000000029194, -1.453587456947849 
3.4900000000029405, -1.4532925629007454 
3.5000000000029616, -1.4529534112295766 
3.5100000000029827, -1.4525661837427795 
3.520000000003004, -1.452133293311029 
3.530000000003025, -1.4516691821835852 
3.540000000003046, -1.4512054992658006 
3.550000000003067, -1.4507885369498044 
3.5600000000030882, -1.4504628114518483 
3.5700000000031094, -1.450247019458413 
3.5800000000031305, -1.4501221224400247 
3.5900000000031516, -1.4500434200890822 
3.6000000000031727, -1.4499646052227355 
3.6100000000031938, -1.4498541019214375 
3.620000000003215, -1.4496975657069244 
3.630000000003236, -1.4494926847457024 
3.640000000003257, -1.4492433712788253 
3.650000000003278, -1.4489564914641637 
3.6600000000032993, -1.4486413749527132 
3.6700000000033204, -1.4483111207818793 
3.6800000000033415, -1.4479839272728716 
3.6900000000033626, -1.447681928832663 
3.7000000000033837, -1.447425670098022 
3.710000000003405, -1.4472258156192077 
3.720000000003426, -1.4470775786009817 
3.730000000003447, -1.4469623174812014 
3.740000000003468, -1.446854896718723 
3.750000000003489, -1.446731545088289 
3.7600000000035103, -1.4465744579455844 
3.7700000000035314, -1.4463728812488794 
3.7800000000035525, -1.4461222885446208 
3.7900000000035736, -1.4458232432732534 
3.8000000000035947, -1.4454808116337234 
3.810000000003616, -1.4451046791918352 
3.820000000003637, -1.444709491178361 
3.830000000003658, -1.4443143316497173 
3.840000000003679, -1.4439400307381818 
3.8500000000037002, -1.4436039091422652 
3.8600000000037213, -1.4433138188545325 
3.8700000000037424, -1.4430651445849656 
3.8800000000037635, -1.442843093528209 
3.8900000000037847, -1.4426285770007445 
3.9000000000038058, -1.4424035949557676 
3.910000000003827, -1.442153597233752 
3.920000000003848, -1.4418672508522843 
3.930000000003869, -1.441535488496122 
3.94000000000389, -1.441151602037307 
3.9500000000039113, -1.4407135661967725 
3.9600000000039324, -1.4402289109231334 
3.9700000000039535, -1.4397204854365664 
3.9800000000039746, -1.4392280892895986 
3.9900000000039957, -1.4387992476004485 
4.000000000004016, -1.438468696607698 
4.010000000003993, -1.438239581044574 
4.02000000000397, -1.4380830536445832 
4.030000000003946, -1.4379562922056237 
4.040000000003923, -1.437822279268862 
4.0500000000039, -1.4376585657761356 
4.0600000000038765, -1.4374557631116522 
4.070000000003853, -1.4372124574925706 
4.08000000000383, -1.4369312734411614 
4.090000000003807, -1.4366175912630506 
4.100000000003783, -1.4362807182041135 
4.11000000000376, -1.435936375501521 
4.120000000003737, -1.4356080650958725 
4.130000000003713, -1.435323776082471 
4.14000000000369, -1.4351063643446162 
4.150000000003667, -1.4349620360741984 
4.1600000000036434, -1.4348757516390223 
4.17000000000362, -1.4348176138094204 
4.180000000003597, -1.434754936173651 
4.1900000000035735, -1.434661833138002 
4.20000000000355, -1.434522827414946 
4.210000000003527, -1.4343319103718013 
4.220000000003504, -1.4340899244913865 
4.23000000000348, -1.4338022814052505 
4.240000000003457, -1.4334777999524069 
4.250000000003434, -1.433128536670878 
4.26000000000341, -1.4327698169548009 
4.270000000003387, -1.4324192460525818 
4.280000000003364, -1.4320937146903066 
4.2900000000033405, -1.4318047733574315 
4.300000000003317, -1.4315546002653265 
4.310000000003294, -1.431335215503513 
4.320000000003271, -1.4311315424229378 
4.330000000003247, -1.4309261769682764 
4.340000000003224, -1.4307030629318962 
4.350000000003201, -1.4304489168931767 
4.360000000003177, -1.4301531246971704 
4.370000000003154, -1.429807543156174 
4.380000000003131, -1.4294074119241698 
4.390000000003107, -1.428953984198434 
4.400000000003084, -1.4284585181709535 
4.410000000003061, -1.42794560460054 
4.4200000000030375, -1.4274518844595008 
4.430000000003014, -1.4270165027448014 
4.440000000002991, -1.42666523995259 
4.450000000002968, -1.4263984143674249 
4.460000000002944, -1.4261926036176493 
4.470000000002921, -1.4260143192037587 
4.480000000002898, -1.4258340101754958 
4.490000000002874, -1.4256322475149612 
4.500000000002851, -1.4253988220844545 
4.510000000002828, -1.4251293382170707 
4.520000000002804, -1.4248227047803055 
4.530000000002781, -1.4244809053667145 
4.540000000002758, -1.4241112617624507 
4.5500000000027345, -1.423730338070416 
4.560000000002711, -1.4233665649743241 
4.570000000002688, -1.423056447575036 
4.580000000002665, -1.4228311898729387 
4.590000000002641, -1.422699670311141 
4.600000000002618, -1.4226414285350102 
4.610000000002595, -1.4226164971164665 
4.620000000002571, -1.4225835080526699 
4.630000000002548, -1.4225128329143364 
4.640000000002525, -1.4223898525625396 
4.6500000000025015, -1.4222117176956757 
4.660000000002478, -1.4219825902250045 
4.670000000002455, -1.421710229984357 
4.6800000000024315, -1.4214046133552125 
4.690000000002408, -1.421078069060727 
4.700000000002385, -1.420745777614126 
4.710000000002362, -1.4204251096074993 
4.720000000002338, -1.4201326243066137 
4.730000000002315, -1.4198792083530951 
4.740000000002292, -1.4196659531033078 
4.750000000002268, -1.4194835906499739 
4.760000000002245, -1.4193158402131645 
4.770000000002222, -1.4191443371320087 
4.7800000000021985, -1.418952490135401 
4.790000000002175, -1.418727252692548 
4.800000000002152, -1.4184594076085855 
4.810000000002129, -1.4181434981748708 
4.820000000002105, -1.4177782549383289 
4.830000000002082, -1.4173678139932415 
4.840000000002059, -1.416923394215582 
4.850000000002035, -1.4164643347721448 
4.860000000002012, -1.4160166625828892 
4.870000000001989, -1.415607563191124 
4.880000000001965, -1.415256489823395 
4.890000000001942, -1.4149674502027418 
4.900000000001919, -1.4147280461982819 
4.9100000000018955, -1.4145160705830162 
4.920000000001872, -1.4143084321444266 
4.930000000001849, -1.414086762806426 
4.940000000001826, -1.4138383904696177 
