t, s[1].omega / s[0].omega 
0, -0.5599977383532503 
0.009999999999999995, -0.5597672911735648 
0.019999999999999934, -0.5595283830319367 
0.029999999999999874, -0.5592811010953049 
0.04000000000000012, -0.5590256918333889 
0.050000000000000405, -0.5587626526749598 
0.06000000000000069, -0.5584927754703338 
0.07000000000000098, -0.5582171375483196 
0.08000000000000126, -0.5579370703116757 
0.09000000000000155, -0.5576541442139133 
0.10000000000000184, -0.5573701962893675 
0.11000000000000212, -0.5570874048838445 
0.12000000000000241, -0.5568083944167171 
0.130000000000002, -0.5565363323528403 
0.1400000000000009, -0.5562749599012919 
0.1499999999999998, -0.5560284800716391 
0.1599999999999987, -0.5558012239961345 
0.1699999999999976, -0.555597052016825 
0.1799999999999965, -0.5554185427530551 
0.1899999999999954, -0.5552661730270962 
0.1999999999999943, -0.5551378185637941 
0.2099999999999932, -0.5550288795295049 
0.2199999999999921, -0.5549330847382473 
0.229999999999991, -0.5548436778596673 
0.2399999999999899, -0.5547545077870837 
0.2499999999999888, -0.5546606768473351 
0.2599999999999877, -0.5545586986696774 
0.2699999999999866, -0.5544463293541606 
0.2799999999999855, -0.5543222656919841 
0.2899999999999844, -0.5541858315406463 
0.2999999999999833, -0.554036699970573 
0.3099999999999822, -0.55387466207543 
0.3199999999999811, -0.5536994443582328 
0.32999999999998, -0.5535105792096078 
0.3399999999999789, -0.5533073389964321 
0.3499999999999778, -0.5530887506304702 
0.35999999999997667, -0.5528537103971036 
0.36999999999997557, -0.5526012110274343 
0.37999999999997447, -0.5523306659980474 
0.38999999999997337, -0.5520422686372578 
0.39999999999997227, -0.5517372736534885 
0.40999999999997117, -0.5514180747303495 
0.41999999999997006, -0.5510880084012554 
0.42999999999996896, -0.5507509302229459 
0.43999999999996786, -0.5504107155579238 
0.44999999999996676, -0.5500708598215189 
0.45999999999996566, -0.5497342819856298 
0.46999999999996456, -0.5494033311133892 
0.47999999999996346, -0.5490799275470686 
0.48999999999996235, -0.5487657601656948 
0.49999999999996125, -0.5484624864763717 
0.5099999999999602, -0.5481719114132246 
0.519999999999959, -0.547896136466974 
0.529999999999958, -0.5476376715943944 
0.5399999999999568, -0.5473994931383753 
0.5499999999999557, -0.5471850166596037 
0.5599999999999546, -0.5469979385371475 
0.5699999999999535, -0.5468418913072366 
0.5799999999999524, -0.5467198679596873 
0.5899999999999513, -0.5466334192646505 
0.5999999999999502, -0.5465817320926138 
0.6099999999999491, -0.5465608435051517 
0.619999999999948, -0.5465633623917248 
0.6299999999999469, -0.5465790290375405 
0.6399999999999458, -0.5465961542107531 
0.6499999999999447, -0.5466035413056073 
0.6599999999999436, -0.5465922048671147 
0.6699999999999425, -0.5465563043007615 
0.6799999999999414, -0.5464931380429199 
0.6899999999999403, -0.5464024604987239 
0.6999999999999392, -0.5462855409605261 
0.7099999999999381, -0.5461442927005467 
0.719999999999937, -0.5459806224133369 
0.7299999999999359, -0.5457960133347458 
0.7399999999999348, -0.5455912951352482 
0.7499999999999337, -0.5453665501310273 
0.7599999999999326, -0.5451211291182357 
0.7699999999999315, -0.5448537807373792 
0.7799999999999304, -0.5445629220604109 
0.7899999999999293, -0.5442470808013792 
0.7999999999999282, -0.5439055041628942 
0.8099999999999271, -0.5435388469908354 
0.819999999999926, -0.5431497460605759 
0.8299999999999249, -0.5427430290321772 
0.8399999999999238, -0.5423253802331509 
0.8499999999999227, -0.5419045004574735 
0.8599999999999216, -0.5414880356096134 
0.8699999999999205, -0.5410826429556783 
0.8799999999999194, -0.540693455812912 
0.8899999999999183, -0.5403239963653151 
0.8999999999999172, -0.5399764180068537 
0.9099999999999161, -0.5396519027958078 
0.919999999999915, -0.5393510721176449 
0.9299999999999139, -0.5390743309879107 
0.9399999999999128, -0.5388221171894422 
0.9499999999999117, -0.5385950527627955 
0.9599999999999106, -0.5383940013424555 
0.9699999999999095, -0.5382200290177852 
0.9799999999999084, -0.5380742564886876 
0.9899999999999073, -0.5379575834447687 
0.9999999999999062, -0.5378702713976605 
1.0099999999999052, -0.5378114005573901 
1.019999999999904, -0.5377782795471637 
1.029999999999903, -0.537765976702836 
1.039999999999902, -0.5377672148038777 
1.0499999999999008, -0.5377728472916696 
1.0599999999998997, -0.5377729503449565 
1.0699999999998986, -0.5377582689843717 
1.0799999999998975, -0.5377215316479232 
1.0899999999998964, -0.5376581828203434 
1.0999999999998953, -0.5375663704268605 
1.1099999999998942, -0.5374463536132347 
1.119999999999893, -0.5372996592838473 
1.129999999999892, -0.5371282766312744 
1.1399999999998909, -0.5369340414803527 
1.1499999999998898, -0.5367182381595388 
1.1599999999998887, -0.536481383116911 
1.1699999999998876, -0.5362231456444952 
1.1799999999998865, -0.535942383649613 
1.1899999999998854, -0.5356373065010624 
1.1999999999998843, -0.5353058072005109 
1.2099999999998832, -0.534946014158661 
1.219999999999882, -0.5345570731171677 
1.229999999999881, -0.5341400613294514 
1.2399999999998799, -0.5336987783309883 
1.2499999999998788, -0.5332400457418629 
1.2599999999998777, -0.5327732221045599 
1.2699999999998766, -0.5323089467619695 
1.2799999999998755, -0.5318575088832629 
1.2899999999998744, -0.531427417868814 
1.2999999999998733, -0.5310246016002504 
1.3099999999998722, -0.5306523205927467 
1.319999999999871, -0.5303116046805916 
1.32999999999987, -0.5300019224553253 
1.3399999999998689, -0.5297218483051409 
1.3499999999998678, -0.5294695997327084 
1.3599999999998666, -0.5292434075793485 
1.3699999999998655, -0.5290417312183276 
1.3799999999998644, -0.5288633464247732 
1.3899999999998633, -0.5287073299127926 
1.3999999999998622, -0.5285729532907577 
1.4099999999998611, -0.5284594885434443 
1.41999999999986, -0.5283659241100518 
1.429999999999859, -0.5282906032545733 
1.4399999999998578, -0.5282308319768791 
1.4499999999998567, -0.5281825597144525 
1.4599999999998556, -0.5281402868397992 
1.4699999999998545, -0.528097346996194 
1.4799999999998534, -0.5280466036236399 
1.4899999999998523, -0.5279814085609636 
1.4999999999998512, -0.5278965086972526 
1.5099999999998501, -0.527788583495769 
1.519999999999849, -0.5276562696399895 
1.529999999999848, -0.5274997561452247 
1.5399999999998468, -0.5273201676336271 
1.5499999999998457, -0.5271189489268149 
1.5599999999998446, -0.5268973770750578 
1.5699999999998435, -0.5266562360412823 
1.5799999999998424, -0.526395636733316 
1.5899999999998413, -0.5261149539228718 
1.5999999999998402, -0.5258128678252211 
1.6099999999998391, -0.5254875270698317 
1.619999999999838, -0.5251368784677177 
1.629999999999837, -0.5247592196407933 
1.6399999999998358, -0.5243539950422889 
1.6499999999998347, -0.5239227450249174 
1.6599999999998336, -0.5234699402444092 
1.6699999999998325, -0.5230032878921209 
1.6799999999998314, -0.5225331528871549 
1.6899999999998303, -0.5220710846190169 
1.6999999999998292, -0.5216279085041242 
1.709999999999828, -0.5212120821456583 
1.719999999999827, -0.5208288391447924 
1.729999999999826, -0.520480215150171 
1.7399999999998248, -0.5201656928289424 
1.7499999999998237, -0.5198830881843596 
1.7599999999998226, -0.5196293836807362 
1.7699999999998215, -0.5194013613098639 
1.7799999999998204, -0.5191960071138019 
1.7899999999998193, -0.5190107206864052 
1.7999999999998182, -0.5188433805652006 
1.809999999999817, -0.5186923096270825 
1.819999999999816, -0.5185561689330099 
1.8299999999998149, -0.5184337927577451 
1.8399999999998138, -0.5183239676243325 
1.8499999999998127, -0.5182251603185015 
1.8599999999998116, -0.5181352207394113 
1.8699999999998105, -0.51805112557752 
1.8799999999998094, -0.5179688711013146 
1.8899999999998083, -0.5178836288407774 
1.8999999999998072, -0.5177902078680726 
1.909999999999806, -0.5176837295055333 
1.919999999999805, -0.5175602932255392 
1.9299999999998039, -0.5174173948434146 
1.9399999999998028, -0.5172539734645784 
1.9499999999998017, -0.5170701304964385 
1.9599999999998006, -0.516866673385327 
1.9699999999997995, -0.5166446453316988 
1.9799999999997984, -0.516404943972823 
1.9899999999997973, -0.5161480641627845 
1.9999999999997962, -0.5158739574109756 
2.0099999999998173, -0.5155819890764521 
2.0199999999998384, -0.5152709853915446 
2.0299999999998595, -0.5149393852767232 
2.0399999999998806, -0.5145855367945564 
2.0499999999999017, -0.5142081901507722 
2.059999999999923, -0.5138072119656917 
2.069999999999944, -0.5133844470207147 
2.079999999999965, -0.5129444827367474 
2.089999999999986, -0.5124949164084275 
2.100000000000007, -0.512045762099125 
2.1100000000000283, -0.5116079740526855 
2.1200000000000494, -0.5111915481813065 
2.1300000000000705, -0.5108039212841724 
2.1400000000000916, -0.5104492022909805 
2.1500000000001127, -0.5101283128971495 
2.160000000000134, -0.5098397386541592 
2.170000000000155, -0.5095804835754035 
2.180000000000176, -0.5093469246308565 
2.190000000000197, -0.5091354278886371 
2.2000000000002182, -0.5089427142695728 
2.2100000000002393, -0.5087660245614405 
2.2200000000002604, -0.5086031467746662 
2.2300000000002815, -0.5084523578064142 
2.2400000000003026, -0.5083123121994733 
2.2500000000003237, -0.5081818920660905 
2.260000000000345, -0.5080600189297176 
2.270000000000366, -0.5079454258865252 
2.280000000000387, -0.507836403922323 
2.290000000000408, -0.5077305714852978 
2.3000000000004293, -0.507624757351823 
2.3100000000004504, -0.5075150981547766 
2.3200000000004715, -0.5073973969441483 
2.3300000000004926, -0.5072676719873508 
2.3400000000005137, -0.5071227129085119 
2.3500000000005348, -0.5069604403963983 
2.360000000000556, -0.5067799589591614 
2.370000000000577, -0.5065813324381078 
2.380000000000598, -0.5063652069246765 
2.390000000000619, -0.5061324167397054 
2.4000000000006403, -0.5058836625720001 
2.4100000000006614, -0.5056192942295901 
2.4200000000006825, -0.5053391938001534 
2.4300000000007036, -0.5050427443386536 
2.4400000000007247, -0.5047288780434867 
2.450000000000746, -0.5043962179409411 
2.460000000000767, -0.504043350274893 
2.470000000000788, -0.5036692777436558 
2.480000000000809, -0.5032740805309154 
2.49000000000083, -0.5028597189859227 
2.5000000000008513, -0.502430744131658 
2.5100000000008724, -0.5019945262708492 
2.5200000000008935, -0.5015606474857648 
2.5300000000009146, -0.50113944474093 
2.5400000000009357, -0.5007401723346618 
2.550000000000957, -0.5003694962178455 
2.560000000000978, -0.5000308282294481 
2.570000000000999, -0.4997245453272054 
2.58000000000102, -0.49944877575366997 
2.5900000000010412, -0.4992003465557957 
2.6000000000010624, -0.49897560371674193 
2.6100000000010835, -0.4987709839600595 
2.6200000000011046, -0.49858333893396417 
2.6300000000011257, -0.4984100680303161 
2.6400000000011468, -0.49824912478149674 
2.650000000001168, -0.4980989478660174 
2.660000000001189, -0.4979583471636981 
2.67000000000121, -0.4978263558931742 
2.680000000001231, -0.4977020463031381 
2.6900000000012523, -0.49758430447394514 
2.7000000000012734, -0.4974715767071232 
2.7100000000012945, -0.4973616374711776 
2.7200000000013156, -0.4972514712124929 
2.7300000000013367, -0.4971373704183617 
2.740000000001358, -0.49701529380100984 
2.750000000001379, -0.4968814091738415 
2.7600000000014, -0.4967326362126399 
2.770000000001421, -0.4965669894763196 
2.780000000001442, -0.4963836188867094 
2.7900000000014633, -0.4961825827219351 
2.8000000000014844, -0.49596447730917276 
2.8100000000015055, -0.49573005432980966 
2.8200000000015266, -0.49547990955017324 
2.8300000000015477, -0.4952142722141833 
2.840000000001569, -0.49493289032223053 
2.85000000000159, -0.4946349985517033 
2.860000000001611, -0.4943193662785757 
2.870000000001632, -0.49398444503847483 
2.8800000000016532, -0.49362865917382714 
2.8900000000016743, -0.4932508946877194 
2.9000000000016954, -0.4928512098666684 
2.9100000000017165, -0.49243168220537104 
2.9200000000017377, -0.49199712391871947 
2.9300000000017588, -0.49155524953407753 
2.94000000000178, -0.49111595488984383 
2.950000000001801, -0.49068975521350505 
2.960000000001822, -0.49028591600560806 
2.970000000001843, -0.48991100216653044 
2.9800000000018643, -0.4895683079570465 
2.9900000000018854, -0.48925815450866955 
3.0000000000019065, -0.48897870812719885 
3.0100000000019276, -0.4887269198241927 
3.0200000000019487, -0.4884993186054542 
3.03000000000197, -0.4882925559444623 
3.040000000001991, -0.488103710986342 
3.050000000002012, -0.4879304134897281 
3.060000000002033, -0.48777084572290114 
3.070000000002054, -0.48762366885682074 
3.0800000000020753, -0.4874878985266763 
3.0900000000020964, -0.48736273564139776 
3.1000000000021175, -0.48724734749907467 
3.1100000000021386, -0.4871405976638923 
3.1200000000021597, -0.48704074812463877 
3.130000000002181, -0.48694520289714827 
3.140000000002202, -0.4868504064052683 
3.150000000002223, -0.4867520090455364 
3.160000000002244, -0.48664533060745957 
3.1700000000022652, -0.4865260101790727 
3.1800000000022863, -0.4863906172909226 
3.1900000000023074, -0.4862370039018019 
3.2000000000023285, -0.4860643032320791 
3.2100000000023496, -0.4858726375921528 
3.2200000000023707, -0.48566268519833516 
3.230000000002392, -0.48543524988405695 
3.240000000002413, -0.48519091834272554 
3.250000000002434, -0.4849298294493751 
3.260000000002455, -0.4846515468849085 
3.2700000000024763, -0.48435502206553116 
3.2800000000024974, -0.4840386507531961 
3.2900000000025185, -0.4837004537988442 
3.3000000000025396, -0.4833384381479851 
3.3100000000025607, -0.4829511967539126 
3.3200000000025818, -0.4825387502533875 
3.330000000002603, -0.4821034899059172 
3.340000000002624, -0.481650882575538 
3.350000000002645, -0.4811894886409357 
3.360000000002666, -0.4807300113940217 
3.3700000000026873, -0.48028355507807374 
3.3800000000027084, -0.47985972317843 
3.3900000000027295, -0.4794652691545712 
3.4000000000027506, -0.47910366651092956 
3.4100000000027717, -0.47877549809365866 
3.420000000002793, -0.47847929332258377 
3.430000000002814, -0.4782124385653822 
3.440000000002835, -0.47797192924791265 
3.450000000002856, -0.4777548842673872 
3.460000000002877, -0.4775588384428713 
3.4700000000028983, -0.4773818649863915 
3.4800000000029194, -0.4772225792764212 
3.4900000000029405, -0.4770800583672047 
3.5000000000029616, -0.47695369049411546 
3.5100000000029827, -0.4768429528489494 
3.520000000003004, -0.47674711105910267 
3.530000000003025, -0.4766648489033051 
3.540000000003046, -0.4765938786144635 
3.550000000003067, -0.47653064327795064 
3.5600000000030882, -0.4764702682232788 
3.5700000000031094, -0.4764068912415647 
3.5800000000031305, -0.4763343685011974 
3.5900000000031516, -0.4762471628526563 
3.6000000000031727, -0.47614110095701256 
3.6100000000031938, -0.47601373713342954 
3.620000000003215, -0.4758642541635222 
3.630000000003236, -0.47569302581814743 
3.640000000003257, -0.4755010484992245 
3.650000000003278, -0.4752894140715612 
3.6600000000032993, -0.47505891007535206 
3.6700000000033204, -0.4748097614502699 
3.6800000000033415, -0.4745414952193827 
3.6900000000033626, -0.47425291212462756 
3.7000000000033837, -0.47394217314823794 
3.710000000003405, -0.47360704002743026 
3.720000000003426, -0.47324532988097945 
3.730000000003447, -0.47285562751155 
3.740000000003468, -0.4724382112271289 
3.750000000003489, -0.4719959811396315 
3.7600000000035103, -0.4715350050720475 
3.7700000000035314, -0.4710642795165289 
3.7800000000035525, -0.4705945723621481 
3.7900000000035736, -0.47013667347493965 
3.8000000000035947, -0.46969970227673075 
3.810000000003616, -0.46929005339779317 
3.820000000003637, -0.46891118399764087 
3.830000000003658, -0.4685640652687968 
3.840000000003679, -0.46824795324458657 
3.8500000000037002, -0.4679611773591314 
3.8600000000037213, -0.4677017781314706 
3.8700000000037424, -0.46746794460510116 
3.8800000000037635, -0.46725826926613384 
3.8900000000037847, -0.4670718589108106 
3.9000000000038058, -0.46690833341906013 
3.910000000003827, -0.4667677266428759 
3.920000000003848, -0.46665028502301953 
3.930000000003869, -0.46655614844513715 
3.94000000000389, -0.466484904604644 
3.9500000000039113, -0.46643504520878026 
3.9600000000039324, -0.4664034253521786 
3.9700000000039535, -0.46638491618443495 
3.9800000000039746, -0.4663724840526699 
3.9900000000039957, -0.46635784527456414 
4.000000000004016, -0.4663326117323397 
4.010000000003993, -0.4662895712321665 
4.02000000000397, -0.46622363883730633 
4.030000000003946, -0.4661321750131447 
4.040000000003923, -0.4660146782807225 
4.0500000000039, -0.4658721009184356 
4.0600000000038765, -0.4657060853806243 
4.070000000003853, -0.46551832297757745 
4.08000000000383, -0.46531010857205607 
4.090000000003807, -0.4650820805847948 
4.100000000003783, -0.4648341084793932 
4.11000000000376, -0.4645653023167539 
4.120000000003737, -0.46427414880993184 
4.130000000003713, -0.4639588069594893 
4.14000000000369, -0.4636176040802137 
4.150000000003667, -0.4632497355532134 
4.1600000000036434, -0.46285607181136823 
4.17000000000362, -0.4624398366165085 
4.180000000003597, -0.46200683265518094 
4.1900000000035735, -0.4615649757008244 
4.20000000000355, -0.4611231843074103 
4.210000000003527, -0.4606899984696005 
4.220000000003504, -0.4602724270990768 
4.23000000000348, -0.45987536331482104 
4.240000000003457, -0.45950160478577357 
4.250000000003434, -0.45915228786822365 
4.26000000000341, -0.45882748374083154 
4.270000000003387, -0.4585267676514257 
4.280000000003364, -0.4582496694441887 
4.2900000000033405, -0.4579959863088554 
4.300000000003317, -0.4577659723579777 
4.310000000003294, -0.4575604230236546 
4.320000000003271, -0.4573806587771564 
4.330000000003247, -0.45722839276650695 
4.340000000003224, -0.4571054492338106 
4.350000000003201, -0.4570132952644421 
4.360000000003177, -0.4569523746949199 
4.370000000003154, -0.45692130873947184 
4.380000000003131, -0.4569161544116075 
4.390000000003107, -0.4569300401907038 
4.400000000003084, -0.4569535151280256 
4.410000000003061, -0.45697573812380393 
4.4200000000030375, -0.45698622906343767 
4.430000000003014, -0.4569765556825793 
4.440000000002991, -0.4569413340293429 
4.450000000002968, -0.4568782973279493 
4.460000000002944, -0.45678763907296693 
4.470000000002921, -0.4566710546273092 
4.480000000002898, -0.45653084412989103 
4.490000000002874, -0.4563692533061521 
4.500000000002851, -0.45618807199587835 
4.510000000002828, -0.45598843742991113 
4.520000000002804, -0.45577078284807726 
4.530000000002781, -0.4555348969102499 
4.540000000002758, -0.4552800894391901 
4.5500000000027345, -0.4550054777995999 
4.560000000002711, -0.4547104020253303 
4.570000000002688, -0.4543949346984797 
4.580000000002665, -0.45406037743077976 
4.590000000002641, -0.45370956609382995 
4.600000000002618, -0.453346808015738 
4.610000000002595, -0.4529773929801556 
4.620000000002571, -0.45260681501822153 
4.630000000002548, -0.4522399863361556 
4.640000000002525, -0.4518807116045302 
4.6500000000025015, -0.4515315384665965 
4.660000000002478, -0.45119392725154894 
4.670000000002455, -0.45086859243739974 
4.6800000000024315, -0.45055587604103026 
4.690000000002408, -0.450256071193554 
4.700000000002385, -0.44996967092021195 
4.710000000002362, -0.44969754822476127 
4.720000000002338, -0.4494410788317308 
4.730000000002315, -0.44920220632368874 
4.740000000002292, -0.44898342914492273 
4.750000000002268, -0.44878766626309946 
4.760000000002245, -0.4486179416154618 
4.770000000002222, -0.4484768330007246 
4.7800000000021985, -0.4483656840528785 
4.790000000002175, -0.44828369964687453 
4.800000000002152, -0.4482272164934081 
4.810000000002129, -0.44818955930230153 
4.820000000002105, -0.4481617929223658 
4.830000000002082, -0.44813428716579545 
4.840000000002059, -0.4480985260150052 
4.850000000002035, -0.44804841634392745 
4.860000000002012, -0.44798066919873014 
4.870000000001989, -0.4478943638298124 
4.880000000001965, -0.44779012971183096 
4.890000000001942, -0.44766935302838295 
