t, s[1].omega / s[0].omega 
0, -0.6299977165553658 
0.009999999999999995, -0.6297628498425464 
0.019999999999999934, -0.62951524886391 
0.029999999999999874, -0.6292554638006334 
0.04000000000000012, -0.6289844601712395 
0.050000000000000405, -0.6287036532499694 
0.06000000000000069, -0.6284149004226001 
0.07000000000000098, -0.6281204666944415 
0.08000000000000126, -0.6278230047829398 
0.09000000000000155, -0.6275255882538124 
0.10000000000000184, -0.6272318122405183 
0.11000000000000212, -0.6269459457374598 
0.12000000000000241, -0.6266730896448984 
0.130000000000002, -0.6264192657897629 
0.1400000000000009, -0.6261913338737595 
0.1499999999999998, -0.6259966132003748 
0.1599999999999987, -0.6258420953841752 
0.1699999999999976, -0.6257332082973874 
0.1799999999999965, -0.6256722635024088 
0.1899999999999954, -0.62565697691127 
0.1999999999999943, -0.6256796792297006 
0.2099999999999932, -0.625727809882467 
0.2199999999999921, -0.6257858506754481 
0.229999999999991, -0.62583814725307 
0.2399999999999899, -0.6258715699423762 
0.2499999999999888, -0.625877091464629 
0.2599999999999877, -0.6258499963201315 
0.2699999999999866, -0.6257890695777775 
0.2799999999999855, -0.6256953584996302 
0.2899999999999844, -0.6255709807214328 
0.2999999999999833, -0.6254182048227153 
0.3099999999999822, -0.6252388358191509 
0.3199999999999811, -0.6250338489248104 
0.32999999999998, -0.6248032037013578 
0.3399999999999789, -0.6245457995337812 
0.3499999999999778, -0.6242595769335958 
0.35999999999997667, -0.6239418116361655 
0.36999999999997557, -0.623589671637842 
0.37999999999997447, -0.6232010823168983 
0.38999999999997337, -0.6227758398578603 
0.39999999999997227, -0.622316729916732 
0.40999999999997117, -0.6218302317464168 
0.41999999999997006, -0.6213263812893433 
0.42999999999996896, -0.6208176434523061 
0.43999999999996786, -0.6203170969103383 
0.44999999999996676, -0.6198365587982164 
0.45999999999996566, -0.61938524127445 
0.46999999999996456, -0.6189692034059651 
0.47999999999996346, -0.6185915039059962 
0.48999999999996235, -0.6182527723450458 
0.49999999999996125, -0.6179519156601015 
0.5099999999999602, -0.6176867716420612 
0.519999999999959, -0.61745462276943 
0.529999999999958, -0.617252551947757 
0.5399999999999568, -0.6170776542672032 
0.5499999999999557, -0.6169271282020518 
0.5599999999999546, -0.6167982680150298 
0.5699999999999535, -0.6166883744566989 
0.5799999999999524, -0.6165945981370883 
0.5899999999999513, -0.6165137338309086 
0.5999999999999502, -0.6164419997071742 
0.6099999999999491, -0.6163748650203966 
0.619999999999948, -0.6163070222094977 
0.6299999999999469, -0.6162326034946997 
0.6399999999999458, -0.6161456805149862 
0.6499999999999447, -0.6160409569068467 
0.6599999999999436, -0.61591443609228 
0.6699999999999425, -0.6157638211545408 
0.6799999999999414, -0.6155885179553734 
0.6899999999999403, -0.6153892913471453 
0.6999999999999392, -0.6151677486184115 
0.7099999999999381, -0.6149258379851782 
0.719999999999937, -0.6146654849241779 
0.7299999999999359, -0.6143884096680975 
0.7399999999999348, -0.6140961158157409 
0.7499999999999337, -0.613790017709148 
0.7599999999999326, -0.6134716686537841 
0.7699999999999315, -0.6131430470583163 
0.7799999999999304, -0.6128068444533298 
0.7899999999999293, -0.6124666808421271 
0.7999999999999282, -0.6121271637383654 
0.8099999999999271, -0.611793727000737 
0.819999999999926, -0.6114722383781344 
0.8299999999999249, -0.6111684225370597 
0.8399999999999238, -0.61088717255843 
0.8499999999999227, -0.6106318317732548 
0.8599999999999216, -0.6104035787268787 
0.8699999999999205, -0.6102011256357052 
0.8799999999999194, -0.6100209138200017 
0.8899999999999183, -0.6098577926749387 
0.8999999999999172, -0.6097059388208904 
0.9099999999999161, -0.6095596956527263 
0.919999999999915, -0.6094141177543235 
0.9299999999999139, -0.6092651734620251 
0.9399999999999128, -0.6091096803963584 
0.9499999999999117, -0.608945091639045 
0.9599999999999106, -0.6087692401127566 
0.9699999999999095, -0.6085801212830735 
0.9799999999999084, -0.6083757704369533 
0.9899999999999073, -0.6081542735510457 
0.9999999999999062, -0.6079139308749573 
1.0099999999999052, -0.6076535567661925 
1.019999999999904, -0.6073728439125711 
1.029999999999903, -0.6070726640499085 
1.039999999999902, -0.6067551637926037 
1.0499999999999008, -0.6064235796420372 
1.0599999999998997, -0.6060818227365566 
1.0699999999998986, -0.6057339921860865 
1.0799999999998975, -0.6053839899001987 
1.0899999999998964, -0.6050353303877778 
1.0999999999998953, -0.6046911369908953 
1.1099999999998942, -0.6043542581583952 
1.119999999999893, -0.6040274353542358 
1.129999999999892, -0.6037134790108067 
1.1399999999998909, -0.6034154305974224 
1.1499999999998898, -0.6031366959462756 
1.1599999999998887, -0.6028811299533728 
1.1699999999998876, -0.6026530415478495 
1.1799999999998865, -0.6024570748602389 
1.1899999999998854, -0.6022979120096944 
1.1999999999998843, -0.6021797426357147 
1.2099999999998832, -0.6021054700917389 
1.219999999999882, -0.6020756951140005 
1.229999999999881, -0.6020876489697307 
1.2399999999998799, -0.6021344159296074 
1.2499999999998788, -0.6022048932045523 
1.2599999999998777, -0.6022848325523065 
1.2699999999998766, -0.6023589080657478 
1.2799999999998755, -0.6024132165976541 
1.2899999999998744, -0.6024373208299133 
1.2999999999998733, -0.6024251624639749 
1.3099999999998722, -0.6023747551466535 
1.319999999999871, -0.6022870772793248 
1.32999999999987, -0.6021647336925733 
1.3399999999998689, -0.6020107951420248 
1.3499999999998678, -0.6018279770262113 
1.3599999999998666, -0.6016181432198624 
1.3699999999998655, -0.6013820527917587 
1.3799999999998644, -0.6011192743013114 
1.3899999999998633, -0.6008282347183235 
1.3999999999998622, -0.6005064226006634 
1.4099999999998611, -0.6001508116408354 
1.41999999999986, -0.5997585891920109 
1.429999999999859, -0.5993282285297087 
1.4399999999998578, -0.598860796008905 
1.4499999999998567, -0.5983611481257054 
1.4599999999998556, -0.5978384768569571 
1.4699999999998545, -0.5973057227684755 
1.4799999999998534, -0.5967778061783162 
1.4899999999998523, -0.5962692183458194 
1.4999999999998512, -0.5957918373933522 
1.5099999999998501, -0.5953536489926057 
1.519999999999849, -0.5949585470907125 
1.529999999999848, -0.5946069469346085 
1.5399999999998468, -0.5942967768340325 
1.5499999999998457, -0.5940244861652335 
1.5599999999998446, -0.5937858672649845 
1.5699999999998435, -0.5935766275707085 
1.5799999999998424, -0.5933927290230006 
1.5899999999998413, -0.5932305431065072 
1.5999999999998402, -0.5930868726471588 
1.6099999999998391, -0.5929588818879696 
1.619999999999838, -0.5928439635990849 
1.629999999999837, -0.592739561154014 
1.6399999999998358, -0.5926429595958813 
1.6499999999998347, -0.5925510690917652 
1.6599999999998336, -0.5924602502687726 
1.6699999999998325, -0.5923662633712443 
1.6799999999998314, -0.5922644303444661 
1.6899999999998303, -0.5921500439552733 
1.6999999999998292, -0.5920189419375282 
1.709999999999828, -0.591868053786885 
1.719999999999827, -0.5916957136480803 
1.729999999999826, -0.5915016391930796 
1.7399999999998248, -0.5912866295673614 
1.7499999999998237, -0.5910521340780333 
1.7599999999998226, -0.5907998472263845 
1.7699999999998215, -0.5905314276090408 
1.7799999999998204, -0.5902483719972849 
1.7899999999998193, -0.5899520325068256 
1.7999999999998182, -0.5896437459680153 
1.809999999999817, -0.5893250379441235 
1.819999999999816, -0.588997857209322 
1.8299999999998149, -0.5886647858947895 
1.8399999999998138, -0.5883291629055349 
1.8499999999998127, -0.5879950686043729 
1.8599999999998116, -0.5876671561334964 
1.8699999999998105, -0.5873503600246213 
1.8799999999998094, -0.5870495198435468 
1.8899999999998083, -0.5867689117492574 
1.8999999999998072, -0.5865116647545616 
1.909999999999806, -0.5862791470517917 
1.919999999999805, -0.5860705692402758 
1.9299999999998039, -0.5858830531083259 
1.9399999999998028, -0.5857121909574938 
1.9499999999998017, -0.5855528640782329 
1.9599999999998006, -0.5854000087008887 
1.9699999999997995, -0.5852491228214234 
1.9799999999997984, -0.5850964689020113 
1.9899999999997973, -0.5849390391126981 
1.9999999999997962, -0.5847743879985826 
2.0099999999998173, -0.5846004287693141 
2.0199999999998384, -0.5844152655840651 
2.0299999999998595, -0.5842171120703649 
2.0399999999998806, -0.5840043268522298 
2.0499999999999017, -0.5837755716615474 
2.059999999999923, -0.5835300585176147 
2.069999999999944, -0.5832678040488192 
2.079999999999965, -0.5829897771736189 
2.089999999999986, -0.5826978474555783 
2.100000000000007, -0.5823945266386976 
2.1100000000000283, -0.5820826011947593 
2.1200000000000494, -0.5817648041616809 
2.1300000000000705, -0.5814436340838747 
2.1400000000000916, -0.5811213374709108 
2.1500000000001127, -0.5808000013829882 
2.160000000000134, -0.5804816904580805 
2.170000000000155, -0.5801685899919738 
2.180000000000176, -0.5798631468580148 
2.190000000000197, -0.5795682120906303 
2.2000000000002182, -0.5792871825097048 
2.2100000000002393, -0.5790241216658231 
2.2200000000002604, -0.5787838186098248 
2.2300000000002815, -0.5785717194590967 
2.2400000000003026, -0.5783936458273214 
2.2500000000003237, -0.5782552079515396 
2.260000000000345, -0.578160853094414 
2.270000000000366, -0.5781125942695046 
2.280000000000387, -0.5781086573319858 
2.290000000000408, -0.5781425162924283 
2.3000000000004293, -0.5782028990236958 
2.3100000000004504, -0.5782751307220182 
2.3200000000004715, -0.5783435995242117 
2.3300000000004926, -0.5783944961179726 
2.3400000000005137, -0.5784177989227478 
2.3500000000005348, -0.5784079245230298 
2.360000000000556, -0.5783631667836451 
2.370000000000577, -0.578284488650333 
2.380000000000598, -0.5781742362286031 
2.390000000000619, -0.5780351034775332 
2.4000000000006403, -0.577869432849477 
2.4100000000006614, -0.5776788030262914 
2.4200000000006825, -0.5774638215046242 
2.4300000000007036, -0.5772240621414693 
2.4400000000007247, -0.5769581306831605 
2.450000000000746, -0.576663885140701 
2.460000000000767, -0.5763388672263756 
2.470000000000788, -0.5759809936547747 
2.480000000000809, -0.5755894841031882 
2.49000000000083, -0.5751658576668507 
2.5000000000008513, -0.5747146665699375 
2.5100000000008724, -0.5742435858470626 
2.5200000000008935, -0.573762661531511 
2.5300000000009146, -0.5732828938449044 
2.5400000000009357, -0.5728146547732276 
2.550000000000957, -0.5723664754086302 
2.560000000000978, -0.5719444885388963 
2.570000000000999, -0.5715524895337434 
2.58000000000102, -0.5711923845181327 
2.5900000000010412, -0.5708647734033925 
2.6000000000010624, -0.5705694938137961 
2.6100000000010835, -0.5703060447483301 
2.6200000000011046, -0.5700738721051454 
2.6300000000011257, -0.5698725264784806 
2.6400000000011468, -0.5697017078028057 
2.650000000001168, -0.5695612036613201 
2.660000000001189, -0.5694507175054335 
2.67000000000121, -0.5693695773058552 
2.680000000001231, -0.5693163235126515 
2.6900000000012523, -0.5692882089818354 
2.7000000000012734, -0.56928070950915 
2.7100000000012945, -0.5692872272688654 
2.7200000000013156, -0.5692992173302118 
2.7300000000013367, -0.5693068988514689 
2.740000000001358, -0.5693004889289693 
2.750000000001379, -0.5692716093923746 
2.7600000000014, -0.5692143688880351 
2.770000000001421, -0.569125755691289 
2.780000000001442, -0.5690053077875222 
2.7900000000014633, -0.5688543181241351 
2.8000000000014844, -0.5686749204833933 
2.8100000000015055, -0.5684693079918961 
2.8200000000015266, -0.5682391861286514 
2.8300000000015477, -0.5679854523814787 
2.840000000001569, -0.5677080520181805 
2.85000000000159, -0.5674059671531348 
2.860000000001611, -0.567077330144858 
2.870000000001632, -0.5667196949623354 
2.8800000000016532, -0.5663305368860477 
2.8900000000016743, -0.56590805767259 
2.9000000000016954, -0.5654523085871405 
2.9100000000017165, -0.5649664665795178 
2.9200000000017377, -0.564457834841235 
2.9300000000017588, -0.5639379582736781 
2.94000000000178, -0.5634214113928409 
2.950000000001801, -0.5629234123149627 
2.960000000001822, -0.5624570932061499 
2.970000000001843, -0.5620314673511679 
2.9800000000018643, -0.5616507042450543 
2.9900000000018854, -0.5613146389976443 
3.0000000000019065, -0.5610199939799203 
3.0100000000019276, -0.5607617424551302 
3.0200000000019487, -0.5605342431363664 
3.03000000000197, -0.5603320085951692 
3.040000000001991, -0.560150126664417 
3.050000000002012, -0.5599844206463094 
3.060000000002033, -0.5598314423716436 
3.070000000002054, -0.5596883740266936 
3.0800000000020753, -0.5595528893522339 
3.0900000000020964, -0.5594230003794172 
3.1000000000021175, -0.5592968956632911 
3.1100000000021386, -0.5591727647460069 
3.1200000000021597, -0.5590486095539889 
3.130000000002181, -0.5589220721199142 
3.140000000002202, -0.5587903481169718 
3.150000000002223, -0.5586502716051304 
3.160000000002244, -0.5584986096207712 
3.1700000000022652, -0.5583325004951367 
3.1800000000022863, -0.5581498746521257 
3.1900000000023074, -0.5579496903606346 
3.2000000000023285, -0.5577319105576805 
3.2100000000023496, -0.5574972702301262 
3.2200000000023707, -0.5572469560385178 
3.230000000002392, -0.5569823166430484 
3.240000000002413, -0.5567046742695336 
3.250000000002434, -0.5564152568695302 
3.260000000002455, -0.5561152368721465 
3.2700000000024763, -0.5558058465223105 
3.2800000000024974, -0.5554885319544601 
3.2900000000025185, -0.5551651020327993 
3.3000000000025396, -0.5548378259162812 
3.3100000000025607, -0.5545094463024152 
3.3200000000025818, -0.5541831129163591 
3.330000000002603, -0.5538622883262484 
3.340000000002624, -0.5535506817961292 
3.350000000002645, -0.5532521770863051 
3.360000000002666, -0.5529705953846987 
3.3700000000026873, -0.5527091543176388 
3.3800000000027084, -0.5524697300890841 
3.3900000000027295, -0.552252286961268 
3.4000000000027506, -0.5520548091428357 
3.4100000000027717, -0.5518737661005263 
3.420000000002793, -0.5517048559907891 
3.430000000002814, -0.551543710808059 
3.440000000002835, -0.5513863693857746 
3.450000000002856, -0.5512294819341116 
3.460000000002877, -0.5510703085984782 
3.4700000000028983, -0.5509066048331848 
3.4800000000029194, -0.5507364769752253 
3.4900000000029405, -0.5505582695097045 
3.5000000000029616, -0.5503705232701972 
3.5100000000029827, -0.5501720205686387 
3.520000000003004, -0.5499619035552014 
3.530000000003025, -0.5497398159296997 
3.540000000003046, -0.5495059897640366 
3.550000000003067, -0.549261205096814 
3.5600000000030882, -0.5490066063783574 
3.5700000000031094, -0.5487434436138526 
3.5800000000031305, -0.5484728571711865 
3.5900000000031516, -0.5481957981811976 
3.6000000000031727, -0.5479130910010037 
3.6100000000031938, -0.5476255698736392 
3.620000000003215, -0.5473342096616823 
3.630000000003236, -0.5470402114614891 
3.640000000003257, -0.5467450532575018 
3.650000000003278, -0.5464505399788673 
3.6600000000032993, -0.5461588824775094 
3.6700000000033204, -0.545872813793848 
3.6800000000033415, -0.5455957249077982 
3.6900000000033626, -0.5453317743775022 
3.7000000000033837, -0.5450858963658607 
3.710000000003405, -0.5448636034597211 
3.720000000003426, -0.544670471346038 
3.730000000003447, -0.5445112362579099 
3.740000000003468, -0.5443885734456396 
3.750000000003489, -0.5443018577953758 
3.7600000000035103, -0.5442464322046301 
3.7700000000035314, -0.5442139064675502 
3.7800000000035525, -0.5441936126542325 
3.7900000000035736, -0.5441747129146032 
3.8000000000035947, -0.5441480798115002 
3.810000000003616, -0.5441072850763033 
3.820000000003637, -0.5440486190257723 
3.830000000003658, -0.5439705083328946 
3.840000000003679, -0.5438727649316935 
3.8500000000037002, -0.5437559267442973 
3.8600000000037213, -0.5436207686769966 
3.8700000000037424, -0.5434679675912657 
3.8800000000037635, -0.5432978835290082 
3.8900000000037847, -0.5431104312925994 
3.9000000000038058, -0.5429050368436996 
3.910000000003827, -0.5426806921454087 
3.920000000003848, -0.5424361339563881 
3.930000000003869, -0.5421701669856083 
3.94000000000389, -0.5418821173007936 
3.9500000000039113, -0.5415723344733803 
3.9600000000039324, -0.5412425851130581 
3.9700000000039535, -0.5408961544934396 
3.9800000000039746, -0.5405375531033092 
3.9900000000039957, -0.5401718977170497 
4.000000000004016, -0.5398041962440516 
4.010000000003993, -0.539438795847182 
4.02000000000397, -0.5390791405783295 
4.030000000003946, -0.5387278251618365 
4.040000000003923, -0.5383868322669267 
4.0500000000039, -0.5380578322620816 
4.0600000000038765, -0.5377424690012212 
4.070000000003853, -0.537442602794112 
4.08000000000383, -0.5371605071232934 
4.090000000003807, -0.5368990178776655 
4.100000000003783, -0.5366616210244564 
4.11000000000376, -0.5364524439081705 
4.120000000003737, -0.5362760918712579 
4.130000000003713, -0.5361372532219935 
4.14000000000369, -0.536039998000325 
4.150000000003667, -0.5359867477162743 
4.1600000000036434, -0.5359770251073225 
4.17000000000362, -0.5360063037667789 
4.180000000003597, -0.5360654784196963 
4.1900000000035735, -0.5361414746681397 
4.20000000000355, -0.5362191394763289 
4.210000000003527, -0.5362838978705995 
4.220000000003504, -0.5363241758059909 
4.23000000000348, -0.5363327058370759 
4.240000000003457, -0.5363064751033676 
4.250000000003434, -0.5362457178808285 
4.26000000000341, -0.5361525840340116 
4.270000000003387, -0.5360299555899869 
4.280000000003364, -0.5358806039982412 
4.2900000000033405, -0.535706680490845 
4.300000000003317, -0.5355094544030934 
4.310000000003294, -0.5352892187413757 
4.320000000003271, -0.5350453212150994 
4.330000000003247, -0.534776323689651 
4.340000000003224, -0.534480327173918 
4.350000000003201, -0.5341555059534068 
4.360000000003177, -0.5338008510546747 
4.370000000003154, -0.5334170167953498 
4.380000000003131, -0.5330070248473247 
4.390000000003107, -0.5325765041837301 
4.400000000003084, -0.532133246841968 
4.410000000003061, -0.5316861466593109 
4.4200000000030375, -0.5312438921333058 
4.430000000003014, -0.5308138828740762 
4.440000000002991, -0.5304016725248728 
4.450000000002968, -0.5300109608794549 
4.460000000002944, -0.5296439578368564 
4.470000000002921, -0.5293018957331912 
4.480000000002898, -0.5289855259773424 
4.490000000002874, -0.5286955199744752 
4.500000000002851, -0.5284327542044374 
4.510000000002828, -0.528198484919014 
4.520000000002804, -0.5279944182242429 
4.530000000002781, -0.5278226679549051 
4.540000000002758, -0.5276855756209459 
4.5500000000027345, -0.5275853520975822 
4.560000000002711, -0.5275235021069943 
4.570000000002688, -0.5275000294456802 
4.580000000002665, -0.5275125141447191 
4.590000000002641, -0.5275553011789686 
4.600000000002618, -0.5276191830331515 
4.610000000002595, -0.5276919605767658 
4.620000000002571, -0.5277599986655119 
4.630000000002548, -0.5278104036041656 
4.640000000002525, -0.5278330491135128 
4.6500000000025015, -0.5278217110621519 
4.660000000002478, -0.5277740459091623 
4.670000000002455, -0.527690693005878 
4.6800000000024315, -0.5275740320757958 
4.690000000002408, -0.5274270387006237 
4.700000000002385, -0.527252446438222 
4.710000000002362, -0.5270522310136436 
4.720000000002338, -0.5268273443318164 
4.730000000002315, -0.5265776219561146 
4.740000000002292, -0.5263018257082119 
4.750000000002268, -0.525997833395569 
4.760000000002245, -0.5256630306975008 
4.770000000002222, -0.5252949731111345 
4.7800000000021985, -0.5248923355505626 
4.790000000002175, -0.5244560271205244 
4.800000000002152, -0.5239901476379865 
4.810000000002129, -0.5235023302361389 
4.820000000002105, -0.5230031289152841 
4.830000000002082, -0.5225045121711797 
4.840000000002059, -0.5220179815722131 
4.850000000002035, -0.5215530031847683 
4.860000000002012, -0.5211162070076201 
4.870000000001989, -0.5207113932615697 
4.880000000001965, -0.5203400816152914 
4.890000000001942, -0.5200022679741912 
4.900000000001919, -0.5196971424749524 
4.9100000000018955, -0.5194236505717983 
4.920000000001872, -0.5191808730765265 
