t, s[1].omega / s[0].omega 
0, -0.15999781400074892 
0.009999999999999995, -0.1597854916333172 
0.019999999999999934, -0.15958448627507893 
0.029999999999999874, -0.1593917584533234 
0.04000000000000012, -0.15920307909221598 
0.050000000000000405, -0.15901392139628717 
0.06000000000000069, -0.15882019657836405 
0.07000000000000098, -0.158618640555312 
0.08000000000000126, -0.1584068348239441 
0.09000000000000155, -0.1581829731481049 
0.10000000000000184, -0.15794552396756784 
0.11000000000000212, -0.15769291262625368 
0.12000000000000241, -0.1574233076926997 
0.130000000000002, -0.15713457470138215 
0.1400000000000009, -0.1568244609046371 
0.1499999999999998, -0.15649107065899254 
0.1599999999999987, -0.15613363788561238 
0.1699999999999976, -0.15575345998295625 
0.1799999999999965, -0.1553546501963041 
0.1899999999999954, -0.15494423595505136 
0.1999999999999943, -0.1545312825299941 
0.2099999999999932, -0.15412519038510603 
0.2199999999999921, -0.15373380562073263 
0.229999999999991, -0.1533620924523437 
0.2399999999999899, -0.1530117637233966 
0.2499999999999888, -0.1526817636907542 
0.2599999999999877, -0.1523691946327594 
0.2699999999999866, -0.15207026648648067 
0.2799999999999855, -0.15178100685055865 
0.2899999999999844, -0.15149764745085756 
0.2999999999999833, -0.15121672139103737 
0.3099999999999822, -0.15093495125644468 
0.3199999999999811, -0.15064900584300076 
0.32999999999998, -0.1503551863915087 
0.3399999999999789, -0.1500491011175047 
0.3499999999999778, -0.14972542150285537 
0.35999999999997667, -0.1493778938557257 
0.36999999999997557, -0.14899987644132978 
0.37999999999997447, -0.14858567870732334 
0.38999999999997337, -0.14813270900304085 
0.39999999999997227, -0.14764379814374334 
0.40999999999997117, -0.14712839856209659 
0.41999999999997006, -0.1466014571485253 
0.42999999999996896, -0.14608002215949126 
0.43999999999996786, -0.14557916795217174 
0.44999999999996676, -0.1451091622393125 
0.45999999999996566, -0.14467474614484052 
0.46999999999996456, -0.14427609891429577 
0.47999999999996346, -0.1439105050772767 
0.48999999999996235, -0.14357393053413064 
0.49999999999996125, -0.14326214846443813 
0.5099999999999602, -0.14297138149321462 
0.519999999999959, -0.1426985656855827 
0.529999999999958, -0.14244135316488488 
0.5399999999999568, -0.14219792473971787 
0.5499999999999557, -0.14196662707729682 
0.5599999999999546, -0.14174540818371947 
0.5699999999999535, -0.14153103144978277 
0.5799999999999524, -0.14131815234686784 
0.5899999999999513, -0.14109859298308708 
0.5999999999999502, -0.14086149863594405 
0.6099999999999491, -0.14059518926717238 
0.619999999999948, -0.14029086840861146 
0.6299999999999469, -0.13994679337957816 
0.6399999999999458, -0.13957026752237303 
0.6499999999999447, -0.13917571230192172 
0.6599999999999436, -0.1387798615947105 
0.6699999999999425, -0.13839701644378458 
0.6799999999999414, -0.13803656946061893 
0.6899999999999403, -0.13770298809986467 
0.6999999999999392, -0.13739718361867045 
0.7099999999999381, -0.1371181569008873 
0.719999999999937, -0.136864327774265 
0.7299999999999359, -0.1366344080660342 
0.7399999999999348, -0.136427893717107 
0.7499999999999337, -0.13624528934582833 
0.7599999999999326, -0.1360881328354191 
0.7699999999999315, -0.1359588133620323 
0.7799999999999304, -0.1358601002499857 
0.7899999999999293, -0.1357942495082886 
0.7999999999999282, -0.13576158850336112 
0.8099999999999271, -0.13575869592262768 
0.819999999999926, -0.1357767635260097 
0.8299999999999249, -0.135801279125298 
0.8399999999999238, -0.1358141969613379 
0.8499999999999227, -0.13579857096632336 
0.8599999999999216, -0.1357436210039505 
0.8699999999999205, -0.13564732896862491 
0.8799999999999194, -0.1355152817121847 
0.8899999999999183, -0.1353571081219499 
0.8999999999999172, -0.13518291231531235 
0.9099999999999161, -0.13500116711338922 
0.919999999999915, -0.13481814102225784 
0.9299999999999139, -0.13463824635910338 
0.9399999999999128, -0.13446470970717075 
0.9499999999999117, -0.13430022732568514 
0.9599999999999106, -0.1341474843122212 
0.9699999999999095, -0.13400951824471855 
0.9799999999999084, -0.1338899240327393 
0.9899999999999073, -0.1337928662893961 
0.9999999999999062, -0.13372281863453134 
1.0099999999999052, -0.13368391670128896 
1.019999999999904, -0.13367884089686644 
1.029999999999903, -0.13370730176626552 
1.039999999999902, -0.13376452241786435 
1.0499999999999008, -0.13384049167149745 
1.0599999999998997, -0.1339208486807079 
1.0699999999998986, -0.1339896515402908 
1.0799999999998975, -0.13403310357870585 
1.0899999999998964, -0.13404250333988016 
1.0999999999998953, -0.1340151330957436 
1.1099999999998942, -0.13395314807222392 
1.119999999999893, -0.1338615364797177 
1.129999999999892, -0.13374624334453983 
1.1399999999998909, -0.13361298183683173 
1.1499999999998898, -0.13346673262215553 
1.1599999999998887, -0.13331170903843395 
1.1699999999998876, -0.13315156434253708 
1.1799999999998865, -0.1329896894016354 
1.1899999999998854, -0.13282950848919237 
1.1999999999998843, -0.13267470294540762 
1.2099999999998832, -0.1325292856500415 
1.219999999999882, -0.13239743694573095 
1.229999999999881, -0.13228302653455942 
1.2399999999998799, -0.13218881712029726 
1.2499999999998788, -0.1321154866518951 
1.2599999999998777, -0.1320607840637975 
1.2699999999998766, -0.13201924820063962 
1.2799999999998755, -0.13198282715098528 
1.2899999999998744, -0.13194236787021482 
1.2999999999998733, -0.1318894691843554 
1.3099999999998722, -0.13181796191194536 
1.319999999999871, -0.13172451059109444 
1.32999999999987, -0.1316083323778198 
1.3399999999998689, -0.1314704076675597 
1.3499999999998678, -0.13131261769066332 
1.3599999999998666, -0.13113708576342106 
1.3699999999998655, -0.1309458116940036 
1.3799999999998644, -0.13074057646223308 
1.3899999999998633, -0.1305230567972895 
1.3999999999998622, -0.13029508399909095 
1.4099999999998611, -0.13005897012935813 
1.41999999999986, -0.12981779327980045 
1.429999999999859, -0.12957549842149513 
1.4399999999998578, -0.12933667425422316 
1.4499999999998567, -0.1291059511805987 
1.4599999999998556, -0.1288871252592374 
1.4699999999998545, -0.12868227339825244 
1.4799999999998534, -0.12849118575200671 
1.4899999999998523, -0.12831135023281426 
1.4999999999998512, -0.12813851359340006 
1.5099999999998501, -0.1279676119505051 
1.519999999999849, -0.1277937287343685 
1.529999999999848, -0.12761277121162315 
1.5399999999998468, -0.12742172597690987 
1.5499999999998457, -0.12721854423914064 
1.5599999999998446, -0.1270018169323959 
1.5699999999998435, -0.12677040797111286 
1.5799999999998424, -0.1265231678497261 
1.5899999999998413, -0.12625880284789073 
1.5999999999998402, -0.12597595035953404 
1.6099999999998391, -0.12567349707014466 
1.619999999999838, -0.12535114054316931 
1.629999999999837, -0.1250101020251635 
1.6399999999998358, -0.12465375205654913 
1.6499999999998347, -0.12428779413979456 
1.6599999999998336, -0.1239197110664775 
1.6699999999998325, -0.12355748555746578 
1.6799999999998314, -0.12320800984299236 
1.6899999999998303, -0.12287579467990475 
1.6999999999998292, -0.12256241908761738 
1.709999999999828, -0.12226677638155752 
1.719999999999827, -0.1219858481251481 
1.729999999999826, -0.12171562721615943 
1.7399999999998248, -0.12145188633060433 
1.7499999999998237, -0.12119064193231992 
1.7599999999998226, -0.12092830497655616 
1.7699999999998215, -0.12066159238625476 
1.7799999999998204, -0.12038729786501634 
1.7899999999998193, -0.12010201293455154 
1.7999999999998182, -0.11980188142119803 
1.809999999999817, -0.11948248566377259 
1.819999999999816, -0.11913900320275146 
1.8299999999998149, -0.11876680738082354 
1.8399999999998138, -0.11836263429289773 
1.8499999999998127, -0.11792619756875507 
1.8599999999998116, -0.11746169715428553 
1.8699999999998105, -0.11697831141027962 
1.8799999999998094, -0.11648896506835693 
1.8899999999998083, -0.11600757687105345 
1.8999999999998072, -0.1155459708929903 
1.909999999999806, -0.11511179722393308 
1.919999999999805, -0.11470805795618115 
1.9299999999998039, -0.11433392227884534 
1.9399999999998028, -0.11398609814563265 
1.9499999999998017, -0.11366013707018956 
1.9599999999998006, -0.11335136150825223 
1.9699999999997995, -0.11305536304291372 
1.9799999999997984, -0.11276814752631695 
1.9899999999997973, -0.11248602965470685 
1.9999999999997962, -0.11220535682080982 
2.0099999999998173, -0.11192211324129173 
2.0199999999998384, -0.11163145212643037 
2.0299999999998595, -0.11132725434252992 
2.0399999999998806, -0.11100193671712202 
2.0499999999999017, -0.11064690415215739 
2.059999999999923, -0.11025410298453231 
2.069999999999944, -0.10981878637091216 
2.079999999999965, -0.10934266595105464 
2.089999999999986, -0.10883561747461556 
2.100000000000007, -0.10831427620549013 
2.1100000000000283, -0.10779772687420039 
2.1200000000000494, -0.10730254415902633 
2.1300000000000705, -0.1068396308192708 
2.1400000000000916, -0.1064136942889649 
2.1500000000001127, -0.10602459045694634 
2.160000000000134, -0.10566928293045715 
2.170000000000155, -0.10534355207817388 
2.180000000000176, -0.1050431385630584 
2.190000000000197, -0.10476434917559474 
2.2000000000002182, -0.10450426660860349 
2.2100000000002393, -0.10426068788825052 
2.2200000000002604, -0.10403185241501127 
2.2300000000002815, -0.10381595629091409 
2.2400000000003026, -0.10361041592441207 
2.2500000000003237, -0.10341088474466897 
2.260000000000345, -0.10321020875031486 
2.270000000000366, -0.10299786634636562 
2.280000000000387, -0.10276081620458213 
2.290000000000408, -0.10248654077809445 
2.3000000000004293, -0.10216781157437863 
2.3100000000004504, -0.10180675365730767 
2.3200000000004715, -0.10141522541947552 
2.3300000000004926, -0.10101083415300498 
2.3400000000005137, -0.10061113254226209 
2.3500000000005348, -0.10022933247111739 
2.360000000000556, -0.09987296130086765 
2.370000000000577, -0.09954476999552994 
2.380000000000598, -0.09924450983993628 
2.390000000000619, -0.09897059659348705 
2.4000000000006403, -0.09872129023302914 
2.4100000000006614, -0.09849539211842295 
2.4200000000006825, -0.09829258224273388 
2.4300000000007036, -0.09811349927565216 
2.4400000000007247, -0.09795959247020541 
2.450000000000746, -0.0978326904763486 
2.460000000000767, -0.0977341676234974 
2.470000000000788, -0.0976635979467857 
2.480000000000809, -0.09761697342005601 
2.49000000000083, -0.09758502669631294 
2.5000000000008513, -0.09755283032881616 
2.5100000000008724, -0.09750203001493449 
2.5200000000008935, -0.09741590856931728 
2.5300000000009146, -0.0972851164580581 
2.5400000000009357, -0.09711055647519182 
2.550000000000957, -0.09690166662316599 
2.560000000000978, -0.09667174215444126 
2.570000000000999, -0.09643345033254318 
2.58000000000102, -0.09619644067358636 
2.5900000000010412, -0.0959670203715179 
2.6000000000010624, -0.0957489536789083 
2.6100000000010835, -0.09554454003739447 
2.6200000000011046, -0.09535554294685825 
2.6300000000011257, -0.09518385564214785 
2.6400000000011468, -0.09503192305882761 
2.650000000001168, -0.09490295095138265 
2.660000000001189, -0.09480088445162976 
2.67000000000121, -0.09473006816518206 
2.680000000001231, -0.09469444239128857 
2.6900000000012523, -0.09469614621535387 
2.7000000000012734, -0.09473359098208303 
2.7100000000012945, -0.09479952509898135 
2.7200000000013156, -0.0948802093205558 
2.7300000000013367, -0.09495699713044542 
2.740000000001358, -0.09501062561202483 
2.750000000001379, -0.09502655112070352 
2.7600000000014, -0.09499846655854027 
2.770000000001421, -0.09492827838284947 
2.780000000001442, -0.09482330660354697 
2.7900000000014633, -0.09469285112501868 
2.8000000000014844, -0.09454574783977451 
2.8100000000015055, -0.09438930524165896 
2.8200000000015266, -0.09422923826848609 
2.8300000000015477, -0.09407008012328635 
2.840000000001569, -0.09391571828687471 
2.85000000000159, -0.09376988446889445 
2.860000000001611, -0.09363653103192617 
2.870000000001632, -0.09352005203681399 
2.8800000000016532, -0.09342528517029833 
2.8900000000016743, -0.09335719259700172 
2.9000000000016954, -0.09332010251192155 
2.9100000000017165, -0.09331645575282455 
2.9200000000017377, -0.09334521026966217 
2.9300000000017588, -0.09340042204492753 
2.94000000000178, -0.09347086951128361 
2.950000000001801, -0.09354150675776964 
2.960000000001822, -0.09359669069720182 
2.970000000001843, -0.09362391100278913 
2.9800000000018643, -0.0936162507826076 
2.9900000000018854, -0.09357263447235661 
3.0000000000019065, -0.09349631560734219 
3.0100000000019276, -0.09339279406201274 
3.0200000000019487, -0.09326812354784147 
3.03000000000197, -0.09312795411860149 
3.040000000001991, -0.09297721160400454 
3.050000000002012, -0.0928201735591647 
3.060000000002033, -0.09266073355379471 
3.070000000002054, -0.09250271676487495 
3.0800000000020753, -0.09235015512100439 
3.0900000000020964, -0.09220743921984485 
3.1000000000021175, -0.09207925288645426 
3.1100000000021386, -0.09197019330797034 
3.1200000000021597, -0.09188402035582519 
3.130000000002181, -0.09182259428612327 
3.140000000002202, -0.09178475537470945 
3.150000000002223, -0.09176560762290012 
3.160000000002244, -0.09175672837216256 
3.1700000000022652, -0.09174754878366584 
3.1800000000022863, -0.0917275552577317 
3.1900000000023074, -0.09168843482292177 
3.2000000000023285, -0.09162530094750362 
3.2100000000023496, -0.09153670848975551 
3.2200000000023707, -0.09142380406406987 
3.230000000002392, -0.09128920979708396 
3.240000000002413, -0.09113609470644139 
3.250000000002434, -0.09096761393624728 
3.260000000002455, -0.09078669949834346 
3.2700000000024763, -0.09059610888906841 
3.2800000000024974, -0.09039863049557224 
3.2900000000025185, -0.09019735140013237 
3.3000000000025396, -0.08999588648312948 
3.3100000000025607, -0.08979845108021176 
3.3200000000025818, -0.08960965971288923 
3.330000000002603, -0.08943398383665528 
3.340000000002624, -0.08927491528563651 
3.350000000002645, -0.08913403167566673 
3.360000000002666, -0.08901028104570466 
3.3700000000026873, -0.08889981765473128 
3.3800000000027084, -0.08879657144576178 
3.3900000000027295, -0.08869343785307031 
3.4000000000027506, -0.08858367538877689 
3.4100000000027717, -0.08846200244984656 
3.420000000002793, -0.08832507387695016 
3.430000000002814, -0.08817134650017126 
3.440000000002835, -0.08800058056846376 
3.450000000002856, -0.0878132671479757 
3.460000000002877, -0.08761018146419136 
3.4700000000028983, -0.087392148956502 
3.4800000000029194, -0.0871600354997448 
3.4900000000029405, -0.08691493551544989 
3.5000000000029616, -0.08665850256188443 
3.5100000000029827, -0.08639332173651536 
3.520000000003004, -0.08612316466744172 
3.530000000003025, -0.08585293707280627 
3.540000000003046, -0.08558818581408975 
3.550000000003067, -0.08533419822631502 
3.5600000000030882, -0.08509493312752121 
3.5700000000031094, -0.08487214381592954 
3.5800000000031305, -0.08466500654455006 
3.5900000000031516, -0.0844703783011547 
3.6000000000031727, -0.08428357163133089 
3.6100000000031938, -0.08409935565250301 
3.620000000003215, -0.0839128460457404 
3.630000000003236, -0.08372004656124217 
3.640000000003257, -0.08351798438178065 
3.650000000003278, -0.08330453716094749 
3.6600000000032993, -0.0830781164123124 
3.6700000000033204, -0.08283735908456975 
3.6800000000033415, -0.08258093492893834 
3.6900000000033626, -0.08230754004707971 
3.7000000000033837, -0.08201612249115674 
3.710000000003405, -0.08170635066112528 
3.720000000003426, -0.08137925614906205 
3.730000000003447, -0.081037850970771 
3.740000000003468, -0.08068739443466214 
3.750000000003489, -0.08033499702831222 
3.7600000000035103, -0.07998849337031265 
3.7700000000035314, -0.07965490112166954 
3.7800000000035525, -0.0793390364428849 
3.7900000000035736, -0.07904277813250862 
3.8000000000035947, -0.07876513761991762 
3.810000000003616, -0.078502950393357 
3.820000000003637, -0.07825183438441201 
3.830000000003658, -0.07800707721584202 
3.840000000003679, -0.07776424098019769 
3.8500000000037002, -0.07751942479689655 
3.8600000000037213, -0.07726924081847823 
3.8700000000037424, -0.07701061425414293 
3.8800000000037635, -0.07674052397745953 
3.8900000000037847, -0.07645578807044465 
3.9000000000038058, -0.07615299483323365 
3.910000000003827, -0.0758286896933738 
3.920000000003848, -0.07547992595802291 
3.930000000003869, -0.0751052143309791 
3.94000000000389, -0.07470570455120207 
3.9500000000039113, -0.07428613482471264 
3.9600000000039324, -0.07385490473571232 
3.9700000000039535, -0.0734228629013817 
3.9800000000039746, -0.07300107369564189 
3.9900000000039957, -0.07259846687748882 
4.000000000004016, -0.0722203236338208 
4.010000000003993, -0.07186800110296501 
4.02000000000397, -0.07153965247751871 
4.030000000003946, -0.07123139263742634 
4.040000000003923, -0.07093841740195125 
4.0500000000039, -0.07065580421465889 
4.0600000000038765, -0.07037892720075987 
4.070000000003853, -0.07010354242088737 
4.08000000000383, -0.06982564466131189 
4.090000000003807, -0.06954119740990174 
4.100000000003783, -0.06924582837132273 
4.11000000000376, -0.06893459264187245 
4.120000000003737, -0.0686019486201588 
4.130000000003713, -0.06824215243873397 
4.14000000000369, -0.06785028441186167 
4.150000000003667, -0.0674239438665198 
4.1600000000036434, -0.06696519154198301 
4.17000000000362, -0.06648175999458104 
4.180000000003597, -0.06598645655988816 
4.1900000000035735, -0.06549451594120151 
4.20000000000355, -0.06501997644345456 
4.210000000003527, -0.06457277436388072 
4.220000000003504, -0.06415762311593108 
4.23000000000348, -0.06377458204383799 
4.240000000003457, -0.06342051172998553 
4.250000000003434, -0.06309060969165728 
4.26000000000341, -0.06277957142012942 
4.270000000003387, -0.06248225818345078 
4.280000000003364, -0.06219393740730984 
4.2900000000033405, -0.06191021527154206 
4.300000000003317, -0.06162676802808455 
4.310000000003294, -0.06133895178525352 
4.320000000003271, -0.06104136751333603 
4.330000000003247, -0.060727506501526266 
4.340000000003224, -0.06038971327896393 
4.350000000003201, -0.06001983624185314 
4.360000000003177, -0.05961093160983414 
4.370000000003154, -0.05915997781244562 
4.380000000003131, -0.05867065658282404 
4.390000000003107, -0.05815444593434936 
4.400000000003084, -0.05762867108701414 
4.410000000003061, -0.05711203540102268 
4.4200000000030375, -0.05661992651311713 
4.430000000003014, -0.05616170414829291 
4.440000000002991, -0.05574054276495376 
4.450000000002968, -0.0553549486310312 
4.460000000002944, -0.05500073164667294 
4.470000000002921, -0.0546726388380661 
4.480000000002898, -0.05436538532521853 
4.490000000002874, -0.054074131838347916 
4.500000000002851, -0.05379455591258893 
4.510000000002828, -0.05352264636720503 
4.520000000002804, -0.053254300052860394 
4.530000000002781, -0.0529847662148923 
4.540000000002758, -0.05270800446948366 
4.5500000000027345, -0.05241613490909304 
4.560000000002711, -0.05209937695017427 
4.570000000002688, -0.0517470954928508 
4.580000000002665, -0.0513504661445897 
4.590000000002641, -0.05090639871947046 
4.600000000002618, -0.05042087140406486 
4.610000000002595, -0.04990912584545494 
4.620000000002571, -0.049391763058211205 
4.630000000002548, -0.04888873942126081 
4.640000000002525, -0.04841459537731651 
4.6500000000025015, -0.04797678503183449 
4.660000000002478, -0.047576671043477375 
4.670000000002455, -0.04721167503829941 
4.6800000000024315, -0.046877344732083534 
4.690000000002408, -0.046568798920259676 
4.700000000002385, -0.04628151089768771 
4.710000000002362, -0.04601158394570369 
4.720000000002338, -0.04575567712060864 
4.730000000002315, -0.04551067486932146 
4.740000000002292, -0.04527312906037216 
4.750000000002268, -0.04503847999776586 
4.760000000002245, -0.044800133226983736 
4.770000000002222, -0.044548690441609876 
4.7800000000021985, -0.04427200022508869 
4.790000000002175, -0.043956953550368674 
4.800000000002152, -0.04359348434871114 
4.810000000002129, -0.04317959121194145 
