t, s[1].omega / s[0].omega 
0, -0.9899975642823678 
0.009999999999999995, -0.9897352145890295 
0.019999999999999934, -0.9894371022229276 
0.029999999999999874, -0.9891073515059239 
0.04000000000000012, -0.9887525457104684 
0.050000000000000405, -0.9883814027326803 
0.06000000000000069, -0.988004372318741 
0.07000000000000098, -0.9876330895206753 
0.08000000000000126, -0.9872795566794383 
0.09000000000000155, -0.9869549612992241 
0.10000000000000184, -0.9866682068537294 
0.11000000000000212, -0.9864244723017842 
0.12000000000000241, -0.9862242602008651 
0.130000000000002, -0.9860632950089163 
0.1400000000000009, -0.985933310293858 
0.1499999999999998, -0.9858234181201245 
0.1599999999999987, -0.9857216056967072 
0.1699999999999976, -0.9856160068770252 
0.1799999999999965, -0.985495822827156 
0.1899999999999954, -0.9853519490707321 
0.1999999999999943, -0.985177422695298 
0.2099999999999932, -0.9849677576758138 
0.2199999999999921, -0.984721163735831 
0.229999999999991, -0.9844386096900086 
0.2399999999999899, -0.984123714851665 
0.2499999999999888, -0.9837825037442046 
0.2599999999999877, -0.9834230889594009 
0.2699999999999866, -0.9830553168723262 
0.2799999999999855, -0.9826903267658051 
0.2899999999999844, -0.9823398910918719 
0.2999999999999833, -0.9820154035295818 
0.3099999999999822, -0.9817265157843753 
0.3199999999999811, -0.9814796594665411 
0.32999999999998, -0.9812768847745366 
0.3399999999999789, -0.9811154366618847 
0.3499999999999778, -0.9809882303799441 
0.35999999999997667, -0.980885034041466 
0.36999999999997557, -0.9807939447818592 
0.37999999999997447, -0.9807027675773545 
0.38999999999997337, -0.9806000949296034 
0.39999999999997227, -0.9804760795766916 
0.40999999999997117, -0.9803229827823673 
0.41999999999997006, -0.9801355640403175 
0.42999999999996896, -0.9799113181739137 
0.43999999999996786, -0.9796505312533134 
0.44999999999996676, -0.9793561472403098 
0.45999999999996566, -0.9790334928680947 
0.46999999999996456, -0.9786899477341333 
0.47999999999996346, -0.9783346248218379 
0.48999999999996235, -0.9779780394638193 
0.49999999999996125, -0.9776316387682025 
0.5099999999999602, -0.977307017133695 
0.519999999999959, -0.9770147258248254 
0.529999999999958, -0.9767627995519262 
0.5399999999999568, -0.9765553675075891 
0.5499999999999557, -0.9763918164359685 
0.5599999999999546, -0.9762668183313428 
0.5699999999999535, -0.9761711990113753 
0.5799999999999524, -0.9760933229513746 
0.5899999999999513, -0.9760205797552896 
0.5999999999999502, -0.9759406774252264 
0.6099999999999491, -0.9758426398477044 
0.619999999999948, -0.9757175350672276 
0.6299999999999469, -0.9755589838838088 
0.6399999999999458, -0.9753634584020199 
0.6499999999999447, -0.9751303488936832 
0.6599999999999436, -0.9748617988024947 
0.6699999999999425, -0.9745623719597761 
0.6799999999999414, -0.9742386701751673 
0.6899999999999403, -0.9738990091200271 
0.6999999999999392, -0.9735531722970556 
0.7099999999999381, -0.973212135346713 
0.719999999999937, -0.9728875583588344 
0.7299999999999359, -0.972590859146346 
0.7399999999999348, -0.9723318461649448 
0.7499999999999337, -0.9721171576280637 
0.7599999999999326, -0.9719489705065424 
0.7699999999999315, -0.9718244392086335 
0.7799999999999304, -0.9717360640733264 
0.7899999999999293, -0.9716728336588666 
0.7999999999999282, -0.9716217568564774 
0.8099999999999271, -0.9715694021949032 
0.819999999999926, -0.9715032158348917 
0.8299999999999249, -0.9714125480156044 
0.8399999999999238, -0.9712893884281077 
0.8499999999999227, -0.9711288031247884 
0.8599999999999216, -0.9709290481157865 
0.8699999999999205, -0.970691366908605 
0.8799999999999194, -0.9704195608470615 
0.8899999999999183, -0.9701194949724699 
0.8999999999999172, -0.9697987042238181 
0.9099999999999161, -0.9694661761056957 
0.919999999999915, -0.9691322412786813 
0.9299999999999139, -0.9688083667178621 
0.9399999999999128, -0.9685065886386612 
0.9499999999999117, -0.9682384071227654 
0.9599999999999106, -0.9680132046179389 
0.9699999999999095, -0.9678365544227174 
0.9799999999999084, -0.9677089658471625 
0.9899999999999073, -0.9676255181870179 
0.9999999999999062, -0.9675765014878674 
1.0099999999999052, -0.9675488230811051 
1.019999999999904, -0.9675277635149161 
1.029999999999903, -0.9674987107676744 
1.039999999999902, -0.9674486485409035 
1.0499999999999008, -0.9673672884164652 
1.0599999999998997, -0.9672477756299644 
1.0699999999998986, -0.9670869166637424 
1.0799999999998975, -0.9668849415037913 
1.0899999999998964, -0.9666449290733581 
1.0999999999998953, -0.966372124512192 
1.1099999999998942, -0.9660733879784752 
1.119999999999893, -0.9657569200474725 
1.129999999999892, -0.965432249933099 
1.1399999999998909, -0.9651103075902674 
1.1499999999998898, -0.9648032821867906 
1.1599999999998887, -0.9645239557200623 
1.1699999999998876, -0.9642843499563873 
1.1799999999998865, -0.9640938362834628 
1.1899999999998854, -0.9639572026739256 
1.1999999999998843, -0.9638733293083904 
1.2099999999998832, -0.9638349555115866 
1.219999999999882, -0.9638296168214179 
1.229999999999881, -0.9638414476301703 
1.2399999999998799, -0.9638533750644551 
1.2499999999998788, -0.9638492677188972 
1.2599999999998777, -0.9638157176647683 
1.2699999999998766, -0.9637432313015275 
1.2799999999998755, -0.9636266966511343 
1.2899999999998744, -0.963465135987423 
1.2999999999998733, -0.9632609357212102 
1.3099999999998722, -0.963018883492941 
1.319999999999871, -0.9627453536346418 
1.32999999999987, -0.9624478662736493 
1.3399999999998689, -0.962135067259456 
1.3499999999998678, -0.9618169977283874 
1.3599999999998666, -0.9615053718755536 
1.3699999999998655, -0.9612134842061089 
1.3799999999998644, -0.9609553837075986 
1.3899999999998633, -0.9607441594072386 
1.3999999999998622, -0.9605895782528749 
1.4099999999998611, -0.9604957337991775 
1.41999999999986, -0.960459530584113 
1.429999999999859, -0.9604705931726304 
1.4399999999998578, -0.9605126807783245 
1.4499999999998567, -0.9605662076094765 
1.4599999999998556, -0.9606112211315008 
1.4699999999998545, -0.960630173683823 
1.4799999999998534, -0.9606099436318892 
1.4899999999998523, -0.960542775262663 
1.4999999999998512, -0.9604261051016764 
1.5099999999998501, -0.9602615597308544 
1.519999999999849, -0.9600536126999213 
1.529999999999848, -0.9598083874073143 
1.5399999999998468, -0.9595329271739302 
1.5499999999998457, -0.9592350366986573 
1.5599999999998446, -0.9589236131048524 
1.5699999999998435, -0.9586092382763862 
1.5799999999998424, -0.9583046727836756 
1.5899999999998413, -0.9580247899430414 
1.5999999999998402, -0.95778550885828 
1.6099999999998391, -0.9576015506512396 
1.619999999999838, -0.9574833646081908 
1.629999999999837, -0.9574341295390374 
1.6399999999998358, -0.9574479611787075 
1.6499999999998347, -0.957510132140289 
1.6599999999998336, -0.9575993867846607 
1.6699999999998325, -0.9576916967773513 
1.6799999999998314, -0.957764370398784 
1.6899999999998303, -0.9577994046091062 
1.6999999999998292, -0.9577853120547954 
1.709999999999828, -0.9577172331425494 
1.719999999999827, -0.9575957245747893 
1.729999999999826, -0.9574249483901622 
1.7399999999998248, -0.9572109678011678 
1.7499999999998237, -0.9569606000831777 
1.7599999999998226, -0.9566809825582931 
1.7699999999998215, -0.9563798002691393 
1.7799999999998204, -0.956066002828881 
1.7899999999998193, -0.9557507330219677 
1.7999999999998182, -0.9554480465575879 
1.809999999999817, -0.9551748539191065 
1.819999999999816, -0.9549495118173763 
1.8299999999998149, -0.954788830984522 
1.8399999999998138, -0.9547039932631444 
1.8499999999998127, -0.9546966817503199 
1.8599999999998116, -0.9547570653268446 
1.8699999999998105, -0.9548647634738566 
1.8799999999998094, -0.9549927264801997 
1.8899999999998083, -0.9551127422835741 
1.8999999999998072, -0.9552006774822516 
1.909999999999806, -0.9552398500665765 
1.919999999999805, -0.955221891096312 
1.9299999999998039, -0.9551455129912189 
1.9399999999998028, -0.9550142183625303 
1.9499999999998017, -0.9548339846279565 
1.9599999999998006, -0.9546115738652959 
1.9699999999997995, -0.9543536906000343 
1.9799999999997984, -0.9540669431144982 
1.9899999999997973, -0.953758460475654 
1.9999999999997962, -0.953436975101995 
2.0099999999998173, -0.9531140873043602 
2.0199999999998384, -0.9528052296040403 
2.0299999999998595, -0.9525296101870098 
2.0399999999998806, -0.9523083643131567 
2.0499999999999017, -0.9521605899524003 
2.059999999999923, -0.9520979899807186 
2.069999999999944, -0.9521200437638401 
2.079999999999965, -0.9522120778527811 
2.089999999999986, -0.9523476391031112 
2.100000000000007, -0.9524945446439992 
2.1100000000000283, -0.9526221714509949 
2.1200000000000494, -0.9527071578672818 
2.1300000000000705, -0.9527358560082533 
2.1400000000000916, -0.9527036338848459 
2.1500000000001127, -0.9526123232795236 
2.160000000000134, -0.9524672905295123 
2.170000000000155, -0.9522751043469537 
2.180000000000176, -0.9520421589154306 
2.190000000000197, -0.9517742212329152 
2.2000000000002182, -0.9514767429882781 
2.2100000000002393, -0.9511557868586387 
2.2200000000002604, -0.950819419608052 
2.2300000000002815, -0.9504793058000127 
2.2400000000003026, -0.9501519488885377 
2.2500000000003237, -0.9498586662015347 
2.260000000000345, -0.9496232729824493 
2.270000000000366, -0.949467052418405 
2.280000000000387, -0.9494020726726617 
2.290000000000408, -0.9494255855934174 
2.3000000000004293, -0.9495186561460189 
2.3100000000004504, -0.9496503881762483 
2.3200000000004715, -0.9497860436853307 
2.3300000000004926, -0.9498953032632196 
2.3400000000005137, -0.9499573854831225 
2.3500000000005348, -0.9499620131303412 
2.360000000000556, -0.9499073394359071 
2.370000000000577, -0.9497967095278067 
2.380000000000598, -0.9496357078444777 
2.390000000000619, -0.94943014466592 
2.4000000000006403, -0.9491850505547239 
2.4100000000006614, -0.9489045139126157 
2.4200000000006825, -0.9485921989382368 
2.4300000000007036, -0.9482524562905634 
2.4400000000007247, -0.9478919506464782 
2.450000000000746, -0.947521570266775 
2.460000000000767, -0.9471580009716994 
2.470000000000788, -0.9468238552734503 
2.480000000000809, -0.9465450690692572 
2.49000000000083, -0.9463450475311175 
2.5000000000008513, -0.9462369757433617 
2.5100000000008724, -0.9462177769687157 
2.5200000000008935, -0.9462673818184036 
2.5300000000009146, -0.9463542871349018 
2.5400000000009357, -0.9464446270105794 
2.550000000000957, -0.9465102749681572 
2.560000000000978, -0.9465329564970363 
2.570000000000999, -0.9465041793531977 
2.58000000000102, -0.9464226630409248 
2.5900000000010412, -0.9462911632245132 
2.6000000000010624, -0.9461138574769311 
2.6100000000010835, -0.9458946748729093 
2.6200000000011046, -0.9456365120597509 
2.6300000000011257, -0.945341168136442 
2.6400000000011468, -0.9450098961230579 
2.650000000001168, -0.94464456590844 
2.660000000001189, -0.944249444583963 
2.67000000000121, -0.94383341291796 
2.680000000001231, -0.9434119792985813 
2.6900000000012523, -0.9430078408628118 
2.7000000000012734, -0.9426484708574077 
2.7100000000012945, -0.9423600505441636 
2.7200000000013156, -0.9421592671395269 
2.7300000000013367, -0.9420467960304213 
2.740000000001358, -0.9420063350183814 
2.750000000001379, -0.9420099961215517 
2.7600000000014, -0.9420269999613005 
2.770000000001421, -0.9420312393151089 
2.780000000001442, -0.9420050273646898 
2.7900000000014633, -0.9419390691935705 
2.8000000000014844, -0.94183026373637 
2.8100000000015055, -0.9416789908811408 
2.8200000000015266, -0.9414868522638988 
2.8300000000015477, -0.9412551754697643 
2.840000000001569, -0.9409842466940164 
2.85000000000159, -0.940673167810129 
2.860000000001611, -0.9403203098888071 
2.870000000001632, -0.9399244373063909 
2.8800000000016532, -0.939486593539695 
2.8900000000016743, -0.9390126445732335 
2.9000000000016954, -0.9385158673859696 
2.9100000000017165, -0.9380182474430351 
2.9200000000017377, -0.9375487387424795 
2.9300000000017588, -0.9371375046772126 
2.94000000000178, -0.9368074315405284 
2.950000000001801, -0.9365666962253876 
2.960000000001822, -0.9364064465798908 
2.970000000001843, -0.9363047888410506 
2.9800000000018643, -0.9362344993246184 
2.9900000000018854, -0.93617034460859 
3.0000000000019065, -0.9360932890421321 
3.0100000000019276, -0.9359912917089737 
3.0200000000019487, -0.9358579153145546 
3.03000000000197, -0.9356901707740904 
3.040000000001991, -0.9354865207091386 
3.050000000002012, -0.9352454168152688 
3.060000000002033, -0.9349644321119124 
3.070000000002054, -0.9346399709645079 
3.0800000000020753, -0.9342676017626743 
3.0900000000020964, -0.933843152629489 
3.1000000000021175, -0.9333647206050013 
3.1100000000021386, -0.932835522903973 
3.1200000000021597, -0.9322669520057142 
3.130000000002181, -0.9316804052992902 
3.140000000002202, -0.9311060249707724 
3.150000000002223, -0.930577269593253 
3.160000000002244, -0.9301224814582957 
3.1700000000022652, -0.9297569927426185 
3.1800000000022863, -0.929479643913899 
3.1900000000023074, -0.929275148961773 
3.2000000000023285, -0.9291204260045702 
3.2100000000023496, -0.9289914154129815 
3.2200000000023707, -0.9288677351055068 
3.230000000002392, -0.9287344381734599 
3.240000000002413, -0.9285815754435627 
3.250000000002434, -0.9284026923963357 
3.260000000002455, -0.9281931432073266 
3.2700000000024763, -0.9279486940228822 
3.2800000000024974, -0.927664602632631 
3.2900000000025185, -0.92733526090736 
3.3000000000025396, -0.9269545110670508 
3.3100000000025607, -0.9265167945579424 
3.3200000000025818, -0.9260192336915981 
3.330000000002603, -0.9254644482483423 
3.340000000002624, -0.9248633384935431 
3.350000000002645, -0.9242364616802978 
3.360000000002666, -0.9236125445298059 
3.3700000000026873, -0.9230236079988725 
3.3800000000027084, -0.9224979242187794 
3.3900000000027295, -0.9220534805438237 
3.4000000000027506, -0.921694620031811 
3.4100000000027717, -0.9214129380225552 
3.420000000002793, -0.9211914432038821 
3.430000000002814, -0.9210097877541564 
3.440000000002835, -0.9208485467823305 
3.450000000002856, -0.9206915757977698 
3.460000000002877, -0.9205265358139874 
3.4700000000028983, -0.9203442342228261 
3.4800000000029194, -0.9201374839515098 
3.4900000000029405, -0.9198999907945747 
3.5000000000029616, -0.9196255733910643 
3.5100000000029827, -0.9193079021238282 
3.520000000003004, -0.9189408959189656 
3.530000000003025, -0.9185198579927338 
3.540000000003046, -0.9180432680611708 
3.550000000003067, -0.9175148418467538 
3.5600000000030882, -0.9169451218468392 
3.5700000000031094, -0.9163517254943215 
3.5800000000031305, -0.915757676807015 
3.5900000000031516, -0.9151879488641969 
3.6000000000031727, -0.914665100416012 
3.6100000000031938, -0.9142052965158411 
3.620000000003215, -0.9138158773575314 
3.630000000003236, -0.9134950690396512 
3.640000000003257, -0.9132336686449533 
3.650000000003278, -0.913017901991744 
3.6600000000032993, -0.9128324098617856 
3.6700000000033204, -0.9126625281815883 
3.6800000000033415, -0.9124955037778697 
3.6900000000033626, -0.9123207452024984 
3.7000000000033837, -0.9121294653967134 
3.710000000003405, -0.9119141209559762 
3.720000000003426, -0.9116679819369444 
3.730000000003447, -0.9113850596251561 
3.740000000003468, -0.9110605028235588 
3.750000000003489, -0.9106914298357903 
3.7600000000035103, -0.9102779888624569 
3.7700000000035314, -0.9098242870810047 
3.7800000000035525, -0.9093387952822456 
3.7900000000035736, -0.9088339754216325 
3.8000000000035947, -0.9083251290654631 
3.810000000003616, -0.907828683841176 
3.820000000003637, -0.9073602323990526 
3.830000000003658, -0.9069326400797696 
3.840000000003679, -0.9065545170235951 
3.8500000000037002, -0.9062293256716852 
3.8600000000037213, -0.9059553120225127 
3.8700000000037424, -0.905726264385377 
3.8800000000037635, -0.9055328637445813 
3.8900000000037847, -0.9053642210783825 
3.9000000000038058, -0.9052092006596355 
3.910000000003827, -0.9050572944108307 
3.920000000003848, -0.9048990353090914 
3.930000000003869, -0.9047261058816076 
3.94000000000389, -0.9045313589315868 
3.9500000000039113, -0.9043089293222508 
3.9600000000039324, -0.9040545132887289 
3.9700000000039535, -0.9037657697918219 
3.9800000000039746, -0.9034427074145487 
3.9900000000039957, -0.9030879032946656 
4.000000000004016, -0.9027064628264696 
4.010000000003993, -0.9023057247588321 
4.02000000000397, -0.9018947816468621 
4.030000000003946, -0.9014838876367625 
4.040000000003923, -0.9010837818029765 
4.0500000000039, -0.9007049132343796 
4.0600000000038765, -0.9003565585725598 
4.070000000003853, -0.9000458883554838 
4.08000000000383, -0.8997771339139978 
4.090000000003807, -0.8995510635407846 
4.100000000003783, -0.8993649341780081 
4.11000000000376, -0.8992129435837795 
4.120000000003737, -0.8990870429784137 
4.130000000003713, -0.8989778782389161 
4.14000000000369, -0.8988756525862203 
4.150000000003667, -0.8987708098181256 
4.1600000000036434, -0.8986545480822222 
4.17000000000362, -0.8985192308704704 
4.180000000003597, -0.8983587521587756 
4.1900000000035735, -0.8981688632601699 
4.20000000000355, -0.8979474201063875 
4.210000000003527, -0.8976944921310626 
4.220000000003504, -0.8974122985988178 
4.23000000000348, -0.8971049933016413 
4.240000000003457, -0.8967783718917953 
4.250000000003434, -0.8964395901125279 
4.26000000000341, -0.896096938361139 
4.270000000003387, -0.8957596362276752 
4.280000000003364, -0.8954375340008205 
4.2900000000033405, -0.895140584769711 
4.300000000003317, -0.8948780109324266 
4.310000000003294, -0.8946572244263636 
4.320000000003271, -0.8944827124149246 
4.330000000003247, -0.8943551813661106 
4.340000000003224, -0.8942712033091558 
4.350000000003201, -0.8942234517457359 
4.360000000003177, -0.8942014455430926 
4.370000000003154, -0.894192627678987 
4.380000000003131, -0.8941836101171857 
4.390000000003107, -0.8941614610593234 
4.400000000003084, -0.8941149261252525 
4.410000000003061, -0.8940354403759944 
4.4200000000030375, -0.8939177544087494 
4.430000000003014, -0.8937600427458691 
4.440000000002991, -0.8935635087166501 
4.450000000002968, -0.8933316747567085 
4.460000000002944, -0.8930696421660025 
4.470000000002921, -0.8927835714695778 
4.480000000002898, -0.892480511419461 
4.490000000002874, -0.8921685593238206 
4.500000000002851, -0.8918572078614767 
4.510000000002828, -0.8915576322146945 
4.520000000002804, -0.8912826075777283 
4.530000000002781, -0.8910457618511698 
4.540000000002758, -0.8908600164639637 
4.5500000000027345, -0.8907353595642343 
4.560000000002711, -0.8906764403418664 
4.570000000002688, -0.8906807019162901 
4.580000000002665, -0.8907377417386488 
4.590000000002641, -0.8908302882012619 
4.600000000002618, -0.8909367153109644 
4.610000000002595, -0.8910345313431753 
4.620000000002571, -0.8911039260523642 
4.630000000002548, -0.8911304066386417 
4.640000000002525, -0.8911058885038287 
4.6500000000025015, -0.8910282134139699 
4.660000000002478, -0.8908996214441631 
4.670000000002455, -0.8907249204313871 
4.6800000000024315, -0.8905099568417002 
4.690000000002408, -0.8902606927032537 
4.700000000002385, -0.889982939485242 
4.710000000002362, -0.8896826688629608 
4.720000000002338, -0.8893667740039216 
4.730000000002315, -0.8890441116324361 
4.740000000002292, -0.8887265478223627 
4.750000000002268, -0.8884295485177789 
4.760000000002245, -0.8881716851027479 
4.770000000002222, -0.8879724640476685 
4.7800000000021985, -0.8878483644316464 
4.790000000002175, -0.8878079068380117 
4.800000000002152, -0.8878475749304846 
4.810000000002129, -0.8879506943348195 
4.820000000002105, -0.888090371498451 
4.830000000002082, -0.8882356388093877 
4.840000000002059, -0.8883582990480765 
4.850000000002035, -0.8884378091040371 
4.860000000002012, -0.8884629029736623 
4.870000000001989, -0.8884303860865206 
4.880000000001965, -0.8883424931980667 
4.890000000001942, -0.8882041463103241 
4.900000000001919, -0.8880208665883901 
4.9100000000018955, -0.8877975354807617 
4.920000000001872, -0.8875379038587331 
