t, s[1].omega / s[0].omega 
0, -0.9699975747343832 
0.009999999999999995, -0.9697392722268938 
0.019999999999999934, -0.9694509218273316 
0.029999999999999874, -0.9691359746304629 
0.04000000000000012, -0.9687999179946157 
0.050000000000000405, -0.968449977714152 
0.06000000000000069, -0.9680947605075705 
0.07000000000000098, -0.9677438057952484 
0.08000000000000126, -0.9674069653679054 
0.09000000000000155, -0.9670935399743236 
0.10000000000000184, -0.9668112024742357 
0.11000000000000212, -0.9665648951550054 
0.12000000000000241, -0.9663560062393183 
0.130000000000002, -0.9661821046976525 
0.1400000000000009, -0.9660373280080018 
0.1499999999999998, -0.9659132797218046 
0.1599999999999987, -0.9658001489480185 
0.1699999999999976, -0.9656877799595082 
0.1799999999999965, -0.9655665462037062 
0.1899999999999954, -0.9654280134841786 
0.1999999999999943, -0.9652654390309806 
0.2099999999999932, -0.9650741419490858 
0.2199999999999921, -0.9648517390492991 
0.229999999999991, -0.9645982174243514 
0.2399999999999899, -0.9643158343447457 
0.2499999999999888, -0.9640088821635656 
0.2599999999999877, -0.9636833922727602 
0.2699999999999866, -0.9633468424518463 
0.2799999999999855, -0.963007870500636 
0.2899999999999844, -0.9626759149480618 
0.2999999999999833, -0.9623606550368559 
0.3099999999999822, -0.9620711579497783 
0.3199999999999811, -0.9618147749799201 
0.32999999999998, -0.9615960068961786 
0.3399999999999789, -0.9614156714046871 
0.3499999999999778, -0.9612706564726927 
0.35999999999997667, -0.9611543407076308 
0.36999999999997557, -0.9610575282100531 
0.37999999999997447, -0.9609696185795151 
0.38999999999997337, -0.9608797574842332 
0.39999999999997227, -0.9607778252949382 
0.40999999999997117, -0.9606552232127527 
0.41999999999997006, -0.9605054551990737 
0.42999999999996896, -0.9603244926804007 
0.43999999999996786, -0.960110896188145 
0.44999999999996676, -0.9598656927476178 
0.45999999999996566, -0.9595920681326222 
0.46999999999996456, -0.9592949886848562 
0.47999999999996346, -0.9589808725178379 
0.48999999999996235, -0.958657369123823 
0.49999999999996125, -0.9583332034205426 
0.5099999999999602, -0.9580179424300959 
0.519999999999959, -0.957721502881445 
0.529999999999958, -0.9574532787376876 
0.5399999999999568, -0.9572209344702365 
0.5499999999999557, -0.9570291194518198 
0.5599999999999546, -0.9568784881335674 
0.5699999999999535, -0.9567653580999597 
0.5799999999999524, -0.95668211885455 
0.5899999999999513, -0.9566182520790825 
0.5999999999999502, -0.9565616808765451 
0.6099999999999491, -0.9565001702333837 
0.619999999999948, -0.9564225863012386 
0.6299999999999469, -0.9563198989651053 
0.6399999999999458, -0.9561858468568711 
0.6499999999999447, -0.9560172070966854 
0.6599999999999436, -0.9558136687777126 
0.6699999999999425, -0.9555774034159276 
0.6799999999999414, -0.9553125097558768 
0.6899999999999403, -0.9550245286445413 
0.6999999999999392, -0.9547201600103611 
0.7099999999999381, -0.9544071966899409 
0.719999999999937, -0.9540945625559584 
0.7299999999999359, -0.9537922437716204 
0.7399999999999348, -0.953510870557355 
0.7499999999999337, -0.9532607840645836 
0.7599999999999326, -0.9530506232655517 
0.7699999999999315, -0.9528857281882196 
0.7799999999999304, -0.952766837023953 
0.7899999999999293, -0.9526895252719804 
0.7999999999999282, -0.9526445945256332 
0.8099999999999271, -0.9526193090435375 
0.819999999999926, -0.9525991629051387 
0.8299999999999249, -0.9525697967601466 
0.8399999999999238, -0.9525187199123522 
0.8499999999999227, -0.9524365656694382 
0.8599999999999216, -0.9523177056641785 
0.8699999999999205, -0.9521601933971864 
0.8799999999999194, -0.9519651820558677 
0.8899999999999183, -0.951736095474138 
0.8999999999999172, -0.9514778571886756 
0.9099999999999161, -0.9511963988491521 
0.919999999999915, -0.9508985294237924 
0.9299999999999139, -0.950592105197833 
0.9399999999999128, -0.95028632002353 
0.9499999999999117, -0.949991842026112 
0.9599999999999106, -0.9497204837776387 
0.9699999999999095, -0.9494841665661115 
0.9799999999999084, -0.9492931726993771 
0.9899999999999073, -0.949154027536034 
0.9999999999999062, -0.9490676458754977 
1.0099999999999052, -0.9490284176831331 
1.019999999999904, -0.9490246357139822 
1.029999999999903, -0.9490402210692908 
1.039999999999902, -0.9490573006810182 
1.0499999999999008, -0.9490589738135139 
1.0599999999998997, -0.9490316009504957 
1.0699999999998986, -0.9489661342368025 
1.0799999999998975, -0.9488583330222978 
1.0899999999998964, -0.9487080630783019 
1.0999999999998953, -0.9485181175801918 
1.1099999999998942, -0.9482930338104291 
1.119999999999893, -0.9480382462357003 
1.129999999999892, -0.9477597246548258 
1.1399999999998909, -0.9474640844562975 
1.1499999999998898, -0.9471590431116945 
1.1599999999998887, -0.9468540026217834 
1.1699999999998876, -0.9465604369122153 
1.1799999999998865, -0.9462916847873503 
1.1899999999998854, -0.9460617878549618 
1.1999999999998843, -0.9458832754883366 
1.2099999999998832, -0.9457642827450126 
1.219999999999882, -0.945705886773843 
1.229999999999881, -0.9457007317197696 
1.2399999999998799, -0.9457336738915856 
1.2499999999998788, -0.9457844302635326 
1.2599999999998777, -0.94583142736064 
1.2699999999998766, -0.9458556147872669 
1.2799999999998755, -0.9458431216119173 
1.2899999999998744, -0.9457862050849158 
1.2999999999998733, -0.9456826489424357 
1.3099999999998722, -0.9455342530141623 
1.319999999999871, -0.9453451481606683 
1.32999999999987, -0.9451204630861355 
1.3399999999998689, -0.9448655779148725 
1.3499999999998678, -0.9445859823178214 
1.3599999999998666, -0.9442876468472251 
1.3699999999998655, -0.943977761761398 
1.3799999999998644, -0.9436656247360704 
1.3899999999998633, -0.9433633275719193 
1.3999999999998622, -0.9430857394281663 
1.4099999999998611, -0.9428492500319818 
1.41999999999986, -0.9426690162099793 
1.429999999999859, -0.9425551294363986 
1.4399999999998578, -0.9425089462570362 
1.4499999999998567, -0.9425212349228778 
1.4599999999998556, -0.942573300804637 
1.4699999999998545, -0.9426409523435343 
1.4799999999998534, -0.9426998139996601 
1.4899999999998523, -0.9427299596701062 
1.4999999999998512, -0.9427184189393245 
1.5099999999998501, -0.9426592981345143 
1.519999999999849, -0.9425522485643152 
1.529999999999848, -0.9424003433570354 
1.5399999999998468, -0.9422081888791212 
1.5499999999998457, -0.9419806686476673 
1.5599999999998446, -0.9417223868890297 
1.5699999999998435, -0.9414377283265598 
1.5799999999998424, -0.941131423362416 
1.5899999999998413, -0.9408095048321383 
1.5999999999998402, -0.9404804770850026 
1.6099999999998391, -0.9401563432684918 
1.619999999999838, -0.9398528892177793 
1.629999999999837, -0.939588480639298 
1.6399999999998358, -0.9393808971284241 
1.6499999999998347, -0.9392426071690103 
1.6599999999998336, -0.9391761066079628 
1.6699999999998325, -0.9391716194478754 
1.6799999999998314, -0.9392087240547988 
1.6899999999998303, -0.9392614762595459 
1.6999999999998292, -0.9393047309762981 
1.709999999999828, -0.9393190127794586 
1.719999999999827, -0.9392925210174268 
1.729999999999826, -0.9392205112283485 
1.7399999999998248, -0.9391032430221353 
1.7499999999998237, -0.9389436936820215 
1.7599999999998226, -0.9387457525738332 
1.7699999999998215, -0.9385131265450536 
1.7799999999998204, -0.9382489173465615 
1.7899999999998193, -0.9379557630932789 
1.7999999999998182, -0.9376364656507011 
1.809999999999817, -0.9372950526278983 
1.819999999999816, -0.9369381619198883 
1.8299999999998149, -0.936576430291687 
1.8399999999998138, -0.9362252345317259 
1.8499999999998127, -0.9359038657161713 
1.8599999999998116, -0.9356324058796295 
1.8699999999998105, -0.9354265640870251 
1.8799999999998094, -0.9352922576546746 
1.8899999999998083, -0.9352226629619771 
1.8999999999998072, -0.9351996175819564 
1.909999999999806, -0.9351988546587293 
1.919999999999805, -0.9351964331044099 
1.9299999999998039, -0.9351735367640976 
1.9399999999998028, -0.9351183402600023 
1.9499999999998017, -0.9350253661442748 
1.9599999999998006, -0.9348935692113116 
1.9699999999997995, -0.9347242600105432 
1.9799999999997984, -0.9345194738967681 
1.9899999999997973, -0.9342809583453746 
1.9999999999997962, -0.9340097388787095 
2.0099999999998173, -0.9337061896971617 
2.0199999999998384, -0.9333705838683957 
2.0299999999998595, -0.9330041407785409 
2.0399999999998806, -0.9326105431726923 
2.0499999999999017, -0.9321976875080212 
2.059999999999923, -0.9317790454632208 
2.069999999999944, -0.9313736177747577 
2.079999999999965, -0.9310034786219404 
2.089999999999986, -0.9306888013959596 
2.100000000000007, -0.9304419020356729 
2.1100000000000283, -0.9302630979365561 
2.1200000000000494, -0.9301406693876348 
2.1300000000000705, -0.9300549246135705 
2.1400000000000916, -0.9299840930930765 
2.1500000000001127, -0.9299092715746132 
2.160000000000134, -0.9298168985204164 
2.170000000000155, -0.929698854233328 
2.180000000000176, -0.9295511625981714 
2.190000000000197, -0.9293722912661607 
2.2000000000002182, -0.9291616628685224 
2.2100000000002393, -0.9289186142441042 
2.2200000000002604, -0.9286418363963577 
2.2300000000002815, -0.9283292824519336 
2.2400000000003026, -0.92797857225356 
2.2500000000003237, -0.9275879707299349 
2.260000000000345, -0.9271579864182753 
2.270000000000366, -0.9266934337483853 
2.280000000000387, -0.9262053845660796 
2.290000000000408, -0.9257119402076059 
2.3000000000004293, -0.9252366139839998 
2.3100000000004504, -0.9248038519201632 
2.3200000000004715, -0.9244328381963417 
2.3300000000004926, -0.924132213865018 
2.3400000000005137, -0.9238982720409942 
2.3500000000005348, -0.9237173121939495 
2.360000000000556, -0.9235705729861865 
2.370000000000577, -0.9234392284139666 
2.380000000000598, -0.9233076531102604 
2.390000000000619, -0.9231645426362384 
2.4000000000006403, -0.9230024573483808 
2.4100000000006614, -0.9228166247283255 
2.4200000000006825, -0.9226036419436214 
2.4300000000007036, -0.9223604228691068 
2.4400000000007247, -0.9220835292478133 
2.450000000000746, -0.9217689516580106 
2.460000000000767, -0.9214124185135507 
2.470000000000788, -0.9210103355299699 
2.480000000000809, -0.9205614019057073 
2.49000000000083, -0.9200687226886485 
2.5000000000008513, -0.9195418227744374 
2.5100000000008724, -0.9189975411443367 
2.5200000000008935, -0.9184587397120569 
2.5300000000009146, -0.9179504632641073 
2.5400000000009357, -0.9174944957190483 
2.550000000000957, -0.9171043617231793 
2.560000000000978, -0.916782816779015 
2.570000000000999, -0.9165226375142316 
2.58000000000102, -0.9163099212052084 
2.5900000000010412, -0.916128186238353 
2.6000000000010624, -0.9159617181761917 
2.6100000000010835, -0.9157974199306818 
2.6200000000011046, -0.915625236689117 
2.6300000000011257, -0.9154376532152769 
2.6400000000011468, -0.9152288064690894 
2.650000000001168, -0.9149936130417737 
2.660000000001189, -0.9147271536334743 
2.67000000000121, -0.9144244623180843 
2.680000000001231, -0.9140808276272416 
2.6900000000012523, -0.9136926677598813 
2.7000000000012734, -0.913258923239091 
2.7100000000012945, -0.912782682905673 
2.7200000000013156, -0.9122724864640466 
2.7300000000013367, -0.9117426080820767 
2.740000000001358, -0.9112118145735899 
2.750000000001379, -0.9107006277983126 
2.7600000000014, -0.9102277623774533 
2.770000000001421, -0.9098068041046826 
2.780000000001442, -0.9094441301581009 
2.7900000000014633, -0.9091385950996045 
2.8000000000014844, -0.9088828552090863 
2.8100000000015055, -0.9086656741835155 
2.8200000000015266, -0.9084743607595529 
2.8300000000015477, -0.9082966612488919 
2.840000000001569, -0.9081218079625548 
2.85000000000159, -0.9079407868897326 
2.860000000001611, -0.9077460965807955 
2.870000000001632, -0.907531316503395 
2.8800000000016532, -0.9072907538405826 
2.8900000000016743, -0.9070193571788046 
2.9000000000016954, -0.9067129968239327 
2.9100000000017165, -0.9063691040834781 
2.9200000000017377, -0.905987527876875 
2.9300000000017588, -0.9055713376733667 
2.94000000000178, -0.9051272480993525 
2.950000000001801, -0.9046654199067733 
2.960000000001822, -0.9041985820155857 
2.970000000001843, -0.9037406211715521 
2.9800000000018643, -0.9033049079202495 
2.9900000000018854, -0.9029026564230811 
3.0000000000019065, -0.9025415939822992 
3.0100000000019276, -0.9022251710677592 
3.0200000000019487, -0.9019524559798997 
3.03000000000197, -0.9017187086955325 
3.040000000001991, -0.9015164477417208 
3.050000000002012, -0.9013366961026215 
3.060000000002033, -0.9011700886104688 
3.070000000002054, -0.901007641559713 
3.0800000000020753, -0.9008411538652188 
3.0900000000020964, -0.9006633454390478 
3.1000000000021175, -0.9004678983171207 
3.1100000000021386, -0.9002495489545351 
3.1200000000021597, -0.9000043088506938 
3.130000000002181, -0.8997297964063046 
3.140000000002202, -0.8994255825738982 
3.150000000002223, -0.8990934223488111 
3.160000000002244, -0.8987372775669694 
3.1700000000022652, -0.8983631098831928 
3.1800000000022863, -0.8979784879961047 
3.1900000000023074, -0.8975920743244078 
3.2000000000023285, -0.897213034303536 
3.2100000000023496, -0.896850377526427 
3.2200000000023707, -0.8965122312749848 
3.230000000002392, -0.8962050821773874 
3.240000000002413, -0.8959330859168173 
3.250000000002434, -0.8956975931176693 
3.260000000002455, -0.8954970242531607 
3.2700000000024763, -0.8953271367795608 
3.2800000000024974, -0.8951816065679145 
3.2900000000025185, -0.8950527620625536 
3.3000000000025396, -0.8949323065779735 
3.3100000000025607, -0.894811929886281 
3.3200000000025818, -0.8946837943184311 
3.330000000002603, -0.8945409340315136 
3.340000000002624, -0.8943776096357217 
3.350000000002645, -0.8941896268886451 
3.360000000002666, -0.8939745875054743 
3.3700000000026873, -0.8937320207419253 
3.3800000000027084, -0.8934633602924766 
3.3900000000027295, -0.8931717758070006 
3.4000000000027506, -0.8928619167365985 
3.4100000000027717, -0.8925396467290085 
3.420000000002793, -0.8922118218741767 
3.430000000002814, -0.8918861051445331 
3.440000000002835, -0.8915707434917103 
3.450000000002856, -0.8912741999760231 
3.460000000002877, -0.8910045578554058 
3.4700000000028983, -0.8907687001909258 
3.4800000000029194, -0.8905713866436917 
3.4900000000029405, -0.8904144393223771 
3.5000000000029616, -0.8902962561556077 
3.5100000000029827, -0.8902117843895603 
3.520000000003004, -0.8901529582795227 
3.530000000003025, -0.8901095044194605 
3.540000000003046, -0.890069981376311 
3.550000000003067, -0.8900229274962523 
3.5600000000030882, -0.8899579953551398 
3.5700000000031094, -0.8898669302008789 
3.5800000000031305, -0.8897442302144019 
3.5900000000031516, -0.8895873630039344 
3.6000000000031727, -0.8893965276398295 
3.6100000000031938, -0.8891740974875904 
3.620000000003215, -0.8889239725954715 
3.630000000003236, -0.8886510637802638 
3.640000000003257, -0.8883610434285905 
3.650000000003278, -0.8880603833204527 
3.6600000000032993, -0.8877565953531155 
3.6700000000033204, -0.8874585064087762 
3.6800000000033415, -0.8871763361867506 
3.6900000000033626, -0.8869213275971758 
3.7000000000033837, -0.8867047452548296 
3.710000000003405, -0.8865362401300987 
3.720000000003426, -0.8864218500326677 
3.730000000003447, -0.8863621605383674 
3.740000000003468, -0.8863512512801472 
3.750000000003489, -0.8863769142692041 
3.7600000000035103, -0.8864222765401406 
3.7700000000035314, -0.8864685034007485 
3.7800000000035525, -0.8864978670537205 
3.7900000000035736, -0.8864963155013281 
3.8000000000035947, -0.8864548761420667 
3.810000000003616, -0.8863697059908169 
3.820000000003637, -0.8862411024942031 
3.830000000003658, -0.8860720563612583 
3.840000000003679, -0.8858668901252396 
3.8500000000037002, -0.8856303094377488 
3.8600000000037213, -0.8853669714714547 
3.8700000000037424, -0.8850815388211795 
3.8800000000037635, -0.8847791329545224 
3.8900000000037847, -0.884466073628251 
3.9000000000038058, -0.8841507323291079 
3.910000000003827, -0.8838442103279766 
3.920000000003848, -0.8835604049707151 
3.930000000003869, -0.8833149639887482 
3.94000000000389, -0.8831228225701826 
3.9500000000039113, -0.882994589302255 
3.9600000000039324, -0.8829328534359272 
3.9700000000039535, -0.8829300332068849 
3.9800000000039746, -0.8829690885876443 
3.9900000000039957, -0.883027176478507 
4.000000000004016, -0.8830808355314227 
4.010000000003993, -0.8831106025062108 
4.02000000000397, -0.8831035290770617 
4.030000000003946, -0.88305333262066 
4.040000000003923, -0.8829589343222161 
4.0500000000039, -0.8828224297371501 
4.0600000000038765, -0.8826472640031643 
4.070000000003853, -0.8824369562759461 
4.08000000000383, -0.8821944111117535 
4.090000000003807, -0.8819217293294607 
4.100000000003783, -0.8816204308295823 
4.11000000000376, -0.8812920480492178 
4.120000000003737, -0.8809390746987988 
4.130000000003713, -0.8805662047046949 
4.14000000000369, -0.8801816298456504 
4.150000000003667, -0.8797978934380589 
4.1600000000036434, -0.8794315584494422 
4.17000000000362, -0.879101031472544 
4.180000000003597, -0.8788225677769896 
4.1900000000035735, -0.8786056444098481 
4.20000000000355, -0.8784497597924059 
4.210000000003527, -0.8783443710177024 
4.220000000003504, -0.8782720662135859 
4.23000000000348, -0.8782133516617915 
4.240000000003457, -0.878150899466806 
4.250000000003434, -0.8780719041406828 
4.26000000000341, -0.8779684387937975 
4.270000000003387, -0.8778364986745799 
4.280000000003364, -0.877674553594674 
4.2900000000033405, -0.8774821763778495 
4.300000000003317, -0.8772590026935261 
4.310000000003294, -0.8770040764425181 
4.320000000003271, -0.8767155649657006 
4.330000000003247, -0.876390847111731 
4.340000000003224, -0.8760270305894343 
4.350000000003201, -0.8756219862264324 
4.360000000003177, -0.875175927565216 
4.370000000003154, -0.874693345449472 
4.380000000003131, -0.87418472305328 
4.390000000003107, -0.8736670757791911 
4.400000000003084, -0.8731623614394394 
4.410000000003061, -0.8726935381458679 
4.4200000000030375, -0.8722793460330754 
4.430000000003014, -0.8719298936753423 
4.440000000002991, -0.8716449302467911 
4.450000000002968, -0.8714152928193901 
4.460000000002944, -0.871226459848144 
4.470000000002921, -0.8710624631989556 
4.480000000002898, -0.8709087944426604 
4.490000000002874, -0.8707538116999232 
4.500000000002851, -0.8705888684182129 
4.510000000002828, -0.8704076835815938 
4.520000000002804, -0.8702054416894857 
4.530000000002781, -0.8699779503476044 
4.540000000002758, -0.8697210388271083 
4.5500000000027345, -0.8694303049265806 
4.560000000002711, -0.869101295809281 
4.570000000002688, -0.8687301915586014 
4.580000000002665, -0.8683149853688746 
4.590000000002641, -0.8678569779323407 
4.600000000002618, -0.8673621544493828 
4.610000000002595, -0.866841830268784 
4.620000000002571, -0.8663120281466881 
4.630000000002548, -0.8657914617251388 
4.640000000002525, -0.8652985727798889 
4.6500000000025015, -0.8648484777778822 
4.660000000002478, -0.8644507014960144 
4.670000000002455, -0.8641082433988831 
4.6800000000024315, -0.8638180385949801 
4.690000000002408, -0.863572452977208 
4.700000000002385, -0.8633612275709659 
4.710000000002362, -0.863173298493608 
4.720000000002338, -0.8629981116679554 
4.730000000002315, -0.8628263109939123 
4.740000000002292, -0.862649893378206 
4.750000000002268, -0.8624620381452098 
4.760000000002245, -0.8622568385945669 
4.770000000002222, -0.8620291261668207 
4.7800000000021985, -0.8617745124578123 
4.790000000002175, -0.8614896906262335 
4.800000000002152, -0.861172937652227 
4.810000000002129, -0.8608246612542704 
4.820000000002105, -0.860447784003662 
4.830000000002082, -0.8600477934413459 
4.840000000002059, -0.8596324029598325 
4.850000000002035, -0.8592108974169758 
4.860000000002012, -0.858793306485285 
4.870000000001989, -0.8583895383406668 
4.880000000001965, -0.8580085566464358 
4.890000000001942, -0.8576576483504559 
4.900000000001919, -0.8573418311729404 
4.9100000000018955, -0.8570634701723367 
4.920000000001872, -0.8568221751830496 
