t, s[1].omega / s[0].omega 
0, -3.099995320781045 
0.009999999999999995, -3.099423503415321 
0.019999999999999934, -3.0986507860976387 
0.029999999999999874, -3.097783812670809 
0.04000000000000012, -3.097150003452842 
0.050000000000000405, -3.0968726141750897 
0.06000000000000069, -3.0966454964588275 
0.07000000000000098, -3.0962862071281587 
0.08000000000000126, -3.095799587715301 
0.09000000000000155, -3.0952486495726435 
0.10000000000000184, -3.0947217719634903 
0.11000000000000212, -3.0942778218068123 
0.12000000000000241, -3.0938909262642555 
0.130000000000002, -3.093472564599494 
0.1400000000000009, -3.092948804449472 
0.1499999999999998, -3.0922984922269725 
0.1599999999999987, -3.0916387797636853 
0.1699999999999976, -3.091248905375172 
0.1799999999999965, -3.091125696394614 
0.1899999999999954, -3.090973199239601 
0.1999999999999943, -3.0906447729999553 
0.2099999999999932, -3.090115438505541 
0.2199999999999921, -3.0893729787959847 
0.229999999999991, -3.0884745675784324 
0.2399999999999899, -3.087729642785371 
0.2499999999999888, -3.0874089032040666 
0.2599999999999877, -3.087238269144666 
0.2699999999999866, -3.086944231070718 
0.2799999999999855, -3.086500037275891 
0.2899999999999844, -3.0859586255933023 
0.2999999999999833, -3.08540096019735 
0.3099999999999822, -3.084909754177952 
0.3199999999999811, -3.0845042621554026 
0.32999999999998, -3.084110248193877 
0.3399999999999789, -3.0836381749841726 
0.3499999999999778, -3.0830480117024814 
0.35999999999997667, -3.082396373479919 
0.36999999999997557, -3.0819080603610707 
0.37999999999997447, -3.0817003356397006 
0.38999999999997337, -3.081549835048078 
0.39999999999997227, -3.0812653412022337 
0.40999999999997117, -3.0807937290593186 
0.41999999999997006, -3.0801104455178243 
0.42999999999996896, -3.0792236962762383 
0.43999999999996786, -3.078363957187849 
0.44999999999996676, -3.07793039215099 
0.45999999999996566, -3.077794708522377 
0.46999999999996456, -3.077581785663689 
0.47999999999996346, -3.077198515668873 
0.48999999999996235, -3.076685701408554 
0.49999999999996125, -3.0761131364139933 
0.5099999999999602, -3.07557117419862 
0.519999999999959, -3.07512558451167 
0.529999999999958, -3.074741301274957 
0.5399999999999568, -3.0743170859897306 
0.5499999999999557, -3.073789305267896 
0.5599999999999546, -3.073168179251349 
0.5699999999999535, -3.072602654021436 
0.5799999999999524, -3.072283049422514 
0.5899999999999513, -3.0721102612580653 
0.5999999999999502, -3.0718681955845475 
0.6099999999999491, -3.0714637319500255 
0.619999999999948, -3.070861247659812 
0.6299999999999469, -3.0700357814959913 
0.6399999999999458, -3.069103706556086 
0.6499999999999447, -3.068485927382861 
0.6599999999999436, -3.068319880782918 
0.6699999999999425, -3.0681950506286357 
0.6799999999999414, -3.0678954584019387 
0.6899999999999403, -3.0674345183093448 
0.6999999999999392, -3.0668717375623333 
0.7099999999999381, -3.0662893015518535 
0.719999999999937, -3.0657829327510813 
0.7299999999999359, -3.065380643610797 
0.7399999999999348, -3.0649936627882295 
0.7499999999999337, -3.0645285223455994 
0.7599999999999326, -3.063958816866495 
0.7699999999999315, -3.0633579459577454 
0.7799999999999304, -3.0629155684667717 
0.7899999999999293, -3.0626801732589644 
0.7999999999999282, -3.062465708992895 
0.8099999999999271, -3.0621302935695445 
0.819999999999926, -3.061619581942682 
0.8299999999999249, -3.0608942092296543 
0.8399999999999238, -3.059971953557648 
0.8499999999999227, -3.059154506305391 
0.8599999999999216, -3.0588387006160733 
0.8699999999999205, -3.0587744110314796 
0.8799999999999194, -3.0585819044318887 
0.8899999999999183, -3.058200001629337 
0.8999999999999172, -3.057677449182271 
0.9099999999999161, -3.057081881095508 
0.919999999999915, -3.056510447251427 
0.9299999999999139, -3.05605217085644 
0.9399999999999128, -3.055676652943191 
0.9499999999999117, -3.0552692680443756 
0.9599999999999106, -3.0547647345339892 
0.9699999999999095, -3.0541775221710536 
0.9799999999999084, -3.0536369614713497 
0.9899999999999073, -3.0532938366952163 
0.9999999999999062, -3.053071474227985 
1.0099999999999052, -3.0527962294464808 
1.019999999999904, -3.0523783082047764 
1.029999999999903, -3.051770972152424 
1.039999999999902, -3.0509406170016393 
1.0499999999999008, -3.0500096622725383 
1.0599999999998997, -3.0494249765957617 
1.0699999999998986, -3.049315538963305 
1.0799999999998975, -3.049236908952553 
1.0899999999998964, -3.048964972087098 
1.0999999999998953, -3.048515663039353 
1.1099999999998942, -3.0479459839570593 
1.119999999999893, -3.047334197018767 
1.129999999999892, -3.0467924211877437 
1.1399999999998909, -3.046380601704296 
1.1499999999998898, -3.0460120813988416 
1.1599999999998887, -3.045577237263959 
1.1699999999998876, -3.045042607211583 
1.1799999999998865, -3.044463291631409 
1.1899999999998854, -3.043994560392321 
1.1999999999998843, -3.0437067182929956 
1.2099999999998832, -3.0434641320496247 
1.219999999999882, -3.043130746754481 
1.229999999999881, -3.042641111500794 
1.2399999999998799, -3.0419476561288845 
1.2499999999998788, -3.0410477444967037 
1.2599999999998777, -3.0402042677498566 
1.2699999999998766, -3.039859968795281 
1.2799999999998755, -3.0398343473650815 
1.2899999999998744, -3.039699285594758 
1.2999999999998733, -3.039358830041977 
1.3099999999998722, -3.0388566026392865 
1.319999999999871, -3.0382528143122722 
1.32999999999987, -3.037640647871872 
1.3399999999998689, -3.0371391660155114 
1.3499999999998678, -3.0367613918666327 
1.3599999999998666, -3.0363861784853023 
1.3699999999998655, -3.035924776898877 
1.3799999999998644, -3.035372205564392 
1.3899999999998633, -3.0348179143082943 
1.3999999999998622, -3.034410132690929 
1.4099999999998611, -3.0341439784192703 
1.41999999999986, -3.0338721049147828 
1.429999999999859, -3.0334888691459865 
1.4399999999998578, -3.03293785036686 
1.4499999999998567, -3.0321734123004482 
1.4599999999998556, -3.0312496885888343 
1.4699999999998545, -3.030550161182135 
1.4799999999998534, -3.030380261253864 
1.4899999999998523, -3.0303626462042543 
1.4999999999998512, -3.030168263439886 
1.5099999999998501, -3.02977426947682 
1.519999999999849, -3.0292318309211845 
1.529999999999848, -3.028605901285846 
1.5399999999998468, -3.028005885301257 
1.5499999999998457, -3.027544775089926 
1.5599999999998446, -3.027186564974403 
1.5699999999998435, -3.026798773898015 
1.5799999999998424, -3.0263157835283527 
1.5899999999998413, -3.025756135740877 
1.5999999999998402, -3.0252326501944995 
1.6099999999998391, -3.0248676432415897 
1.619999999999838, -3.024605434977097 
1.629999999999837, -3.024305960480093 
1.6399999999998358, -3.0238824589177953 
1.6499999999998347, -3.0232812917554472 
1.6599999999998336, -3.0224650216502913 
1.6699999999998325, -3.021556364781479 
1.6799999999998314, -3.021003307714863 
1.6899999999998303, -3.0209334130683296 
1.6999999999998292, -3.020893984828974 
1.709999999999828, -3.0206512651342186 
1.719999999999827, -3.020217978575995 
1.729999999999826, -3.0196467348964755 
1.7399999999998248, -3.0190090306850426 
1.7499999999998237, -3.0184276241330315 
1.7599999999998226, -3.0179993967798433 
1.7699999999998215, -3.0176499019252443 
1.7799999999998204, -3.017249296467046 
1.7899999999998193, -3.0167509176374727 
1.7999999999998182, -3.0161913241238656 
1.809999999999817, -3.015695771650999 
1.819999999999816, -3.0153576868748484 
1.8299999999998149, -3.015092875395699 
1.8399999999998138, -3.0147717690017117 
1.8499999999998127, -3.0143182135780893 
1.8599999999998116, -3.013679540697452 
1.8699999999998105, -3.0128306668786466 
1.8799999999998094, -3.011955904886601 
1.8899999999998083, -3.011516723480035 
1.8999999999998072, -3.0114948426182466 
1.909999999999806, -3.011429747473166 
1.919999999999805, -3.011153086140539 
1.9299999999998039, -3.0106935050274393 
1.9399999999998028, -3.01010389858134 
1.9499999999998017, -3.0094622132054463 
1.9599999999998006, -3.0088992764846463 
1.9699999999997995, -3.008493587333647 
1.9799999999997984, -3.008146796446803 
1.9899999999997973, -3.0077362943373593 
1.9999999999997962, -3.007228381672638 
2.0099999999998173, -3.006671788623382 
2.0199999999998384, -3.0061968282530573 
2.0299999999998595, -3.005874700917428 
2.0399999999998806, -3.005607010172376 
2.0499999999999017, -3.0052720596319418 
2.059999999999923, -3.004799301891557 
2.069999999999944, -3.0041367782918824 
2.079999999999965, -3.0032708146323075 
2.089999999999986, -3.002427135268496 
2.100000000000007, -3.0020571993840117 
2.1100000000000283, -3.002054668578024 
2.1200000000000494, -3.0019715971660292 
2.1300000000000705, -3.001675586717884 
2.1400000000000916, -3.0012017950234253 
2.1500000000001127, -3.000603379935831 
2.160000000000134, -2.999962574993362 
2.170000000000155, -2.9994130247283075 
2.180000000000176, -2.9990197357584654 
2.190000000000197, -2.998673345756738 
2.2000000000002182, -2.998257329076952 
2.2100000000002393, -2.9977448483268114 
2.2200000000002604, -2.9971909162063666 
2.2300000000002815, -2.9967275650092904 
2.2400000000003026, -2.996414354295961 
2.2500000000003237, -2.996146699812418 
2.260000000000345, -2.9958066062008615 
2.270000000000366, -2.9953260798323633 
2.280000000000387, -2.9946538022785405 
2.290000000000408, -2.993781698370854 
2.3000000000004293, -2.9929514199578455 
2.3100000000004504, -2.99260574529389 
2.3200000000004715, -2.9926081051108486 
2.3300000000004926, -2.992519015822987 
2.3400000000005137, -2.9922177936646435 
2.3500000000005348, -2.991741279834847 
2.360000000000556, -2.9911428254698254 
2.370000000000577, -2.990505541335083 
2.380000000000598, -2.989961785903062 
2.390000000000619, -2.989571841068815 
2.4000000000006403, -2.989225578529813 
2.4100000000006614, -2.988808969667049 
2.4200000000006825, -2.9882961889067876 
2.4300000000007036, -2.987742714587315 
2.4400000000007247, -2.9872814157531877 
2.450000000000746, -2.9869720174861722 
2.460000000000767, -2.9867087310905607 
2.470000000000788, -2.9863727111861285 
2.480000000000809, -2.985896248485192 
2.49000000000083, -2.9852285304723862 
2.5000000000008513, -2.9843590459329024 
2.5100000000008724, -2.983518983029466 
2.5200000000008935, -2.9831537461743647 
2.5300000000009146, -2.9831509838296766 
2.5400000000009357, -2.983068625940325 
2.550000000000957, -2.9827759484837513 
2.560000000000978, -2.98230782589223 
2.570000000000999, -2.9817175981560977 
2.58000000000102, -2.981085723918392 
2.5900000000010412, -2.9805399344978936 
2.6000000000010624, -2.9801449596027427 
2.6100000000010835, -2.9797990024932144 
2.6200000000011046, -2.9793867785428723 
2.6300000000011257, -2.978877865575657 
2.6400000000011468, -2.978322321808605 
2.650000000001168, -2.977852994664968 
2.660000000001189, -2.9775420310039475 
2.67000000000121, -2.977287614902978 
2.680000000001231, -2.976965154700652 
2.6900000000012523, -2.976504752585378 
2.7000000000012734, -2.9758561631182507 
2.7100000000012945, -2.9749997533640706 
2.7200000000013156, -2.974130791830821 
2.7300000000013367, -2.9737012900435866 
2.740000000001358, -2.9736787486347938 
2.750000000001379, -2.9736142230432856 
2.7600000000014, -2.9733436468347803 
2.770000000001421, -2.9728948548460075 
2.780000000001442, -2.972320983343569 
2.7900000000014633, -2.9716972195471874 
2.8000000000014844, -2.971143318685562 
2.8100000000015055, -2.970735016982368 
2.8200000000015266, -2.970388557273319 
2.8300000000015477, -2.969985354656745 
2.840000000001569, -2.969485047956511 
2.85000000000159, -2.968926234761674 
2.860000000001611, -2.968438306889588 
2.870000000001632, -2.9681176792043615 
2.8800000000016532, -2.967875417729904 
2.8900000000016743, -2.9675760467214123 
2.9000000000016954, -2.9671436627382093 
2.9100000000017165, -2.9665288771894893 
2.9200000000017377, -2.965700647135053 
2.9300000000017588, -2.9647973467511477 
2.94000000000178, -2.964259282160456 
2.950000000001801, -2.9641883619856797 
2.960000000001822, -2.9641475140143703 
2.970000000001843, -2.963912333797962 
2.9800000000018643, -2.963493894004297 
2.9900000000018854, -2.9629446660290655 
3.0000000000019065, -2.96233354168495 
3.0100000000019276, -2.9617690050834 
3.0200000000019487, -2.9613392647444203 
3.03000000000197, -2.9609891709362435 
3.040000000001991, -2.9605986585046535 
3.050000000002012, -2.96011266138444 
3.060000000002033, -2.959552477230358 
3.070000000002054, -2.959036046581679 
3.0800000000020753, -2.9586922776753375 
3.0900000000020964, -2.9584618953299087 
3.1000000000021175, -2.958194793518539 
3.1100000000021386, -2.957802290324851 
3.1200000000021597, -2.957235513792701 
3.130000000002181, -2.9564551590092343 
3.140000000002202, -2.955533358399076 
3.150000000002223, -2.954853892314342 
3.160000000002244, -2.9546840884005645 
3.1700000000022652, -2.954660215522399 
3.1800000000022863, -2.954472437011304 
3.1900000000023074, -2.9540957661777485 
3.2000000000023285, -2.953579834822305 
3.2100000000023496, -2.9529878383900208 
3.2200000000023707, -2.952414953214069 
3.230000000002392, -2.9519573479970638 
3.240000000002413, -2.95159721275101 
3.250000000002434, -2.9512209769692053 
3.260000000002455, -2.9507557104119413 
3.2700000000024763, -2.950200603645386 
3.2800000000024974, -2.949649861403399 
3.2900000000025185, -2.9492623519467687 
3.3000000000025396, -2.949035536362226 
3.3100000000025607, -2.948808342984742 
3.3200000000025818, -2.9484677066223717 
3.330000000002603, -2.947962069136207 
3.340000000002624, -2.9472504422995134 
3.350000000002645, -2.9463472048132964 
3.360000000002666, -2.945527064275795 
3.3700000000026873, -2.945188594608331 
3.3800000000027084, -2.945149089390182 
3.3900000000027295, -2.945015496831823 
3.4000000000027506, -2.944692492858924 
3.4100000000027717, -2.944219156487093 
3.420000000002793, -2.9436542046995333 
3.430000000002814, -2.943079943733534 
3.440000000002835, -2.9425924905329905 
3.450000000002856, -2.942212992631319 
3.460000000002877, -2.941848903306174 
3.4700000000028983, -2.9414103365325768 
3.4800000000029194, -2.940871397785391 
3.4900000000029405, -2.940290203331884 
3.5000000000029616, -2.9398340401517693 
3.5100000000029827, -2.939586964983095 
3.520000000003004, -2.939401911363195 
3.530000000003025, -2.9391255301857746 
3.540000000003046, -2.9386933323761197 
3.550000000003067, -2.938067994047812 
3.5600000000030882, -2.937229708670791 
3.5700000000031094, -2.9363216689572536 
3.5800000000031305, -2.935756256436501 
3.5900000000031516, -2.935626940888829 
3.6000000000031727, -2.9355380592929317 
3.6100000000031938, -2.9352797394194328 
3.620000000003215, -2.934859341523617 
3.630000000003236, -2.934330353508856 
3.640000000003257, -2.9337645872328455 
3.650000000003278, -2.9332519063329787 
3.6600000000032993, -2.932843738498595 
3.6700000000033204, -2.932484424360046 
3.6800000000033415, -2.932075946521432 
3.6900000000033626, -2.931566687453336 
3.7000000000033837, -2.9309728610371764 
3.710000000003405, -2.930431544798891 
3.720000000003426, -2.930117875184579 
3.730000000003447, -2.9299610566811536 
3.740000000003468, -2.9297603824501737 
3.750000000003489, -2.92941475551901 
3.7600000000035103, -2.9288883106551222 
3.7700000000035314, -2.9281530921008625 
3.7800000000035525, -2.927249426435689 
3.7900000000035736, -2.926469553143342 
3.8000000000035947, -2.9261420249074304 
3.810000000003616, -2.9260494955663963 
3.820000000003637, -2.925859509138494 
3.830000000003658, -2.9255032907515446 
3.840000000003679, -2.925020463109622 
3.8500000000037002, -2.924474028308989 
3.8600000000037213, -2.9239461826971604 
3.8700000000037424, -2.9235050492559145 
3.8800000000037635, -2.923138332398002 
3.8900000000037847, -2.9227580648572213 
3.9000000000038058, -2.922290252994666 
3.910000000003827, -2.9217127194441375 
3.920000000003848, -2.921098805859267 
3.930000000003869, -2.920659117068807 
3.94000000000389, -2.920479027469692 
3.9500000000039113, -2.920355523025761 
3.9600000000039324, -2.9201123557499296 
3.9700000000039535, -2.919695627152575 
3.9800000000039746, -2.919084095550475 
3.9900000000039957, -2.9182714648643096 
4.000000000004016, -2.9173886745971407 
4.010000000003993, -2.9167930310800787 
4.02000000000397, -2.916588238736761 
4.030000000003946, -2.916443703878616 
4.040000000003923, -2.91616042857414 
4.0500000000039, -2.9157356237868455 
4.0600000000038765, -2.9152204455633366 
4.070000000003853, -2.9146890947047934 
4.08000000000383, -2.914218134917707 
4.090000000003807, -2.9138314285592175 
4.100000000003783, -2.913470333647931 
4.11000000000376, -2.9130496667086216 
4.120000000003737, -2.912517469096896 
4.130000000003713, -2.9118802794088796 
4.14000000000369, -2.9112885115843037 
4.150000000003667, -2.910980538521146 
4.1600000000036434, -2.9108949072339616 
4.17000000000362, -2.91076841986286 
4.180000000003597, -2.9104767667540195 
4.1900000000035735, -2.909997883179785 
4.20000000000355, -2.9093228597215823 
4.210000000003527, -2.908482661131334 
4.220000000003504, -2.9076878148433463 
4.23000000000348, -2.907244306268739 
4.240000000003457, -2.9070626728148197 
4.250000000003434, -2.906844850027682 
4.26000000000341, -2.90648967333476 
4.270000000003387, -2.906020316775005 
4.280000000003364, -2.905497977334276 
4.2900000000033405, -2.905003626037585 
4.300000000003317, -2.9045893130984437 
4.310000000003294, -2.9042327782931476 
4.320000000003271, -2.903856139182884 
4.330000000003247, -2.903387498816815 
4.340000000003224, -2.9027889017126904 
4.350000000003201, -2.902104003090022 
4.360000000003177, -2.9015674234794107 
4.370000000003154, -2.901386129025773 
4.380000000003131, -2.9013557704733826 
4.390000000003107, -2.901210730863043 
4.400000000003084, -2.9008762023071797 
4.410000000003061, -2.900351676946638 
4.4200000000030375, -2.899644097500018 
4.430000000003014, -2.8988258223718657 
4.440000000002991, -2.8981404755465547 
4.450000000002968, -2.897784031386532 
4.460000000002944, -2.8975753950108905 
4.470000000002921, -2.897291065380657 
4.480000000002898, -2.8968835305070897 
4.490000000002874, -2.8963879480828023 
4.500000000002851, -2.8958773904321786 
4.510000000002828, -2.895430283759578 
4.520000000002804, -2.8950628641744762 
4.530000000002781, -2.8947185234153077 
4.540000000002758, -2.8943175450942134 
4.5500000000027345, -2.8937987541939774 
4.560000000002711, -2.89313322335832 
4.570000000002688, -2.8924100450886616 
4.580000000002665, -2.8919387257507685 
4.590000000002641, -2.891857202131828 
4.600000000002618, -2.8918544932911874 
4.610000000002595, -2.891688362403083 
4.620000000002571, -2.891322389825678 
4.630000000002548, -2.8907728394994074 
4.640000000002525, -2.8900649595830794 
4.6500000000025015, -2.889301365678059 
4.660000000002478, -2.8887110051384544 
4.670000000002455, -2.8883880070956374 
4.6800000000024315, -2.88813722471141 
4.690000000002408, -2.887799717169765 
4.700000000002385, -2.887354185941884 
4.710000000002362, -2.886844992250912 
4.720000000002338, -2.8863580499322783 
4.730000000002315, -2.885960539740851 
4.740000000002292, -2.885630563245292 
4.750000000002268, -2.8852901453576996 
4.760000000002245, -2.8848641780970814 
4.770000000002222, -2.884297206169681 
4.7800000000021985, -2.883566448425973 
4.790000000002175, -2.8828058730540453 
4.800000000002152, -2.882382443729826 
4.810000000002129, -2.8823638135743694 
4.820000000002105, -2.88237122142727 
4.830000000002082, -2.8821876155335486 
4.840000000002059, -2.881803370710946 
4.850000000002035, -2.881248860060896 
4.860000000002012, -2.8805659279816394 
4.870000000001989, -2.879869057660286 
4.880000000001965, -2.879346414600649 
4.890000000001942, -2.87902620181391 
4.900000000001919, -2.8787345039551555 
4.9100000000018955, -2.8783559387158393 
4.920000000001872, -2.877881377486667 
4.930000000001849, -2.8773650288204533 
4.940000000001826, -2.8769068747860747 
4.950000000001802, -2.876558729456222 
4.960000000001779, -2.876262458216369 
4.970000000001756, -2.875926509780668 
4.980000000001732, -2.875481324372221 
