t, s[1].omega / s[0].omega 
0, -2.4749962256253633 
0.009999999999999995, -2.4745396696739794 
0.019999999999999934, -2.473930037191174 
0.029999999999999874, -2.473202693970962 
0.04000000000000012, -2.472483214337514 
0.050000000000000405, -2.4719634780916624 
0.06000000000000069, -2.471689452586457 
0.07000000000000098, -2.471502570138711 
0.08000000000000126, -2.4712597809158563 
0.09000000000000155, -2.4709201583475626 
0.10000000000000184, -2.470497626263013 
0.11000000000000212, -2.470038981470681 
0.12000000000000241, -2.4696207042046923 
0.130000000000002, -2.469299464627962 
0.1400000000000009, -2.4690554686460624 
0.1499999999999998, -2.468818608140251 
0.1599999999999987, -2.468521942433803 
0.1699999999999976, -2.468117021843375 
0.1799999999999965, -2.467563621351837 
0.1899999999999954, -2.4668355897557843 
0.1999999999999943, -2.4659962990733044 
0.2099999999999932, -2.465309234187118 
0.2199999999999921, -2.465048970599607 
0.229999999999991, -2.4650895928558536 
0.2399999999999899, -2.4651123158319943 
0.2499999999999888, -2.4649755957722865 
0.2599999999999877, -2.464681985371465 
0.2699999999999866, -2.464269693970247 
0.2799999999999855, -2.4637839619769135 
0.2899999999999844, -2.463284056819596 
0.2999999999999833, -2.46283713846615 
0.3099999999999822, -2.462479954844812 
0.3199999999999811, -2.462181264065742 
0.32999999999998, -2.4618689871248334 
0.3399999999999789, -2.4614854980120127 
0.3499999999999778, -2.461001478441837 
0.35999999999997667, -2.4604255880991426 
0.36999999999997557, -2.4598591670246184 
0.37999999999997447, -2.4595007579151824 
0.38999999999997337, -2.4594241816387514 
0.39999999999997227, -2.4594549881327312 
0.40999999999997117, -2.459403707193627 
0.41999999999997006, -2.4591992092529593 
0.42999999999996896, -2.458836015640693 
0.43999999999996786, -2.4583223697336445 
0.44999999999996676, -2.457678131659345 
0.45999999999996566, -2.4569733694755493 
0.46999999999996456, -2.456359430675618 
0.47999999999996346, -2.455964863592235 
0.48999999999996235, -2.455731795819198 
0.49999999999996125, -2.4555065967195633 
0.5099999999999602, -2.455204184261555 
0.519999999999959, -2.4548123427733897 
0.529999999999958, -2.454357973081279 
0.5399999999999568, -2.4539074735260233 
0.5499999999999557, -2.453545357926651 
0.5599999999999546, -2.453294652010213 
0.5699999999999535, -2.4530929367819354 
0.5799999999999524, -2.4528585922737074 
0.5899999999999513, -2.4525334739587636 
0.5999999999999502, -2.4520773178075617 
0.6099999999999491, -2.451454673708784 
0.619999999999948, -2.450658843310857 
0.6299999999999469, -2.4498112714890317 
0.6399999999999458, -2.4492154158970774 
0.6499999999999447, -2.449041140742005 
0.6599999999999436, -2.449062657669846 
0.6699999999999425, -2.449011262332453 
0.6799999999999414, -2.4488062921445497 
0.6899999999999403, -2.4484666835486837 
0.6999999999999392, -2.4480324538582714 
0.7099999999999381, -2.447554002610802 
0.719999999999937, -2.4470936270204597 
0.7299999999999359, -2.4467029336048283 
0.7399999999999348, -2.4463862443512916 
0.7499999999999337, -2.446092958501444 
0.7599999999999326, -2.4457575471635544 
0.7699999999999315, -2.4453328214709096 
0.7799999999999304, -2.444793320184906 
0.7899999999999293, -2.4441613335644012 
0.7999999999999282, -2.44358218117539 
0.8099999999999271, -2.443285846763781 
0.819999999999926, -2.4432913117147192 
0.8299999999999249, -2.443363043295718 
0.8399999999999238, -2.443314552346387 
0.8499999999999227, -2.443097838002201 
0.8599999999999216, -2.442723490290038 
0.8699999999999205, -2.4422116949887878 
0.8799999999999194, -2.441595757752323 
0.8899999999999183, -2.440954143293676 
0.8999999999999172, -2.4404162032459564 
0.9099999999999161, -2.440058803683626 
0.919999999999915, -2.4398095032810962 
0.9299999999999139, -2.4395464673143796 
0.9399999999999128, -2.4392073918081527 
0.9499999999999117, -2.4387844357327695 
0.9599999999999106, -2.4383093447806585 
0.9699999999999095, -2.437864724260289 
0.9799999999999084, -2.437545888706192 
0.9899999999999073, -2.437355707640011 
0.9999999999999062, -2.4372014566541886 
1.0099999999999052, -2.4369911030264486 
1.019999999999904, -2.4366714739603514 
1.029999999999903, -2.4362100698487743 
1.039999999999902, -2.4355793024836236 
1.0499999999999008, -2.4347813357493298 
1.0599999999998997, -2.4339377241372326 
1.0699999999998986, -2.4333258217575784 
1.0799999999998975, -2.4330951626894697 
1.0899999999998964, -2.4330478789362737 
1.0999999999998953, -2.4329452858069933 
1.1099999999998942, -2.4327109503426474 
1.119999999999893, -2.4323587172592998 
1.129999999999892, -2.431926484206861 
1.1399999999998909, -2.4314673738968087 
1.1499999999998898, -2.4310434525903495 
1.1599999999998887, -2.430692754461597 
1.1699999999998876, -2.4304016716898493 
1.1799999999998865, -2.430115635356792 
1.1899999999998854, -2.4297746907155515 
1.1999999999998843, -2.429333146207548 
1.2099999999998832, -2.428759455636892 
1.219999999999882, -2.428065624801941 
1.229999999999881, -2.4273994854509193 
1.2399999999998799, -2.427035789688864 
1.2499999999998788, -2.4270400139488593 
1.2599999999998777, -2.427152513799874 
1.2699999999998766, -2.427145746389396 
1.2799999999998755, -2.426962397112252 
1.2899999999998744, -2.4266215436603344 
1.2999999999998733, -2.426154391730065 
1.3099999999998722, -2.4256001038127084 
1.319999999999871, -2.4250258423812103 
1.32999999999987, -2.4245276841011076 
1.3399999999998689, -2.424164188508578 
1.3499999999998678, -2.423887543934387 
1.3599999999998666, -2.423601692325083 
1.3699999999998655, -2.423246516036754 
1.3799999999998644, -2.422805270264914 
1.3899999999998633, -2.422301547456951 
1.3999999999998622, -2.421825413843012 
1.4099999999998611, -2.421506139677663 
1.41999999999986, -2.4213672985807366 
1.429999999999859, -2.4212895454060095 
1.4399999999998578, -2.4211496699510127 
1.4499999999998567, -2.4208880568759374 
1.4599999999998556, -2.420481670177565 
1.4699999999998545, -2.419916000781945 
1.4799999999998534, -2.4191931353756178 
1.4899999999998523, -2.4183897432986976 
1.4999999999998512, -2.4177102365218888 
1.5099999999998501, -2.4173358107199197 
1.519999999999849, -2.4171817239136275 
1.529999999999848, -2.4170371253523903 
1.5399999999998468, -2.416796131334013 
1.5499999999998457, -2.416450089186374 
1.5599999999998446, -2.41602707052592 
1.5699999999998435, -2.4155787875989865 
1.5799999999998424, -2.4151732747964374 
1.5899999999998413, -2.414851256838454 
1.5999999999998402, -2.414591963853856 
1.6099999999998391, -2.414335786249868 
1.619999999999838, -2.4140225389741405 
1.629999999999837, -2.413605542585322 
1.6399999999998358, -2.413045872718605 
1.6499999999998347, -2.4123250618562064 
1.6599999999998336, -2.4115256822437674 
1.6699999999998325, -2.410918244646173 
1.6799999999998314, -2.410735413420158 
1.6899999999998303, -2.410819688020453 
1.6999999999998292, -2.410867606783801 
1.709999999999828, -2.4107509451635294 
1.719999999999827, -2.410473690298341 
1.729999999999826, -2.410072200559096 
1.7399999999998248, -2.409588035469624 
1.7499999999998237, -2.4090762993808332 
1.7599999999998226, -2.4086065865186246 
1.7699999999998215, -2.4082298241628624 
1.7799999999998204, -2.4079301903948265 
1.7899999999998193, -2.4076373835737557 
1.7999999999998182, -2.4072875510499396 
1.809999999999817, -2.4068467074892905 
1.819999999999816, -2.4063117194864017 
1.8299999999998149, -2.405746042078694 
1.8399999999998138, -2.4053150839229582 
1.8499999999998127, -2.4051518240958614 
1.8599999999998116, -2.4051638086436786 
1.8699999999998105, -2.4051556568160595 
1.8799999999998094, -2.405018440207436 
1.8899999999998083, -2.4047276190247526 
1.8999999999998072, -2.404286080040543 
1.909999999999806, -2.403703595334297 
1.919999999999805, -2.403017106912245 
1.9299999999998039, -2.40233439639338 
1.9399999999998028, -2.4018157351853926 
1.9499999999998017, -2.4015137653464267 
1.9599999999998006, -2.401307346463352 
1.9699999999997995, -2.4010647504859324 
1.9799999999997984, -2.400736074118716 
1.9899999999997973, -2.400324708483203 
1.9999999999997962, -2.3998679936473017 
2.0099999999998173, -2.3994414913949016 
2.0199999999998384, -2.399120510087101 
2.0299999999998595, -2.398903104539117 
2.0399999999998806, -2.3987153336569604 
2.0499999999999017, -2.398480110744676 
2.059999999999923, -2.3981461175388468 
2.069999999999944, -2.3976769415873984 
2.079999999999965, -2.3970406532991344 
2.089999999999986, -2.396238101008505 
2.100000000000007, -2.39539707883267 
2.1100000000000283, -2.3948062587918297 
2.1200000000000494, -2.394616775259765 
2.1300000000000705, -2.394618677188242 
2.1400000000000916, -2.3945600044625364 
2.1500000000001127, -2.3943591682328114 
2.160000000000134, -2.3940304468996003 
2.170000000000155, -2.393611067267106 
2.180000000000176, -2.3931494683103276 
2.190000000000197, -2.3927054571448907 
2.2000000000002182, -2.3923273863215373 
2.2100000000002393, -2.392019785172533 
2.2200000000002604, -2.391738135816952 
2.2300000000002815, -2.391420845214278 
2.2400000000003026, -2.3910190362311594 
2.2500000000003237, -2.3904995766594683 
2.260000000000345, -2.3898589935571946 
2.270000000000366, -2.389193443763952 
2.280000000000387, -2.3887427471680738 
2.290000000000408, -2.3886590055689085 
2.3000000000004293, -2.3887683461509863 
2.3100000000004504, -2.388816531267791 
2.3200000000004715, -2.3886997228491635 
2.3300000000004926, -2.388418247162993 
2.3400000000005137, -2.38799807636295 
2.3500000000005348, -2.3874701436742454 
2.360000000000556, -2.3868852709487642 
2.370000000000577, -2.3863314089963614 
2.380000000000598, -2.385900528628336 
2.390000000000619, -2.3855984009365296 
2.4000000000006403, -2.385337117798726 
2.4100000000006614, -2.3850321454039216 
2.4200000000006825, -2.3846467193300716 
2.4300000000007036, -2.384181258983583 
2.4400000000007247, -2.383682787227154 
2.450000000000746, -2.38326303691374 
2.460000000000767, -2.383022599410301 
2.470000000000788, -2.3829233187760286 
2.480000000000809, -2.382834932306896 
2.49000000000083, -2.3826603617321465 
2.5000000000008513, -2.3823576654089766 
2.5100000000008724, -2.3819082205313276 
2.5200000000008935, -2.3812997147609924 
2.5300000000009146, -2.3805472098845764 
2.5400000000009357, -2.379757528454963 
2.550000000000957, -2.3791470811243522 
2.560000000000978, -2.378840971330736 
2.570000000000999, -2.3787049020925055 
2.58000000000102, -2.3785469054211275 
2.5900000000010412, -2.378288665066808 
2.6000000000010624, -2.3779308799368684 
2.6100000000010835, -2.377504146376812 
2.6200000000011046, -2.3770627184003876 
2.6300000000011257, -2.376673810137114 
2.6400000000011468, -2.376370924466972 
2.650000000001168, -2.3761259514579116 
2.660000000001189, -2.375877513618416 
2.67000000000121, -2.375567550550743 
2.680000000001231, -2.3751515699420453 
2.6900000000012523, -2.3745916848659 
2.7000000000012734, -2.3738684853423284 
2.7100000000012945, -2.373056392299969 
2.7200000000013156, -2.3724118453495953 
2.7300000000013367, -2.372180872708643 
2.740000000001358, -2.372242762521588 
2.750000000001379, -2.372297315585672 
2.7600000000014, -2.3721993261541825 
2.770000000001421, -2.371943607980825 
2.780000000001442, -2.371564646703294 
2.7900000000014633, -2.3711031300116097 
2.8000000000014844, -2.3706107996224266 
2.8100000000015055, -2.370151178178961 
2.8200000000015266, -2.369773156412804 
2.8300000000015477, -2.3694708211077034 
2.840000000001569, -2.3691846776611745 
2.85000000000159, -2.368850975351301 
2.860000000001611, -2.368429476890573 
2.870000000001632, -2.367903882645407 
2.8800000000016532, -2.3673083337895675 
2.8900000000016743, -2.3667859478257127 
2.9000000000016954, -2.3665288848859656 
2.9100000000017165, -2.3665340236719614 
2.9200000000017377, -2.3665951782509267 
2.9300000000017588, -2.36654851341443 
2.94000000000178, -2.3663451720315107 
2.950000000001801, -2.3659893739690454 
2.960000000001822, -2.365496061030669 
2.970000000001843, -2.3648912770305164 
2.9800000000018643, -2.364240419586214 
2.9900000000018854, -2.3636650689569523 
3.0000000000019065, -2.363267256250677 
3.0100000000019276, -2.363011759010545 
3.0200000000019487, -2.36277685153189 
3.03000000000197, -2.3624805881949036 
3.040000000001991, -2.362100478570126 
3.050000000002012, -2.3616507055766265 
3.060000000002033, -2.361187192937208 
3.070000000002054, -2.3608064450674133 
3.0800000000020753, -2.360568291202855 
3.0900000000020964, -2.3604238519339296 
3.1000000000021175, -2.36027322549577 
3.1100000000021386, -2.360042928507278 
3.1200000000021597, -2.359693284868311 
3.130000000002181, -2.3591973570538247 
3.140000000002202, -2.3585345779605964 
3.150000000002223, -2.357726399547859 
3.160000000002244, -2.356917974933512 
3.1700000000022652, -2.356364588714186 
3.1800000000022863, -2.356154165564437 
3.1900000000023074, -2.3560883075959325 
3.2000000000023285, -2.355965392076803 
3.2100000000023496, -2.3557230141151346 
3.2200000000023707, -2.3553732901651196 
3.230000000002392, -2.354950990902805 
3.240000000002413, -2.3545078302193962 
3.250000000002434, -2.3541049326004817 
3.260000000002455, -2.353777497450353 
3.2700000000024763, -2.3535090101803893 
3.2800000000024974, -2.3532464317926256 
3.2900000000025185, -2.3529325802554792 
3.3000000000025396, -2.3525221351621726 
3.3100000000025607, -2.3519785096855004 
3.3200000000025818, -2.3512864908689273 
3.330000000002603, -2.350524719787377 
3.340000000002624, -2.3499422277264377 
3.350000000002645, -2.3497631657869045 
3.360000000002666, -2.349859759960906 
3.3700000000026873, -2.349940983123775 
3.3800000000027084, -2.3498649596656946 
3.3900000000027295, -2.349624834884599 
3.4000000000027506, -2.349252942155593 
3.4100000000027717, -2.3487867219603493 
3.420000000002793, -2.3482741922467314 
3.430000000002814, -2.347781375473435 
3.440000000002835, -2.347371882594131 
3.450000000002856, -2.3470567317554516 
3.460000000002877, -2.3467791570945464 
3.4700000000028983, -2.3464681686199675 
3.4800000000029194, -2.3460794558755382 
3.4900000000029405, -2.345595868594489 
3.5000000000029616, -2.3450407584042563 
3.5100000000029827, -2.344524515637524 
3.520000000003004, -2.3442192270895466 
3.530000000003025, -2.3441639264433762 
3.540000000003046, -2.344198915196757 
3.550000000003067, -2.344159702231861 
3.5600000000030882, -2.3439793646039147 
3.5700000000031094, -2.343649314153899 
3.5800000000031305, -2.3431760356300932 
3.5900000000031516, -2.342574793853348 
3.6000000000031727, -2.3418956314037107 
3.6100000000031938, -2.3412559095857914 
3.620000000003215, -2.3407930295833 
3.630000000003236, -2.340518741706984 
3.640000000003257, -2.3403095364926645 
3.650000000003278, -2.3400555592915833 
3.6600000000032993, -2.339718118481785 
3.6700000000033204, -2.3393021500678484 
3.6800000000033415, -2.338845678937379 
3.6900000000033626, -2.338427066547339 
3.7000000000033837, -2.338124626243709 
3.710000000003405, -2.337935308934667 
3.720000000003426, -2.3377796040035497 
3.730000000003447, -2.3375762718743713 
3.740000000003468, -2.3372743569050316 
3.750000000003489, -2.3368413940682977 
3.7600000000035103, -2.336249785961899 
3.7700000000035314, -2.3354920111948005 
3.7800000000035525, -2.334648915488727 
3.7900000000035736, -2.333951884667356 
3.8000000000035947, -2.3336115615145636 
3.810000000003616, -2.3335360410538373 
3.820000000003637, -2.3334794089126416 
3.830000000003658, -2.3333128678739055 
3.840000000003679, -2.333023998908508 
3.8500000000037002, -2.3326400422748788 
3.8600000000037213, -2.3322026505982807 
3.8700000000037424, -2.331768478356632 
3.8800000000037635, -2.3313915999042605 
3.8900000000037847, -2.3310883942079785 
3.9000000000038058, -2.33082683054612 
3.910000000003827, -2.3305501449946773 
3.920000000003848, -2.330205805739553 
3.930000000003869, -2.3297530719379416 
3.94000000000389, -2.3291608390671454 
3.9500000000039113, -2.3284379837589637 
3.9600000000039324, -2.327722033047695 
3.9700000000039535, -2.327287656651401 
3.9800000000039746, -2.3272466693756355 
3.9900000000039957, -2.3273725006082255 
4.000000000004016, -2.327413967193241 
4.010000000003993, -2.327287678822736 
4.02000000000397, -2.327006583759227 
4.030000000003946, -2.3266045296790274 
4.040000000003923, -2.3261196639835844 
4.0500000000039, -2.325604115283487 
4.0600000000038765, -2.325126773651742 
4.070000000003853, -2.3247432712458957 
4.08000000000383, -2.324446396505717 
4.090000000003807, -2.324170112201548 
4.100000000003783, -2.3238484194488764 
4.11000000000376, -2.323444046220406 
4.120000000003737, -2.3229460739509826 
4.130000000003713, -2.3223901900953736 
4.14000000000369, -2.3219029051145954 
4.150000000003667, -2.321646656945743 
4.1600000000036434, -2.3216225874717304 
4.17000000000362, -2.3216586495814537 
4.180000000003597, -2.3216058827717303 
4.1900000000035735, -2.321409966996433 
4.20000000000355, -2.3210663399478424 
4.210000000003527, -2.320582610902014 
4.220000000003504, -2.319976460759999 
4.23000000000348, -2.3193026034860527 
4.240000000003457, -2.318680042246923 
4.250000000003434, -2.3182361031855576 
4.26000000000341, -2.3179697998442794 
4.270000000003387, -2.3177589312490987 
4.280000000003364, -2.317501008348228 
4.2900000000033405, -2.3171605999011002 
4.300000000003317, -2.316742931988483 
4.310000000003294, -2.3162861639207177 
4.320000000003271, -2.3158697078153856 
4.330000000003247, -2.3155734887197514 
4.340000000003224, -2.3153947497869978 
4.350000000003201, -2.315251970842531 
4.360000000003177, -2.3150618879205913 
4.370000000003154, -2.3147733168739335 
4.380000000003131, -2.3143552301861425 
4.390000000003107, -2.3137820606735935 
4.400000000003084, -2.3130449046273 
4.410000000003061, -2.3122106249095156 
4.4200000000030375, -2.3114866420613307 
4.430000000003014, -2.3110917580771693 
4.440000000002991, -2.31097831899022 
4.450000000002968, -2.310914841602466 
4.460000000002944, -2.3107577142914537 
4.470000000002921, -2.310482403751977 
4.480000000002898, -2.3101109710223597 
4.490000000002874, -2.3096818686857707 
4.500000000002851, -2.3092500876060433 
4.510000000002828, -2.3088725313480523 
4.520000000002804, -2.308571106823275 
4.530000000002781, -2.308317756531881 
4.540000000002758, -2.308057016529269 
4.5500000000027345, -2.3077354308304527 
4.560000000002711, -2.3073110534524064 
4.570000000002688, -2.3067491015933586 
4.580000000002665, -2.3060389095825222 
4.590000000002641, -2.3052690888195877 
4.600000000002618, -2.3046918418620495 
4.610000000002595, -2.3045168863564065 
4.620000000002571, -2.304610830223095 
4.630000000002548, -2.3046912555424437 
4.640000000002525, -2.304620016030213 
4.6500000000025015, -2.3043895254251145 
4.660000000002478, -2.3040315772306568 
4.670000000002455, -2.30358350134295 
4.6800000000024315, -2.303091704772277 
4.690000000002408, -2.302616846828772 
4.700000000002385, -2.3022158388794454 
4.710000000002362, -2.3019014051194855 
4.720000000002338, -2.301626490897568 
4.730000000002315, -2.301324929197412 
4.740000000002292, -2.3009499344519546 
4.750000000002268, -2.3004771139229825 
4.760000000002245, -2.2999126694468646 
4.770000000002222, -2.2993406758781703 
4.7800000000021985, -2.298943757946466 
4.790000000002175, -2.298839214371536 
4.800000000002152, -2.2989088610416446 
4.810000000002129, -2.298949885447848 
4.820000000002105, -2.2988557437323345 
4.830000000002082, -2.298607772828843 
4.840000000002059, -2.298217330910823 
4.850000000002035, -2.297702333746344 
4.860000000002012, -2.2970966668412545 
4.870000000001989, -2.296475454447735 
4.880000000001965, -2.2959527577582577 
4.890000000001942, -2.295596725790709 
4.900000000001919, -2.2953517977102385 
4.9100000000018955, -2.2951096465738496 
4.920000000001872, -2.294804084185064 
4.930000000001849, -2.2944169706322457 
4.940000000001826, -2.2939621246702737 
4.950000000001802, -2.2934964250458534 
4.960000000001779, -2.293121620084911 
4.970000000001756, -2.2929052853345198 
