t, s[1].omega / s[0].omega 
0, -0.879997618102729 
0.009999999999999995, -0.8797461020120938 
0.019999999999999934, -0.8794691197517486 
0.029999999999999874, -0.8791693309193326 
0.04000000000000012, -0.8788509339038487 
0.050000000000000405, -0.8785194138410717 
0.06000000000000069, -0.8781812814401082 
0.07000000000000098, -0.8778438242211889 
0.08000000000000126, -0.8775148416409161 
0.09000000000000155, -0.8772022969852571 
0.10000000000000184, -0.8769138199980613 
0.11000000000000212, -0.8766560463145951 
0.12000000000000241, -0.8764338662319855 
0.130000000000002, -0.8762497331784223 
0.1400000000000009, -0.8761032038178342 
0.1499999999999998, -0.8759908285403352 
0.1599999999999987, -0.8759064118605165 
0.1699999999999976, -0.8758415737630821 
0.1799999999999965, -0.8757865070712894 
0.1899999999999954, -0.8757308402480669 
0.1999999999999943, -0.8756645415952219 
0.2099999999999932, -0.875578800274714 
0.2199999999999921, -0.8754667853461623 
0.229999999999991, -0.8753241521493749 
0.2399999999999899, -0.8751491882605332 
0.2499999999999888, -0.8749425875160114 
0.2599999999999877, -0.874706966568 
0.2699999999999866, -0.8744463193735708 
0.2799999999999855, -0.8741655981623404 
0.2899999999999844, -0.8738705309394739 
0.2999999999999833, -0.8735676812147279 
0.3099999999999822, -0.8732646595516336 
0.3199999999999811, -0.872970320468559 
0.32999999999998, -0.8726947294237546 
0.3399999999999789, -0.8724486847784416 
0.3499999999999778, -0.8722426618189367 
0.35999999999997667, -0.872085224963295 
0.36999999999997557, -0.8719811916798017 
0.37999999999997447, -0.8719300323145036 
0.38999999999997337, -0.8719250481872859 
0.39999999999997227, -0.8719537314501974 
0.40999999999997117, -0.8719993970497179 
0.41999999999997006, -0.8720437759933215 
0.42999999999996896, -0.8720699056823662 
0.43999999999996786, -0.8720645133409578 
0.44999999999996676, -0.872019276321164 
0.45999999999996566, -0.8719307969644262 
0.46999999999996456, -0.8717996049894328 
0.47999999999996346, -0.8716287472426487 
0.48999999999996235, -0.8714224796255993 
0.49999999999996125, -0.8711853647067056 
0.5099999999999602, -0.8709218670054091 
0.519999999999959, -0.8706364119661962 
0.529999999999958, -0.8703338271219192 
0.5399999999999568, -0.8700200617920002 
0.5499999999999557, -0.8697030299159222 
0.5599999999999546, -0.8693933102980329 
0.5699999999999535, -0.869104292760948 
0.5799999999999524, -0.8688512787660663 
0.5899999999999513, -0.8686492002579491 
0.5999999999999502, -0.8685091436204215 
0.6099999999999491, -0.8684346562461472 
0.619999999999948, -0.8684194128606274 
0.6299999999999469, -0.8684476234783723 
0.6399999999999458, -0.8684973934191286 
0.6499999999999447, -0.8685457414735612 
0.6599999999999436, -0.8685732149796076 
0.6699999999999425, -0.868566526723099 
0.6799999999999414, -0.8685188700345579 
0.6899999999999403, -0.8684286003770675 
0.6999999999999392, -0.8682972950897874 
0.7099999999999381, -0.8681279585606194 
0.719999999999937, -0.8679237276600453 
0.7299999999999359, -0.8676871274955479 
0.7399999999999348, -0.8674197973402478 
0.7499999999999337, -0.8671226016598835 
0.7599999999999326, -0.8667960893430371 
0.7699999999999315, -0.8664413054662127 
0.7799999999999304, -0.8660609434159825 
0.7899999999999293, -0.8656607052551039 
0.7999999999999282, -0.8652504985423167 
0.8099999999999271, -0.8648448151272424 
0.819999999999926, -0.8644615406919268 
0.8299999999999249, -0.8641188423569564 
0.8399999999999238, -0.8638307579917879 
0.8499999999999227, -0.8636031727613558 
0.8599999999999216, -0.8634321055163874 
0.8699999999999205, -0.863305170123895 
0.8799999999999194, -0.8632053872539652 
0.8899999999999183, -0.8631154734294588 
0.8999999999999172, -0.8630209553784713 
0.9099999999999161, -0.8629114730301908 
0.919999999999915, -0.8627805690715278 
0.9299999999999139, -0.8626246546521245 
0.9399999999999128, -0.8624417671591169 
0.9499999999999117, -0.8622304832447817 
0.9599999999999106, -0.861989131295813 
0.9699999999999095, -0.8617153363585285 
0.9799999999999084, -0.8614059148357016 
0.9899999999999073, -0.8610571732832181 
0.9999999999999062, -0.860665703091786 
1.0099999999999052, -0.8602297365569905 
1.019999999999904, -0.859750969294249 
1.029999999999903, -0.8592364307110067 
1.039999999999902, -0.858699606863393 
1.0499999999999008, -0.8581598859969299 
1.0599999999998997, -0.8576398363254304 
1.0699999999998986, -0.8571608264725121 
1.0799999999998975, -0.8567384937159523 
1.0899999999998964, -0.8563797993158537 
1.0999999999998953, -0.8560826497302131 
1.1099999999998942, -0.8558378400292268 
1.119999999999893, -0.8556321887815017 
1.129999999999892, -0.8554515900774688 
1.1399999999998909, -0.8552831521053234 
1.1499999999998898, -0.8551161981784426 
1.1599999999998887, -0.8549423423122947 
1.1699999999998876, -0.8547550200376872 
1.1799999999998865, -0.8545488304916097 
1.1899999999998854, -0.8543189473730681 
1.1999999999998843, -0.8540607660180098 
1.2099999999998832, -0.8537698954093393 
1.219999999999882, -0.8534425565693986 
1.229999999999881, -0.8530763723717794 
1.2399999999998799, -0.852671402848833 
1.2499999999998788, -0.8522311221372206 
1.2599999999998777, -0.8517629411526946 
1.2699999999998766, -0.8512779561185159 
1.2799999999998755, -0.8507898551399722 
1.2899999999998744, -0.8503132161734565 
1.2999999999998733, -0.8498616142049642 
1.3099999999998722, -0.8494459566379622 
1.319999999999871, -0.8490733421685567 
1.32999999999987, -0.8487465825606766 
1.3399999999998689, -0.8484643857068287 
1.3499999999998678, -0.8482220768696817 
1.3599999999998666, -0.8480126401161586 
1.3699999999998655, -0.8478278201820725 
1.3799999999998644, -0.8476590581894514 
1.3899999999998633, -0.847498131773853 
1.3999999999998622, -0.8473374891225618 
1.4099999999998611, -0.8471703611308948 
1.41999999999986, -0.8469907803780019 
1.429999999999859, -0.846793627456071 
1.4399999999998578, -0.8465747758955864 
1.4499999999998567, -0.8463313354746 
1.4599999999998556, -0.8460619266809897 
1.4699999999998545, -0.8457668866050492 
1.4799999999998534, -0.8454483253602012 
1.4899999999998523, -0.8451100092693608 
1.4999999999998512, -0.8447571062256756 
1.5099999999998501, -0.8443958577719878 
1.519999999999849, -0.84403323376817 
1.529999999999848, -0.8436765924236547 
1.5399999999998468, -0.8433333321926743 
1.5499999999998457, -0.843010502546813 
1.5599999999998446, -0.8427143508431838 
1.5699999999998435, -0.8424498215262102 
1.5799999999998424, -0.8422200734701241 
1.5899999999998413, -0.842026112249005 
1.5999999999998402, -0.8418666238598338 
1.6099999999998391, -0.841738046213894 
1.619999999999838, -0.8416348517327507 
1.629999999999837, -0.8415499734961548 
1.6399999999998358, -0.8414753067421543 
1.6499999999998347, -0.8414022476449932 
1.6599999999998336, -0.8413222638275007 
1.6699999999998325, -0.8412274974951698 
1.6799999999998314, -0.8411113709790952 
1.6899999999998303, -0.8409691118632017 
1.6999999999998292, -0.8407980816755108 
1.709999999999828, -0.8405978194683092 
1.719999999999827, -0.8403698025261171 
1.729999999999826, -0.840117032274242 
1.7399999999998248, -0.839843610231274 
1.7499999999998237, -0.8395544492689231 
1.7599999999998226, -0.8392551912388064 
1.7699999999998215, -0.8389523128462525 
1.7799999999998204, -0.8386533233703481 
1.7899999999998193, -0.838366898935252 
1.7999999999998182, -0.8381027655758656 
1.809999999999817, -0.8378711554579337 
1.819999999999816, -0.837681741165602 
1.8299999999998149, -0.8375421094984651 
1.8399999999998138, -0.837456037892934 
1.8499999999998127, -0.8374220134597193 
1.8599999999998116, -0.8374325033451818 
1.8699999999998105, -0.8374743824117447 
1.8799999999998094, -0.8375306324370448 
1.8899999999998083, -0.8375830020708603 
1.8999999999998072, -0.8376149173744578 
1.909999999999806, -0.8376137852557823 
1.919999999999805, -0.8375720750997155 
1.9299999999998039, -0.8374870862583952 
1.9399999999998028, -0.8373597983619817 
1.9499999999998017, -0.8371934008551895 
1.9599999999998006, -0.8369919943697628 
1.9699999999997995, -0.836759718250154 
1.9799999999997984, -0.836500354738676 
1.9899999999997973, -0.8362173577761279 
1.9999999999997962, -0.8359142320668036 
2.0099999999998173, -0.8355951913869916 
2.0199999999998384, -0.8352660018262673 
2.0299999999998595, -0.8349348312404843 
2.0399999999998806, -0.8346127806508274 
2.0499999999999017, -0.8343136308248555 
2.059999999999923, -0.8340523466612557 
2.069999999999944, -0.83384222468445 
2.079999999999965, -0.8336912811153081 
2.089999999999986, -0.8335992371994783 
2.100000000000007, -0.8335566335164879 
2.1100000000000283, -0.8335467777022938 
2.1200000000000494, -0.8335497876227137 
2.1300000000000705, -0.833546969166011 
2.1400000000000916, -0.833523881032173 
2.1500000000001127, -0.833471419453538 
2.160000000000134, -0.8333852598358868 
2.170000000000155, -0.8332644486725289 
2.180000000000176, -0.8331098587424183 
2.190000000000197, -0.8329229122326103 
2.2000000000002182, -0.8327046993857488 
2.2100000000002393, -0.832455470919165 
2.2200000000002604, -0.8321744473528898 
2.2300000000002815, -0.83185992050223 
2.2400000000003026, -0.8315096780630078 
2.2500000000003237, -0.8311218225860314 
2.260000000000345, -0.8306960354539734 
2.270000000000366, -0.8302352008395679 
2.280000000000387, -0.829747026413234 
2.290000000000408, -0.829244955576639 
2.3000000000004293, -0.8287475137493256 
2.3100000000004504, -0.8282756023482263 
2.3200000000004715, -0.8278482171557053 
2.3300000000004926, -0.8274781101257922 
2.3400000000005137, -0.827169195310125 
2.3500000000005348, -0.8269166644409618 
2.360000000000556, -0.8267094079318029 
2.370000000000577, -0.8265334061368679 
2.380000000000598, -0.8263747317286763 
2.390000000000619, -0.8262214121647279 
2.4000000000006403, -0.8260640842469688 
2.4100000000006614, -0.8258957779919129 
2.4200000000006825, -0.8257112591861603 
2.4300000000007036, -0.8255062729103313 
2.4400000000007247, -0.8252769036879168 
2.450000000000746, -0.8250191774156868 
2.460000000000767, -0.8247289892318553 
2.470000000000788, -0.8244024241064614 
2.480000000000809, -0.8240364980584862 
2.49000000000083, -0.8236302448811081 
2.5000000000008513, -0.8231859019301005 
2.5100000000008724, -0.822709780980705 
2.5200000000008935, -0.8222123815420727 
2.5300000000009146, -0.8217075092228692 
2.5400000000009357, -0.8212105344162154 
2.550000000000957, -0.8207362546822417 
2.560000000000978, -0.8202969250644092 
2.570000000000999, -0.8199008862143742 
2.58000000000102, -0.8195519795489297 
2.5900000000010412, -0.8192497188497821 
2.6000000000010624, -0.8189900399651661 
2.6100000000010835, -0.8187663739787399 
2.6200000000011046, -0.8185707769002516 
2.6300000000011257, -0.818394896405349 
2.6400000000011468, -0.8182306486194524 
2.650000000001168, -0.8180705847793261 
2.660000000001189, -0.8179080152111915 
2.67000000000121, -0.8177370057281157 
2.680000000001231, -0.8175523655680506 
2.6900000000012523, -0.8173497132128158 
2.7000000000012734, -0.8171256485232095 
2.7100000000012945, -0.8168779944171364 
2.7200000000013156, -0.8166060244509212 
2.7300000000013367, -0.8163105877882222 
2.740000000001358, -0.81599408261768 
2.750000000001379, -0.8156602874772542 
2.7600000000014, -0.8153141026433058 
2.770000000001421, -0.8149612634115954 
2.780000000001442, -0.8146080688135224 
2.7900000000014633, -0.814261137538385 
2.8000000000014844, -0.8139271714718428 
2.8100000000015055, -0.8136126886388455 
2.8200000000015266, -0.8133236910589033 
2.8300000000015477, -0.8130652607456128 
2.840000000001569, -0.8128411183039267 
2.85000000000159, -0.8126532132383673 
2.860000000001611, -0.8125014241022745 
2.870000000001632, -0.8123834247220051 
2.8800000000016532, -0.8122947336449894 
2.8900000000016743, -0.8122289319276564 
2.9000000000016954, -0.8121780270085772 
2.9100000000017165, -0.8121329552363721 
2.9200000000017377, -0.8120842294896378 
2.9300000000017588, -0.8120227209422609 
2.94000000000178, -0.811940501888337 
2.950000000001801, -0.8118315959057982 
2.960000000001822, -0.8116924457159982 
2.970000000001843, -0.8115219713066277 
2.9800000000018643, -0.8113212361335045 
2.9900000000018854, -0.8110928829940697 
3.0000000000019065, -0.8108405608288732 
3.0100000000019276, -0.8105685246321828 
3.0200000000019487, -0.810281499343963 
3.03000000000197, -0.809984807786923 
3.040000000001991, -0.8096846934594317 
3.050000000002012, -0.8093887133386468 
3.060000000002033, -0.8091060208143661 
3.070000000002054, -0.8088473090272116 
3.0800000000020753, -0.8086241728684531 
3.0900000000020964, -0.8084477272239722 
3.1000000000021175, -0.8083265340379302 
3.1100000000021386, -0.8082642275634935 
3.1200000000021597, -0.8082575696711436 
3.130000000002181, -0.8082958026158762 
3.140000000002202, -0.8083618870965108 
3.150000000002223, -0.8084355045217292 
3.160000000002244, -0.8084968846992966 
3.1700000000022652, -0.8085301175258758 
3.1800000000022863, -0.8085249236210832 
3.1900000000023074, -0.8084766640256179 
3.2000000000023285, -0.8083850992177787 
3.2100000000023496, -0.8082526752940158 
3.2200000000023707, -0.8080829537487875 
3.230000000002392, -0.8078794813152401 
3.240000000002413, -0.8076451418545311 
3.250000000002434, -0.80738191488932 
3.260000000002455, -0.8070909543276559 
3.2700000000024763, -0.8067729388687301 
3.2800000000024974, -0.8064286846081167 
3.2900000000025185, -0.8060600141115086 
3.3000000000025396, -0.8056708143272212 
3.3100000000025607, -0.8052680719173602 
3.3200000000025818, -0.8048624787612624 
3.330000000002603, -0.804468069108877 
3.340000000002624, -0.8041004767101348 
3.350000000002645, -0.8037739205614416 
3.360000000002666, -0.8034977917169102 
3.3700000000026873, -0.8032742165983793 
3.3800000000027084, -0.8030977043599442 
3.3900000000027295, -0.8029569860604575 
3.4000000000027506, -0.8028381033038107 
3.4100000000027717, -0.8027274172854927 
3.420000000002793, -0.8026135944370523 
3.430000000002814, -0.8024883278351502 
3.440000000002835, -0.8023460814006688 
3.450000000002856, -0.8021833204055786 
3.460000000002877, -0.8019976160672366 
3.4700000000028983, -0.8017868548858027 
3.4800000000029194, -0.801548657370704 
3.4900000000029405, -0.8012800518835936 
3.5000000000029616, -0.8009774469639609 
3.5100000000029827, -0.8006369684018706 
3.520000000003004, -0.800255231810173 
3.530000000003025, -0.7998305554632811 
3.540000000003046, -0.7993644442095591 
3.550000000003067, -0.798862923895296 
3.5600000000030882, -0.7983371217628915 
3.5700000000031094, -0.7978025775512976 
3.5800000000031305, -0.7972772122422269 
3.5900000000031516, -0.7967784738090016 
3.6000000000031727, -0.796320548146682 
3.6100000000031938, -0.7959124458595694 
3.620000000003215, -0.795557355434308 
3.630000000003236, -0.7952531759616785 
3.640000000003257, -0.7949938287663014 
3.650000000003278, -0.7947708553429524 
3.6600000000032993, -0.7945748866896343 
3.6700000000033204, -0.7943967320748421 
3.6800000000033415, -0.7942280089933034 
3.6900000000033626, -0.7940613710293692 
3.7000000000033837, -0.7938904663648324 
3.710000000003405, -0.7937097812612512 
3.720000000003426, -0.7935145062509628 
3.730000000003447, -0.793300522085095 
3.740000000003468, -0.7930645443098892 
3.750000000003489, -0.7928043954861569 
3.7600000000035103, -0.7925193097192956 
3.7700000000035314, -0.7922101455312538 
3.7800000000035525, -0.7918794130649098 
3.7900000000035736, -0.7915310982081449 
3.8000000000035947, -0.7911703430742673 
3.810000000003616, -0.7908030756025569 
3.820000000003637, -0.7904356637149758 
3.830000000003658, -0.7900746261373516 
3.840000000003679, -0.7897263908936039 
3.8500000000037002, -0.7893970688877572 
3.8600000000037213, -0.7890922079430771 
3.8700000000037424, -0.7888165099643126 
3.8800000000037635, -0.7885735226480955 
3.8900000000037847, -0.78836534418977 
3.9000000000038058, -0.7881923910721713 
3.910000000003827, -0.7880532691767684 
3.920000000003848, -0.7879447636496075 
3.930000000003869, -0.7878619392930422 
3.94000000000389, -0.7877983363075212 
3.9500000000039113, -0.7877462603741867 
3.9600000000039324, -0.7876971897659124 
3.9700000000039535, -0.7876423310103534 
3.9800000000039746, -0.7875733232830959 
3.9900000000039957, -0.787483015062183 
4.000000000004016, -0.787366150052842 
4.010000000003993, -0.7872197705576383 
4.02000000000397, -0.78704322203382 
4.030000000003946, -0.7868377934064921 
4.040000000003923, -0.7866061623857762 
4.0500000000039, -0.7863518588027661 
4.0600000000038765, -0.7860789102605763 
4.070000000003853, -0.7857917448553325 
4.08000000000383, -0.785495343992114 
4.090000000003807, -0.7851955791548243 
4.100000000003783, -0.7848996182006411 
4.11000000000376, -0.7846162345740908 
4.120000000003737, -0.7843557991762593 
4.130000000003713, -0.7841297099253113 
4.14000000000369, -0.7839490740411259 
4.150000000003667, -0.78382265896328 
4.1600000000036434, -0.7837544741895712 
4.17000000000362, -0.7837417290861676 
4.180000000003597, -0.7837740923462578 
4.1900000000035735, -0.7838349002172968 
4.20000000000355, -0.783904191583096 
4.210000000003527, -0.7839625649839661 
4.220000000003504, -0.783994455528529 
4.23000000000348, -0.7839898177709065 
4.240000000003457, -0.7839440598941424 
4.250000000003434, -0.7838567883303076 
4.26000000000341, -0.7837301356488371 
4.270000000003387, -0.7835672486132073 
4.280000000003364, -0.7833711945412877 
4.2900000000033405, -0.7831443077841593 
4.300000000003317, -0.7828878961535891 
4.310000000003294, -0.7826022235547507 
4.320000000003271, -0.7822867279651526 
4.330000000003247, -0.7819404840468464 
4.340000000003224, -0.7815629482069779 
4.350000000003201, -0.7811550015839039 
4.360000000003177, -0.7807202022078176 
4.370000000003154, -0.7802659604811178 
4.380000000003131, -0.7798041201389688 
4.390000000003107, -0.7793503296512377 
4.400000000003084, -0.7789218547084957 
4.410000000003061, -0.7785341790591603 
4.4200000000030375, -0.7781975366433257 
4.430000000003014, -0.7779147915985616 
4.440000000002991, -0.7776814917517353 
4.450000000002968, -0.7774878388571145 
4.460000000002944, -0.7773215186222393 
4.470000000002921, -0.7771702581377786 
4.480000000002898, -0.7770234528504469 
4.490000000002874, -0.7768727741514108 
4.500000000002851, -0.7767120213391794 
4.510000000002828, -0.7765365734584345 
4.520000000002804, -0.7763427322667645 
4.530000000002781, -0.7761271434467912 
4.540000000002758, -0.7758864050007102 
4.5500000000027345, -0.7756169347441925 
4.560000000002711, -0.7753151556795821 
4.570000000002688, -0.7749780342160248 
4.580000000002665, -0.774603934869138 
4.590000000002641, -0.7741936235012159 
4.600000000002618, -0.7737511047021054 
4.610000000002595, -0.773283923775335 
4.620000000002571, -0.7728026949696876 
4.630000000002548, -0.7723199082144017 
4.640000000002525, -0.7718483494236954 
4.6500000000025015, -0.7713995717421789 
4.660000000002478, -0.7709827494977495 
4.670000000002455, -0.7706040476476419 
4.6800000000024315, -0.7702664759875704 
4.690000000002408, -0.769970118577916 
4.700000000002385, -0.7697126124649374 
4.710000000002362, -0.769489757210497 
4.720000000002338, -0.7692961486563534 
4.730000000002315, -0.7691257477041371 
4.740000000002292, -0.7689723236297712 
4.750000000002268, -0.7688297504947734 
4.760000000002245, -0.7686921751252629 
4.770000000002222, -0.7685541038736434 
4.7800000000021985, -0.7684104646470225 
4.790000000002175, -0.7682566893700995 
4.800000000002152, -0.7680888369183213 
4.810000000002129, -0.7679037496808842 
4.820000000002105, -0.767699218788158 
4.830000000002082, -0.767474125645591 
4.840000000002059, -0.7672285265183073 
4.850000000002035, -0.7669636528502167 
4.860000000002012, -0.7666818198421964 
4.870000000001989, -0.7663862691164841 
4.880000000001965, -0.7660810004563563 
4.890000000001942, -0.7657706510864966 
4.900000000001919, -0.765460453488562 
4.9100000000018955, -0.7651562578507239 
4.920000000001872, -0.7648645618592522 
4.930000000001849, -0.7645924620370241 
