t, s[1].omega / s[0].omega 
0, -4.099993456124963 
0.009999999999999995, -4.099237566808841 
0.019999999999999934, -4.098323594773939 
0.029999999999999874, -4.097548637601072 
0.04000000000000012, -4.0970818521892 
0.050000000000000405, -4.096581597682377 
0.06000000000000069, -4.0959303884921 
0.07000000000000098, -4.095182997201569 
0.08000000000000126, -4.094457541961626 
0.09000000000000155, -4.093849146312983 
0.10000000000000184, -4.093258544785742 
0.11000000000000212, -4.092584013900852 
0.12000000000000241, -4.091866074199937 
0.130000000000002, -4.091231185430179 
0.1400000000000009, -4.0906713257771665 
0.1499999999999998, -4.0900666952796785 
0.1599999999999987, -4.089334208232008 
0.1699999999999976, -4.088490718961651 
0.1799999999999965, -4.0878201497756725 
0.1899999999999954, -4.087413827530835 
0.1999999999999943, -4.086936459221942 
0.2099999999999932, -4.086266923130644 
0.2199999999999921, -4.085401591878002 
0.229999999999991, -4.084505328418828 
0.2399999999999899, -4.083943479695462 
0.2499999999999888, -4.083512251349297 
0.2599999999999877, -4.08293664230437 
0.2699999999999866, -4.082222392069387 
0.2799999999999855, -4.081458692177361 
0.2899999999999844, -4.08078967585798 
0.2999999999999833, -4.080218938328661 
0.3099999999999822, -4.079599513313957 
0.3199999999999811, -4.078897560822919 
0.32999999999998, -4.078209526470804 
0.3399999999999789, -4.077617414048568 
0.3499999999999778, -4.0770463966291866 
0.35999999999997667, -4.0763900441890595 
0.36999999999997557, -4.075600790072309 
0.37999999999997447, -4.07481195273863 
0.38999999999997337, -4.074303866233391 
0.39999999999997227, -4.073885994329859 
0.40999999999997117, -4.073314819715449 
0.41999999999997006, -4.072545396698743 
0.42999999999996896, -4.071617348107628 
0.43999999999996786, -4.070863634192387 
0.44999999999996676, -4.070437770835777 
0.45999999999996566, -4.069959701694549 
0.46999999999996456, -4.069315380697513 
0.47999999999996346, -4.068557894257245 
0.48999999999996235, -4.067812231480867 
0.49999999999996125, -4.067206598322516 
0.5099999999999602, -4.066638332355765 
0.519999999999959, -4.065986350698292 
0.529999999999958, -4.065278661185029 
0.5399999999999568, -4.064628447853337 
0.5499999999999557, -4.06405509348181 
0.5599999999999546, -4.063459669383159 
0.5699999999999535, -4.062754827793605 
0.5799999999999524, -4.061945362283546 
0.5899999999999513, -4.06126799910627 
0.5999999999999502, -4.060836131906101 
0.6099999999999491, -4.060361359120714 
0.619999999999948, -4.059708704641522 
0.6299999999999469, -4.0588573645863475 
0.6399999999999458, -4.057943609041856 
0.6499999999999447, -4.057366289628841 
0.6599999999999436, -4.056970365187044 
0.6699999999999425, -4.056430341899531 
0.6799999999999414, -4.055732147576277 
0.6899999999999403, -4.054952835218194 
0.6999999999999392, -4.0542518910019085 
0.7099999999999381, -4.053689476931461 
0.719999999999937, -4.053104159537819 
0.7299999999999359, -4.052427899617493 
0.7399999999999348, -4.051730556131245 
0.7499999999999337, -4.051111201274828 
0.7599999999999326, -4.050541443544864 
0.7699999999999315, -4.049917907038931 
0.7799999999999304, -4.0491754189567875 
0.7899999999999293, -4.048386160776806 
0.7999999999999282, -4.047814715146162 
0.8099999999999271, -4.047392314843017 
0.819999999999926, -4.046858936068189 
0.8299999999999249, -4.0461386284045435 
0.8399999999999238, -4.04523304463129 
0.8499999999999227, -4.044401191149598 
0.8599999999999216, -4.043949273982798 
0.8699999999999205, -4.043529801103746 
0.8799999999999194, -4.042936651785572 
0.8899999999999183, -4.0421992723560685 
0.8999999999999172, -4.041419090125619 
0.9099999999999161, -4.040770452334102 
0.919999999999915, -4.040226479623536 
0.9299999999999139, -4.039619999472465 
0.9399999999999128, -4.038930259408804 
0.9499999999999117, -4.0382498921632095 
0.9599999999999106, -4.0376517076492355 
0.9699999999999095, -4.03707784682554 
0.9799999999999084, -4.036428353305733 
0.9899999999999073, -4.035663142155697 
0.9999999999999062, -4.034918471104592 
1.0099999999999052, -4.034416906309634 
1.019999999999904, -4.033976895024156 
1.029999999999903, -4.033395367274804 
1.039999999999902, -4.032621889338582 
1.0499999999999008, -4.031694664660512 
1.0599999999998997, -4.030967620919557 
1.0699999999998986, -4.030577183404317 
1.0799999999998975, -4.030122360444198 
1.0899999999998964, -4.02948947584776 
1.0999999999998953, -4.0287265566188735 
1.1099999999998942, -4.027960519623825 
1.119999999999893, -4.0273555043556195 
1.129999999999892, -4.026814346138737 
1.1399999999998909, -4.026190322783961 
1.1499999999998898, -4.025495694064674 
1.1599999999998887, -4.0248321744578135 
1.1699999999998876, -4.024247521690525 
1.1799999999998865, -4.0236670190583785 
1.1899999999998854, -4.0229972198471415 
1.1999999999998843, -4.022222944702854 
1.2099999999998832, -4.021525636520811 
1.219999999999882, -4.021061168967664 
1.229999999999881, -4.020599867264913 
1.2399999999998799, -4.019983125640508 
1.2499999999998788, -4.019172191753337 
1.2599999999998777, -4.018248260652721 
1.2699999999998766, -4.0176095612546625 
1.2799999999998755, -4.01724060748692 
1.2899999999998744, -4.016756438978424 
1.2999999999998733, -4.016097048057173 
1.3099999999998722, -4.015320398352219 
1.319999999999871, -4.0145738421064046 
1.32999999999987, -4.013997950141651 
1.3399999999998689, -4.013453819159635 
1.3499999999998678, -4.012818333763874 
1.3599999999998666, -4.012123910853592 
1.3699999999998655, -4.011473962327739 
1.3799999999998644, -4.010897797490417 
1.3899999999998633, -4.010311715626979 
1.3999999999998622, -4.009628794726494 
1.4099999999998611, -4.008853832590499 
1.41999999999986, -4.008192599420441 
1.429999999999859, -4.007745792105215 
1.4399999999998578, -4.007269428737523 
1.4499999999998567, -4.006631028166527 
1.4599999999998556, -4.005798398602214 
1.4699999999998545, -4.004887231907567 
1.4799999999998534, -4.004304290130686 
1.4899999999998523, -4.003940253912192 
1.4999999999998512, -4.003438405108786 
1.5099999999998501, -4.002764931811954 
1.519999999999849, -4.0019836295311455 
1.529999999999848, -4.001253221661963 
1.5399999999998468, -4.0006932013914716 
1.5499999999998457, -4.000146408346511 
1.5599999999998446, -3.9995056900179846 
1.5699999999998435, -3.9988136342109946 
1.5799999999998424, -3.9981729257641354 
1.5899999999998413, -3.9976022757477248 
1.5999999999998402, -3.9970139621648118 
1.6099999999998391, -3.9963253591952927 
1.619999999999838, -3.9955522767089713 
1.629999999999837, -3.994910292844959 
1.6399999999998358, -3.9944720825885485 
1.6499999999998347, -3.993990607925908 
1.6599999999998336, -3.9933444598405203 
1.6699999999998325, -3.992504726806879 
1.6799999999998314, -3.9916022636652384 
1.6899999999998303, -3.9910410372012315 
1.6999999999998292, -3.990678354928435 
1.709999999999828, -3.990171850542864 
1.719999999999827, -3.989496017598083 
1.729999999999826, -3.9887165834258083 
1.7399999999998248, -3.987994054280758 
1.7499999999998237, -3.98743940191374 
1.7599999999998226, -3.9868930316059363 
1.7699999999998215, -3.986252863691772 
1.7799999999998204, -3.9855635757235164 
1.7899999999998193, -3.9849275102951855 
1.7999999999998182, -3.984360684732809 
1.809999999999817, -3.983774666155947 
1.819999999999816, -3.983087701071921 
1.8299999999998149, -3.9823155801086934 
1.8399999999998138, -3.9816745142004857 
1.8499999999998127, -3.981240522872936 
1.8599999999998116, -3.98076515210714 
1.8699999999998105, -3.9801253869812347 
1.8799999999998094, -3.979292276554414 
1.8899999999998083, -3.9783886959555943 
1.8999999999998072, -3.9778165144709328 
1.909999999999806, -3.9774556490324526 
1.919999999999805, -3.9769575541494597 
1.9299999999998039, -3.9762906307722057 
1.9399999999998028, -3.975518470950294 
1.9499999999998017, -3.974794499425645 
1.9599999999998006, -3.9742359466336246 
1.9699999999997995, -3.9736936212161043 
1.9799999999997984, -3.9730595391577106 
1.9899999999997973, -3.9723728864911925 
1.9999999999997962, -3.971736725478241 
2.0099999999998173, -3.9711723896065996 
2.0199999999998384, -3.970593469631722 
2.0299999999998595, -3.969915618685063 
2.0399999999998806, -3.9691436796138335 
2.0499999999999017, -3.9684845907358453 
2.059999999999923, -3.968049541272824 
2.069999999999944, -3.967591509796113 
2.079999999999965, -3.9669723225206104 
2.089999999999986, -3.9661600600555524 
2.100000000000007, -3.9652490557942515 
2.1100000000000283, -3.964632755953045 
2.1200000000000494, -3.9642708090393954 
2.1300000000000705, -3.963793604757832 
2.1400000000000916, -3.963146712206722 
2.1500000000001127, -3.9623879681906757 
2.160000000000134, -3.961655625947324 
2.170000000000155, -3.961083086916669 
2.180000000000176, -3.9605471347993104 
2.190000000000197, -3.9599248022825067 
2.2000000000002182, -3.959241365172017 
2.2100000000002393, -3.958600135663621 
2.2200000000002604, -3.958036297969 
2.2300000000002815, -3.957468720231554 
2.2400000000003026, -3.9568079167040127 
2.2500000000003237, -3.956039267250574 
2.260000000000345, -3.955343961547728 
2.270000000000366, -3.9548956636475574 
2.280000000000387, -3.9544647207647627 
2.290000000000408, -3.9538802562261735 
2.3000000000004293, -3.953104348267394 
2.3100000000004504, -3.952191397383298 
2.3200000000004715, -3.9514988135915297 
2.3300000000004926, -3.951121313566008 
2.3400000000005137, -3.950675628913474 
2.3500000000005348, -3.9500600193582684 
2.360000000000556, -3.9493227374972038 
2.370000000000577, -3.9485807176604184 
2.380000000000598, -3.9479825904394388 
2.390000000000619, -3.9474518426568266 
2.4000000000006403, -3.9468470661452932 
2.4100000000006614, -3.946169499155264 
2.4200000000006825, -3.945518157715214 
2.4300000000007036, -3.944951028101678 
2.4400000000007247, -3.9443975413554804 
2.450000000000746, -3.94376188009828 
2.460000000000767, -3.9430060403892275 
2.470000000000788, -3.9422626252636612 
2.480000000000809, -3.9417754705642616 
2.49000000000083, -3.94137625626164 
2.5000000000008513, -3.940840583822655 
2.5100000000008724, -3.940117026373597 
2.5200000000008935, -3.9392229924112234 
2.5300000000009146, -3.9384348373862146 
2.5400000000009357, -3.938006547129531 
2.550000000000957, -3.93759721840327 
2.560000000000978, -3.9370243858012346 
2.570000000000999, -3.9363185056595413 
2.58000000000102, -3.9355733154910633 
2.5900000000010412, -3.93493911666895 
2.6000000000010624, -3.9344061087768942 
2.6100000000010835, -3.9338238238704597 
2.6200000000011046, -3.933158100520515 
2.6300000000011257, -3.9324928334221574 
2.6400000000011468, -3.9319153869842984 
2.650000000001168, -3.9313760627260663 
2.660000000001189, -3.930772713129109 
2.67000000000121, -3.9300450043728374 
2.680000000001231, -3.9292585614155002 
2.6900000000012523, -3.9286916143247597 
2.7000000000012734, -3.9283142906481956 
2.7100000000012945, -3.927840966433737 
2.7200000000013156, -3.92718485162479 
2.7300000000013367, -3.926340589836953 
2.740000000001358, -3.925471648612871 
2.750000000001379, -3.9249355685325624 
2.7600000000014, -3.924551117097115 
2.770000000001421, -3.9240320220391105 
2.780000000001442, -3.9233687025393307 
2.7900000000014633, -3.9226338865405475 
2.8000000000014844, -3.9219609158897404 
2.8100000000015055, -3.9214101603831653 
2.8200000000015266, -3.920851560320764 
2.8300000000015477, -3.920207085835431 
2.840000000001569, -3.919528873726608 
2.85000000000159, -3.918929514623879 
2.860000000001611, -3.918399847690636 
2.870000000001632, -3.917833505056173 
2.8800000000016532, -3.9171506669131695 
2.8900000000016743, -3.916351085535596 
2.9000000000016954, -3.9156653598434836 
2.9100000000017165, -3.915266888983762 
2.9200000000017377, -3.9148648298571884 
2.9300000000017588, -3.9142904716802485 
2.94000000000178, -3.913524802526304 
2.950000000001801, -3.9126329847267236 
2.960000000001822, -3.9119402997506874 
2.970000000001843, -3.9115334951861955 
2.9800000000018643, -3.9110738012448145 
2.9900000000018854, -3.9104649538337077 
3.0000000000019065, -3.909757245790138 
3.0100000000019276, -3.909056769921218 
3.0200000000019487, -3.9084690387996006 
3.03000000000197, -3.9079265132684666 
3.040000000001991, -3.9073135174521134 
3.050000000002012, -3.906633101683865 
3.060000000002033, -3.905997816956957 
3.070000000002054, -3.905464651471289 
3.0800000000020753, -3.904935688118281 
3.0900000000020964, -3.9043105751896308 
3.1000000000021175, -3.903543401137057 
3.1100000000021386, -3.902746117115393 
3.1200000000021597, -3.9022365228768785 
3.130000000002181, -3.901891198523071 
3.140000000002202, -3.9014134383209127 
3.150000000002223, -3.900745839270402 
3.160000000002244, -3.8999048781990395 
3.1700000000022652, -3.8990769776376792 
3.1800000000022863, -3.8985573665708015 
3.1900000000023074, -3.898140494673565 
3.2000000000023285, -3.897597478657905 
3.2100000000023496, -3.8969335273482466 
3.2200000000023707, -3.896228278462245 
3.230000000002392, -3.8955942571829008 
3.240000000002413, -3.8950472743166644 
3.250000000002434, -3.894470560082971 
3.260000000002455, -3.8938089594284357 
3.2700000000024763, -3.893133744288222 
3.2800000000024974, -3.892569102261087 
3.2900000000025185, -3.8920693498826515 
3.3000000000025396, -3.8915084921408627 
3.3100000000025607, -3.89081188815684 
3.3200000000025818, -3.8899814788128624 
3.330000000002603, -3.8892764940397635 
3.340000000002624, -3.8889024888016044 
3.350000000002645, -3.8885289379709653 
3.360000000002666, -3.887973905396097 
3.3700000000026873, -3.8872338293486264 
3.3800000000027084, -3.8863762592711395 
3.3900000000027295, -3.885675926611045 
3.4000000000027506, -3.885230347713513 
3.4100000000027717, -3.8847549430707153 
3.420000000002793, -3.8841507974248985 
3.430000000002814, -3.8834657341760277 
3.440000000002835, -3.882797223769578 
3.450000000002856, -3.88221932053147 
3.460000000002877, -3.8816695845026397 
3.4700000000028983, -3.881048394184254 
3.4800000000029194, -3.880356901717941 
3.4900000000029405, -3.8797248023925173 
3.5000000000029616, -3.879224255736252 
3.5100000000029827, -3.8787265769947985 
3.520000000003004, -3.8781193069038506 
3.530000000003025, -3.8773514237015028 
3.540000000003046, -3.8765012314987173 
3.550000000003067, -3.875927965852848 
3.5600000000030882, -3.8756087781670523 
3.5700000000031094, -3.875181207427624 
3.5800000000031305, -3.874563925071294 
3.5900000000031516, -3.873781979299107 
3.6000000000031727, -3.872964792214747 
3.6100000000031938, -3.872374764753436 
3.620000000003215, -3.8719277379508172 
3.630000000003236, -3.8713950664235086 
3.640000000003257, -3.8707538349513273 
3.650000000003278, -3.870076043593418 
3.6600000000032993, -3.8694556916876808 
3.6700000000033204, -3.8689060720142656 
3.6800000000033415, -3.8683323801449974 
3.6900000000033626, -3.867669237806454 
3.7000000000033837, -3.866970297299699 
3.710000000003405, -3.866401257597373 
3.720000000003426, -3.865944221278108 
3.730000000003447, -3.8654317158613183 
3.740000000003468, -3.8647758834213497 
3.750000000003489, -3.8639484991431003 
3.7600000000035103, -3.863121450812879 
3.7700000000035314, -3.862657462433218 
3.7800000000035525, -3.8623371810548717 
3.7900000000035736, -3.861858367127926 
3.8000000000035947, -3.861199207149641 
3.810000000003616, -3.8604089571334113 
3.820000000003637, -3.859658798307423 
3.830000000003658, -3.859128586618327 
3.840000000003679, -3.858651345886961 
3.8500000000037002, -3.858075264070673 
3.8600000000037213, -3.85741702731683 
3.8700000000037424, -3.8567644773504184 
3.8800000000037635, -3.8561861634315058 
3.8900000000037847, -3.8556428369697207 
3.9000000000038058, -3.8550391332289613 
3.910000000003827, -3.854339607014899 
3.920000000003848, -3.8536510655657588 
3.930000000003869, -3.8531469161739516 
3.94000000000389, -3.8527167265454283 
3.9500000000039113, -3.852185718795796 
3.9600000000039324, -3.851488317740608 
3.9700000000039535, -3.8506216418471775 
3.9800000000039746, -3.849837034415026 
3.9900000000039957, -3.849433920613875 
4.000000000004016, -3.8490887530639704 
4.010000000003993, -3.84857123056801 
4.02000000000397, -3.847891110897546 
4.030000000003946, -3.847118626478965 
4.040000000003923, -3.846431292219132 
4.0500000000039, -3.8459205604919746 
4.0600000000038765, -3.84540997432903 
4.070000000003853, -3.8448038391832355 
4.08000000000383, -3.844142765741224 
4.090000000003807, -3.843522604804974 
4.100000000003783, -3.842975302747017 
4.11000000000376, -3.8424278910922913 
4.120000000003737, -3.8417948660649643 
4.130000000003713, -3.841063219872116 
4.14000000000369, -3.8403915087792093 
4.150000000003667, -3.839944421341774 
4.1600000000036434, -3.8395341849343536 
4.17000000000362, -3.838990380120413 
4.180000000003597, -3.8382661706270347 
4.1900000000035735, -3.8373830560898354 
4.20000000000355, -3.8366342094989014 
4.210000000003527, -3.836247455139626 
4.220000000003504, -3.835872383589991 
4.23000000000348, -3.8353301153672215 
4.240000000003457, -3.8346465403345045 
4.250000000003434, -3.83390507290635 
4.26000000000341, -3.8332631401100223 
4.270000000003387, -3.832751163533838 
4.280000000003364, -3.832212786805182 
4.2900000000033405, -3.8315861301211753 
4.300000000003317, -3.830929470872917 
4.310000000003294, -3.8303418708075263 
4.320000000003271, -3.829818216225526 
4.330000000003247, -3.829265577330001 
4.340000000003224, -3.8286073501534945 
4.350000000003201, -3.82784452303365 
4.360000000003177, -3.8271812941585828 
4.370000000003154, -3.826779515841442 
4.380000000003131, -3.8263907126272043 
4.390000000003107, -3.825845916328503 
4.400000000003084, -3.8251150800437665 
4.410000000003061, -3.8242369729193073 
4.4200000000030375, -3.8235048894054544 
4.430000000003014, -3.8231029184531016 
4.440000000002991, -3.822700360384635 
4.450000000002968, -3.8221451601245335 
4.460000000002944, -3.8214696818587917 
4.470000000002921, -3.8207617534075227 
4.480000000002898, -3.8201488279723774 
4.490000000002874, -3.8196287107434372 
4.500000000002851, -3.8190696325229725 
4.510000000002828, -3.8184276394254297 
4.520000000002804, -3.8177755051671136 
4.530000000002781, -3.8172176689623063 
4.540000000002758, -3.816716763896838 
4.5500000000027345, -3.8161645023229496 
4.560000000002711, -3.815488977106861 
4.570000000002688, -3.8146941500887324 
4.580000000002665, -3.8140158207046886 
4.590000000002641, -3.813642003392496 
4.600000000002618, -3.8132802500607097 
4.610000000002595, -3.812749076208435 
4.620000000002571, -3.8120330149884225 
4.630000000002548, -3.811179021006241 
4.640000000002525, -3.810447577251712 
4.6500000000025015, -3.810010392195521 
4.660000000002478, -3.809584040772095 
4.670000000002455, -3.8090242119964017 
4.6800000000024315, -3.8083620688478064 
4.690000000002408, -3.8076843433903953 
4.700000000002385, -3.8070902364840817 
4.710000000002362, -3.8065626002458344 
4.720000000002338, -3.805989681503614 
4.730000000002315, -3.8053339502421095 
4.740000000002292, -3.804679053293934 
4.750000000002268, -3.804146075973416 
4.760000000002245, -3.8036732364854693 
4.770000000002222, -3.803132750001713 
4.7800000000021985, -3.8024536503154764 
4.790000000002175, -3.801631293905782 
4.800000000002152, -3.8009039872509254 
4.810000000002129, -3.800526962793893 
4.820000000002105, -3.8001957505217105 
4.830000000002082, -3.7996920227828794 
4.840000000002059, -3.799008498395863 
4.850000000002035, -3.79819462801454 
4.860000000002012, -3.7974592708822135 
4.870000000001989, -3.796975974981637 
4.880000000001965, -3.796528134515264 
4.890000000001942, -3.7959685082974466 
4.900000000001919, -3.795319753002012 
4.9100000000018955, -3.794666330746002 
4.920000000001872, -3.7940868847226263 
4.930000000001849, -3.7935565484136218 
4.940000000001826, -3.7929771227621787 
4.950000000001802, -3.792308083048796 
4.960000000001779, -3.7916353616756835 
4.970000000001756, -3.791115953352494 
4.980000000001732, -3.790680550860037 
4.990000000001709, -3.790168675932203 
