t, s[1].omega / s[0].omega 
0, -1.4199972949556892 
0.009999999999999995, -1.4196987598663304 
0.019999999999999934, -1.4193472411600052 
0.029999999999999874, -1.4189505998936118 
0.04000000000000012, -1.4185228287102372 
0.050000000000000405, -1.418084327993676 
0.06000000000000069, -1.4176600936067842 
0.07000000000000098, -1.4172745629751984 
0.08000000000000126, -1.4169439640000268 
0.09000000000000155, -1.4166700855044556 
0.10000000000000184, -1.4164399685652471 
0.11000000000000212, -1.4162319031994726 
0.12000000000000241, -1.4160231796263394 
0.130000000000002, -1.4157948343265059 
0.1400000000000009, -1.4155323490847607 
0.1499999999999998, -1.415224206266975 
0.1599999999999987, -1.414860676360808 
0.1699999999999976, -1.4144345990597127 
0.1799999999999965, -1.4139453014946333 
0.1899999999999954, -1.413405654140644 
0.1999999999999943, -1.4128492204196104 
0.2099999999999932, -1.4123298095530339 
0.2199999999999921, -1.411905272520495 
0.229999999999991, -1.411609294266137 
0.2399999999999899, -1.4114322466319917 
0.2499999999999888, -1.4113291464522717 
0.2599999999999877, -1.4112462811954176 
0.2699999999999866, -1.41114310643152 
0.2799999999999855, -1.4109982842744855 
0.2899999999999844, -1.4108050022103416 
0.2999999999999833, -1.410564208284332 
0.3099999999999822, -1.4102802989761822 
0.3199999999999811, -1.4099601508280175 
0.32999999999998, -1.4096149232926067 
0.3399999999999789, -1.4092632398442273 
0.3499999999999778, -1.4089328644384442 
0.35999999999997667, -1.4086566806236718 
0.36999999999997557, -1.4084611204752566 
0.37999999999997447, -1.4083525712202083 
0.38999999999997337, -1.4083123140983733 
0.39999999999997227, -1.4083045010420427 
0.40999999999997117, -1.4082905394191954 
0.41999999999997006, -1.408240251399842 
0.42999999999996896, -1.4081358916007964 
0.43999999999996786, -1.4079708433578244 
0.44999999999996676, -1.407746368400595 
0.45999999999996566, -1.4074687461353366 
0.46999999999996456, -1.4071477375309978 
0.47999999999996346, -1.4067963105759596 
0.48999999999996235, -1.4064308523359264 
0.49999999999996125, -1.4060705642097635 
0.5099999999999602, -1.4057347808956853 
0.519999999999959, -1.4054381780330352 
0.529999999999958, -1.4051858996989033 
0.5399999999999568, -1.4049716439243336 
0.5499999999999557, -1.4047800884248776 
0.5599999999999546, -1.4045919556453348 
0.5699999999999535, -1.4043885736466293 
0.5799999999999524, -1.4041540803376846 
0.5899999999999513, -1.4038755930152553 
0.5999999999999502, -1.4035428000640522 
0.6099999999999491, -1.4031483823664597 
0.619999999999948, -1.4026901239411982 
0.6299999999999469, -1.4021747806804044 
0.6399999999999458, -1.401622449071939 
0.6499999999999447, -1.4010682106634975 
0.6599999999999436, -1.4005565751889566 
0.6699999999999425, -1.4001269787502024 
0.6799999999999414, -1.399796672366091 
0.6899999999999403, -1.3995534974616775 
0.6999999999999392, -1.3993646527194346 
0.7099999999999381, -1.3991934128353944 
0.719999999999937, -1.3990112178587277 
0.7299999999999359, -1.3988005776413828 
0.7399999999999348, -1.3985522515288284 
0.7499999999999337, -1.398261510115317 
0.7599999999999326, -1.3979262098265481 
0.7699999999999315, -1.3975477170662665 
0.7799999999999304, -1.3971348943990265 
0.7899999999999293, -1.3967099744869844 
0.7999999999999282, -1.3963119325697275 
0.8099999999999271, -1.3959898469946073 
0.819999999999926, -1.3957827033002557 
0.8299999999999249, -1.3956963412527181 
0.8399999999999238, -1.3956975133434053 
0.8499999999999227, -1.3957313577596602 
0.8599999999999216, -1.395746596340864 
0.8699999999999205, -1.395710475698997 
0.8799999999999194, -1.3956098173371247 
0.8899999999999183, -1.3954448436059532 
0.8999999999999172, -1.3952225809641883 
0.9099999999999161, -1.3949528580871338 
0.919999999999915, -1.3946471440138564 
0.9299999999999139, -1.3943193095715973 
0.9399999999999128, -1.3939868343271264 
0.9499999999999117, -1.3936704937428874 
0.9599999999999106, -1.3933908213189388 
0.9699999999999095, -1.3931617492521307 
0.9799999999999084, -1.392984898478854 
0.9899999999999073, -1.3928485636865597 
0.9999999999999062, -1.3927320516664705 
1.0099999999999052, -1.3926122348179422 
1.019999999999904, -1.3924687254234787 
1.029999999999903, -1.392286280512705 
1.039999999999902, -1.3920551130110286 
1.0499999999999008, -1.391770426343554 
1.0599999999998997, -1.3914321510756325 
1.0699999999998986, -1.3910452911178983 
1.0799999999998975, -1.3906207674220572 
1.0899999999998964, -1.3901760956599163 
1.0999999999998953, -1.389734633515653 
1.1099999999998942, -1.389321961385671 
1.119999999999893, -1.3889591525540967 
1.129999999999892, -1.3886554299819678 
1.1399999999998909, -1.388404762419088 
1.1499999999998898, -1.388189050146075 
1.1599999999998887, -1.387985516424215 
1.1699999999998876, -1.3877732029580405 
1.1799999999998865, -1.3875356101977956 
1.1899999999998854, -1.3872601068833474 
1.1999999999998843, -1.3869363205716065 
1.2099999999998832, -1.38655547138525 
1.219999999999882, -1.3861119962450532 
1.229999999999881, -1.385608231104952 
1.2399999999998799, -1.3850614971946398 
1.2499999999998788, -1.3845096285421754 
1.2599999999998777, -1.384007193163726 
1.2699999999998766, -1.3836067515434027 
1.2799999999998755, -1.383332686884844 
1.2899999999998744, -1.3831681469944628 
1.2999999999998733, -1.3830670994496808 
1.3099999999998722, -1.3829794988904782 
1.319999999999871, -1.3828692625711743 
1.32999999999987, -1.382717935993481 
1.3399999999998689, -1.3825197960418238 
1.3499999999998678, -1.3822757660868645 
1.3599999999998666, -1.381989727528905 
1.3699999999998655, -1.3816678661703663 
1.3799999999998644, -1.3813205699857947 
1.3899999999998633, -1.3809656900936345 
1.3999999999998622, -1.3806305437431523 
1.4099999999998611, -1.380348583475643 
1.41999999999986, -1.3801484027106201 
1.429999999999859, -1.380039624452783 
1.4399999999998578, -1.380006085190345 
1.4499999999998567, -1.380012288692446 
1.4599999999998556, -1.380017879154633 
1.4699999999998545, -1.3799901207646943 
1.4799999999998534, -1.3799091713498952 
1.4899999999998523, -1.3797672584462914 
1.4999999999998512, -1.3795652334672628 
1.5099999999998501, -1.37930922143136 
1.519999999999849, -1.3790085950124387 
1.529999999999848, -1.3786753869964903 
1.5399999999998468, -1.3783245275339353 
1.5499999999998457, -1.3779737557042842 
1.5599999999998446, -1.3776418898958793 
1.5699999999998435, -1.377344920980248 
1.5799999999998424, -1.3770911982927871 
1.5899999999998413, -1.376878434305075 
1.5999999999998402, -1.3766945407935272 
1.6099999999998391, -1.3765217011676294 
1.619999999999838, -1.3763410891569023 
1.629999999999837, -1.376135983376162 
1.6399999999998358, -1.3758928173897016 
1.6499999999998347, -1.3756011019411152 
1.6599999999998336, -1.3752534549170592 
1.6699999999998325, -1.3748465893876047 
1.6799999999998314, -1.3743835144083878 
1.6899999999998303, -1.3738764527415488 
1.6999999999998292, -1.3733489407866541 
1.709999999999828, -1.3728345096469727 
1.719999999999827, -1.3723695348726948 
1.729999999999826, -1.3719810746689658 
1.7399999999998248, -1.3716759338959066 
1.7499999999998237, -1.371438883615778 
1.7599999999998226, -1.3712414276939597 
1.7699999999998215, -1.3710539718879022 
1.7799999999998204, -1.3708535143427167 
1.7899999999998193, -1.3706249491686986 
1.7999999999998182, -1.3703587611427062 
1.809999999999817, -1.3700483790816411 
1.819999999999816, -1.3696891400717321 
1.8299999999998149, -1.3692798524732788 
1.8399999999998138, -1.368827365721269 
1.8499999999998127, -1.368353098141188 
1.8599999999998116, -1.367897073171982 
1.8699999999998105, -1.3675116730388752 
1.8799999999998094, -1.3672410531814363 
1.8899999999998083, -1.3670965553073062 
1.8999999999998072, -1.3670488067657436 
1.909999999999806, -1.3670443596745185 
1.919999999999805, -1.3670315702330451 
1.9299999999998039, -1.3669765821381072 
1.9399999999998028, -1.366864879064535 
1.9499999999998017, -1.366695158646055 
1.9599999999998006, -1.3664726874711874 
1.9699999999997995, -1.3662053078609966 
1.9799999999997984, -1.365902389859341 
1.9899999999997973, -1.3655759402817473 
1.9999999999997962, -1.36524258780574 
2.0099999999998173, -1.364924434298203 
2.0199999999998384, -1.3646463126126063 
2.0299999999998595, -1.3644285518553831 
2.0399999999998806, -1.364278368420868 
2.0499999999999017, -1.3641857719887194 
2.059999999999923, -1.364127123883875 
2.069999999999944, -1.364073590786388 
2.079999999999965, -1.363999147350111 
2.089999999999986, -1.363884961741715 
2.100000000000007, -1.3637202402467345 
2.1100000000000283, -1.3635011294855324 
2.1200000000000494, -1.3632291814191828 
2.1300000000000705, -1.3629102481700008 
2.1400000000000916, -1.3625540789197763 
2.1500000000001127, -1.362174381735829 
2.160000000000134, -1.3617886105227905 
2.170000000000155, -1.3614164118039427 
2.180000000000176, -1.3610760253655387 
2.190000000000197, -1.3607793216256114 
2.2000000000002182, -1.3605278360516762 
2.2100000000002393, -1.3603123339930865 
2.2200000000002604, -1.3601162671644427 
2.2300000000002815, -1.359920805789111 
2.2400000000003026, -1.3597085965901239 
2.2500000000003237, -1.359465113458691 
2.260000000000345, -1.3591783474485806 
2.270000000000366, -1.3588382840275677 
2.280000000000387, -1.3584374083462118 
2.290000000000408, -1.3579729834187924 
2.3000000000004293, -1.357451124321081 
2.3100000000004504, -1.356891375513327 
2.3200000000004715, -1.356328547620886 
2.3300000000004926, -1.355807406273104 
2.3400000000005137, -1.3553685228819519 
2.3500000000005348, -1.3550312727990699 
2.360000000000556, -1.3547858779355282 
2.370000000000577, -1.3546008714898465 
2.380000000000598, -1.3544391988649704 
2.390000000000619, -1.3542709212493134 
2.4000000000006403, -1.3540771827056108 
2.4100000000006614, -1.3538480033250784 
2.4200000000006825, -1.3535784736538556 
2.4300000000007036, -1.3532661962518864 
2.4400000000007247, -1.3529110673836846 
2.450000000000746, -1.3525177228666778 
2.460000000000767, -1.3521002928099208 
2.470000000000788, -1.3516872298025553 
2.480000000000809, -1.3513209004760445 
2.49000000000083, -1.35104604141192 
2.5000000000008513, -1.3508887544257213 
2.5100000000008724, -1.3508401159954306 
2.5200000000008935, -1.3508591480436176 
2.5300000000009146, -1.3508929599783823 
2.5400000000009357, -1.350897628697354 
2.550000000000957, -1.3508476895052428 
2.560000000000978, -1.3507345881752284 
2.570000000000999, -1.3505605332298862 
2.58000000000102, -1.3503328942483683 
2.5900000000010412, -1.3500611011394965 
2.6000000000010624, -1.349755996884534 
2.6100000000010835, -1.3494308047552543 
2.6200000000011046, -1.3491024219910837 
2.6300000000011257, -1.3487912745736181 
2.6400000000011468, -1.348518099702133 
2.650000000001168, -1.3482978231618392 
2.660000000001189, -1.3481335975070776 
2.67000000000121, -1.348015029094388 
2.680000000001231, -1.3479218168994196 
2.6900000000012523, -1.3478302105812205 
2.7000000000012734, -1.3477186757396686 
2.7100000000012945, -1.347570949179061 
2.7200000000013156, -1.3473767542056116 
2.7300000000013367, -1.3471313152484183 
2.740000000001358, -1.3468346671220013 
2.750000000001379, -1.346491294818427 
2.7600000000014, -1.3461102190710483 
2.770000000001421, -1.3457052483932297 
2.780000000001442, -1.345294681423019 
2.7900000000014633, -1.344899451847739 
2.8000000000014844, -1.34453908801377 
2.8100000000015055, -1.344226291281321 
2.8200000000015266, -1.3439626930854744 
2.8300000000015477, -1.343738512435859 
2.840000000001569, -1.3435364289992342 
2.85000000000159, -1.3433370507029132 
2.860000000001611, -1.3431228544570861 
2.870000000001632, -1.3428794363392762 
2.8800000000016532, -1.3425949338760161 
2.8900000000016743, -1.3422591727849669 
2.9000000000016954, -1.341863851407871 
2.9100000000017165, -1.341404627442262 
2.9200000000017377, -1.3408853539973573 
2.9300000000017588, -1.34032341570164 
2.94000000000178, -1.3397528860497494 
2.950000000001801, -1.339220424686832 
2.960000000001822, -1.3387710383962117 
2.970000000001843, -1.3384290851977982 
2.9800000000018643, -1.3381875916109618 
2.9900000000018854, -1.3380144886298906 
3.0000000000019065, -1.337869820358427 
3.0100000000019276, -1.3377205418204634 
3.0200000000019487, -1.3375458912424798 
3.03000000000197, -1.337335451972354 
3.040000000001991, -1.3370849330557748 
3.050000000002012, -1.3367929735912087 
3.060000000002033, -1.3364601808498624 
3.070000000002054, -1.3360906510928792 
3.0800000000020753, -1.335695730668524 
3.0900000000020964, -1.3352985428870139 
3.1000000000021175, -1.3349353643535635 
3.1100000000021386, -1.3346484153814449 
3.1200000000021597, -1.3344688597365033 
3.130000000002181, -1.3343992174532255 
3.140000000002202, -1.334409562613209 
3.150000000002223, -1.3344514381585848 
3.160000000002244, -1.3344781469474138 
3.1700000000022652, -1.3344579532600955 
3.1800000000022863, -1.3343763681113354 
3.1900000000023074, -1.334231758198859 
3.2000000000023285, -1.334029662945314 
3.2100000000023496, -1.3337787771828937 
3.2200000000023707, -1.333489274924018 
3.230000000002392, -1.333173013069867 
3.240000000002413, -1.3328446517623596 
3.250000000002434, -1.3325222977665905 
3.260000000002455, -1.3322260433322077 
3.2700000000024763, -1.3319735801303572 
3.2800000000024974, -1.3317743121787384 
3.2900000000025185, -1.3316254187727048 
3.3000000000025396, -1.3315125594676354 
3.3100000000025607, -1.331414646751854 
3.3200000000025818, -1.331309671039314 
3.330000000002603, -1.3311789275585981 
3.340000000002624, -1.3310088929539023 
3.350000000002645, -1.3307914253280113 
3.360000000002666, -1.330523296524602 
3.3700000000026873, -1.3302057702723689 
3.3800000000027084, -1.3298445357002753 
3.3900000000027295, -1.3294499559277646 
3.4000000000027506, -1.3290372268166704 
3.4100000000027717, -1.3286256526559694 
3.420000000002793, -1.3282361237549627 
3.430000000002814, -1.3278865532434112 
3.440000000002835, -1.327586619091727 
3.450000000002856, -1.32733455537708 
3.460000000002877, -1.3271181294581764 
3.4700000000028983, -1.3269191889698093 
3.4800000000029194, -1.3267188254189057 
3.4900000000029405, -1.3265005297079524 
3.5000000000029616, -1.3262508247896183 
3.5100000000029827, -1.3259584902867545 
3.520000000003004, -1.3256138439866825 
3.530000000003025, -1.325209222050048 
3.540000000003046, -1.3247413644624773 
3.550000000003067, -1.324215759323626 
3.5600000000030882, -1.3236516427746625 
3.5700000000031094, -1.3230842394076465 
3.5800000000031305, -1.3225595428454326 
3.5900000000031516, -1.3221197903670532 
3.6000000000031727, -1.321785785080624 
3.6100000000031938, -1.3215483130183756 
3.620000000003215, -1.3213753642350208 
3.630000000003236, -1.3212285552486607 
3.640000000003257, -1.3210765374733022 
3.650000000003278, -1.3208995824253602 
3.6600000000032993, -1.320687593997085 
3.6700000000033204, -1.3204361408054135 
3.6800000000033415, -1.3201434734539723 
3.6900000000033626, -1.319809628763699 
3.7000000000033837, -1.3194378877117967 
3.710000000003405, -1.319038434892158 
3.720000000003426, -1.3186329534355352 
3.730000000003447, -1.3182565591439128 
3.740000000003468, -1.3179517180694023 
3.750000000003489, -1.3177521738343771 
3.7600000000035103, -1.3176647656613993 
3.7700000000035314, -1.317663424839012 
3.7800000000035525, -1.3177011559176703 
3.7900000000035736, -1.3177302594039149 
3.8000000000035947, -1.3177168395935364 
3.810000000003616, -1.317644351413959 
3.820000000003637, -1.3175097330095082 
3.830000000003658, -1.3173176535491253 
3.840000000003679, -1.3170761921811356 
3.8500000000037002, -1.3167948542519161 
3.8600000000037213, -1.3164845834593566 
3.8700000000037424, -1.3161589307302588 
3.8800000000037635, -1.3158351357905584 
3.8900000000037847, -1.315533484137476 
3.9000000000038058, -1.3152736605195539 
3.910000000003827, -1.315068725683251 
3.920000000003848, -1.314919856627692 
3.930000000003869, -1.3148153469471624 
3.94000000000389, -1.314734511714338 
3.9500000000039113, -1.3146538880060032 
3.9600000000039324, -1.3145525126410984 
3.9700000000039535, -1.3144147537890207 
3.9800000000039746, -1.3142309748892784 
3.9900000000039957, -1.3139970362790236 
4.000000000004016, -1.3137135199974623 
4.010000000003993, -1.313385184364758 
4.02000000000397, -1.313020804114103 
4.030000000003946, -1.3126332171936006 
4.040000000003923, -1.3122390261688432 
4.0500000000039, -1.3118571334970663 
4.0600000000038765, -1.3115055282861152 
4.070000000003853, -1.3111968020359326 
4.08000000000383, -1.31093428091451 
4.090000000003807, -1.3107110383688099 
4.100000000003783, -1.3105124825941996 
4.11000000000376, -1.3103208538306599 
4.120000000003737, -1.3101190702750707 
4.130000000003713, -1.3098925164494193 
4.14000000000369, -1.3096290712861294 
4.150000000003667, -1.309318539595907 
4.1600000000036434, -1.308952627720819 
4.17000000000362, -1.3085262266764623 
4.180000000003597, -1.3080402669997446 
4.1900000000035735, -1.307505613215097 
4.20000000000355, -1.3069461852562598 
4.210000000003527, -1.3063981717129391 
4.220000000003504, -1.3059024472056526 
4.23000000000348, -1.3054910313965722 
4.240000000003457, -1.3051744180184348 
4.250000000003434, -1.304938541061314 
4.26000000000341, -1.3047534555261238 
4.270000000003387, -1.3045866530250145 
4.280000000003364, -1.3044123640258318 
4.2900000000033405, -1.3042139801467265 
4.300000000003317, -1.3039819956556689 
4.310000000003294, -1.303710877497317 
4.320000000003271, -1.3033969540667978 
4.330000000003247, -1.3030382036040087 
4.340000000003224, -1.3026363274560064 
4.350000000003201, -1.3022010649597244 
4.360000000003177, -1.3017553297957543 
4.370000000003154, -1.3013370818943142 
4.380000000003131, -1.3009921347631557 
4.390000000003107, -1.300756331756957 
4.400000000003084, -1.3006364070077412 
4.410000000003061, -1.3006048455168333 
4.4200000000030375, -1.3006136874162753 
4.430000000003014, -1.3006157235833378 
4.440000000002991, -1.3005785110752184 
4.450000000002968, -1.300486826540477 
4.460000000002944, -1.3003380798803819 
4.470000000002921, -1.300136465561701 
4.480000000002898, -1.2998889186414924 
4.490000000002874, -1.2996035154382581 
4.500000000002851, -1.2992898981355618 
4.510000000002828, -1.2989609440384082 
4.520000000002804, -1.2986344620413013 
4.530000000002781, -1.298333046685007 
4.540000000002758, -1.298080238880805 
4.5500000000027345, -1.2978931383533343 
4.560000000002711, -1.2977750400405885 
4.570000000002688, -1.2977130172331068 
4.580000000002665, -1.2976822178437528 
4.590000000002641, -1.297653922665813 
4.600000000002618, -1.297602835413556 
4.610000000002595, -1.2975110578746443 
4.620000000002571, -1.2973688195690554 
4.630000000002548, -1.2971733004698767 
4.640000000002525, -1.296926893360221 
4.6500000000025015, -1.2966357739430696 
4.660000000002478, -1.2963091437899548 
4.670000000002455, -1.2959590657793312 
4.6800000000024315, -1.2956003878684463 
4.690000000002408, -1.2952499326202729 
4.700000000002385, -1.2949242277310715 
4.710000000002362, -1.2946358785772527 
4.720000000002338, -1.2943899512868067 
4.730000000002315, -1.2941823406927413 
4.740000000002292, -1.294001144690092 
4.750000000002268, -1.2938301838025246 
4.760000000002245, -1.2936526900396064 
4.770000000002222, -1.2934536719333871 
4.7800000000021985, -1.293220752655626 
4.790000000002175, -1.292944196304608 
4.800000000002152, -1.2926170024721333 
4.810000000002129, -1.292235651472047 
4.820000000002105, -1.291801647015561 
4.830000000002082, -1.2913235223796986 
4.840000000002059, -1.2908184175932658 
4.850000000002035, -1.2903117820073382 
4.860000000002012, -1.2898336730990134 
4.870000000001989, -1.2894113310363002 
4.880000000001965, -1.2890604361302345 
4.890000000001942, -1.2887798163539936 
4.900000000001919, -1.288553161698959 
4.9100000000018955, -1.2883564414645792 
4.920000000001872, -1.2881659508593084 
4.930000000001849, -1.287962867878766 
4.940000000001826, -1.2877337898344805 
