t, s[1].omega / s[0].omega 
0, -1.1099974982715044 
0.009999999999999995, -1.1097210995788223 
0.019999999999999934, -1.1093948302735963 
0.029999999999999874, -1.1090247576543288 
0.04000000000000012, -1.1086208066039167 
0.050000000000000405, -1.1081964976342937 
0.06000000000000069, -1.107768364701435 
0.07000000000000098, -1.1073547114213453 
0.08000000000000126, -1.1069734069381627 
0.09000000000000155, -1.1066388393311262 
0.10000000000000184, -1.1063588299602356 
0.11000000000000212, -1.1061327656876738 
0.12000000000000241, -1.1059518818466443 
0.130000000000002, -1.1058015722855086 
0.1400000000000009, -1.105664588692672 
0.1499999999999998, -1.1055237957630095 
0.1599999999999987, -1.1053637762883715 
0.1699999999999976, -1.1051713965105878 
0.1799999999999965, -1.1049358957509692 
0.1899999999999954, -1.1046490613580118 
0.1999999999999943, -1.1043057839129669 
0.2099999999999932, -1.1039049719776428 
0.2199999999999921, -1.1034505736030504 
0.229999999999991, -1.1029523508501047 
0.2399999999999899, -1.1024260470179033 
0.2499999999999888, -1.1018925969419306 
0.2599999999999877, -1.1013760561595551 
0.2699999999999866, -1.1009001201785737 
0.2799999999999855, -1.1004836654915597 
0.2899999999999844, -1.1001365682394915 
0.2999999999999833, -1.099857527500911 
0.3099999999999822, -1.0996350166386557 
0.3199999999999811, -1.0994509076150407 
0.32999999999998, -1.0992849332153727 
0.3399999999999789, -1.099118073859254 
0.3499999999999778, -1.0989340260194118 
0.35999999999997667, -1.0987190870046954 
0.36999999999997557, -1.0984613534650043 
0.37999999999997447, -1.0981501082022802 
0.38999999999997337, -1.0977760015387734 
0.39999999999997227, -1.0973323180667391 
0.40999999999997117, -1.0968172534033307 
0.41999999999997006, -1.0962366703305837 
0.42999999999996896, -1.0956063378461 
0.43999999999996786, -1.094952385030745 
0.44999999999996676, -1.0943088558008651 
0.45999999999996566, -1.0937120061993935 
0.46999999999996456, -1.0931923691368426 
0.47999999999996346, -1.0927671999712447 
0.48999999999996235, -1.0924365874796758 
0.49999999999996125, -1.0921851388012245 
0.5099999999999602, -1.0919881634811566 
0.519999999999959, -1.0918189652129136 
0.529999999999958, -1.0916540229197165 
0.5399999999999568, -1.0914748804207484 
0.5499999999999557, -1.0912674749656177 
0.5599999999999546, -1.0910203232163853 
0.5699999999999535, -1.0907227478702535 
0.5799999999999524, -1.0903638931807387 
0.5899999999999513, -1.089933026296094 
0.5999999999999502, -1.0894215068982622 
0.6099999999999491, -1.0888265421649972 
0.619999999999948, -1.088156120264785 
0.6299999999999469, -1.087433309110818 
0.6399999999999458, -1.0866970186649334 
0.6499999999999447, -1.085996569451864 
0.6599999999999436, -1.085379969901752 
0.6699999999999425, -1.0848799627120647 
0.6799999999999414, -1.0845046469636197 
0.6899999999999403, -1.0842376600492596 
0.6999999999999392, -1.0840470811157146 
0.7099999999999381, -1.0838972310074622 
0.719999999999937, -1.0837574142658903 
0.7299999999999359, -1.083605286022967 
0.7399999999999348, -1.0834260008667265 
0.7499999999999337, -1.083209471870557 
0.7599999999999326, -1.0829475222676268 
0.7699999999999315, -1.0826318169360443 
0.7799999999999304, -1.0822529572792703 
0.7899999999999293, -1.0818010658325297 
0.7999999999999282, -1.0812682998947853 
0.8099999999999271, -1.0806535838172056 
0.819999999999926, -1.079968929882173 
0.8299999999999249, -1.0792448265450236 
0.8399999999999238, -1.0785302481256378 
0.8499999999999227, -1.0778833511773354 
0.8599999999999216, -1.0773539332662618 
0.8699999999999205, -1.0769659128780256 
0.8799999999999194, -1.076710381663959 
0.8899999999999183, -1.0765530617788208 
0.8999999999999172, -1.076450018828407 
0.9099999999999161, -1.0763617500819256 
0.919999999999915, -1.076260017971132 
0.9299999999999139, -1.0761279033554554 
0.9399999999999128, -1.0759564140379996 
0.9499999999999117, -1.0757405587651467 
0.9599999999999106, -1.0754763155771727 
0.9699999999999095, -1.0751588780079575 
0.9799999999999084, -1.0747822350456544 
0.9899999999999073, -1.0743402630082204 
0.9999999999999062, -1.0738296996716343 
1.0099999999999052, -1.073255178616633 
1.019999999999904, -1.0726353983931605 
1.029999999999903, -1.0720073486484862 
1.039999999999902, -1.0714236348821566 
1.0499999999999008, -1.0709394748949377 
1.0599999999998997, -1.0705928210349622 
1.0699999999998986, -1.070388811511463 
1.0799999999998975, -1.0702991777580233 
1.0899999999998964, -1.0702764595708614 
1.0999999999998953, -1.070272567827673 
1.1099999999998942, -1.0702512018147587 
1.119999999999893, -1.0701910307183424 
1.129999999999892, -1.0700826711240015 
1.1399999999998909, -1.069923730904915 
1.1499999999998898, -1.069714558097419 
1.1599999999998887, -1.0694555491283362 
1.1699999999998876, -1.0691459861128192 
1.1799999999998865, -1.0687842515506514 
1.1899999999998854, -1.0683694803337778 
1.1999999999998843, -1.0679048522565533 
1.2099999999998832, -1.0674023810417514 
1.219999999999882, -1.066887810889766 
1.229999999999881, -1.066402244339284 
1.2399999999998799, -1.0659960863528835 
1.2499999999998788, -1.065713780025831 
1.2599999999998777, -1.0655752035021044 
1.2699999999998766, -1.065565438655952 
1.2799999999998755, -1.0656407188202275 
1.2899999999998744, -1.065746444482119 
1.2999999999998733, -1.0658353087529213 
1.3099999999998722, -1.065876669115971 
1.319999999999871, -1.0658565291648836 
1.32999999999987, -1.0657724917646458 
1.3399999999998689, -1.0656280305648738 
1.3499999999998678, -1.0654282704235496 
1.3599999999998666, -1.065177702535974 
1.3699999999998655, -1.0648795491803074 
1.3799999999998644, -1.0645364914132744 
1.3899999999998633, -1.0641526958462308 
1.3999999999998622, -1.0637371316900257 
1.4099999999998611, -1.0633077001234656 
1.41999999999986, -1.0628944823847621 
1.429999999999859, -1.0625389022747171 
1.4399999999998578, -1.0622855446137183 
1.4499999999998567, -1.0621669687341828 
1.4599999999998556, -1.0621883139217918 
1.4699999999998545, -1.0623218450730378 
1.4799999999998534, -1.0625162370645782 
1.4899999999998523, -1.0627149400245013 
1.4999999999998512, -1.0628726120667393 
1.5099999999998501, -1.0629624987649222 
1.519999999999849, -1.062975043336112 
1.529999999999848, -1.0629121393520244 
1.5399999999998468, -1.0627811476456746 
1.5499999999998457, -1.062590688106789 
1.5599999999998446, -1.0623485248158517 
1.5699999999998435, -1.06206117844365 
1.5799999999998424, -1.0617348856199949 
1.5899999999998413, -1.061377698263081 
1.5999999999998402, -1.0610024969342176 
1.6099999999998391, -1.0606302041840912 
1.619999999999838, -1.0602914879745824 
1.629999999999837, -1.0600243520928083 
1.6399999999998358, -1.0598656797533694 
1.6499999999998347, -1.059838206169048 
1.6599999999998336, -1.059939029964645 
1.6699999999998325, -1.0601371031438611 
1.6799999999998314, -1.0603823035578681 
1.6899999999998303, -1.060621177371723 
1.6999999999998292, -1.0608109366706437 
1.709999999999828, -1.0609261245626167 
1.719999999999827, -1.060957797667659 
1.729999999999826, -1.0609085419302933 
1.7399999999998248, -1.0607868714915403 
1.7499999999998237, -1.0606030528540038 
1.7599999999998226, -1.060366895438651 
1.7699999999998215, -1.0600872771199357 
1.7799999999998204, -1.0597730119759239 
1.7899999999998193, -1.0594347253457856 
1.7999999999998182, -1.0590873247193118 
1.809999999999817, -1.0587522348157714 
1.819999999999816, -1.0584578875974926 
1.8299999999998149, -1.0582366340960303 
1.8399999999998138, -1.058117274594426 
1.8499999999998127, -1.058115114256281 
1.8599999999998116, -1.0582242204960384 
1.8699999999998105, -1.0584165767568652 
1.8799999999998094, -1.0586492319255538 
1.8899999999998083, -1.0588759992168029 
1.8999999999998072, -1.0590582892212415 
1.909999999999806, -1.0591711835738151 
1.919999999999805, -1.0592040159663734 
1.9299999999998039, -1.0591572013757755 
1.9399999999998028, -1.0590378036936907 
1.9499999999998017, -1.0588557257428772 
1.9599999999998006, -1.0586213762970085 
1.9699999999997995, -1.0583448969764486 
1.9799999999997984, -1.0580366808858117 
1.9899999999997973, -1.0577088011138676 
1.9999999999997962, -1.0573768243001929 
2.0099999999998173, -1.057061161260626 
2.0199999999998384, -1.0567867354112441 
2.0299999999998595, -1.0565798290641852 
2.0399999999998806, -1.0564620580394952 
2.0499999999999017, -1.0564433470986232 
2.059999999999923, -1.0565171666356565 
2.069999999999944, -1.0566606619302488 
2.079999999999965, -1.056839837781529 
2.089999999999986, -1.0570175124416898 
2.100000000000007, -1.057160922887618 
2.1100000000000283, -1.057246686650894 
2.1200000000000494, -1.0572623536203263 
2.1300000000000705, -1.0572051299563605 
2.1400000000000916, -1.0570790834581356 
2.1500000000001127, -1.0568921830874087 
2.160000000000134, -1.0566541037779809 
2.170000000000155, -1.0563751828372419 
2.180000000000176, -1.056066490071571 
2.190000000000197, -1.055740703044198 
2.2000000000002182, -1.055413253731107 
2.2100000000002393, -1.0551029602720148 
2.2200000000002604, -1.0548312074028883 
2.2300000000002815, -1.0546190358115486 
2.2400000000003026, -1.0544824811134665 
2.2500000000003237, -1.054427781105621 
2.260000000000345, -1.0544486380304456 
2.270000000000366, -1.0545269015162275 
2.280000000000387, -1.054636362659695 
2.290000000000408, -1.0547480734695784 
2.3000000000004293, -1.054835412078815 
2.3100000000004504, -1.054877701119203 
2.3200000000004715, -1.0548619295183834 
2.3300000000004926, -1.0547827028816013 
2.3400000000005137, -1.05464093079137 
2.3500000000005348, -1.0544419620135281 
2.360000000000556, -1.0541938656847258 
2.370000000000577, -1.053906342065686 
2.380000000000598, -1.0535904291295695 
2.390000000000619, -1.0532588506861513 
2.4000000000006403, -1.0529265645030261 
2.4100000000006614, -1.0526108434772934 
2.4200000000006825, -1.0523301877835842 
2.4300000000007036, -1.0521017347944581 
2.4400000000007247, -1.0519376489314542 
2.450000000000746, -1.0518418144517667 
2.460000000000767, -1.0518083150643138 
2.470000000000788, -1.0518223921459522 
2.480000000000809, -1.0518633958241799 
2.49000000000083, -1.0519085369552 
2.5000000000008513, -1.0519363227198977 
2.5100000000008724, -1.0519290648554884 
2.5200000000008935, -1.0518743105480848 
2.5300000000009146, -1.0517652795446042 
2.5400000000009357, -1.0516004900149218 
2.550000000000957, -1.0513828471650661 
2.560000000000978, -1.0511185582841198 
2.570000000000999, -1.0508162429316918 
2.58000000000102, -1.0504864724135932 
2.5900000000010412, -1.050141724616102 
2.6000000000010624, -1.0497964556991422 
2.6100000000010835, -1.049466773450206 
2.6200000000011046, -1.0491691943316845 
2.6300000000011257, -1.0489183190800595 
2.6400000000011468, -1.048723922427698 
2.650000000001168, -1.0485885335440213 
2.660000000001189, -1.048506576233256 
2.67000000000121, -1.0484654379396101 
2.680000000001231, -1.0484479450547683 
2.6900000000012523, -1.048435270117267 
2.7000000000012734, -1.0484094583461039 
2.7100000000012945, -1.0483552220486225 
2.7200000000013156, -1.0482610207942362 
2.7300000000013367, -1.0481195731033863 
2.740000000001358, -1.0479279191980528 
2.750000000001379, -1.0476871246179418 
2.7600000000014, -1.0474017511355098 
2.770000000001421, -1.0470792815361094 
2.780000000001442, -1.0467296759905413 
2.7900000000014633, -1.0463651070862392 
2.8000000000014844, -1.0459997014659113 
2.8100000000015055, -1.0456489222000491 
2.8200000000015266, -1.045328216984919 
2.8300000000015477, -1.045050855189521 
2.840000000001569, -1.0448254161936534 
2.85000000000159, -1.0446538352211416 
2.860000000001611, -1.0445308566857767 
2.870000000001632, -1.0444451300843232 
2.8800000000016532, -1.0443814356943157 
2.8900000000016743, -1.0443231723438242 
2.9000000000016954, -1.044254421538894 
2.9100000000017165, -1.0441613440194275 
2.9200000000017377, -1.0440330105220113 
2.9300000000017588, -1.0438618700660052 
2.94000000000178, -1.0436439882914883 
2.950000000001801, -1.043379091971618 
2.960000000001822, -1.0430704281666907 
2.970000000001843, -1.042724485983813 
2.9800000000018643, -1.0423506647236238 
2.9900000000018854, -1.0419609288291747 
3.0000000000019065, -1.0415693529514845 
3.0100000000019276, -1.0411913079593456 
3.0200000000019487, -1.0408420185550107 
3.03000000000197, -1.0405344601588224 
3.040000000001991, -1.0402770150585838 
3.050000000002012, -1.0400716914938795 
3.060000000002033, -1.0399136651228094 
3.070000000002054, -1.0397923519379473 
3.0800000000020753, -1.0396935250326615 
3.0900000000020964, -1.0396016385375737 
3.1000000000021175, -1.0395016932481904 
3.1100000000021386, -1.0393804271255527 
3.1200000000021597, -1.0392269819780067 
3.130000000002181, -1.039033310602854 
3.140000000002202, -1.038794497663373 
3.150000000002223, -1.0385090211609902 
3.160000000002244, -1.0381788973713908 
3.1700000000022652, -1.0378096599603872 
3.1800000000022863, -1.037410173019103 
3.1900000000023074, -1.0369922888077578 
3.2000000000023285, -1.0365702913924904 
3.2100000000023496, -1.0361599573230797 
3.2200000000023707, -1.0357770356021436 
3.230000000002392, -1.0354351300951228 
3.240000000002413, -1.0351433570691053 
3.250000000002434, -1.034904521399643 
3.260000000002455, -1.0347145641198012 
3.2700000000024763, -1.034563545186303 
3.2800000000024974, -1.0344377257158377 
3.2900000000025185, -1.0343219016711545 
3.3000000000025396, -1.0342012625953636 
3.3100000000025607, -1.0340625124279141 
3.3200000000025818, -1.0338944184389656 
3.330000000002603, -1.0336881227840031 
3.340000000002624, -1.0334374713262389 
3.350000000002645, -1.0331394257327813 
3.360000000002666, -1.0327944687055806 
3.3700000000026873, -1.0324068629938157 
3.3800000000027084, -1.0319846683310718 
3.3900000000027295, -1.03153947853223 
3.4000000000027506, -1.0310858386008992 
3.4100000000027717, -1.0306402359109632 
3.420000000002793, -1.0302195217785852 
3.430000000002814, -1.0298387425144586 
3.440000000002835, -1.02950869018999 
3.450000000002856, -1.029233863480112 
3.460000000002877, -1.0290116299580165 
3.4700000000028983, -1.028832984190386 
3.4800000000029194, -1.028684581548129 
3.4900000000029405, -1.0285511937786034 
3.5000000000029616, -1.0284177392730647 
3.5100000000029827, -1.0282704925393484 
3.520000000003004, -1.0280975872795906 
3.530000000003025, -1.027889196974166 
3.540000000003046, -1.0276377584957297 
3.550000000003067, -1.027338411597801 
3.5600000000030882, -1.0269896036614137 
3.5700000000031094, -1.0265936651444616 
3.5800000000031305, -1.0261571439002826 
3.5900000000031516, -1.0256907599982108 
3.6000000000031727, -1.0252089149554107 
3.6100000000031938, -1.0247286950160719 
3.620000000003215, -1.0242682811505521 
3.630000000003236, -1.023844741232692 
3.640000000003257, -1.023471433987074 
3.650000000003278, -1.0231556320324215 
3.6600000000032993, -1.0228971901222508 
3.6700000000033204, -1.0226888432434769 
3.6800000000033415, -1.022518037660767 
3.6900000000033626, -1.0223695141044402 
3.7000000000033837, -1.022227662841718 
3.710000000003405, -1.0220780317456872 
3.720000000003426, -1.021907944944499 
3.730000000003447, -1.0217065963601373 
3.740000000003468, -1.0214650794383335 
3.750000000003489, -1.0211766750622746 
3.7600000000035103, -1.0208374772361108 
3.7700000000035314, -1.0204472055340088 
3.7800000000035525, -1.0200099223257524 
3.7900000000035736, -1.0195343799314585 
3.8000000000035947, -1.0190338238753445 
3.810000000003616, -1.0185251741614827 
3.820000000003637, -1.0180275413302686 
3.830000000003658, -1.0175600674272811 
3.840000000003679, -1.0171392410121514 
3.8500000000037002, -1.016776161872603 
3.8600000000037213, -1.0164745493855087 
3.8700000000037424, -1.016230269080159 
3.8800000000037635, -1.0160326213798485 
3.8900000000037847, -1.0158668555144836 
3.9000000000038058, -1.0157168854626293 
3.910000000003827, -1.0155673141872472 
3.920000000003848, -1.0154044322709272 
3.930000000003869, -1.0152164104331691 
3.94000000000389, -1.0149931721208518 
3.9500000000039113, -1.014726405179601 
3.9600000000039324, -1.0144099718768078 
3.9700000000039535, -1.0140407180904298 
3.9800000000039746, -1.013619452975139 
3.9900000000039957, -1.0131517494386495 
4.000000000004016, -1.012648243339562 
4.010000000003993, -1.0121242376689437 
4.02000000000397, -1.0115985427300385 
4.030000000003946, -1.011091555166789 
4.040000000003923, -1.0106226692578517 
4.0500000000039, -1.0102073361817954 
4.0600000000038765, -1.0098544212095606 
4.070000000003853, -1.009564711397524 
4.08000000000383, -1.0093311905324407 
4.090000000003807, -1.009141001818822 
4.100000000003783, -1.0089782784041301 
4.11000000000376, -1.0088267611571418 
4.120000000003737, -1.0086714731602124 
4.130000000003713, -1.0084993435917913 
4.14000000000369, -1.0082991489552313 
4.150000000003667, -1.0080612956347859 
4.1600000000036434, -1.0077778710727734 
4.17000000000362, -1.0074431674832978 
4.180000000003597, -1.0070546214885805 
4.1900000000035735, -1.0066138878898223 
4.20000000000355, -1.0061276557292138 
4.210000000003527, -1.00560786226733 
4.220000000003504, -1.0050711131450163 
4.23000000000348, -1.004537265250558 
4.240000000003457, -1.0040272266201593 
4.250000000003434, -1.003560150419872 
4.26000000000341, -1.003150443699546 
4.270000000003387, -1.0028053163903998 
4.280000000003364, -1.0025236959754869 
4.2900000000033405, -1.0022969698484787 
4.300000000003317, -1.0021112726925547 
4.310000000003294, -1.0019503823434177 
4.320000000003271, -1.0017981807200118 
4.330000000003247, -1.001640084455617 
4.340000000003224, -1.0014634645212441 
4.350000000003201, -1.0012574807158394 
4.360000000003177, -1.001012850660838 
4.370000000003154, -1.0007219468150474 
4.380000000003131, -1.000379386037331 
4.390000000003107, -0.9999830195551824 
4.400000000003084, -0.9995350150322111 
4.410000000003061, -0.9990426279019913 
4.4200000000030375, -0.9985183258463642 
4.430000000003014, -0.9979790980469179 
4.440000000002991, -0.9974449357274942 
4.450000000002968, -0.9969365696586484 
4.460000000002944, -0.9964726713913914 
4.470000000002921, -0.996066956771893 
4.480000000002898, -0.9957259034864085 
4.490000000002874, -0.9954478516098915 
4.500000000002851, -0.9952238715834426 
4.510000000002828, -0.9950400675664837 
4.520000000002804, -0.9948803927798217 
4.530000000002781, -0.9947289939595872 
4.540000000002758, -0.9945715503120243 
4.5500000000027345, -0.9943956536343945 
4.560000000002711, -0.9941906490933373 
4.570000000002688, -0.9939474333192173 
4.580000000002665, -0.9936585778598266 
4.590000000002641, -0.9933189206938513 
4.600000000002618, -0.9929265199009045 
4.610000000002595, -0.9924836624204684 
4.620000000002571, -0.9919975463677033 
4.630000000002548, -0.9914803375839316 
4.640000000002525, -0.990948469992983 
4.6500000000025015, -0.9904211999738232 
4.660000000002478, -0.9899184997403324 
4.670000000002455, -0.9894584648195233 
4.6800000000024315, -0.9890546094532308 
4.690000000002408, -0.9887136792805771 
4.700000000002385, -0.9884346924445501 
4.710000000002362, -0.988209607776227 
4.720000000002338, -0.9880253797056516 
4.730000000002315, -0.9878665896232441 
4.740000000002292, -0.9877177328803333 
4.750000000002268, -0.9875646125936463 
4.760000000002245, -0.9873948279586567 
4.770000000002222, -0.9871977181362424 
4.7800000000021985, -0.986964222221198 
4.790000000002175, -0.9866870069433128 
4.800000000002152, -0.986361000422954 
4.810000000002129, -0.9859842342397837 
4.820000000002105, -0.9855587143551505 
4.830000000002082, -0.985090987587137 
4.840000000002059, -0.9845921604090059 
4.850000000002035, -0.9840772828678055 
4.860000000002012, -0.9835641217286739 
4.870000000001989, -0.9830713823034699 
4.880000000001965, -0.9826164799250261 
4.890000000001942, -0.98221311228034 
4.900000000001919, -0.9818691263602355 
4.9100000000018955, -0.9815853216500352 
4.920000000001872, -0.9813556579103571 
4.930000000001849, -0.9811688223895825 
4.940000000001826, -0.9810105501266516 
