t, s[1].omega / s[0].omega 
0, -1.249997414165125 
0.009999999999999995, -1.2497273435630492 
0.019999999999999934, -1.2494356692472488 
0.029999999999999874, -1.2491257742966697 
0.04000000000000012, -1.248803195482992 
0.050000000000000405, -1.2484753350431492 
0.06000000000000069, -1.2481507686292264 
0.07000000000000098, -1.2478380222384058 
0.08000000000000126, -1.2475439380345785 
0.09000000000000155, -1.2472721004856193 
0.10000000000000184, -1.2470219816874226 
0.11000000000000212, -1.246789226379996 
0.12000000000000241, -1.2465669157595456 
0.130000000000002, -1.246347170317015 
0.1400000000000009, -1.2461224378718345 
0.1499999999999998, -1.2458861824082412 
0.1599999999999987, -1.2456330902649198 
0.1699999999999976, -1.2453591061814056 
0.1799999999999965, -1.2450615997445416 
0.1899999999999954, -1.2447398350496781 
0.1999999999999943, -1.2443957287770897 
0.2099999999999932, -1.2440346451405297 
0.2199999999999921, -1.2436657280751484 
0.229999999999991, -1.2433011535857177 
0.2399999999999899, -1.242953933538606 
0.2499999999999888, -1.2426346407789668 
0.2599999999999877, -1.2423483320330473 
0.2699999999999866, -1.2420932300231522 
0.2799999999999855, -1.24186185630538 
0.2899999999999844, -1.2416438406086439 
0.2999999999999833, -1.2414288233955806 
0.3099999999999822, -1.241208264957999 
0.3199999999999811, -1.2409759480854603 
0.32999999999998, -1.240727648555424 
0.3399999999999789, -1.2404605904680939 
0.3499999999999778, -1.2401731388873494 
0.35999999999997667, -1.2398649733572733 
0.36999999999997557, -1.239537803618324 
0.37999999999997447, -1.239196456140541 
0.38999999999997337, -1.2388497960256517 
0.39999999999997227, -1.2385105594905153 
0.40999999999997117, -1.238193190686997 
0.41999999999997006, -1.237909718185373 
0.42999999999996896, -1.2376653500756924 
0.43999999999996786, -1.2374563733383912 
0.44999999999996676, -1.2372717572407252 
0.45999999999996566, -1.2370973580411346 
0.46999999999996456, -1.236920174159993 
0.47999999999996346, -1.2367307863223074 
0.48999999999996235, -1.236523757005883 
0.49999999999996125, -1.236296822186781 
0.5099999999999602, -1.2360498190563756 
0.519999999999959, -1.235783931574077 
0.529999999999958, -1.2355014661660846 
0.5399999999999568, -1.2352061317308294 
0.5499999999999557, -1.2349036198533798 
0.5599999999999546, -1.2346020706019163 
0.5699999999999535, -1.2343118045063788 
0.5799999999999524, -1.2340437470218806 
0.5899999999999513, -1.2338065650347398 
0.5999999999999502, -1.2336035579465832 
0.6099999999999491, -1.2334309841468598 
0.619999999999948, -1.2332789217061637 
0.6299999999999469, -1.233134243791385 
0.6399999999999458, -1.2329841344858854 
0.6499999999999447, -1.2328186403332502 
0.6599999999999436, -1.2326316745072943 
0.6699999999999425, -1.232420771539713 
0.6799999999999414, -1.2321862515985176 
0.6899999999999403, -1.2319303681671534 
0.6999999999999392, -1.2316567512753955 
0.7099999999999381, -1.2313702051229947 
0.719999999999937, -1.2310767252877532 
0.7299999999999359, -1.2307834604881955 
0.7399999999999348, -1.2304982831307334 
0.7499999999999337, -1.230228739654609 
0.7599999999999326, -1.2299804873013829 
0.7699999999999315, -1.2297557558653724 
0.7799999999999304, -1.2295525590633216 
0.7899999999999293, -1.2293650777331193 
0.7999999999999282, -1.2291850333361327 
0.8099999999999271, -1.2290034367300895 
0.819999999999926, -1.2288121018866653 
0.8299999999999249, -1.2286046203323335 
0.8399999999999238, -1.2283768062523803 
0.8499999999999227, -1.2281267816103356 
0.8599999999999216, -1.227854885103719 
0.8699999999999205, -1.2275635306305532 
0.8799999999999194, -1.2272570584645135 
0.8899999999999183, -1.2269415304416182 
0.8999999999999172, -1.226624334812269 
0.9099999999999161, -1.2263134354114116 
0.919999999999915, -1.2260161960813625 
0.9299999999999139, -1.2257379587760753 
0.9399999999999128, -1.22548083228459 
0.9499999999999117, -1.2252432146932009 
0.9599999999999106, -1.225020280894047 
0.9699999999999095, -1.2248051852017598 
0.9799999999999084, -1.2245904272247556 
0.9899999999999073, -1.2243689054428466 
0.9999999999999062, -1.2241344999750623 
1.0099999999999052, -1.2238823148815992 
1.019999999999904, -1.2236088261598697 
1.029999999999903, -1.2233121408592444 
1.039999999999902, -1.2229924475277911 
1.0499999999999008, -1.2226525785758344 
1.0599999999998997, -1.2222984392012504 
1.0699999999998986, -1.221938930034515 
1.0799999999998975, -1.2215849935472847 
1.0899999999998964, -1.2212476635104113 
1.0999999999998953, -1.220935512426719 
1.1099999999998942, -1.2206524321391863 
1.119999999999893, -1.220396776836496 
1.129999999999892, -1.2201622738364344 
1.1399999999998909, -1.2199401409783452 
1.1499999999998898, -1.2197213096342383 
1.1599999999998887, -1.2194978933476435 
1.1699999999998876, -1.2192636969914266 
1.1799999999998865, -1.21901407122797 
1.1899999999998854, -1.2187455700243182 
1.1999999999998843, -1.2184557866764791 
1.2099999999998832, -1.2181435970222405 
1.219999999999882, -1.217809881992559 
1.229999999999881, -1.2174585860581408 
1.2399999999998799, -1.2170976441093726 
1.2499999999998788, -1.216738973599531 
1.2599999999998777, -1.2163967237406126 
1.2699999999998766, -1.2160837050548632 
1.2799999999998755, -1.2158072694005582 
1.2899999999998744, -1.2155668192747755 
1.2999999999998733, -1.2153544316168465 
1.3099999999998722, -1.2151580931176376 
1.319999999999871, -1.2149655422252996 
1.32999999999987, -1.2147668987671632 
1.3399999999998689, -1.214555530907203 
1.3499999999998678, -1.2143276667547227 
1.3599999999998666, -1.2140815528515125 
1.3699999999998655, -1.2138167529283428 
1.3799999999998644, -1.213533877953708 
1.3899999999998633, -1.213234823881137 
1.3999999999998622, -1.212923435069539 
1.4099999999998611, -1.2126063061947217 
1.41999999999986, -1.2122931499980003 
1.429999999999859, -1.2119959621793663 
1.4399999999998578, -1.2117264945221127 
1.4499999999998567, -1.211492549174761 
1.4599999999998556, -1.2112948195320437 
1.4699999999998545, -1.2111262098802433 
1.4799999999998534, -1.2109741709035455 
1.4899999999998523, -1.2108246834502094 
1.4999999999998512, -1.210665797912956 
1.5099999999998501, -1.2104894476217052 
1.519999999999849, -1.2102915440098438 
1.529999999999848, -1.2100711056805717 
1.5399999999998468, -1.2098292083509075 
1.5499999999998457, -1.2095682331872788 
1.5599999999998446, -1.209291573668108 
1.5699999999998435, -1.209003745923385 
1.5799999999998424, -1.2087106971342112 
1.5899999999998413, -1.208419971238763 
1.5999999999998402, -1.208140307861901 
1.6099999999998391, -1.207880363550165 
1.619999999999838, -1.2076466766555118 
1.629999999999837, -1.2074416000206738 
1.6399999999998358, -1.2072622222957676 
1.6499999999998347, -1.2071009066725975 
1.6599999999998336, -1.2069472162389556 
1.6699999999998325, -1.2067903389510568 
1.6799999999998314, -1.206621096020998 
1.6899999999998303, -1.2064330588315284 
1.6999999999998292, -1.2062227947462756 
1.709999999999828, -1.2059895467381585 
1.719999999999827, -1.2057347024359806 
1.729999999999826, -1.2054613166444992 
1.7399999999998248, -1.2051738063610817 
1.7499999999998237, -1.2048777880324422 
1.7599999999998226, -1.204579899669708 
1.7699999999998215, -1.2042873820758189 
1.7799999999998204, -1.2040072448186359 
1.7899999999998193, -1.2037450550646895 
1.7999999999998182, -1.2035036884319912 
1.809999999999817, -1.2032825566828191 
1.819999999999816, -1.2030776839113346 
1.8299999999998149, -1.2028825992480505 
1.8399999999998138, -1.202689649511763 
1.8499999999998127, -1.2024912577823241 
1.8599999999998116, -1.2022808412236041 
1.8699999999998105, -1.2020533510871658 
1.8799999999998094, -1.2018055472639297 
1.8899999999998083, -1.201536141294941 
1.8999999999998072, -1.2012458896234262 
1.909999999999806, -1.2009376485493253 
1.919999999999805, -1.200616336946176 
1.9299999999998039, -1.2002886963106119 
1.9399999999998028, -1.199962707067049 
1.9499999999998017, -1.1996465632584437 
1.9599999999998006, -1.1993472747149314 
1.9699999999997995, -1.1990692268055674 
1.9799999999997984, -1.1988132158239266 
1.9899999999997973, -1.198576382113958 
1.9999999999997962, -1.1983530609924713 
2.0099999999998173, -1.1981361319850703 
2.0199999999998384, -1.197918296341816 
2.0299999999998595, -1.1976929131353615 
2.0399999999998806, -1.1974543593833349 
2.0499999999999017, -1.1971981146107056 
2.059999999999923, -1.196920830859181 
2.069999999999944, -1.1966205849774298 
2.079999999999965, -1.1962973837503497 
2.089999999999986, -1.1959538312774645 
2.100000000000007, -1.1955956873725044 
2.1100000000000283, -1.1952318974711174 
2.1200000000000494, -1.1948736728921505 
2.1300000000000705, -1.1945324785030378 
2.1400000000000916, -1.1942173513091991 
2.1500000000001127, -1.1939325486624395 
2.160000000000134, -1.193676611647382 
2.170000000000155, -1.1934432701377022 
2.180000000000176, -1.1932236169552342 
2.190000000000197, -1.193008420394193 
2.2000000000002182, -1.192789678528769 
2.2100000000002393, -1.1925611788376622 
2.2200000000002604, -1.1923183508880182 
2.2300000000002815, -1.192057865075205 
2.2400000000003026, -1.1917773523347432 
2.2500000000003237, -1.191475477495007 
2.260000000000345, -1.1911524651679417 
2.270000000000366, -1.1908110159706393 
2.280000000000387, -1.190457297683152 
2.290000000000408, -1.190101373610547 
2.3000000000004293, -1.1897562653397418 
2.3100000000004504, -1.1894352265086838 
2.3200000000004715, -1.1891478748571864 
2.3300000000004926, -1.1888969695124438 
2.3400000000005137, -1.1886776668127115 
2.3500000000005348, -1.1884796428829991 
2.360000000000556, -1.1882907044570084 
2.370000000000577, -1.1880999534749015 
2.380000000000598, -1.1878994030294359 
2.390000000000619, -1.1876841094576747 
2.4000000000006403, -1.1874514996990782 
2.4100000000006614, -1.1872005672591137 
2.4200000000006825, -1.1869313452102939 
2.4300000000007036, -1.1866448229145627 
2.4400000000007247, -1.186343318311621 
2.450000000000746, -1.186031181213942 
2.460000000000767, -1.185715501647024 
2.470000000000788, -1.185406243139977 
2.480000000000809, -1.1851151193272178 
2.49000000000083, -1.1848529294454273 
2.5000000000008513, -1.1846260663665467 
2.5100000000008724, -1.184433894319453 
2.5200000000008935, -1.1842686069433601 
2.5300000000009146, -1.1841177510418772 
2.5400000000009357, -1.1839679865250043 
2.550000000000957, -1.1838082203008142 
2.560000000000978, -1.1836310957405662 
2.570000000000999, -1.1834329510460453 
2.58000000000102, -1.1832129577847248 
2.5900000000010412, -1.1829721398070754 
2.6000000000010624, -1.182712686905603 
2.6100000000010835, -1.182437700074966 
2.6200000000011046, -1.1821513215653459 
2.6300000000011257, -1.1818590739165349 
2.6400000000011468, -1.1815681070329644 
2.650000000001168, -1.1812869539356203 
2.660000000001189, -1.1810244508040388 
2.67000000000121, -1.1807878265232639 
2.680000000001231, -1.1805805454720042 
2.6900000000012523, -1.1804008958227752 
2.7000000000012734, -1.1802421110654238 
2.7100000000012945, -1.1800940330354979 
2.7200000000013156, -1.1799455522157227 
2.7300000000013367, -1.1797868389348893 
2.740000000001358, -1.1796107221977299 
2.750000000001379, -1.1794131049474648 
2.7600000000014, -1.179192683104405 
2.770000000001421, -1.1789503573460505 
2.780000000001442, -1.1786886604770743 
2.7900000000014633, -1.1784113770697566 
2.8000000000014844, -1.1781233776665316 
2.8100000000015055, -1.1778305563456484 
2.8200000000015266, -1.1775396643129423 
2.8300000000015477, -1.1772578112026033 
2.840000000001569, -1.176991517513443 
2.85000000000159, -1.1767454572147185 
2.860000000001611, -1.1765213086967667 
2.870000000001632, -1.176317214325978 
2.8800000000016532, -1.1761281136765869 
2.8900000000016743, -1.175946807825176 
2.9000000000016954, -1.1757653260736134 
2.9100000000017165, -1.1755761628459316 
2.9200000000017377, -1.1753731484843473 
2.9300000000017588, -1.1751519299266275 
2.94000000000178, -1.1749101553018924 
2.950000000001801, -1.1746474792329051 
2.960000000001822, -1.1743654787999225 
2.970000000001843, -1.1740675268289318 
2.9800000000018643, -1.1737586169550387 
2.9900000000018854, -1.1734450758058368 
3.0000000000019065, -1.1731340533058756 
3.0100000000019276, -1.1728327001029908 
3.0200000000019487, -1.172547064350601 
3.03000000000197, -1.1722809436576438 
3.040000000001991, -1.1720350824117383 
3.050000000002012, -1.1718070506688631 
3.060000000002033, -1.1715918558059182 
3.070000000002054, -1.1713830070724733 
3.0800000000020753, -1.1711736122224161 
3.0900000000020964, -1.1709571996397223 
3.1000000000021175, -1.1707281946189263 
3.1100000000021386, -1.1704821627618165 
3.1200000000021597, -1.1702159920358626 
3.130000000002181, -1.169928139913837 
3.140000000002202, -1.16961897601065 
3.150000000002223, -1.1692911443992944 
3.160000000002244, -1.1689497782772948 
3.1700000000022652, -1.168602346195355 
3.1800000000022863, -1.1682579288550496 
3.1900000000023074, -1.1679258631053389 
3.2000000000023285, -1.1676139585726204 
3.2100000000023496, -1.167326800718928 
3.2200000000023707, -1.1670647858337095 
3.230000000002392, -1.1668242962738018 
3.240000000002413, -1.1665988916278915 
3.250000000002434, -1.1663809260152433 
3.260000000002455, -1.1661629297263607 
3.2700000000024763, -1.1659383935940437 
3.2800000000024974, -1.1657019797667512 
3.2900000000025185, -1.1654494141139307 
3.3000000000025396, -1.1651773562863537 
3.3100000000025607, -1.164883475387097 
3.3200000000025818, -1.1645668523796064 
3.330000000002603, -1.1642286946562783 
3.340000000002624, -1.163873163544543 
3.350000000002645, -1.1635078977463336 
3.360000000002666, -1.1631436772840176 
3.3700000000026873, -1.1627928136867383 
3.3800000000027084, -1.1624664060213048 
3.3900000000027295, -1.1621713789126664 
3.4000000000027506, -1.161908644127197 
3.4100000000027717, -1.161673286850683 
3.420000000002793, -1.1614565604444629 
3.430000000002814, -1.161248546880753 
3.440000000002835, -1.1610402793938848 
3.450000000002856, -1.1608247662880036 
3.460000000002877, -1.1605970505490277 
3.4700000000028983, -1.1603537677509446 
3.4800000000029194, -1.1600926465273795 
3.4900000000029405, -1.1598122428349655 
3.5000000000029616, -1.1595120579600198 
3.5100000000029827, -1.1591930795858163 
3.520000000003004, -1.158858645683456 
3.530000000003025, -1.1585153029895483 
3.540000000003046, -1.1581730539539061 
3.550000000003067, -1.1578442838900853 
3.5600000000030882, -1.1575410758585738 
3.5700000000031094, -1.1572716269921763 
3.5800000000031305, -1.1570374490283875 
3.5900000000031516, -1.1568329494993068 
3.6000000000031727, -1.1566476125547367 
3.6100000000031938, -1.1564694435921177 
3.620000000003215, -1.1562879172398401 
3.630000000003236, -1.1560954543915734 
3.640000000003257, -1.1558875070477785 
3.650000000003278, -1.1556618814780804 
3.6600000000032993, -1.155417925021107 
3.6700000000033204, -1.1551559575748018 
3.6800000000033415, -1.1548771021922546 
3.6900000000033626, -1.1545835286217945 
3.7000000000033837, -1.154279018323546 
3.710000000003405, -1.1539696149493401 
3.720000000003426, -1.1536639243026685 
3.730000000003447, -1.1533724913580625 
3.740000000003468, -1.1531058659994524 
3.750000000003489, -1.1528716529095628 
3.7600000000035103, -1.1526717406242304 
3.7700000000035314, -1.1525012320583343 
3.7800000000035525, -1.152349801174891 
3.7900000000035736, -1.1522047766836276 
3.8000000000035947, -1.1520543824349254 
3.810000000003616, -1.1518898388934602 
3.820000000003637, -1.151705966502506 
3.830000000003658, -1.1515007056184356 
3.840000000003679, -1.1512742108202128 
3.8500000000037002, -1.1510280301646643 
3.8600000000037213, -1.150764622916953 
3.8700000000037424, -1.1504872655981955 
3.8800000000037635, -1.150200265332668 
3.8900000000037847, -1.149909295474571 
3.9000000000038058, -1.1496215613389253 
3.910000000003827, -1.1493454362996354 
3.920000000003848, -1.149089301987222 
3.930000000003869, -1.1488596817822232 
3.94000000000389, -1.148659269559634 
3.9500000000039113, -1.1484857577149303 
3.9600000000039324, -1.148332116296868 
3.9700000000039535, -1.1481882600286526 
3.9800000000039746, -1.1480433756061308 
3.9900000000039957, -1.1478880100125834 
4.000000000004016, -1.1477153387551837 
4.010000000003993, -1.1475215174604922 
4.02000000000397, -1.1473053714437729 
4.030000000003946, -1.1470677954708721 
4.040000000003923, -1.146811176047163 
4.0500000000039, -1.1465390113965408 
4.0600000000038765, -1.1462557610687363 
4.070000000003853, -1.1459668353973698 
4.08000000000383, -1.1456785424905562 
4.090000000003807, -1.1453977694738706 
4.100000000003783, -1.1451312349390652 
4.11000000000376, -1.144884346646069 
4.120000000003737, -1.1446599728180185 
4.130000000003713, -1.1444576082838622 
4.14000000000369, -1.1442733194200905 
4.150000000003667, -1.144100512422901 
4.1600000000036434, -1.14393122027412 
4.17000000000362, -1.1437574657529876 
4.180000000003597, -1.1435723555050434 
4.1900000000035735, -1.1433707596017555 
4.20000000000355, -1.143149597235539 
4.210000000003527, -1.1429078337022545 
4.220000000003504, -1.1426463131559745 
4.23000000000348, -1.1423675333928034 
4.240000000003457, -1.142075426224636 
4.250000000003434, -1.1417751445727418 
4.26000000000341, -1.1414727880632876 
4.270000000003387, -1.141174954007339 
4.280000000003364, -1.1408880247678796 
4.2900000000033405, -1.1406172229152873 
4.300000000003317, -1.1403656444233974 
4.310000000003294, -1.140133600176353 
4.320000000003271, -1.1399185368141587 
4.330000000003247, -1.1397155720781373 
4.340000000003224, -1.1395184219343935 
4.350000000003201, -1.1393203898788873 
4.360000000003177, -1.1391151709739997 
4.370000000003154, -1.1388973926378443 
4.380000000003131, -1.1386629471353371 
4.390000000003107, -1.138409213821817 
4.400000000003084, -1.1381352410600696 
4.410000000003061, -1.1378419024771809 
4.4200000000030375, -1.137531992312733 
4.430000000003014, -1.1372101905726812 
4.440000000002991, -1.1368828093797034 
4.450000000002968, -1.1365572335065472 
4.460000000002944, -1.136241015215835 
4.470000000002921, -1.135940702146808 
4.480000000002898, -1.135660647159054 
4.490000000002874, -1.1354021713844014 
4.500000000002851, -1.1351633972714037 
4.510000000002828, -1.1349398095251126 
4.520000000002804, -1.1347252868154354 
4.530000000002781, -1.1345131905260568 
4.540000000002758, -1.1342971825137824 
4.5500000000027345, -1.1340716683274739 
4.560000000002711, -1.1338319620039095 
4.570000000002688, -1.133574356346289 
4.580000000002665, -1.133296266165133 
4.590000000002641, -1.1329965347169098 
4.600000000002618, -1.1326758884082366 
4.610000000002595, -1.132337410688772 
4.620000000002571, -1.1319868063622607 
4.630000000002548, -1.1316321839275552 
4.640000000002525, -1.1312831507774292 
4.6500000000025015, -1.130949231464318 
4.660000000002478, -1.1306379468867147 
4.670000000002455, -1.1303531765235815 
4.6800000000024315, -1.1300944404861366 
4.690000000002408, -1.129857375304182 
4.700000000002385, -1.1296351214119373 
4.710000000002362, -1.1294199680644632 
4.720000000002338, -1.1292046416361514 
4.730000000002315, -1.1289829634820443 
4.740000000002292, -1.1287499570845292 
4.750000000002268, -1.1285016667348966 
4.760000000002245, -1.1282349628229542 
4.770000000002222, -1.1279475388725129 
4.7800000000021985, -1.1276382151441513 
4.790000000002175, -1.1273075574958171 
4.800000000002152, -1.126958672334856 
4.810000000002129, -1.1265978465149942 
4.820000000002105, -1.1262345415272959 
4.830000000002082, -1.1258802907006993 
4.840000000002059, -1.125546440037067 
4.850000000002035, -1.125241346189664 
4.860000000002012, -1.1249681794602058 
4.870000000001989, -1.1247243609987974 
4.880000000001965, -1.1245028276033255 
4.890000000001942, -1.124294358502336 
4.900000000001919, -1.1240898302417313 
4.9100000000018955, -1.1238816266358826 
4.920000000001872, -1.123664072076245 
4.930000000001849, -1.1234331986056918 
4.940000000001826, -1.1231862653708053 
