t, s[1].omega / s[0].omega 
0, -2.1249966474746866 
0.009999999999999995, -2.1246316719014695 
0.019999999999999934, -2.124212428309485 
0.029999999999999874, -2.1237555683013865 
0.04000000000000012, -2.123294686236575 
0.050000000000000405, -2.1228744598982674 
0.06000000000000069, -2.1225244689600684 
0.07000000000000098, -2.12223453213545 
0.08000000000000126, -2.1219658591056563 
0.09000000000000155, -2.1216824622634674 
0.10000000000000184, -2.1213658810187423 
0.11000000000000212, -2.1210126897717823 
0.12000000000000241, -2.1206314329626634 
0.130000000000002, -2.120244413966728 
0.1400000000000009, -2.1198854858762846 
0.1499999999999998, -2.1195819977621824 
0.1599999999999987, -2.119331944243399 
0.1699999999999976, -2.119104932297982 
0.1799999999999965, -2.11886445539968 
0.1899999999999954, -2.1185842209932964 
0.1999999999999943, -2.1182501180767 
0.2099999999999932, -2.1178571437535854 
0.2199999999999921, -2.1174099915009497 
0.229999999999991, -2.116929640130572 
0.2399999999999899, -2.1164590456316974 
0.2499999999999888, -2.116050018317927 
0.2599999999999877, -2.1157261054341747 
0.2699999999999866, -2.1154616851432007 
0.2799999999999855, -2.115208552940154 
0.2899999999999844, -2.1149313916807726 
0.2999999999999833, -2.1146163674699503 
0.3099999999999822, -2.1142645522252685 
0.3199999999999811, -2.113887977898358 
0.32999999999998, -2.113510053529608 
0.3399999999999789, -2.113160676431561 
0.3499999999999778, -2.1128592388260534 
0.35999999999997667, -2.1125992207338564 
0.36999999999997557, -2.1123531961173474 
0.37999999999997447, -2.1120904834551397 
0.38999999999997337, -2.111788368567062 
0.39999999999997227, -2.111433270026325 
0.40999999999997117, -2.1110194631996544 
0.41999999999997006, -2.1105525242430025 
0.42999999999996896, -2.1100589230242885 
0.43999999999996786, -2.109590969835156 
0.44999999999996676, -2.109204319817657 
0.45999999999996566, -2.1089123399219667 
0.46999999999996456, -2.108674468967598 
0.47999999999996346, -2.1084366104075913 
0.48999999999996235, -2.108165940084637 
0.49999999999996125, -2.1078530212370947 
0.5099999999999602, -2.107502412334026 
0.519999999999959, -2.10712825855387 
0.529999999999958, -2.10675382457561 
0.5399999999999568, -2.106405767743161 
0.5499999999999557, -2.106099419802774 
0.5599999999999546, -2.1058276531652136 
0.5699999999999535, -2.1055661628330733 
0.5799999999999524, -2.105287729061901 
0.5899999999999513, -2.1049713121238978 
0.5999999999999502, -2.1046033710256618 
0.6099999999999491, -2.104177900715248 
0.619999999999948, -2.1037019816227653 
0.6299999999999469, -2.1032074210216125 
0.6399999999999458, -2.102753616632463 
0.6499999999999447, -2.102396070615837 
0.6599999999999436, -2.1021367089782372 
0.6699999999999425, -2.1019234405948795 
0.6799999999999414, -2.101699603421035 
0.6899999999999403, -2.101435379952611 
0.6999999999999392, -2.101124798799936 
0.7099999999999381, -2.1007747739161386 
0.719999999999937, -2.100400540407443 
0.7299999999999359, -2.100024871837822 
0.7399999999999348, -2.099672649210775 
0.7499999999999337, -2.0993581549219393 
0.7599999999999326, -2.099075562769012 
0.7699999999999315, -2.098803045741473 
0.7799999999999304, -2.0985151751504962 
0.7899999999999293, -2.0981915995992626 
0.7999999999999282, -2.097818837627835 
0.8099999999999271, -2.097391087066375 
0.819999999999926, -2.0969169445066917 
0.8299999999999249, -2.0964319004009893 
0.8399999999999238, -2.095998789637801 
0.8499999999999227, -2.095670251323745 
0.8599999999999216, -2.0954389743322026 
0.8699999999999205, -2.0952460876669323 
0.8799999999999194, -2.0950344783349433 
0.8899999999999183, -2.0947766331146105 
0.8999999999999172, -2.0944686658342127 
0.9099999999999161, -2.094118713026602 
0.919999999999915, -2.093742350157553 
0.9299999999999139, -2.093361900327321 
0.9399999999999128, -2.093001851821274 
0.9499999999999117, -2.092677539590175 
0.9599999999999106, -2.092385506495701 
0.9699999999999095, -2.092105842492287 
0.9799999999999084, -2.091813792406093 
0.9899999999999073, -2.0914890738939707 
0.9999999999999062, -2.0911183193840728 
1.0099999999999052, -2.090696135573202 
1.019999999999904, -2.0902319627243013 
1.029999999999903, -2.0897623598733914 
1.039999999999902, -2.0893499321122975 
1.0499999999999008, -2.0890439390564355 
1.0599999999998997, -2.088832402600715 
1.0699999999998986, -2.08865432337877 
1.0799999999998975, -2.08845295073376 
1.0899999999998964, -2.088201592174153 
1.0999999999998953, -2.0878968526433157 
1.1099999999998942, -2.0875469842258 
1.119999999999893, -2.087167263849639 
1.129999999999892, -2.08677959468704 
1.1399999999998909, -2.0864090433178037 
1.1499999999998898, -2.0860734812156356 
1.1599999999998887, -2.085772747849243 
1.1699999999998876, -2.0854886849840044 
1.1799999999998865, -2.0851964450289593 
1.1899999999998854, -2.0848752206706043 
1.1999999999998843, -2.0845115919748025 
1.2099999999998832, -2.084100418404081 
1.219999999999882, -2.0836509021174963 
1.229999999999881, -2.0831979367519335 
1.2399999999998799, -2.0828010709202482 
1.2499999999998788, -2.0825073084946206 
1.2599999999998777, -2.0823053013819353 
1.2699999999998766, -2.0821359004449036 
1.2799999999998755, -2.081942779825723 
1.2899999999998744, -2.0816983116790175 
1.2999999999998733, -2.081397962927401 
1.3099999999998722, -2.081049014749954 
1.319999999999871, -2.0806657840566105 
1.32999999999987, -2.0802695427092908 
1.3399999999998689, -2.0798863624284962 
1.3499999999998678, -2.0795376989422354 
1.3599999999998666, -2.079227817213538 
1.3699999999998655, -2.078940722132812 
1.3799999999998644, -2.0786510038759136 
1.3899999999998633, -2.078336612566406 
1.3999999999998622, -2.0779836006055783 
1.4099999999998611, -2.077586651285124 
1.41999999999986, -2.0771536408184863 
1.429999999999859, -2.076715586251435 
1.4399999999998578, -2.0763270568398733 
1.4499999999998567, -2.0760343132031567 
1.4599999999998556, -2.075831407121792 
1.4699999999998545, -2.075664481367505 
1.4799999999998534, -2.0754776683554628 
1.4899999999998523, -2.0752407970441293 
1.4999999999998512, -2.0749466539221695 
1.5099999999998501, -2.0746004830591813 
1.519999999999849, -2.07421489791965 
1.529999999999848, -2.0738099891559356 
1.5399999999998468, -2.0734126258643273 
1.5499999999998457, -2.073048417750683 
1.5599999999998446, -2.0727274571162324 
1.5699999999998435, -2.0724370948776 
1.5799999999998424, -2.0721513301334906 
1.5899999999998413, -2.0718460349099947 
1.5999999999998402, -2.071505938797295 
1.6099999999998391, -2.0711249598282646 
1.619999999999838, -2.0707088408656213 
1.629999999999837, -2.070283303286791 
1.6399999999998358, -2.069896585078406 
1.6499999999998347, -2.0695950074120626 
1.6599999999998336, -2.069381559517282 
1.6699999999998325, -2.0692109382437116 
1.6799999999998314, -2.069028355319225 
1.6899999999998303, -2.0687999399948978 
1.6999999999998292, -2.0685144176090793 
1.709999999999828, -2.068173962039421 
1.719999999999827, -2.0677886761602977 
1.729999999999826, -2.0673766060303826 
1.7399999999998248, -2.066964517086359 
1.7499999999998237, -2.066582012513055 
1.7599999999998226, -2.0662464585211078 
1.7699999999998215, -2.065950673611257 
1.7799999999998204, -2.0656688448674694 
1.7899999999998193, -2.0653739831999895 
1.7999999999998182, -2.0650483822492576 
1.809999999999817, -2.0646844605235546 
1.819999999999816, -2.064285365511839 
1.8299999999998149, -2.0638708964231616 
1.8399999999998138, -2.063481917390088 
1.8499999999998127, -2.063164335554263 
1.8599999999998116, -2.062931959504778 
1.8699999999998105, -2.0627513094358276 
1.8799999999998094, -2.0625703431183493 
1.8899999999998083, -2.0623510405202015 
1.8999999999998072, -2.0620768983698112 
1.909999999999806, -2.0617460311025853 
1.919999999999805, -2.06136523067157 
1.9299999999998039, -2.0609494690579875 
1.9399999999998028, -2.06052387785523 
1.9499999999998017, -2.060120824687681 
1.9599999999998006, -2.059765832226341 
1.9699999999997995, -2.0594601637300847 
1.9799999999997984, -2.0591803375443716 
1.9899999999997973, -2.058896206124138 
1.9999999999997962, -2.0585862373726243 
2.0099999999998173, -2.058240355372687 
2.0199999999998384, -2.05785885355254 
2.0299999999998595, -2.0574556436474003 
2.0399999999998806, -2.0570634855127743 
2.0499999999999017, -2.056726111923958 
2.059999999999923, -2.0564680024194746 
2.069999999999944, -2.0562705396497183 
2.079999999999965, -2.0560874385232366 
2.089999999999986, -2.0558771151179385 
2.100000000000007, -2.055616967513024 
2.1100000000000283, -2.055300092875796 
2.1200000000000494, -2.054929245162232 
2.1300000000000705, -2.054515363021916 
2.1400000000000916, -2.0540800787057245 
2.1500000000001127, -2.0536560717623655 
2.160000000000134, -2.0532764083340247 
2.170000000000155, -2.052953915469802 
2.180000000000176, -2.0526714537188115 
2.190000000000197, -2.0523967529413096 
2.2000000000002182, -2.0521030392402855 
2.2100000000002393, -2.051776296664591 
2.2200000000002604, -2.051413605819686 
2.2300000000002815, -2.0510234623867865 
2.2400000000003026, -2.050630297947772 
2.2500000000003237, -2.0502731282333473 
2.260000000000345, -2.0499846540083997 
2.270000000000366, -2.049763110778877 
2.280000000000387, -2.0495723163816306 
2.290000000000408, -2.0493692363623097 
2.3000000000004293, -2.0491248304227954 
2.3100000000004504, -2.048826227518736 
2.3200000000004715, -2.04847147847791 
2.3300000000004926, -2.0480668162973212 
2.3400000000005137, -2.047628690663054 
2.3500000000005348, -2.047186778579441 
2.360000000000556, -2.046778768197933 
2.370000000000577, -2.046430680297867 
2.380000000000598, -2.0461373747901868 
2.390000000000619, -2.0458680770260314 
2.4000000000006403, -2.0455901346160057 
2.4100000000006614, -2.045283612092226 
2.4200000000006825, -2.044941498841787 
2.4300000000007036, -2.0445674209935762 
2.4400000000007247, -2.044177923136482 
2.450000000000746, -2.0438048689136994 
2.460000000000767, -2.04348463235568 
2.470000000000788, -2.043231930463084 
2.480000000000809, -2.043025646829224 
2.49000000000083, -2.0428255059836644 
2.5000000000008513, -2.042596778581272 
2.5100000000008724, -2.042319748520293 
2.5200000000008935, -2.041987033881168 
2.5300000000009146, -2.0415998138041536 
2.5400000000009357, -2.041168377255419 
2.550000000000957, -2.040716202742755 
2.560000000000978, -2.040280497620599 
2.570000000000999, -2.0398985098211706 
2.58000000000102, -2.0395824501976025 
2.5900000000010412, -2.0393101803301277 
2.6000000000010624, -2.0390450637435897 
2.6100000000010835, -2.038759194779036 
2.6200000000011046, -2.0384396542024654 
2.6300000000011257, -2.0380852687799953 
2.6400000000011468, -2.037705665283778 
2.650000000001168, -2.037324166930161 
2.660000000001189, -2.036975264949359 
2.67000000000121, -2.036686269993562 
2.680000000001231, -2.0364548360301393 
2.6900000000012523, -2.0362498670563283 
2.7000000000012734, -2.0360337838487217 
2.7100000000012945, -2.03577963653716 
2.7200000000013156, -2.035473664826422 
2.7300000000013367, -2.0351117254270377 
2.740000000001358, -2.0346978446380883 
2.750000000001379, -2.0342473900465867 
2.7600000000014, -2.0337914193251625 
2.770000000001421, -2.033371916244594 
2.780000000001442, -2.0330195979562853 
2.7900000000014633, -2.0327303483070867 
2.8000000000014844, -2.0324703752114983 
2.8100000000015055, -2.032203480607728 
2.8200000000015266, -2.03190807134391 
2.8300000000015477, -2.03157706459294 
2.840000000001569, -2.031214066102245 
2.85000000000159, -2.03083395438939 
2.860000000001611, -2.0304646335454843 
2.870000000001632, -2.0301388376524767 
2.8800000000016532, -2.0298726641290115 
2.8900000000016743, -2.0296514093560614 
2.9000000000016954, -2.0294406719055864 
2.9100000000017165, -2.0292074852619733 
2.9200000000017377, -2.0289306891660037 
2.9300000000017588, -2.028600198716181 
2.94000000000178, -2.0282141471327075 
2.950000000001801, -2.0277796927345344 
2.960000000001822, -2.027317917491812 
2.970000000001843, -2.0268666026845272 
2.9800000000018643, -2.026468570825008 
2.9900000000018854, -2.0261439455345673 
3.0000000000019065, -2.025874115535573 
3.0100000000019276, -2.025619643001479 
3.0200000000019487, -2.0253480130992862 
3.03000000000197, -2.0250434388719065 
3.040000000001991, -2.0247032977545008 
3.050000000002012, -2.0243350813316185 
3.060000000002033, -2.0239578695691645 
3.070000000002054, -2.023601795025614 
3.0800000000020753, -2.023295246226729 
3.0900000000020964, -2.0230441499365552 
3.1000000000021175, -2.022826278306072 
3.1100000000021386, -2.0226073282471715 
3.1200000000021597, -2.0223586444256147 
3.130000000002181, -2.0220630152191177 
3.140000000002202, -2.021712698217197 
3.150000000002223, -2.0213077477184913 
3.160000000002244, -2.0208586783197147 
3.1700000000022652, -2.0203921301169068 
3.1800000000022863, -2.019950691871124 
3.1900000000023074, -2.019574574424029 
3.2000000000023285, -2.0192723956507033 
3.2100000000023496, -2.019015089688857 
3.2200000000023707, -2.0187619026122 
3.230000000002392, -2.0184847857689396 
3.240000000002413, -2.0181725017041563 
3.250000000002434, -2.0178256946498734 
3.260000000002455, -2.0174549064649514 
3.2700000000024763, -2.0170822285089822 
3.2800000000024974, -2.0167382221609227 
3.2900000000025185, -2.016446257372345 
3.3000000000025396, -2.016204496299115 
3.3100000000025607, -2.015986674011708 
3.3200000000025818, -2.015759812284481 
3.330000000002603, -2.01549858897701 
3.340000000002624, -2.015188386735213 
3.350000000002645, -2.014823043865919 
3.360000000002666, -2.0144043304370647 
3.3700000000026873, -2.013945950149937 
3.3800000000027084, -2.0134791686218083 
3.3900000000027295, -2.0130492071704125 
3.4000000000027506, -2.012691860303485 
3.4100000000027717, -2.0124058808136067 
3.420000000002793, -2.0121558624830334 
3.430000000002814, -2.011901943009731 
3.440000000002835, -2.0116199668376 
3.450000000002856, -2.0113019078848478 
3.460000000002877, -2.010950684524653 
3.4700000000028983, -2.0105790582522225 
3.4800000000029194, -2.010211034993183 
3.4900000000029405, -2.0098766493068383 
3.5000000000029616, -2.009594921949224 
3.5100000000029827, -2.0093587858868647 
3.520000000003004, -2.009140027480304 
3.530000000003025, -2.0089070917143417 
3.540000000003046, -2.008636954271291 
3.550000000003067, -2.008316646435062 
3.5600000000030882, -2.0079410969631835 
3.5700000000031094, -2.007513490658906 
3.5800000000031305, -2.007050082888564 
3.5900000000031516, -2.0065853423885467 
3.6000000000031727, -2.0061653952711636 
3.6100000000031938, -2.0058216557797275 
3.620000000003215, -2.005545965372838 
3.630000000003236, -2.0052997280495766 
3.640000000003257, -2.0050445836530475 
3.650000000003278, -2.0047591433222665 
3.6600000000032993, -2.0044373876171404 
3.6700000000033204, -2.004083647552272 
3.6800000000033415, -2.0037120841527836 
3.6900000000033626, -2.0033477522184246 
3.7000000000033837, -2.003019971848493 
3.710000000003405, -2.0027447973715233 
3.720000000003426, -2.0025121205206613 
3.730000000003447, -2.0022928834585967 
3.740000000003468, -2.0020565500919623 
3.750000000003489, -2.00178146634648 
3.7600000000035103, -2.0014556247695796 
3.7700000000035314, -2.001074648971452 
3.7800000000035525, -2.0006426658755925 
3.7900000000035736, -2.000177472028948 
3.8000000000035947, -1.9997151477441377 
3.810000000003616, -1.9993017107142041 
3.820000000003637, -1.9989655939975042 
3.830000000003658, -1.9986950346538765 
3.840000000003679, -1.9984503560873006 
3.8500000000037002, -1.9981943969810039 
3.8600000000037213, -1.9979072625762746 
3.8700000000037424, -1.9975838802591508 
3.8800000000037635, -1.9972292027155238 
3.8900000000037847, -1.996857993892729 
3.9000000000038058, -1.9964957194913073 
3.910000000003827, -1.9961713145391766 
3.920000000003848, -1.9958995510860515 
3.930000000003869, -1.9956691107558941 
3.94000000000389, -1.995450642048748 
3.9500000000039113, -1.995214022709088 
3.9600000000039324, -1.9949381390417487 
3.9700000000039535, -1.9946113898195676 
3.9800000000039746, -1.9942297171458523 
3.9900000000039957, -1.9937975894980564 
4.000000000004016, -1.99333313963273 
4.010000000003993, -1.9928724922044048 
4.02000000000397, -1.9924610901722297 
4.030000000003946, -1.992126459108291 
4.040000000003923, -1.9918564625925885 
4.0500000000039, -1.9916118065379547 
4.0600000000038765, -1.9913558482786704 
4.070000000003853, -1.9910689240238142 
4.08000000000383, -1.9907459414769781 
4.090000000003807, -1.9903917166917258 
4.100000000003783, -1.9900208353686863 
4.11000000000376, -1.9896586535847676 
4.120000000003737, -1.9893342768287987 
4.130000000003713, -1.9890629796461963 
4.14000000000369, -1.9888339041083327 
4.150000000003667, -1.9886177477784952 
4.1600000000036434, -1.9883841280691787 
4.17000000000362, -1.9881116726893986 
4.180000000003597, -1.9877886702620202 
4.1900000000035735, -1.9874110104262457 
4.20000000000355, -1.986982881228154 
4.210000000003527, -1.9865215440094066 
4.220000000003504, -1.9860616818002068 
4.23000000000348, -1.985647837979148 
4.240000000003457, -1.9853087258647988 
4.250000000003434, -1.9850349108183205 
4.26000000000341, -1.9847888246676402 
4.270000000003387, -1.9845336804474296 
4.280000000003364, -1.9842488407220025 
4.2900000000033405, -1.9839282606156694 
4.300000000003317, -1.9835758712362597 
4.310000000003294, -1.9832052903747353 
4.320000000003271, -1.9828412016122978 
4.330000000003247, -1.9825133699241342 
4.340000000003224, -1.9822393534550096 
4.350000000003201, -1.9820105272268864 
4.360000000003177, -1.9817980788530012 
4.370000000003154, -1.9815706978544214 
4.380000000003131, -1.9813059030292657 
4.390000000003107, -1.9809913120156402 
4.400000000003084, -1.9806223983150026 
4.410000000003061, -1.9802025411047546 
4.4200000000030375, -1.9797470984367205 
4.430000000003014, -1.9792879259541594 
4.440000000002991, -1.978868068244187 
4.450000000002968, -1.9785189543096617 
4.460000000002944, -1.9782367375438301 
4.470000000002921, -1.977987288459517 
4.480000000002898, -1.9777333852041277 
4.490000000002874, -1.9774523182085275 
4.500000000002851, -1.977136141220324 
4.510000000002828, -1.976787146868118 
4.520000000002804, -1.976417171406883 
4.530000000002781, -1.9760494701261897 
4.540000000002758, -1.975714583106122 
4.5500000000027345, -1.9754339794555413 
4.560000000002711, -1.975203389398964 
4.570000000002688, -1.9749953779080003 
4.580000000002665, -1.9747771601585675 
4.590000000002641, -1.9745241661485948 
4.600000000002618, -1.97422263629608 
4.610000000002595, -1.9738672437520575 
4.620000000002571, -1.973460198180404 
4.630000000002548, -1.9730142507041375 
4.640000000002525, -1.972557234633436 
4.6500000000025015, -1.9721295967526633 
4.660000000002478, -1.9717659118414552 
4.670000000002455, -1.9714703587605686 
4.6800000000024315, -1.9712146462391265 
4.690000000002408, -1.9709616065805122 
4.700000000002385, -1.970685601738046 
4.710000000002362, -1.9703757964189261 
4.720000000002338, -1.970032071610951 
4.730000000002315, -1.9696636616340346 
4.740000000002292, -1.9692913689810134 
4.750000000002268, -1.9689459371580706 
4.760000000002245, -1.9686538792700516 
4.770000000002222, -1.9684178639792003 
4.7800000000021985, -1.968213624625729 
4.790000000002175, -1.9680067491309259 
4.800000000002152, -1.9677694350860633 
4.810000000002129, -1.967485553905749 
4.820000000002105, -1.9671484757822413 
4.830000000002082, -1.9667590374085235 
4.840000000002059, -1.9663271013322725 
4.850000000002035, -1.9658756680066023 
4.860000000002012, -1.9654411009414847 
4.870000000001989, -1.965060110012578 
4.880000000001965, -1.9647462674840714 
4.890000000001942, -1.964480131165142 
4.900000000001919, -1.9642263054472644 
4.9100000000018955, -1.9639559275608824 
4.920000000001872, -1.9636542930527106 
4.930000000001849, -1.9633180598158906 
4.940000000001826, -1.9629530860283761 
4.950000000001802, -1.9625764963582646 
4.960000000001779, -1.96221775676443 
