t, s[1].omega / s[0].omega 
0, -1.619997137810282 
0.009999999999999995, -1.6196861976529664 
0.019999999999999934, -1.6193289969746085 
0.029999999999999874, -1.6189341903949823 
0.04000000000000012, -1.6185176844286857 
0.050000000000000405, -1.6181025764459143 
0.06000000000000069, -1.6177149715602277 
0.07000000000000098, -1.6173748957997542 
0.08000000000000126, -1.6170869008384137 
0.09000000000000155, -1.616838162573923 
0.10000000000000184, -1.6166060882533457 
0.11000000000000212, -1.6163684646745664 
0.12000000000000241, -1.6161089079830435 
0.130000000000002, -1.6158170320027168 
0.1400000000000009, -1.6154869074574532 
0.1499999999999998, -1.6151171277536929 
0.1599999999999987, -1.6147141053434702 
0.1699999999999976, -1.614297805310826 
0.1799999999999965, -1.6139046586179693 
0.1899999999999954, -1.613578501499162 
0.1999999999999943, -1.6133473938971576 
0.2099999999999932, -1.613203507624943 
0.2199999999999921, -1.6131074645023928 
0.229999999999991, -1.6130124946555173 
0.2399999999999899, -1.6128848700550962 
0.2499999999999888, -1.6127090021141282 
0.2599999999999877, -1.6124826876705387 
0.2699999999999866, -1.6122110302765982 
0.2799999999999855, -1.6119029891793797 
0.2899999999999844, -1.611570686036647 
0.2999999999999833, -1.6112298228755282 
0.3099999999999822, -1.6108988035975886 
0.3199999999999811, -1.610594704080872 
0.32999999999998, -1.6103270269993426 
0.3399999999999789, -1.610093364886728 
0.3499999999999778, -1.6098804735758594 
0.35999999999997667, -1.6096697493609753 
0.36999999999997557, -1.6094429573439453 
0.37999999999997447, -1.609185271912046 
0.38999999999997337, -1.608885774146453 
0.39999999999997227, -1.6085372891140117 
0.40999999999997117, -1.608137388566752 
0.41999999999997006, -1.6076914388781944 
0.42999999999996896, -1.6072169013429136 
0.43999999999996786, -1.606745316951414 
0.44999999999996676, -1.6063161330741587 
0.45999999999996566, -1.6059602308862666 
0.46999999999996456, -1.6056828715853846 
0.47999999999996346, -1.605461895886663 
0.48999999999996235, -1.6052629371049534 
0.49999999999996125, -1.6050564209386493 
0.5099999999999602, -1.6048245046815595 
0.519999999999959, -1.6045594035339437 
0.529999999999958, -1.6042596583594608 
0.5399999999999568, -1.603928480032176 
0.5499999999999557, -1.6035751377978016 
0.5599999999999546, -1.6032179878655264 
0.5699999999999535, -1.6028850064542404 
0.5799999999999524, -1.6026063732986393 
0.5899999999999513, -1.6023993130368777 
0.5999999999999502, -1.602256365202716 
0.6099999999999491, -1.6021486723153682 
0.619999999999948, -1.602040940281272 
0.6299999999999469, -1.6019049449862712 
0.6399999999999458, -1.601724500724373 
0.6499999999999447, -1.601493951640603 
0.6599999999999436, -1.601214822664134 
0.6699999999999425, -1.6008934679639952 
0.6799999999999414, -1.600540389201179 
0.6899999999999403, -1.600170468110964 
0.6999999999999392, -1.5998024247809082 
0.7099999999999381, -1.5994556687764514 
0.719999999999937, -1.5991443372007794 
0.7299999999999359, -1.598871456907999 
0.7399999999999348, -1.5986276446197858 
0.7499999999999337, -1.598395597901714 
0.7599999999999326, -1.598156700117461 
0.7699999999999315, -1.5978952669046658 
0.7799999999999304, -1.5975993960392683 
0.7899999999999293, -1.5972603719131306 
0.7999999999999282, -1.5968731188393703 
0.8099999999999271, -1.5964394077495938 
0.819999999999926, -1.5959738289028205 
0.8299999999999249, -1.5955088579769583 
0.8399999999999238, -1.5950906423526017 
0.8499999999999227, -1.5947594333816035 
0.8599999999999216, -1.5945250167161622 
0.8699999999999205, -1.5943606009470626 
0.8799999999999194, -1.5942217609187974 
0.8899999999999183, -1.5940702995750253 
0.8999999999999172, -1.5938846799893258 
0.9099999999999161, -1.5936577641209784 
0.919999999999915, -1.59339086070545 
0.9299999999999139, -1.5930897887503261 
0.9399999999999128, -1.5927641109696133 
0.9499999999999117, -1.5924282920059123 
0.9599999999999106, -1.592102113211972 
0.9699999999999095, -1.5918071282221553 
0.9799999999999084, -1.5915584928508986 
0.9899999999999073, -1.5913570335905411 
0.9999999999999062, -1.5911882878049457 
1.0099999999999052, -1.5910292231521774 
1.019999999999904, -1.5908568569658734 
1.029999999999903, -1.5906535528139387 
1.039999999999902, -1.5904082731957947 
1.0499999999999008, -1.5901158113114167 
1.0599999999998997, -1.5897760609033542 
1.0699999999998986, -1.5893943425542512 
1.0799999999998975, -1.5889826782579102 
1.0899999999998964, -1.5885607013610386 
1.0999999999998953, -1.588153764478092 
1.1099999999998942, -1.5877861884126132 
1.119999999999893, -1.5874713315179574 
1.129999999999892, -1.5872051956740072 
1.1399999999998909, -1.5869693641135623 
1.1499999999998898, -1.5867406375278992 
1.1599999999998887, -1.5864993282959416 
1.1699999999998876, -1.5862319968167888 
1.1799999999998865, -1.5859303920840828 
1.1899999999998854, -1.5855901656831943 
1.1999999999998843, -1.585211828908194 
1.2099999999998832, -1.5848047901503821 
1.219999999999882, -1.584392722340485 
1.229999999999881, -1.5840141101102794 
1.2399999999998799, -1.583709955325052 
1.2499999999998788, -1.5835006440172386 
1.2599999999998777, -1.58337102326852 
1.2699999999998766, -1.5832796915484817 
1.2799999999998755, -1.5831826872684998 
1.2899999999998744, -1.5830503216128937 
1.2999999999998733, -1.5828698703119992 
1.3099999999998722, -1.5826404820181934 
1.319999999999871, -1.5823676582262955 
1.32999999999987, -1.5820603439876781 
1.3399999999998689, -1.581730498503402 
1.3499999999998678, -1.5813935536539436 
1.3599999999998666, -1.5810675131689003 
1.3699999999998655, -1.5807690069669207 
1.3799999999998644, -1.5805072641439304 
1.3899999999998633, -1.5802799385862563 
1.3999999999998622, -1.5800740998167142 
1.4099999999998611, -1.5798714608663746 
1.41999999999986, -1.5796539535942389 
1.429999999999859, -1.5794068358258628 
1.4399999999998578, -1.5791193391463096 
1.4499999999998567, -1.5787845019517366 
1.4599999999998556, -1.57839981974886 
1.4699999999998545, -1.5779695279748571 
1.4799999999998534, -1.577508029628471 
1.4899999999998523, -1.5770419446690294 
1.4999999999998512, -1.5766063197766398 
1.5099999999998501, -1.5762322673683928 
1.519999999999849, -1.575931537353609 
1.529999999999848, -1.5756907409790828 
1.5399999999998468, -1.575480887972213 
1.5499999999998457, -1.575272750189405 
1.5599999999998446, -1.5750459581389993 
1.5699999999998435, -1.574789667901632 
1.5799999999998424, -1.5744996039726171 
1.5899999999998413, -1.574175940919407 
1.5999999999998402, -1.5738238909108628 
1.6099999999998391, -1.5734567756455298 
1.619999999999838, -1.5730989462816762 
1.629999999999837, -1.5727830792841668 
1.6399999999998358, -1.5725376118283125 
1.6499999999998347, -1.5723699565994618 
1.6599999999998336, -1.5722602208720533 
1.6699999999998325, -1.5721719844243494 
1.6799999999998314, -1.5720696873080877 
1.6899999999998303, -1.5719294527952439 
1.6999999999998292, -1.571740501313704 
1.709999999999828, -1.5715016862689597 
1.719999999999827, -1.5712177355206083 
1.729999999999826, -1.5708971889808305 
1.7399999999998248, -1.5705520097779542 
1.7499999999998237, -1.5701976951309558 
1.7599999999998226, -1.5698521244323662 
1.7699999999998215, -1.5695318381455978 
1.7799999999998204, -1.5692465389402759 
1.7899999999998193, -1.568995076005644 
1.7999999999998182, -1.5687660102784167 
1.809999999999817, -1.5685423524655613 
1.819999999999816, -1.5683069148025262 
1.8299999999998149, -1.568045286799905 
1.8399999999998138, -1.5677462934743154 
1.8499999999998127, -1.567401694261685 
1.8599999999998116, -1.567007037206913 
1.8699999999998105, -1.5665648366717968 
1.8799999999998094, -1.5660897159712532 
1.8899999999998083, -1.5656121734601802 
1.8999999999998072, -1.5651743514861116 
1.909999999999806, -1.5648135227237532 
1.919999999999805, -1.5645415219168455 
1.9299999999998039, -1.5643384114915242 
1.9399999999998028, -1.564166753676921 
1.9499999999998017, -1.5639917491795514 
1.9599999999998006, -1.5637915914378815 
1.9699999999997995, -1.5635569110821803 
1.9799999999997984, -1.5632862150316147 
1.9899999999997973, -1.5629825668104929 
1.9999999999997962, -1.5626531077230275 
2.0099999999998173, -1.562310779757873 
2.0199999999998384, -1.56197591293442 
2.0299999999998595, -1.5616738343155931 
2.0399999999998806, -1.5614260194447633 
2.0499999999999017, -1.561238740027608 
2.059999999999923, -1.5610984977219728 
2.069999999999944, -1.560978517661787 
2.079999999999965, -1.5608503304241093 
2.089999999999986, -1.5606921403777798 
2.100000000000007, -1.5604913086529073 
2.1100000000000283, -1.5602431102678167 
2.1200000000000494, -1.559948670741362 
2.1300000000000705, -1.5596137240089536 
2.1400000000000916, -1.559248502031603 
2.1500000000001127, -1.558868045952516 
2.160000000000134, -1.5584914321129222 
2.170000000000155, -1.5581383220506781 
2.180000000000176, -1.5578228511612289 
2.190000000000197, -1.5575478710738753 
2.2000000000002182, -1.557303849161836 
2.2100000000002393, -1.5570734903055463 
2.2200000000002604, -1.5568383447876701 
2.2300000000002815, -1.5565830171504533 
2.2400000000003026, -1.5562959734020634 
2.2500000000003237, -1.5559687983519968 
2.260000000000345, -1.5555962394297302 
2.270000000000366, -1.55517865452688 
2.280000000000387, -1.5547271626391874 
2.290000000000408, -1.5542689538901697 
2.3000000000004293, -1.5538459691697566 
2.3100000000004504, -1.55350008988931 
2.3200000000004715, -1.5532498467086457 
2.3300000000004926, -1.553078473010262 
2.3400000000005137, -1.5529457482655167 
2.3500000000005348, -1.552811034472614 
2.360000000000556, -1.552647763872506 
2.370000000000577, -1.552444627232824 
2.380000000000598, -1.5522004319643679 
2.390000000000619, -1.5519193134728302 
2.4000000000006403, -1.5516087273445365 
2.4100000000006614, -1.5512798901222897 
2.4200000000006825, -1.550948953270966 
2.4300000000007036, -1.5506362096249597 
2.4400000000007247, -1.5503610183333465 
2.450000000000746, -1.5501336619543395 
2.460000000000767, -1.5499497652097918 
2.470000000000788, -1.54979200771149 
2.480000000000809, -1.5496374872852472 
2.49000000000083, -1.5494651221734306 
2.5000000000008513, -1.5492595225548285 
2.5100000000008724, -1.5490115565122426 
2.5200000000008935, -1.5487175317013342 
2.5300000000009146, -1.548378603970296 
2.5400000000009357, -1.5480010905239738 
2.550000000000957, -1.5475974300176527 
2.560000000000978, -1.5471865635171638 
2.570000000000999, -1.5467917474781658 
2.58000000000102, -1.5464344263651646 
2.5900000000010412, -1.546125930108848 
2.6000000000010624, -1.5458624285920886 
2.6100000000010835, -1.545627485712741 
2.6200000000011046, -1.5454000549212958 
2.6300000000011257, -1.5451615914115036 
2.6400000000011468, -1.544898704594002 
2.650000000001168, -1.5446024775631715 
2.660000000001189, -1.544267314651154 
2.67000000000121, -1.5438915287783734 
2.680000000001231, -1.5434807069368757 
2.6900000000012523, -1.5430530500838013 
2.7000000000012734, -1.542642307763965 
2.7100000000012945, -1.5422907037412605 
2.7200000000013156, -1.542029175774159 
2.7300000000013367, -1.5418576244579447 
2.740000000001358, -1.541744359733785 
2.750000000001379, -1.5416454672139994 
2.7600000000014, -1.5415253347343265 
2.770000000001421, -1.5413646962225696 
2.780000000001442, -1.5411580271467502 
2.7900000000014633, -1.5409078860152992 
2.8000000000014844, -1.5406209258559043 
2.8100000000015055, -1.5403065996080447 
2.8200000000015266, -1.5399776576629627 
2.8300000000015477, -1.539650586505992 
2.840000000001569, -1.5393437482960914 
2.85000000000159, -1.5390722027219204 
2.860000000001611, -1.538841459861086 
2.870000000001632, -1.5386446847026607 
2.8800000000016532, -1.5384655728797305 
2.8900000000016743, -1.5382844636448234 
2.9000000000016954, -1.5380836117377004 
2.9100000000017165, -1.5378496591647282 
2.9200000000017377, -1.537573932122733 
2.9300000000017588, -1.5372521378800574 
2.94000000000178, -1.536884669172457 
2.950000000001801, -1.5364779200530423 
2.960000000001822, -1.5360460538383869 
2.970000000001843, -1.5356114781174568 
2.9800000000018643, -1.5352014489472505 
2.9900000000018854, -1.5348395774873507 
3.0000000000019065, -1.53453568022895 
3.0100000000019276, -1.5342814295026097 
3.0200000000019487, -1.534055740602812 
3.03000000000197, -1.5338350488121963 
3.040000000001991, -1.5336006548922814 
3.050000000002012, -1.5333404325918019 
3.060000000002033, -1.5330473116144778 
3.070000000002054, -1.5327178170746005 
3.0800000000020753, -1.532352664842075 
3.0900000000020964, -1.5319600233364732 
3.1000000000021175, -1.5315601171847057 
3.1100000000021386, -1.5311865094911423 
3.1200000000021597, -1.5308773885558535 
3.130000000002181, -1.5306565518466129 
3.140000000002202, -1.5305175546989953 
3.150000000002223, -1.530426641225937 
3.160000000002244, -1.5303416864339494 
3.1700000000022652, -1.5302299473789724 
3.1800000000022863, -1.5300742609305917 
3.1900000000023074, -1.5298702508570565 
3.2000000000023285, -1.529621136414875 
3.2100000000023496, -1.529334082974723 
3.2200000000023707, -1.5290189256532174 
3.230000000002392, -1.5286884394023306 
3.240000000002413, -1.5283585128865584 
3.250000000002434, -1.528046344653448 
3.260000000002455, -1.5277659103063346 
3.2700000000024763, -1.5275226185996407 
3.2800000000024974, -1.527310847773449 
3.2900000000025185, -1.5271162461410372 
3.3000000000025396, -1.5269209294345616 
3.3100000000025607, -1.526708156071959 
3.3200000000025818, -1.5264646474826873 
3.330000000002603, -1.5261809858607864 
3.340000000002624, -1.525851520473666 
3.350000000002645, -1.5254749910194136 
3.360000000002666, -1.525056343374144 
3.3700000000026873, -1.5246091951314493 
3.3800000000027084, -1.524157005640412 
3.3900000000027295, -1.5237298479860002 
3.4000000000027506, -1.5233549836999654 
3.4100000000027717, -1.5230448790492175 
3.420000000002793, -1.5227914731581258 
3.430000000002814, -1.5225718587674355 
3.440000000002835, -1.522360085390285 
3.450000000002856, -1.5221358291425429 
3.460000000002877, -1.5218865006544893 
3.4700000000028983, -1.521605448554209 
3.4800000000029194, -1.5212899561651219 
3.4900000000029405, -1.5209411711971172 
3.5000000000029616, -1.5205665798694459 
3.5100000000029827, -1.5201839815990856 
3.520000000003004, -1.519823171126285 
3.530000000003025, -1.5195194485923824 
3.540000000003046, -1.5192974590896438 
3.550000000003067, -1.5191555645725838 
3.5600000000030882, -1.519065353144749 
3.5700000000031094, -1.518987048495592 
3.5800000000031305, -1.5188868248972713 
3.5900000000031516, -1.5187448480831836 
3.6000000000031727, -1.5185542598082293 
3.6100000000031938, -1.5183166651212057 
3.620000000003215, -1.5180383023490494 
3.630000000003236, -1.5177282663775338 
3.640000000003257, -1.5173983880819866 
3.650000000003278, -1.517063473245645 
3.6600000000032993, -1.5167402033271782 
3.6700000000033204, -1.5164435935263656 
3.6800000000033415, -1.5161819690964602 
3.6900000000033626, -1.515953528947883 
3.7000000000033837, -1.5157470459239355 
3.710000000003405, -1.515546109684696 
3.720000000003426, -1.5153339293244876 
3.730000000003447, -1.5150962843737679 
3.740000000003468, -1.5148223686176592 
3.750000000003489, -1.5145047300268384 
3.7600000000035103, -1.5141396640552172 
3.7700000000035314, -1.513728850121087 
3.7800000000035525, -1.5132821105339032 
3.7900000000035736, -1.5128197960811034 
3.8000000000035947, -1.512371699509735 
3.810000000003616, -1.511969420752615 
3.820000000003637, -1.5116334911258158 
3.830000000003658, -1.511363487691591 
3.840000000003679, -1.5111396426619499 
3.8500000000037002, -1.5109343332704401 
3.8600000000037213, -1.5107235155836185 
3.8700000000037424, -1.5104914524284638 
3.8800000000037635, -1.5102297694513047 
3.8900000000037847, -1.5099349047482546 
3.9000000000038058, -1.509606841028568 
3.910000000003827, -1.5092502283131088 
3.920000000003848, -1.5088776026433925 
3.930000000003869, -1.5085124081736896 
3.94000000000389, -1.5081869794920952 
3.9500000000039113, -1.5079313221385762 
3.9600000000039324, -1.5077567508109553 
3.9700000000039535, -1.5076475672605372 
3.9800000000039746, -1.5075690485031932 
3.9900000000039957, -1.5074843056891436 
4.000000000004016, -1.5073667857660351 
4.010000000003993, -1.5072033841381498 
4.02000000000397, -1.5069915147323918 
4.030000000003946, -1.5067349636974487 
4.040000000003923, -1.506441128621695 
4.0500000000039, -1.5061200953291851 
4.0600000000038765, -1.5057847972046923 
4.070000000003853, -1.5054508446096881 
4.08000000000383, -1.5051345237436062 
4.090000000003807, -1.5048485829832292 
4.100000000003783, -1.5045976295004864 
4.11000000000376, -1.5043762011057595 
4.120000000003737, -1.5041709473890779 
4.130000000003713, -1.5039652600494169 
4.14000000000369, -1.5037434001789682 
4.150000000003667, -1.5034925215944261 
4.1600000000036434, -1.5032029983785977 
4.17000000000362, -1.5028684019672922 
4.180000000003597, -1.5024863110977802 
4.1900000000035735, -1.5020604699961702 
4.20000000000355, -1.501603779489193 
4.210000000003527, -1.5011400624088644 
4.220000000003504, -1.5007011500643148 
4.23000000000348, -1.5003170354079478 
4.240000000003457, -1.5000026676205365 
4.250000000003434, -1.499750944110568 
4.26000000000341, -1.4995381019515395 
4.270000000003387, -1.4993363881083348 
4.280000000003364, -1.499123883227275 
4.2900000000033405, -1.4988872216085616 
4.300000000003317, -1.4986197444467557 
4.310000000003294, -1.4983190355447362 
4.320000000003271, -1.4979861445641292 
4.330000000003247, -1.4976271875768805 
4.340000000003224, -1.4972566669675325 
4.350000000003201, -1.4968997709531502 
4.360000000003177, -1.4965887563079971 
4.370000000003154, -1.4963504979874356 
4.380000000003131, -1.4961911898878335 
4.390000000003107, -1.4960911060897735 
4.400000000003084, -1.4960147086905322 
4.410000000003061, -1.495926931230926 
4.4200000000030375, -1.495803796719073 
4.430000000003014, -1.4956342181945408 
4.440000000002991, -1.4954167669162648 
4.450000000002968, -1.4951557712958663 
4.460000000002944, -1.4948588899909123 
4.470000000002921, -1.4945364022125909 
4.480000000002898, -1.4942014024474548 
4.490000000002874, -1.4938695026927011 
4.500000000002851, -1.4935566492496881 
4.510000000002828, -1.4932748692874307 
4.520000000002804, -1.4930278963038437 
4.530000000002781, -1.4928096090382117 
4.540000000002758, -1.4926064307347988 
4.5500000000027345, -1.4924018992500667 
4.560000000002711, -1.492180587878459 
4.570000000002688, -1.4919299700957578 
4.580000000002665, -1.4916407063584818 
4.590000000002641, -1.4913066483044763 
4.600000000002618, -1.4909256572096816 
4.610000000002595, -1.4905016805129232 
4.620000000002571, -1.490047550511429 
4.630000000002548, -1.4895865444454959 
4.640000000002525, -1.4891495099114884 
4.6500000000025015, -1.4887655252961554 
4.660000000002478, -1.4884494173763683 
4.670000000002455, -1.4881949580818987 
4.6800000000024315, -1.4879796428750092 
4.690000000002408, -1.4877765798574631 
4.700000000002385, -1.4875640521944986 
4.710000000002362, -1.4873284441437158 
4.720000000002338, -1.4870626614322366 
4.730000000002315, -1.4867637664509321 
4.740000000002292, -1.4864321257005684 
4.750000000002268, -1.486072855962092 
4.760000000002245, -1.4856991158356156 
4.770000000002222, -1.4853348467746819 
4.7800000000021985, -1.4850122485352857 
4.790000000002175, -1.4847603731318832 
4.800000000002152, -1.4845893471061076 
4.810000000002129, -1.4844829032247362 
4.820000000002105, -1.4844065661751662 
4.830000000002082, -1.4843240398975532 
4.840000000002059, -1.4842092484938407 
4.850000000002035, -1.484049318682507 
4.860000000002012, -1.483841705118643 
4.870000000001989, -1.4835900982128178 
4.880000000001965, -1.483301656878616 
4.890000000001942, -1.4829860478275703 
4.900000000001919, -1.482655617347988 
4.9100000000018955, -1.4823253878394964 
4.920000000001872, -1.4820114084230411 
4.930000000001849, -1.4817268932072756 
4.940000000001826, -1.481477630459057 
