t, s[1].omega / s[0].omega 
0, -3.3999948208474158 
0.009999999999999995, -3.3994263241244638 
0.019999999999999934, -3.39877683073031 
0.029999999999999874, -3.3981368556130027 
0.04000000000000012, -3.3976302217786647 
0.050000000000000405, -3.3972179122737627 
0.06000000000000069, -3.396776373009412 
0.07000000000000098, -3.396264810060786 
0.08000000000000126, -3.395703042857683 
0.09000000000000155, -3.3951405487844175 
0.10000000000000184, -3.3946250286104878 
0.11000000000000212, -3.3941498330873543 
0.12000000000000241, -3.393660960342465 
0.130000000000002, -3.393120271882529 
0.1400000000000009, -3.3925371963379987 
0.1499999999999998, -3.3919846656273585 
0.1599999999999987, -3.3915289257568717 
0.1699999999999976, -3.3911173358272024 
0.1799999999999965, -3.3906624909937557 
0.1899999999999954, -3.390121404388277 
0.1999999999999943, -3.389486293346517 
0.2099999999999932, -3.388816994676783 
0.2199999999999921, -3.3882696997568167 
0.229999999999991, -3.387879443091024 
0.2399999999999899, -3.387494360095476 
0.2499999999999888, -3.3870269463105513 
0.2599999999999877, -3.3864773604946037 
0.2699999999999866, -3.3858818679574205 
0.2799999999999855, -3.3853087244173765 
0.2899999999999844, -3.3848112147225975 
0.2999999999999833, -3.3843509981776014 
0.3099999999999822, -3.3838597477594283 
0.3199999999999811, -3.3833176925440513 
0.32999999999998, -3.3827574360624757 
0.3399999999999789, -3.382241253130644 
0.3499999999999778, -3.3817832883762726 
0.35999999999997667, -3.381329947720377 
0.36999999999997557, -3.380825543567177 
0.37999999999997447, -3.380242139659411 
0.38999999999997337, -3.379599032796132 
0.39999999999997227, -3.3790145089669776 
0.40999999999997117, -3.378594716907781 
0.41999999999997006, -3.3782371147315247 
0.42999999999996896, -3.3778135125717816 
0.43999999999996786, -3.3772915441736813 
0.44999999999996676, -3.376684641919244 
0.45999999999996566, -3.376050654102791 
0.46999999999996456, -3.3754972699289993 
0.47999999999996346, -3.375050063700782 
0.48999999999996235, -3.3746113244194986 
0.49999999999996125, -3.3741173255809356 
0.5099999999999602, -3.3735719459944855 
0.519999999999959, -3.3730180387108435 
0.529999999999958, -3.3725045312847484 
0.5399999999999568, -3.372033375754076 
0.5499999999999557, -3.3715575683689787 
0.5599999999999546, -3.3710317274938078 
0.5699999999999535, -3.370445248843789 
0.5799999999999524, -3.3698528043287275 
0.5899999999999513, -3.3693630681208098 
0.5999999999999502, -3.3689737863423046 
0.6099999999999491, -3.36857104099563 
0.619999999999948, -3.3680859219669395 
0.6299999999999469, -3.3675020588205684 
0.6399999999999458, -3.3668421452338797 
0.6499999999999447, -3.366214619947196 
0.6599999999999436, -3.3657416659214077 
0.6699999999999425, -3.3653529772828237 
0.6799999999999414, -3.3649208599544167 
0.6899999999999403, -3.364412351619266 
0.6999999999999392, -3.3638496589826907 
0.7099999999999381, -3.3632831456837664 
0.719999999999937, -3.3627662624211405 
0.7299999999999359, -3.3622967500057435 
0.7399999999999348, -3.3618178823602385 
0.7499999999999337, -3.3612900571635516 
0.7599999999999326, -3.3607220226290657 
0.7699999999999315, -3.3601781699779267 
0.7799999999999304, -3.3597170523011086 
0.7899999999999293, -3.3592977003799107 
0.7999999999999282, -3.3588429300562503 
0.8099999999999271, -3.358308999875767 
0.819999999999926, -3.3576847669529952 
0.8299999999999249, -3.357025025818404 
0.8399999999999238, -3.356482756716879 
0.8499999999999227, -3.3561015295255663 
0.8599999999999216, -3.3557320855568897 
0.8699999999999205, -3.355279822532318 
0.8799999999999194, -3.3547394803643806 
0.8899999999999183, -3.354142198874867 
0.8999999999999172, -3.3535562812811244 
0.9099999999999161, -3.353051597994863 
0.919999999999915, -3.352602328976321 
0.9299999999999139, -3.352131189322715 
0.9399999999999128, -3.351607835030849 
0.9499999999999117, -3.351054586959056 
0.9599999999999106, -3.3505279451329044 
0.9699999999999095, -3.3500581171700574 
0.9799999999999084, -3.34960852135237 
0.9899999999999073, -3.3491231117284572 
0.9999999999999062, -3.3485673955098307 
1.0099999999999052, -3.347945689138757 
1.019999999999904, -3.347347740845018 
1.029999999999903, -3.3468979221188015 
1.039999999999902, -3.346542760324527 
1.0499999999999008, -3.346145384756234 
1.0599999999998997, -3.3456530385919256 
1.0699999999998986, -3.3450672980787615 
1.0799999999998975, -3.3444281861340115 
1.0899999999998964, -3.34384012612893 
1.0999999999998953, -3.343376891219195 
1.1099999999998942, -3.342959704362536 
1.119999999999893, -3.342497364846397 
1.129999999999892, -3.341974280759197 
1.1399999999998909, -3.341420924784053 
1.1499999999998898, -3.340889018835564 
1.1599999999998887, -3.3404062220731676 
1.1699999999998876, -3.3399433764987663 
1.1799999999998865, -3.339448880420707 
1.1899999999998854, -3.338895451258783 
1.1999999999998843, -3.3383049581796436 
1.2099999999998832, -3.3377692436882063 
1.219999999999882, -3.3373490868710727 
1.229999999999881, -3.336964942247436 
1.2399999999998799, -3.3365235189688924 
1.2499999999998788, -3.33598924093177 
1.2599999999998777, -3.3353617335418315 
1.2699999999998766, -3.334702403798431 
1.2799999999998755, -3.334155315576144 
1.2899999999998744, -3.333754688879369 
1.2999999999998733, -3.333365000440992 
1.3099999999998722, -3.3329035382692864 
1.319999999999871, -3.332370248357744 
1.32999999999987, -3.33180086100228 
1.3399999999998689, -3.331253276195658 
1.3499999999998678, -3.330765776678014 
1.3599999999998666, -3.3303063225578895 
1.3699999999998655, -3.329817106373074 
1.3799999999998644, -3.3292767991280043 
1.3899999999998633, -3.3287155487691926 
1.3999999999998622, -3.3282059421050576 
1.4099999999998611, -3.3277721629262347 
1.41999999999986, -3.32735030588763 
1.429999999999859, -3.3268751667117713 
1.4399999999998578, -3.3263151061330176 
1.4499999999998567, -3.3256737722877836 
1.4599999999998556, -3.325041373082135 
1.4699999999998545, -3.3245659728375068 
1.4799999999998534, -3.324212590496562 
1.4899999999998523, -3.323828954093114 
1.4999999999998512, -3.323355325970674 
1.5099999999998501, -3.322799399417849 
1.519999999999849, -3.3222007533090676 
1.529999999999848, -3.321635627541845 
1.5399999999998468, -3.3211569056511485 
1.5499999999998457, -3.3207147713530594 
1.5599999999998446, -3.320238439437272 
1.5699999999998435, -3.3197109603814523 
1.5799999999998424, -3.319163710048985 
1.5899999999998413, -3.318653282290267 
1.5999999999998402, -3.3181967889001456 
1.6099999999998391, -3.3177500264288917 
1.619999999999838, -3.317259985300516 
1.629999999999837, -3.31669750478533 
1.6399999999998358, -3.316076073947987 
1.6499999999998347, -3.3154980504430176 
1.6599999999998336, -3.3150732602869 
1.6699999999998325, -3.314725072423464 
1.6799999999998314, -3.3143244512795236 
1.6899999999998303, -3.313828346490522 
1.6999999999998292, -3.3132418204525442 
1.709999999999828, -3.3126089877922062 
1.719999999999827, -3.3120348203737286 
1.729999999999826, -3.311581952331886 
1.7399999999998248, -3.3111677623480795 
1.7499999999998237, -3.3107071377733774 
1.7599999999998226, -3.310187500105653 
1.7699999999998215, -3.3096400550503136 
1.7799999999998204, -3.3091158656870965 
1.7899999999998193, -3.3086403438907226 
1.7999999999998182, -3.3081834632003577 
1.809999999999817, -3.307694548177976 
1.819999999999816, -3.3071462188284926 
1.8299999999998149, -3.306558079960186 
1.8399999999998138, -3.3060207266775343 
1.8499999999998127, -3.305602662186388 
1.8599999999998116, -3.305229152164545 
1.8699999999998105, -3.304802356439505 
1.8799999999998094, -3.3042840116464065 
1.8899999999998083, -3.303671782063438 
1.8999999999998072, -3.303016505775161 
1.909999999999806, -3.3024529923379404 
1.919999999999805, -3.302040061467273 
1.9299999999998039, -3.3016574627730306 
1.9399999999998028, -3.301211263661609 
1.9499999999998017, -3.300693333454668 
1.9599999999998006, -3.300134753662287 
1.9699999999997995, -3.299589296681956 
1.9799999999997984, -3.299099128000331 
1.9899999999997973, -3.2986436989134895 
1.9999999999997962, -3.2981664962187436 
2.0099999999998173, -3.2976382194408984 
2.0199999999998384, -3.2970775403400707 
2.0299999999998595, -3.2965549432918912 
2.0399999999998806, -3.296117492987584 
2.0499999999999017, -3.2957122752219723 
2.059999999999923, -3.2952647051848403 
2.069999999999944, -3.294735817230779 
2.079999999999965, -3.2941175660750224 
2.089999999999986, -3.2934665777801926 
2.100000000000007, -3.2929318213962198 
2.1100000000000283, -3.2925563930287067 
2.1200000000000494, -3.2921974422579035 
2.1300000000000705, -3.291760376422567 
2.1400000000000916, -3.2912383821688183 
2.1500000000001127, -3.2906603719369434 
2.160000000000134, -3.2900871251087898 
2.170000000000155, -3.2895845666665195 
2.180000000000176, -3.289139653184921 
2.190000000000197, -3.288681571320577 
2.2000000000002182, -3.288173908698524 
2.2100000000002393, -3.2876307222392973 
2.2200000000002604, -3.2871062093071095 
2.2300000000002815, -3.2866424318727594 
2.2400000000003026, -3.2862113831026667 
2.2500000000003237, -3.28575419444964 
2.260000000000345, -3.2852302451959345 
2.270000000000366, -3.2846286798866773 
2.280000000000387, -3.2840044992724073 
2.290000000000408, -3.2834964973363796 
2.3000000000004293, -3.2831351501661055 
2.3100000000004504, -3.2827823605630315 
2.3200000000004715, -3.2823473307013358 
2.3300000000004926, -3.2818182056796723 
2.3400000000005137, -3.2812171916656134 
2.3500000000005348, -3.280611844510505 
2.360000000000556, -3.2800976971181557 
2.370000000000577, -3.279670979414523 
2.380000000000598, -3.2792387849033515 
2.390000000000619, -3.278752195363098 
2.4000000000006403, -3.278219998562362 
2.4100000000006614, -3.2776860046204512 
2.4200000000006825, -3.277195503971562 
2.4300000000007036, -3.2767449975745384 
2.4400000000007247, -3.2762875940343577 
2.450000000000746, -3.2757796475450194 
2.460000000000767, -3.2752072134703925 
2.470000000000788, -3.2746145517993726 
2.480000000000809, -3.2741147549318947 
2.49000000000083, -3.2737386945048366 
2.5000000000008513, -3.2733749222677004 
2.5100000000008724, -3.2729374650998033 
2.5200000000008935, -3.2724041953768315 
2.5300000000009146, -3.2717860299979433 
2.5400000000009357, -3.271151725508079 
2.550000000000957, -3.2706266177341057 
2.560000000000978, -3.270222937753899 
2.570000000000999, -3.2698227461003784 
2.58000000000102, -3.269359339028823 
2.5900000000010412, -3.268835861569258 
2.6000000000010624, -3.2682893253783702 
2.6100000000010835, -3.267770886234281 
2.6200000000011046, -3.267302703745763 
2.6300000000011257, -3.26685029876774 
2.6400000000011468, -3.266363668698033 
2.650000000001168, -3.2658223365736085 
2.660000000001189, -3.26525539484683 
2.67000000000121, -3.264747737839882 
2.680000000001231, -3.2643392113381275 
2.6900000000012523, -3.263954916298716 
2.7000000000012734, -3.2635154842061795 
2.7100000000012945, -3.262987630336204 
2.7200000000013156, -3.2623692780280313 
2.7300000000013367, -3.261720557677146 
2.740000000001358, -3.2611848572204374 
2.750000000001379, -3.2608009607171176 
2.7600000000014, -3.260434687655826 
2.770000000001421, -3.2599972344831407 
2.780000000001442, -3.259483611956371 
2.7900000000014633, -3.2589243015381313 
2.8000000000014844, -3.2583745580187182 
2.8100000000015055, -3.2578844518149745 
2.8200000000015266, -3.2574380838799364 
2.8300000000015477, -3.2569755118468073 
2.840000000001569, -3.256464070349053 
2.85000000000159, -3.2559177201855007 
2.860000000001611, -3.255397010200035 
2.870000000001632, -3.2549507346089874 
2.8800000000016532, -3.2545424866914816 
2.8900000000016743, -3.254103787621947 
2.9000000000016954, -3.253592433276679 
2.9100000000017165, -3.2529947961418104 
2.9200000000017377, -3.252353221951745 
2.9300000000017588, -3.2518058468489928 
2.94000000000178, -3.251425165974097 
2.950000000001801, -3.2510850812414014 
2.960000000001822, -3.2506744052133967 
2.970000000001843, -3.250174396760569 
2.9800000000018643, -3.249606055045055 
2.9900000000018854, -3.2490223939089184 
3.0000000000019065, -3.2485004778172644 
3.0100000000019276, -3.248056174328545 
3.0200000000019487, -3.2476202131241756 
3.03000000000197, -3.247139511901127 
3.040000000001991, -3.246613257551129 
3.050000000002012, -3.2460825810692464 
3.060000000002033, -3.2455999360616268 
3.070000000002054, -3.2451652150890533 
3.0800000000020753, -3.2447277480340544 
3.0900000000020964, -3.2442393672650622 
3.1000000000021175, -3.2436766138779576 
3.1100000000021386, -3.243060674712374 
3.1200000000021597, -3.242501185479169 
3.130000000002181, -3.242097790975935 
3.140000000002202, -3.2417644518461963 
3.150000000002223, -3.2413767630859383 
3.160000000002244, -3.240895651425715 
3.1700000000022652, -3.2403278943266414 
3.1800000000022863, -3.239714630410537 
3.1900000000023074, -3.239149315010318 
3.2000000000023285, -3.2386955350545046 
3.2100000000023496, -3.2382875228396855 
3.2200000000023707, -3.2378420076804595 
3.230000000002392, -3.237339971287369 
3.240000000002413, -3.236807087055419 
3.250000000002434, -3.2362926814754993 
3.260000000002455, -3.2358267960696283 
3.2700000000024763, -3.2353859742786115 
3.2800000000024974, -3.234920696902465 
3.2900000000025185, -3.2343969979942804 
3.3000000000025396, -3.2338168252044293 
3.3100000000025607, -3.233250697513454 
3.3200000000025818, -3.2328038499263863 
3.330000000002603, -3.232451321039618 
3.340000000002624, -3.2320770898968183 
3.350000000002645, -3.231619505186356 
3.360000000002666, -3.231067223255887 
3.3700000000026873, -3.23044131128155 
3.3800000000027084, -3.2298293138315786 
3.3900000000027295, -3.229345754297853 
3.4000000000027506, -3.2289601733405755 
3.4100000000027717, -3.2285561689290816 
3.420000000002793, -3.228086384716898 
3.430000000002814, -3.2275622685898453 
3.440000000002835, -3.2270243791483013 
3.450000000002856, -3.22652142744778 
3.460000000002877, -3.226066077878059 
3.4700000000028983, -3.2256184916471957 
3.4800000000029194, -3.2251320403487447 
3.4900000000029405, -3.2245911937761482 
3.5000000000029616, -3.2240306554261395 
3.5100000000029827, -3.22353727083183 
3.520000000003004, -3.223142528515875 
3.530000000003025, -3.222766842324179 
3.540000000003046, -3.2223333869882564 
3.550000000003067, -3.221811370741338 
3.5600000000030882, -3.221200031009446 
3.5700000000031094, -3.220557924887577 
3.5800000000031305, -3.220023274253113 
3.5900000000031516, -3.2196388707435224 
3.6000000000031727, -3.2192780481262324 
3.6100000000031938, -3.218850630325926 
3.620000000003215, -3.218348949740478 
3.630000000003236, -3.2178013595631088 
3.640000000003257, -3.2172595131869466 
3.650000000003278, -3.2167721421567657 
3.6600000000032993, -3.2163297614105253 
3.6700000000033204, -3.215876380435443 
3.6800000000033415, -3.2153757953731086 
3.6900000000033626, -3.2148350431711266 
3.7000000000033837, -3.2143101894678536 
3.710000000003405, -3.213861653237623 
3.720000000003426, -3.213465564846479 
3.730000000003447, -3.213049494813422 
3.740000000003468, -3.212565145002395 
3.750000000003489, -3.211993323006806 
3.7600000000035103, -3.211356122566953 
3.7700000000035314, -3.210767618502178 
3.7800000000035525, -3.2103459541802173 
3.7900000000035736, -3.2100130418661683 
3.8000000000035947, -3.209634685662647 
3.810000000003616, -3.209170182968671 
3.820000000003637, -3.208632327488593 
3.830000000003658, -3.2080613605781636 
3.840000000003679, -3.2075247682235997 
3.8500000000037002, -3.207063749081896 
3.8600000000037213, -3.2066347821373498 
3.8700000000037424, -3.206175309277312 
3.8800000000037635, -3.2056665787698444 
3.8900000000037847, -3.2051348677391154 
3.9000000000038058, -3.2046379140940813 
3.910000000003827, -3.204202663938033 
3.920000000003848, -3.203788168122325 
3.930000000003869, -3.20333780176072 
3.94000000000389, -3.2028166526585538 
3.9500000000039113, -3.2022187006869487 
3.9600000000039324, -3.2016049001889804 
3.9700000000039535, -3.2011127821267116 
3.9800000000039746, -3.2007662123506533 
3.9900000000039957, -3.20042920747264 
4.000000000004016, -3.200013033900922 
4.010000000003993, -3.199506500280378 
4.02000000000397, -3.1989308559593477 
4.030000000003946, -3.1983440471885833 
4.040000000003923, -3.197831197775877 
4.0500000000039, -3.1974040864894926 
4.0600000000038765, -3.1969845089405866 
4.070000000003853, -3.1965180257798265 
4.08000000000383, -3.196004283275003 
4.090000000003807, -3.1954809246259233 
4.100000000003783, -3.194997479625688 
4.11000000000376, -3.1945612383891167 
4.120000000003737, -3.1941297950756096 
4.130000000003713, -3.1936557150120573 
4.14000000000369, -3.1931135489030065 
4.150000000003667, -3.1925177506715348 
4.1600000000036434, -3.191961929500882 
4.17000000000362, -3.191549252912194 
4.180000000003597, -3.1912198374583487 
4.1900000000035735, -3.1908507702827538 
4.20000000000355, -3.190392443902826 
4.210000000003527, -3.189843746825472 
4.220000000003504, -3.189234610178649 
4.23000000000348, -3.18865052919617 
4.240000000003457, -3.1881806683087266 
4.250000000003434, -3.187786018720176 
4.26000000000341, -3.1873697053431025 
4.270000000003387, -3.1868949774231594 
4.280000000003364, -3.186375984556595 
4.2900000000033405, -3.1858555119028766 
4.300000000003317, -3.1853762478152823 
4.310000000003294, -3.1849371774150064 
4.320000000003271, -3.184495035846088 
4.330000000003247, -3.1840072964367465 
4.340000000003224, -3.1834590190954852 
4.350000000003201, -3.182885901733645 
4.360000000003177, -3.1823882102303918 
4.370000000003154, -3.182011702144587 
4.380000000003131, -3.181665417495683 
4.390000000003107, -3.181259012166869 
4.400000000003084, -3.1807619438424366 
4.410000000003061, -3.1801758949076926 
4.4200000000030375, -3.1795467465046108 
4.430000000003014, -3.1789902524914457 
4.440000000002991, -3.1785724678078084 
4.450000000002968, -3.1782014788413613 
4.460000000002944, -3.1777827423381964 
4.470000000002921, -3.177298215690632 
4.480000000002898, -3.1767714669966995 
4.490000000002874, -3.176248410643216 
4.500000000002851, -3.175770246676113 
4.510000000002828, -3.175331369474266 
4.520000000002804, -3.174884743586509 
4.530000000002781, -3.1743915679470893 
4.540000000002758, -3.173847732897477 
4.5500000000027345, -3.173302683068745 
4.560000000002711, -3.1728421635965445 
4.570000000002688, -3.1724694406682596 
4.580000000002665, -3.1720967535952687 
4.590000000002641, -3.171658229485901 
4.600000000002618, -3.171130088025737 
4.610000000002595, -3.170517447363742 
4.620000000002571, -3.169888938942207 
4.630000000002548, -3.1693792955675963 
4.640000000002525, -3.1690087108780878 
4.6500000000025015, -3.1686503830497856 
4.660000000002478, -3.168225161674915 
4.670000000002455, -3.1677291819748064 
4.6800000000024315, -3.167191479326528 
4.690000000002408, -3.166662230597218 
4.700000000002385, -3.166185703782044 
4.710000000002362, -3.1657509808341184 
4.720000000002338, -3.165304959881654 
4.730000000002315, -3.1648122211486416 
4.740000000002292, -3.1642774978420394 
4.750000000002268, -3.163754662942009 
4.760000000002245, -3.163309785776531 
4.770000000002222, -3.1629265443204386 
4.7800000000021985, -3.162530198705265 
4.790000000002175, -3.1620684545682973 
4.800000000002152, -3.1615197612387913 
4.810000000002129, -3.1608955782077293 
4.820000000002105, -3.160287168198729 
4.830000000002082, -3.159828756193419 
4.840000000002059, -3.1594914314612237 
4.850000000002035, -3.159136658692177 
4.860000000002012, -3.158702798973768 
4.870000000001989, -3.1581941340105013 
4.880000000001965, -3.157642757603728 
4.890000000001942, -3.1571053871946746 
4.900000000001919, -3.1566321866268243 
4.9100000000018955, -3.156205150037938 
4.920000000001872, -3.1557637296679504 
4.930000000001849, -3.1552751020486687 
4.940000000001826, -3.154749646701547 
4.950000000001802, -3.1542396773822454 
4.960000000001779, -3.153796500003044 
4.970000000001756, -3.153399644938482 
