t, s[1].omega / s[0].omega 
0, -1.7199970511081333 
0.009999999999999995, -1.7196754847408529 
0.019999999999999934, -1.7193041270396905 
0.029999999999999874, -1.7188930039893766 
0.04000000000000012, -1.718461124390333 
0.050000000000000405, -1.7180363352429624 
0.06000000000000069, -1.717648822263953 
0.07000000000000098, -1.7173180191552055 
0.08000000000000126, -1.717041754733291 
0.09000000000000155, -1.7167985180207748 
0.10000000000000184, -1.7165606990846425 
0.11000000000000212, -1.716306074974753 
0.12000000000000241, -1.7160209673280893 
0.130000000000002, -1.7156985011000163 
0.1400000000000009, -1.7153375592960245 
0.1499999999999998, -1.7149454772714852 
0.1599999999999987, -1.7145438655620542 
0.1699999999999976, -1.714171180969713 
0.1799999999999965, -1.713871088889863 
0.1899999999999954, -1.7136659462586892 
0.1999999999999943, -1.7135384621987921 
0.2099999999999932, -1.7134429752734786 
0.2199999999999921, -1.713333200338134 
0.229999999999991, -1.7131798760386527 
0.2399999999999899, -1.7129718795397284 
0.2499999999999888, -1.7127099841737845 
0.2599999999999877, -1.7124013965446132 
0.2699999999999866, -1.7120575507884155 
0.2799999999999855, -1.7116941733088926 
0.2899999999999844, -1.7113310542797424 
0.2999999999999833, -1.710988749516457 
0.3099999999999822, -1.710681721774239 
0.3199999999999811, -1.7104117375927443 
0.32999999999998, -1.7101669941982223 
0.3399999999999789, -1.7099279244137908 
0.3499999999999778, -1.709674656483913 
0.35999999999997667, -1.7093910889989732 
0.36999999999997557, -1.7090652885276385 
0.37999999999997447, -1.7086892183195483 
0.38999999999997337, -1.7082609640510806 
0.39999999999997227, -1.7077910127119058 
0.40999999999997117, -1.7073100877176224 
0.41999999999997006, -1.7068687169034393 
0.42999999999996896, -1.706516780481691 
0.43999999999996786, -1.7062708438981975 
0.44999999999996676, -1.7061019959980794 
0.45999999999996566, -1.705958816899691 
0.46999999999996456, -1.7057982913742766 
0.47999999999996346, -1.7055981308019703 
0.48999999999996235, -1.705352688227342 
0.49999999999996125, -1.7050654324669057 
0.5099999999999602, -1.7047448616974858 
0.519999999999959, -1.7044042650894018 
0.529999999999958, -1.7040626195691835 
0.5399999999999568, -1.7037424773466756 
0.5499999999999557, -1.7034623147960921 
0.5599999999999546, -1.7032270802360518 
0.5699999999999535, -1.7030251075765253 
0.5799999999999524, -1.7028341510175344 
0.5899999999999513, -1.7026306713231112 
0.5999999999999502, -1.7023958288651109 
0.6099999999999491, -1.7021169118447426 
0.619999999999948, -1.7017866548708755 
0.6299999999999469, -1.7014031917463293 
0.6399999999999458, -1.7009720937784916 
0.6499999999999447, -1.7005100905146506 
0.6599999999999436, -1.700047261497313 
0.6699999999999425, -1.6996217276348022 
0.6799999999999414, -1.6992637007067894 
0.6899999999999403, -1.698978072811144 
0.6999999999999392, -1.6987425325798733 
0.7099999999999381, -1.698523405618521 
0.719999999999937, -1.6982926260602642 
0.7299999999999359, -1.6980337781103132 
0.7399999999999348, -1.6977399159110167 
0.7499999999999337, -1.6974104737659055 
0.7599999999999326, -1.6970513373618707 
0.7699999999999315, -1.6966782688535034 
0.7799999999999304, -1.6963198359075335 
0.7899999999999293, -1.6960120433001364 
0.7999999999999282, -1.6957806239561541 
0.8099999999999271, -1.6956228119575634 
0.819999999999926, -1.695507643895913 
0.8299999999999249, -1.6953944271822565 
0.8399999999999238, -1.6952507836215864 
0.8499999999999227, -1.6950589772217726 
0.8599999999999216, -1.6948135172379089 
0.8699999999999205, -1.694516792124902 
0.8799999999999194, -1.694176442819095 
0.8899999999999183, -1.6938049966823556 
0.8999999999999172, -1.6934203608683838 
0.9099999999999161, -1.693044605365932 
0.919999999999915, -1.6926987538782459 
0.9299999999999139, -1.6923945208174278 
0.9399999999999128, -1.6921285135079973 
0.9499999999999117, -1.6918842630852091 
0.9599999999999106, -1.6916404014355024 
0.9699999999999095, -1.6913779985198283 
0.9799999999999084, -1.691083095873606 
0.9899999999999073, -1.6907461248557802 
0.9999999999999062, -1.6903619314479603 
1.0099999999999052, -1.6899332122106958 
1.019999999999904, -1.6894777207518819 
1.029999999999903, -1.6890341531875452 
1.039999999999902, -1.6886547152834432 
1.0499999999999008, -1.6883776608214416 
1.0599999999998997, -1.6881992831351664 
1.0699999999998986, -1.6880765757753369 
1.0799999999998975, -1.6879573679182553 
1.0899999999998964, -1.6878055323116308 
1.0999999999998953, -1.6876058609545943 
1.1099999999998942, -1.6873573544528164 
1.119999999999893, -1.6870662257720919 
1.129999999999892, -1.6867427793268075 
1.1399999999998909, -1.6864014224950332 
1.1499999999998898, -1.6860609901424435 
1.1599999999998887, -1.6857419902165005 
1.1699999999998876, -1.6854596133633968 
1.1799999999998865, -1.6852164518062804 
1.1899999999998854, -1.6850010468193528 
1.1999999999998843, -1.684793394369405 
1.2099999999998832, -1.684572503967298 
1.219999999999882, -1.6843211162780194 
1.229999999999881, -1.684026794111313 
1.2399999999998799, -1.683681551371199 
1.2499999999998788, -1.6832824953991221 
1.2599999999998777, -1.6828348662243382 
1.2699999999998766, -1.682356876393295 
1.2799999999998755, -1.681882310450198 
1.2899999999998744, -1.681453627449557 
1.2999999999998733, -1.6811026719754776 
1.3099999999998722, -1.6808314756868359 
1.319999999999871, -1.6806126008870685 
1.32999999999987, -1.6804085495768395 
1.3399999999998689, -1.6801900512108663 
1.3499999999998678, -1.6799413429803594 
1.3599999999998666, -1.6796569037453704 
1.3699999999998655, -1.6793376326041813 
1.3799999999998644, -1.6789902825803789 
1.3899999999998633, -1.678630005351432 
1.3999999999998622, -1.6782824870044535 
1.4099999999998611, -1.677979279208677 
1.41999999999986, -1.6777432269148291 
1.429999999999859, -1.6775733029675763 
1.4399999999998578, -1.6774439518895803 
1.4499999999998567, -1.677319533766736 
1.4599999999998556, -1.6771697212829302 
1.4699999999998545, -1.6769760541785057 
1.4799999999998534, -1.6767309839439624 
1.4899999999998523, -1.6764346308959759 
1.4999999999998512, -1.6760926260688875 
1.5099999999998501, -1.6757158680417192 
1.519999999999849, -1.6753212447419805 
1.529999999999848, -1.6749310349527693 
1.5399999999998468, -1.6745683939956375 
1.5499999999998457, -1.6742488494747672 
1.5599999999998446, -1.673972782156151 
1.5699999999998435, -1.6737255375976496 
1.5799999999998424, -1.6734853408597377 
1.5899999999998413, -1.673231931502361 
1.5999999999998402, -1.6729503497135216 
1.6099999999998391, -1.6726305944420303 
1.619999999999838, -1.6722669077870769 
1.629999999999837, -1.6718598144832533 
1.6399999999998358, -1.6714220216353617 
1.6499999999998347, -1.6709851106795806 
1.6599999999998336, -1.6705972474806206 
1.6699999999998325, -1.6703021513999137 
1.6799999999998314, -1.6701094355746506 
1.6899999999998303, -1.669986468615908 
1.6999999999998292, -1.6698815705942227 
1.709999999999828, -1.6697525388506094 
1.719999999999827, -1.6695777483286502 
1.729999999999826, -1.669352219931548 
1.7399999999998248, -1.669080187901622 
1.7499999999998237, -1.6687705241472042 
1.7599999999998226, -1.668435694563629 
1.7699999999998215, -1.6680922731167918 
1.7799999999998204, -1.6677599774299847 
1.7899999999998193, -1.6674568777124286 
1.7999999999998182, -1.6671920951128865 
1.809999999999817, -1.666961265645769 
1.819999999999816, -1.6667486509897422 
1.8299999999998149, -1.666533855632904 
1.8399999999998138, -1.6662979722093199 
1.8499999999998127, -1.6660262892788786 
1.8599999999998116, -1.665708399728071 
1.8699999999998105, -1.6653381287556617 
1.8799999999998094, -1.6649152793758393 
1.8899999999998083, -1.6644498251267006 
1.8999999999998072, -1.6639666466122693 
1.909999999999806, -1.6635050537860683 
1.919999999999805, -1.6631062570954156 
1.9299999999998039, -1.6627915857731093 
1.9399999999998028, -1.6625495531015946 
1.9499999999998017, -1.6623456453035412 
1.9599999999998006, -1.6621438219288034 
1.9699999999997995, -1.6619199880298763 
1.9799999999997984, -1.661662904448886 
1.9899999999997973, -1.6613698733329443 
1.9999999999997962, -1.6610437641357862 
2.0099999999998173, -1.6606935050180307 
2.0199999999998384, -1.6603368605309448 
2.0299999999998595, -1.6600012179250807 
2.0399999999998806, -1.6597164401675133 
2.0499999999999017, -1.6594995783999018 
2.059999999999923, -1.6593430380764986 
2.069999999999944, -1.6592182412108016 
2.079999999999965, -1.6590907946986015 
2.089999999999986, -1.6589335237174812 
2.100000000000007, -1.6587308197795294 
2.1100000000000283, -1.6584769729197888 
2.1200000000000494, -1.658173181412175 
2.1300000000000705, -1.657825859923125 
2.1400000000000916, -1.6574466693198384 
2.1500000000001127, -1.6570531389732117 
2.160000000000134, -1.6566675894885932 
2.170000000000155, -1.656312097169846 
2.180000000000176, -1.6560001004830702 
2.190000000000197, -1.6557299165672235 
2.2000000000002182, -1.655485975778591 
2.2100000000002393, -1.6552468471478146 
2.2200000000002604, -1.6549931196700556 
2.2300000000002815, -1.6547105168287621 
2.2400000000003026, -1.65438938378899 
2.2500000000003237, -1.654024096590336 
2.260000000000345, -1.65361522352555 
2.270000000000366, -1.6531753683715897 
2.280000000000387, -1.6527356562986875 
2.290000000000408, -1.6523435133513307 
2.3000000000004293, -1.6520424661714448 
2.3100000000004504, -1.6518433511716075 
2.3200000000004715, -1.6517155679980893 
2.3300000000004926, -1.6516087161335655 
2.3400000000005137, -1.6514805533852879 
2.3500000000005348, -1.6513086965400923 
2.360000000000556, -1.6510873542468913 
2.370000000000577, -1.6508201058765255 
2.380000000000598, -1.6505152273808754 
2.390000000000619, -1.6501845074081178 
2.4000000000006403, -1.6498438131568445 
2.4100000000006614, -1.6495125150503398 
2.4200000000006825, -1.6492092280357666 
2.4300000000007036, -1.6489445846135307 
2.4400000000007247, -1.6487159960493525 
2.450000000000746, -1.6485088458887962 
2.460000000000767, -1.6483028656388778 
2.470000000000788, -1.6480786315459894 
2.480000000000809, -1.6478208421888465 
2.49000000000083, -1.6475187281409625 
2.5000000000008513, -1.6471657930272792 
2.5100000000008724, -1.6467608603182486 
2.5200000000008935, -1.6463112469428935 
2.5300000000009146, -1.6458369570057585 
2.5400000000009357, -1.6453717533965886 
2.550000000000957, -1.644955022152672 
2.560000000000978, -1.6446137219273063 
2.570000000000999, -1.644346805630607 
2.58000000000102, -1.644127602671242 
2.5900000000010412, -1.6439214910420756 
2.6000000000010624, -1.6437015126648427 
2.6100000000010835, -1.6434527209044603 
2.6200000000011046, -1.6431693170540445 
2.6300000000011257, -1.6428513378052307 
2.6400000000011468, -1.642504258470737 
2.650000000001168, -1.6421416240337727 
2.660000000001189, -1.641787843395311 
2.67000000000121, -1.641475152533771 
2.680000000001231, -1.6412303469960103 
2.6900000000012523, -1.6410580453660362 
2.7000000000012734, -1.6409361492973205 
2.7100000000012945, -1.6408283492312978 
2.7200000000013156, -1.6407011451984534 
2.7300000000013367, -1.6405329651351845 
2.740000000001358, -1.640314424349738 
2.750000000001379, -1.6400448639302359 
2.7600000000014, -1.6397293110773625 
2.770000000001421, -1.6393773045677207 
2.780000000001442, -1.6390031203811446 
2.7900000000014633, -1.6386257003745563 
2.8000000000014844, -1.6382660492192354 
2.8100000000015055, -1.6379411301693487 
2.8200000000015266, -1.6376568074141502 
2.8300000000015477, -1.6374050910209188 
2.840000000001569, -1.637168303549453 
2.85000000000159, -1.636926599082851 
2.860000000001611, -1.6366632271226436 
2.870000000001632, -1.6363657522436017 
2.8800000000016532, -1.6360253635230522 
2.8900000000016743, -1.6356372640372445 
2.9000000000016954, -1.6352041940919992 
2.9100000000017165, -1.6347430687598838 
2.9200000000017377, -1.6342901513350399 
2.9300000000017588, -1.6338946823574674 
2.94000000000178, -1.6335951533865853 
2.950000000001801, -1.6333934707712612 
2.960000000001822, -1.6332538651387438 
2.970000000001843, -1.6331277323048758 
2.9800000000018643, -1.6329780791237465 
2.9900000000018854, -1.6327868930552516 
3.0000000000019065, -1.6325504200993612 
3.0100000000019276, -1.632272595653511 
3.0200000000019487, -1.6319615234056521 
3.03000000000197, -1.6316291844476294 
3.040000000001991, -1.6312923517026074 
3.050000000002012, -1.6309715547762813 
3.060000000002033, -1.630685603507855 
3.070000000002054, -1.6304433417520194 
3.0800000000020753, -1.6302388097795724 
3.0900000000020964, -1.6300540540342165 
3.1000000000021175, -1.6298668298830439 
3.1100000000021386, -1.6296573339593379 
3.1200000000021597, -1.6294111061413186 
3.130000000002181, -1.629119085291863 
3.140000000002202, -1.628777097583646 
3.150000000002223, -1.6283864365744507 
3.160000000002244, -1.6279559931479466 
3.1700000000022652, -1.6275048363769387 
3.1800000000022863, -1.6270621141716806 
3.1900000000023074, -1.6266602161617687 
3.2000000000023285, -1.6263211584488775 
3.2100000000023496, -1.6260449316773282 
3.2200000000023707, -1.625810727939728 
3.230000000002392, -1.6255898685451684 
3.240000000002413, -1.6253582874707326 
3.250000000002434, -1.6251009291822824 
3.260000000002455, -1.6248101948871863 
3.2700000000024763, -1.6244836289106162 
3.2800000000024974, -1.6241240717649794 
3.2900000000025185, -1.6237429934488485 
3.3000000000025396, -1.6233647863812368 
3.3100000000025607, -1.6230256794009812 
3.3200000000025818, -1.6227604421653345 
3.330000000002603, -1.6225813336769228 
3.340000000002624, -1.6224680611904319 
3.350000000002645, -1.6223797879408302 
3.360000000002666, -1.622276631309602 
3.3700000000026873, -1.622132807622497 
3.3800000000027084, -1.6219377129290535 
3.3900000000027295, -1.6216912617704917 
3.4000000000027506, -1.6213993740049457 
3.4100000000027717, -1.6210717915302546 
3.420000000002793, -1.6207218571709638 
3.430000000002814, -1.6203665834700327 
3.440000000002835, -1.620024846744751 
3.450000000002856, -1.6197125665579848 
3.460000000002877, -1.619436647807492 
3.4700000000028983, -1.6191918715974751 
3.4800000000029194, -1.6189633478937826 
3.4900000000029405, -1.6187325187787835 
3.5000000000029616, -1.6184823100394135 
3.5100000000029827, -1.6181991380071488 
3.520000000003004, -1.617872770185738 
3.530000000003025, -1.6174963978187058 
3.540000000003046, -1.6170688963959439 
3.550000000003067, -1.6165999447257668 
3.5600000000030882, -1.6161158234466817 
3.5700000000031094, -1.61565912752948 
3.5800000000031305, -1.6152745158085378 
3.5900000000031516, -1.61498419038887 
3.6000000000031727, -1.6147739283680984 
3.6100000000031938, -1.61460456024597 
3.620000000003215, -1.6144360042275814 
3.630000000003236, -1.6142421578967827 
3.640000000003257, -1.6140117686178435 
3.650000000003278, -1.6137432090092108 
3.6600000000032993, -1.6134402195082411 
3.6700000000033204, -1.613110890084542 
3.6800000000033415, -1.6127691095054015 
3.6900000000033626, -1.6124357388413415 
3.7000000000033837, -1.6121354269448573 
3.710000000003405, -1.6118871634508913 
3.720000000003426, -1.6116937433682867 
3.730000000003447, -1.6115393481262816 
3.740000000003468, -1.6113974424020363 
3.750000000003489, -1.6112417104561025 
3.7600000000035103, -1.6110527616424335 
3.7700000000035314, -1.610819471941578 
3.7800000000035525, -1.61053762485716 
3.7900000000035736, -1.6102084876192027 
3.8000000000035947, -1.609838555724055 
3.810000000003616, -1.6094403688862997 
3.820000000003637, -1.6090330873325214 
3.830000000003658, -1.6086405197713982 
3.840000000003679, -1.6082847929209532 
3.8500000000037002, -1.6079773752412194 
3.8600000000037213, -1.607713603123429 
3.8700000000037424, -1.607475722474557 
3.8800000000037635, -1.6072417737519153 
3.8900000000037847, -1.6069930196303126 
3.9000000000038058, -1.6067162922046982 
3.910000000003827, -1.606403055455281 
3.920000000003848, -1.6060485850603938 
3.930000000003869, -1.605653675831563 
3.94000000000389, -1.6052295991094596 
3.9500000000039113, -1.6048038602613954 
3.9600000000039324, -1.604419190316861 
3.9700000000039535, -1.6041174756487995 
3.9800000000039746, -1.6039141954065255 
3.9900000000039957, -1.6037865920436538 
4.000000000004016, -1.6036888246802008 
4.010000000003993, -1.6035777398849054 
4.02000000000397, -1.6034272825142164 
4.030000000003946, -1.6032282333145638 
4.040000000003923, -1.6029819479262137 
4.0500000000039, -1.6026951364057893 
4.0600000000038765, -1.6023777504013146 
4.070000000003853, -1.6020431493755845 
4.08000000000383, -1.6017084316059698 
4.090000000003807, -1.6013923984172636 
4.100000000003783, -1.6011100717695943 
4.11000000000376, -1.6008663262232947 
4.120000000003737, -1.6006534460098458 
4.130000000003713, -1.6004545788172646 
4.14000000000369, -1.6002501109132719 
4.150000000003667, -1.6000226771023098 
4.1600000000036434, -1.5997591250419216 
4.17000000000362, -1.5994505194144417 
4.180000000003597, -1.5990921166233811 
4.1900000000035735, -1.5986846920714732 
4.20000000000355, -1.5982374957127603 
4.210000000003527, -1.597771402124604 
4.220000000003504, -1.5973185072963143 
4.23000000000348, -1.5969137324243712 
4.240000000003457, -1.5965793182917396 
4.250000000003434, -1.596312897166468 
4.26000000000341, -1.5960904631282378 
4.270000000003387, -1.5958811430028406 
4.280000000003364, -1.5956601842613787 
4.2900000000033405, -1.5954129212784425 
4.300000000003317, -1.595132657541809 
4.310000000003294, -1.5948178755466247 
4.320000000003271, -1.594471817780408 
4.330000000003247, -1.5941049968547114 
4.340000000003224, -1.5937387990607472 
4.350000000003201, -1.5934051310600021 
4.360000000003177, -1.5931362496746095 
4.370000000003154, -1.5929469888259296 
4.380000000003131, -1.5928237855544911 
4.390000000003107, -1.5927318357154538 
4.400000000003084, -1.5926331460727519 
4.410000000003061, -1.5925001821503115 
4.4200000000030375, -1.5923192404439193 
4.430000000003014, -1.5920874252126958 
4.440000000002991, -1.5918085486939382 
4.450000000002968, -1.5914906259270454 
4.460000000002944, -1.591145248416629 
4.470000000002921, -1.590787748219525 
4.480000000002898, -1.5904363198182452 
4.490000000002874, -1.5901085171818705 
4.500000000002851, -1.589815553993329 
4.510000000002828, -1.5895576362612591 
4.520000000002804, -1.589323929609329 
4.530000000002781, -1.589097262692137 
4.540000000002758, -1.588859903815883 
4.5500000000027345, -1.5885969345297428 
4.560000000002711, -1.588296824468389 
4.570000000002688, -1.5879510651982047 
4.580000000002665, -1.5875549981066066 
4.590000000002641, -1.5871111921154015 
4.600000000002618, -1.586635052529505 
4.610000000002595, -1.5861589385299795 
4.620000000002571, -1.5857272688190158 
4.630000000002548, -1.5853779954665217 
4.640000000002525, -1.5851205200600123 
4.6500000000025015, -1.584930664344291 
4.660000000002478, -1.584767868535174 
4.670000000002455, -1.5845966744292181 
4.6800000000024315, -1.584396310068092 
4.690000000002408, -1.5841589301926224 
4.700000000002385, -1.583884481012233 
4.710000000002362, -1.5835774001620435 
4.720000000002338, -1.5832463534728702 
4.730000000002315, -1.5829059216855224 
4.740000000002292, -1.5825774448434093 
4.750000000002268, -1.5822852144116812 
4.760000000002245, -1.582046835917826 
4.770000000002222, -1.5818633978314445 
4.7800000000021985, -1.5817180040496837 
4.790000000002175, -1.5815839455246452 
4.800000000002152, -1.5814352836303143 
4.810000000002129, -1.5812531735636504 
4.820000000002105, -1.5810270525159542 
4.830000000002082, -1.5807532400100044 
4.840000000002059, -1.5804334178291728 
4.850000000002035, -1.5800741464826717 
4.860000000002012, -1.5796873629870278 
4.870000000001989, -1.5792907582716138 
4.880000000001965, -1.5789061140486491 
4.890000000001942, -1.5785540461086427 
4.900000000001919, -1.5782463224812102 
4.9100000000018955, -1.5779805696934504 
4.920000000001872, -1.5777418856642942 
4.930000000001849, -1.5775100750043514 
