t, s[1].omega / s[0].omega 
0, -1.8299969501503974 
0.009999999999999995, -1.8296671383702072 
0.019999999999999934, -1.8292913973374465 
0.029999999999999874, -1.8288805168658395 
0.04000000000000012, -1.8284549670946966 
0.050000000000000405, -1.8280437718277185 
0.06000000000000069, -1.827675294097761 
0.07000000000000098, -1.8273621481059823 
0.08000000000000126, -1.82709336829408 
0.09000000000000155, -1.8268429525599899 
0.10000000000000184, -1.8265852934053932 
0.11000000000000212, -1.8263035644352137 
0.12000000000000241, -1.8259897472115216 
0.130000000000002, -1.8256428089363372 
0.1400000000000009, -1.8252698037396378 
0.1499999999999998, -1.8248899185511926 
0.1599999999999987, -1.8245355267246552 
0.1699999999999976, -1.8242408032569617 
0.1799999999999965, -1.8240193753179483 
0.1899999999999954, -1.823852369915111 
0.1999999999999943, -1.8237013018273003 
0.2099999999999932, -1.823530370559593 
0.2199999999999921, -1.8233180300645313 
0.229999999999991, -1.8230563480422848 
0.2399999999999899, -1.822746378498416 
0.2499999999999888, -1.8223951507561034 
0.2599999999999877, -1.8220153376985824 
0.2699999999999866, -1.8216258120429576 
0.2799999999999855, -1.8212496823443864 
0.2899999999999844, -1.820907157215347 
0.2999999999999833, -1.8206057329453276 
0.3099999999999822, -1.8203359196086653 
0.3199999999999811, -1.820077288462824 
0.32999999999998, -1.8198088228672955 
0.3399999999999789, -1.819514961119013 
0.3499999999999778, -1.8191862374990806 
0.35999999999997667, -1.8188189313481868 
0.36999999999997557, -1.8184177475270662 
0.37999999999997447, -1.8180020249550715 
0.38999999999997337, -1.8176092798865415 
0.39999999999997227, -1.8172836028294115 
0.40999999999997117, -1.8170471702734126 
0.41999999999997006, -1.8168811987005409 
0.42999999999996896, -1.8167401099193217 
0.43999999999996786, -1.8165811980660789 
0.44999999999996676, -1.8163803711742859 
0.45999999999996566, -1.8161306511064068 
0.46999999999996456, -1.8158352369388826 
0.47999999999996346, -1.8155029280675319 
0.48999999999996235, -1.8151469965961422 
0.49999999999996125, -1.8147851759794829 
0.5099999999999602, -1.8144373533518905 
0.519999999999959, -1.8141192331911107 
0.529999999999958, -1.8138349757128691 
0.5399999999999568, -1.8135749496585603 
0.5499999999999557, -1.8133208721430065 
0.5599999999999546, -1.8130535930196205 
0.5699999999999535, -1.812757745408834 
0.5799999999999524, -1.8124225406328105 
0.5899999999999513, -1.812041951987958 
0.5999999999999502, -1.811617718996962 
0.6099999999999491, -1.811166147265131 
0.619999999999948, -1.8107237794187783 
0.6299999999999469, -1.810339450968009 
0.6399999999999458, -1.810046305290582 
0.6499999999999447, -1.8098360068701578 
0.6599999999999436, -1.8096661515630335 
0.6699999999999425, -1.8094912611177758 
0.6799999999999414, -1.809283441528671 
0.6899999999999403, -1.8090331608056478 
0.6999999999999392, -1.8087421195319422 
0.7099999999999381, -1.8084180911223986 
0.719999999999937, -1.8080736627910299 
0.7299999999999359, -1.807726383599865 
0.7399999999999348, -1.8073962848399492 
0.7499999999999337, -1.8070987287572748 
0.7599999999999326, -1.8068364916386463 
0.7699999999999315, -1.806598115401614 
0.7799999999999304, -1.8063639063032604 
0.7899999999999293, -1.8061138564446977 
0.7999999999999282, -1.8058321309924579 
0.8099999999999271, -1.8055078157151931 
0.819999999999926, -1.8051348283844137 
0.8299999999999249, -1.8047138765078372 
0.8399999999999238, -1.8042574575267523 
0.8499999999999227, -1.8037949449920414 
0.8599999999999216, -1.803369132431572 
0.8699999999999205, -1.8030167208213235 
0.8799999999999194, -1.8027437469086425 
0.8899999999999183, -1.8025223312850307 
0.8999999999999172, -1.8023126892477919 
0.9099999999999161, -1.8020849697297874 
0.919999999999915, -1.8018249855824664 
0.9299999999999139, -1.801529935249037 
0.9399999999999128, -1.8012040357432688 
0.9499999999999117, -1.8008577321014279 
0.9599999999999106, -1.8005088816385222 
0.9699999999999095, -1.8001810837401675 
0.9799999999999084, -1.799894918767833 
0.9899999999999073, -1.7996558762255443 
0.9999999999999062, -1.799450215391366 
1.0099999999999052, -1.799252945635987 
1.019999999999904, -1.7990394171621258 
1.029999999999903, -1.7987918156545988 
1.039999999999902, -1.798499907298518 
1.0499999999999008, -1.7981597592822123 
1.0599999999998997, -1.7977735914769728 
1.0699999999998986, -1.797351795951473 
1.0799999999998975, -1.7969156370561925 
1.0899999999998964, -1.796496095137239 
1.0999999999998953, -1.7961236782925163 
1.1099999999998942, -1.7958119006648772 
1.119999999999893, -1.7955489355941203 
1.129999999999892, -1.7953070417935664 
1.1399999999998909, -1.79505919749946 
1.1499999999998898, -1.794788019568713 
1.1599999999998887, -1.7944855987851003 
1.1699999999998876, -1.794151024793105 
1.1799999999998865, -1.7937904914054712 
1.1899999999998854, -1.793420369172153 
1.1999999999998843, -1.793068724519533 
1.2099999999998832, -1.792767342432284 
1.219999999999882, -1.7925332256879738 
1.229999999999881, -1.7923551558671253 
1.2399999999998799, -1.7922005960028506 
1.2499999999998788, -1.7920347518127144 
1.2599999999998777, -1.7918336389654204 
1.2699999999998766, -1.7915860408136453 
1.2799999999998755, -1.7912901222337871 
1.2899999999998744, -1.7909503656458714 
1.2999999999998733, -1.790576804402458 
1.3099999999998722, -1.7901857235885548 
1.319999999999871, -1.789799115506201 
1.32999999999987, -1.7894396792414207 
1.3399999999998689, -1.7891213533565051 
1.3499999999998678, -1.7888417316925884 
1.3599999999998666, -1.7885838920812542 
1.3699999999998655, -1.7883260588033358 
1.3799999999998644, -1.7880500874279917 
1.3899999999998633, -1.7877440609395954 
1.3999999999998622, -1.7874016337336296 
1.4099999999998611, -1.7870226121080255 
1.41999999999986, -1.7866171458632194 
1.429999999999859, -1.7862115363358217 
1.4399999999998578, -1.7858468269210248 
1.4499999999998567, -1.7855602387832743 
1.4599999999998556, -1.7853582718011871 
1.4699999999998545, -1.7852102153270437 
1.4799999999998534, -1.78507029612152 
1.4899999999998523, -1.784902790604614 
1.4999999999998512, -1.7846904181338161 
1.5099999999998501, -1.784430132391084 
1.519999999999849, -1.7841269049938606 
1.529999999999848, -1.7837904606758872 
1.5399999999998468, -1.7834347943812372 
1.5499999999998457, -1.783077924093582 
1.5599999999998446, -1.7827388546074836 
1.5699999999998435, -1.7824309873503623 
1.5799999999998424, -1.7821557260858367 
1.5899999999998413, -1.7819017510636421 
1.5999999999998402, -1.781650735263111 
1.6099999999998391, -1.781384434199932 
1.619999999999838, -1.7810884263002258 
1.629999999999837, -1.7807525681728715 
1.6399999999998358, -1.780371276278295 
1.6499999999998347, -1.7799465825387895 
1.6599999999998336, -1.7794945837880316 
1.6699999999998325, -1.7790505701782071 
1.6799999999998314, -1.7786615599697033 
1.6899999999998303, -1.7783605159883706 
1.6999999999998292, -1.778141838526682 
1.709999999999828, -1.7779665768737096 
1.719999999999827, -1.7777907060383744 
1.729999999999826, -1.7775857249206566 
1.7399999999998248, -1.7773407626538487 
1.7499999999998237, -1.7770562427512373 
1.7599999999998226, -1.7767387583097256 
1.7699999999998215, -1.7763996443555814 
1.7799999999998204, -1.776055333903912 
1.7899999999998193, -1.7757257143303207 
1.7999999999998182, -1.7754277686537687 
1.809999999999817, -1.7751671571619219 
1.819999999999816, -1.7749348642263238 
1.8299999999998149, -1.774711976992058 
1.8399999999998138, -1.7744778313050815 
1.8499999999998127, -1.7742154998755164 
1.8599999999998116, -1.7739132269519462 
1.8699999999998105, -1.773564128995499 
1.8799999999998094, -1.7731669553237666 
1.8899999999998083, -1.7727293390519925 
1.8999999999998072, -1.7722723761115309 
1.909999999999806, -1.7718311964589897 
1.919999999999805, -1.7714439570823193 
1.9299999999998039, -1.7711306113562935 
1.9399999999998028, -1.7708797696006449 
1.9499999999998017, -1.7706586799464135 
1.9599999999998006, -1.7704345345792252 
1.9699999999997995, -1.7701867398531732 
1.9799999999997984, -1.7699068816148102 
1.9899999999997973, -1.7695946237579705 
1.9999999999997962, -1.769255716933035 
2.0099999999998173, -1.7689031400700874 
2.0199999999998384, -1.7685584067064568 
2.0299999999998595, -1.7682474293839132 
2.0399999999998806, -1.7679883796704914 
2.0499999999999017, -1.7677796212141565 
2.059999999999923, -1.7675999524912058 
2.069999999999944, -1.767420618597194 
2.079999999999965, -1.767217261424817 
2.089999999999986, -1.7669746433278708 
2.100000000000007, -1.7666858804919099 
2.1100000000000283, -1.766350511381729 
2.1200000000000494, -1.765973991533782 
2.1300000000000705, -1.7655689215375994 
2.1400000000000916, -1.7651562048749434 
2.1500000000001127, -1.764762482205888 
2.160000000000134, -1.7644110144139595 
2.170000000000155, -1.7641097052730874 
2.180000000000176, -1.7638467372578035 
2.190000000000197, -1.7635987412956453 
2.2000000000002182, -1.7633430829684553 
2.2100000000002393, -1.7630642954265912 
2.2200000000002604, -1.762754121187612 
2.2300000000002815, -1.762410154414339 
2.2400000000003026, -1.7620369801120632 
2.2500000000003237, -1.7616503627061604 
2.260000000000345, -1.7612802316455283 
2.270000000000366, -1.7609635353564148 
2.280000000000387, -1.7607236279762 
2.290000000000408, -1.7605521428463036 
2.3000000000004293, -1.760413866297564 
2.3100000000004504, -1.7602688855204476 
2.3200000000004715, -1.7600895952000122 
2.3300000000004926, -1.7598638311623833 
2.3400000000005137, -1.7595904925553754 
2.3500000000005348, -1.7592750116250262 
2.360000000000556, -1.7589274018666088 
2.370000000000577, -1.7585622323774097 
2.380000000000598, -1.7581981670236775 
2.390000000000619, -1.7578544396476954 
2.4000000000006403, -1.7575439605926153 
2.4100000000006614, -1.7572670967147357 
2.4200000000006825, -1.7570115633112344 
2.4300000000007036, -1.7567587355082055 
2.4400000000007247, -1.7564908009681957 
2.450000000000746, -1.7561941512801802 
2.460000000000767, -1.7558595478576957 
2.470000000000788, -1.7554823604394034 
2.480000000000809, -1.7550656818966643 
2.49000000000083, -1.7546266208331418 
2.5000000000008513, -1.7542007104427804 
2.5100000000008724, -1.7538334401057842 
2.5200000000008935, -1.7535546626244272 
2.5300000000009146, -1.7533560812850424 
2.5400000000009357, -1.7531978835339825 
2.550000000000957, -1.753036337859826 
2.560000000000978, -1.752843329771602 
2.570000000000999, -1.752608241868785 
2.58000000000102, -1.7523317102325873 
2.5900000000010412, -1.7520203722389671 
2.6000000000010624, -1.7516851059449734 
2.6100000000010835, -1.7513412206265393 
2.6200000000011046, -1.7510073808901498 
2.6300000000011257, -1.7507006233196702 
2.6400000000011468, -1.750428871771808 
2.650000000001168, -1.7501866841679221 
2.660000000001189, -1.7499580502098961 
2.67000000000121, -1.7497234543310516 
2.680000000001231, -1.749465675448737 
2.6900000000012523, -1.7491719378206283 
2.7000000000012734, -1.7488338852229302 
2.7100000000012945, -1.7484480565476275 
2.7200000000013156, -1.7480186847768118 
2.7300000000013367, -1.7475625269053912 
2.740000000001358, -1.7471115849216148 
2.750000000001379, -1.7467059127941345 
2.7600000000014, -1.746373740433241 
2.770000000001421, -1.7461131322748003 
2.780000000001442, -1.7458949519722355 
2.7900000000014633, -1.7456835246585236 
2.8000000000014844, -1.745453361662668 
2.8100000000015055, -1.7451924164860035 
2.8200000000015266, -1.7448981822342315 
2.8300000000015477, -1.74457428939097 
2.840000000001569, -1.744230275936241 
2.85000000000159, -1.7438831449761871 
2.860000000001611, -1.7435564202223506 
2.870000000001632, -1.7432722971533465 
2.8800000000016532, -1.7430392837924458 
2.8900000000016743, -1.7428460495391416 
2.9000000000016954, -1.7426677881795374 
2.9100000000017165, -1.74247829845226 
2.9200000000017377, -1.7422580364463283 
2.9300000000017588, -1.7419958366083352 
2.94000000000178, -1.7416874964919757 
2.950000000001801, -1.7413345632925636 
2.960000000001822, -1.7409447574938786 
2.970000000001843, -1.7405335264038073 
2.9800000000018643, -1.7401242603909122 
2.9900000000018854, -1.7397435053573738 
3.0000000000019065, -1.7394101798012145 
3.0100000000019276, -1.7391253158483113 
3.0200000000019487, -1.7388721447499644 
3.03000000000197, -1.738626684486873 
3.040000000001991, -1.7383684946571385 
3.050000000002012, -1.7380846062207282 
3.060000000002033, -1.7377685628938924 
3.070000000002054, -1.737419427909217 
3.0800000000020753, -1.7370436474919824 
3.0900000000020964, -1.7366593724313475 
3.1000000000021175, -1.7362981397409574 
3.1100000000021386, -1.7359954422507524 
3.1200000000021597, -1.73576980888297 
3.130000000002181, -1.7356081127337997 
3.140000000002202, -1.7354738346714895 
3.150000000002223, -1.7353288144304109 
3.160000000002244, -1.7351478981286335 
3.1700000000022652, -1.7349206621300794 
3.1800000000022863, -1.7346469131107192 
3.1900000000023074, -1.7343324856213442 
3.2000000000023285, -1.733987524484895 
3.2100000000023496, -1.73362647169225 
3.2200000000023707, -1.7332674968574042 
3.230000000002392, -1.7329289950967781 
3.240000000002413, -1.7326230672425726 
3.250000000002434, -1.7323498329825973 
3.260000000002455, -1.732097444738057 
3.2700000000024763, -1.7318479462675884 
3.2800000000024974, -1.7315839378030558 
3.2900000000025185, -1.731291854995072 
3.3000000000025396, -1.7309622128387112 
3.3100000000025607, -1.730589740995565 
3.3200000000025818, -1.7301760381973008 
3.330000000002603, -1.7297353419703838 
3.340000000002624, -1.7292995416191483 
3.350000000002645, -1.728912782496295 
3.360000000002666, -1.7286094089616817 
3.3700000000026873, -1.7283898076603965 
3.3800000000027084, -1.728220431973989 
3.3900000000027295, -1.7280579132040859 
3.4000000000027506, -1.7278709198300202 
3.4100000000027717, -1.7276453801912024 
3.420000000002793, -1.7273794953454467 
3.430000000002814, -1.727078175059609 
3.440000000002835, -1.7267506624728086 
3.450000000002856, -1.7264106413406641 
3.460000000002877, -1.7260760129182207 
3.4700000000028983, -1.7257652033128568 
3.4800000000029194, -1.7254898181284894 
3.4900000000029405, -1.7252485460829199 
3.5000000000029616, -1.7250277177028952 
3.5100000000029827, -1.7248077630792444 
3.520000000003004, -1.724570043535112 
3.530000000003025, -1.7243002814798143 
3.540000000003046, -1.7239889888735394 
3.550000000003067, -1.7236313047252996 
3.5600000000030882, -1.7232282879609133 
3.5700000000031094, -1.7227902463784641 
3.5800000000031305, -1.7223402124184588 
3.5900000000031516, -1.7219123527596991 
3.6000000000031727, -1.7215399512323306 
3.6100000000031938, -1.7212370601778768 
3.620000000003215, -1.720990062816029 
3.630000000003236, -1.7207684629243805 
3.640000000003257, -1.7205429244934254 
3.650000000003278, -1.7202949040733428 
3.6600000000032993, -1.7200163544975644 
3.6700000000033204, -1.7197063134029413 
3.6800000000033415, -1.7193693846485316 
3.6900000000033626, -1.7190171065226767 
3.7000000000033837, -1.7186698614579616 
3.710000000003405, -1.718354172340431 
3.720000000003426, -1.718091690197212 
3.730000000003447, -1.7178856635327482 
3.740000000003468, -1.7177177522052092 
3.750000000003489, -1.7175584959697385 
3.7600000000035103, -1.7173808259436434 
3.7700000000035314, -1.7171670083438293 
3.7800000000035525, -1.7169088053911186 
3.7900000000035736, -1.7166051156911615 
3.8000000000035947, -1.716260307568262 
3.810000000003616, -1.7158841875643542 
3.820000000003637, -1.7154927307704717 
3.830000000003658, -1.7151072698076455 
3.840000000003679, -1.7147495770497767 
3.8500000000037002, -1.7144331576074905 
3.8600000000037213, -1.714156365241075 
3.8700000000037424, -1.7139037835181772 
3.8800000000037635, -1.7136547373982847 
3.8900000000037847, -1.713391300770665 
3.9000000000038058, -1.7131011917080343 
3.910000000003827, -1.7127772085647788 
3.920000000003848, -1.7124169701102656 
3.930000000003869, -1.7120254475082786 
3.94000000000389, -1.7116201005605547 
3.9500000000039113, -1.7112337493833834 
3.9600000000039324, -1.7109060334031745 
3.9700000000039535, -1.7106612060986226 
3.9800000000039746, -1.71048979086146 
3.9900000000039957, -1.7103546648661083 
4.000000000004016, -1.710214586338306 
4.010000000003993, -1.7100417501886138 
4.02000000000397, -1.709824594434643 
4.030000000003946, -1.7095627834790172 
4.040000000003923, -1.7092621638001653 
4.0500000000039, -1.708932495638706 
4.0600000000038765, -1.7085872758076577 
4.070000000003853, -1.7082433871495941 
4.08000000000383, -1.7079181462044306 
4.090000000003807, -1.707623436234726 
4.100000000003783, -1.7073603076636377 
4.11000000000376, -1.7071184525402228 
4.120000000003737, -1.7068809941601966 
4.130000000003713, -1.706630575992758 
4.14000000000369, -1.7063529279080025 
4.150000000003667, -1.706037580288477 
4.1600000000036434, -1.7056778706683584 
4.17000000000362, -1.7052725529052153 
4.180000000003597, -1.7048300559957101 
4.1900000000035735, -1.7043736450023832 
4.20000000000355, -1.703941199787043 
4.210000000003527, -1.7035719650938002 
4.220000000003504, -1.7032838702706976 
4.23000000000348, -1.7030617101580359 
4.240000000003457, -1.702869423741158 
4.250000000003434, -1.7026723389113527 
4.26000000000341, -1.702449312449767 
4.270000000003387, -1.702192268483596 
4.280000000003364, -1.7019013900612499 
4.2900000000033405, -1.7015820233247634 
4.300000000003317, -1.7012445603612991 
4.310000000003294, -1.7009055144779943 
4.320000000003271, -1.700586108144686 
4.330000000003247, -1.7003053322020059 
4.340000000003224, -1.7000700637086805 
4.350000000003201, -1.699870496665237 
4.360000000003177, -1.6996852501546436 
4.370000000003154, -1.6994910177535847 
4.380000000003131, -1.6992694172344671 
4.390000000003107, -1.6990089443780274 
4.400000000003084, -1.6987042253020341 
4.410000000003061, -1.6983552408107923 
4.4200000000030375, -1.6979678810626737 
4.430000000003014, -1.6975556085911656 
4.440000000002991, -1.6971402478990438 
4.450000000002968, -1.6967484984155785 
4.460000000002944, -1.6964023154596486 
4.470000000002921, -1.696107783750734 
4.480000000002898, -1.6958521677806921 
4.490000000002874, -1.6956123362728053 
4.500000000002851, -1.695366243358557 
4.510000000002828, -1.695098791205497 
4.520000000002804, -1.6948017749060178 
4.530000000002781, -1.6944722783612192 
4.540000000002758, -1.694112988887479 
4.5500000000027345, -1.6937353484387567 
4.560000000002711, -1.693363125246859 
4.570000000002688, -1.6930298701540736 
4.580000000002665, -1.6927645636828377 
4.590000000002641, -1.6925725307718575 
4.600000000002618, -1.6924302526420683 
4.610000000002595, -1.692300043003573 
4.620000000002571, -1.69214911430244 
4.630000000002548, -1.691958496211705 
4.640000000002525, -1.6917218988595164 
4.6500000000025015, -1.6914412417960758 
4.660000000002478, -1.6911233874215224 
4.670000000002455, -1.6907790868298704 
4.6800000000024315, -1.6904230293970852 
4.690000000002408, -1.6900728632686568 
4.700000000002385, -1.689745350343717 
4.710000000002362, -1.6894502695395666 
4.720000000002338, -1.6891859195620214 
4.730000000002315, -1.6889400296539328 
4.740000000002292, -1.688695365930304 
4.750000000002268, -1.6884354972336744 
4.760000000002245, -1.6881474899525801 
4.770000000002222, -1.6878220748827524 
4.7800000000021985, -1.6874537839221357 
4.790000000002175, -1.6870432582020054 
4.800000000002152, -1.6866023117407696 
4.810000000002129, -1.6861588370043907 
4.820000000002105, -1.685753765237298 
4.830000000002082, -1.6854234846460372 
4.840000000002059, -1.6851767313021866 
4.850000000002035, -1.6849888108206552 
4.860000000002012, -1.6848197054278629 
4.870000000001989, -1.6846360956224018 
4.880000000001965, -1.684420112575212 
4.890000000001942, -1.6841666498271586 
4.900000000001919, -1.683878072073781 
4.9100000000018955, -1.6835612549202423 
4.920000000001872, -1.6832274007875943 
4.930000000001849, -1.682892641909382 
4.940000000001826, -1.682576245271362 
