t, s[1].omega / s[0].omega 
0, -2.8749956742717497 
0.009999999999999995, -2.8745139381078735 
0.019999999999999934, -2.8739456909258325 
0.029999999999999874, -2.8733441866718854 
0.04000000000000012, -2.872819588168524 
0.050000000000000405, -2.8724347821473866 
0.06000000000000069, -2.8721135634415362 
0.07000000000000098, -2.8717596858473784 
0.08000000000000126, -2.871342329596108 
0.09000000000000155, -2.8708743469520344 
0.10000000000000184, -2.8703936242479138 
0.11000000000000212, -2.869946381652227 
0.12000000000000241, -2.8695494695460386 
0.130000000000002, -2.8691740319542487 
0.1400000000000009, -2.8687733333403687 
0.1499999999999998, -2.868313201344095 
0.1599999999999987, -2.8677831718310176 
0.1699999999999976, -2.8672215596193578 
0.1799999999999965, -2.8667407929871023 
0.1899999999999954, -2.866419280461453 
0.1999999999999943, -2.8661746531385273 
0.2099999999999932, -2.8658868878645327 
0.2199999999999921, -2.8655069799704225 
0.229999999999991, -2.8650313310731437 
0.2399999999999899, -2.8644771502213655 
0.2499999999999888, -2.8638982075845223 
0.2599999999999877, -2.863390206481143 
0.2699999999999866, -2.8630005983681976 
0.2799999999999855, -2.8626617976736695 
0.2899999999999844, -2.8622920278738384 
0.2999999999999833, -2.861864593424133 
0.3099999999999822, -2.861393202714526 
0.3199999999999811, -2.8609190867837695 
0.32999999999998, -2.8604888741499845 
0.3399999999999789, -2.86010998746757 
0.3499999999999778, -2.8597442150488166 
0.35999999999997667, -2.859344023805369 
0.36999999999997557, -2.858876858814825 
0.37999999999997447, -2.8583318078240545 
0.38999999999997337, -2.8577479085362993 
0.39999999999997227, -2.8572475317821255 
0.40999999999997117, -2.8569230941329584 
0.41999999999997006, -2.8566883272474217 
0.42999999999996896, -2.8564114400848557 
0.43999999999996786, -2.8560414323494476 
0.44999999999996676, -2.8555790113841586 
0.45999999999996566, -2.8550455427586225 
0.46999999999996456, -2.854491310257489 
0.47999999999996346, -2.8539960802200683 
0.48999999999996235, -2.853598630492005 
0.49999999999996125, -2.853244366940075 
0.5099999999999602, -2.8528627880965063 
0.519999999999959, -2.8524278743421925 
0.529999999999958, -2.851952297160712 
0.5399999999999568, -2.8514805921776007 
0.5499999999999557, -2.851063438799124 
0.5599999999999546, -2.850702985246724 
0.5699999999999535, -2.8503518411521824 
0.5799999999999524, -2.8499595773665893 
0.5899999999999513, -2.8494939511939146 
0.5999999999999502, -2.848942187389393 
0.6099999999999491, -2.848337246285932 
0.619999999999948, -2.8478010869636403 
0.6299999999999469, -2.84744881172094 
0.6399999999999458, -2.847210194364625 
0.6499999999999447, -2.846942450098659 
0.6599999999999436, -2.8465854818890923 
0.6699999999999425, -2.84614029337397 
0.6799999999999414, -2.845630167035204 
0.6899999999999403, -2.845100488834958 
0.6999999999999392, -2.8446164952572364 
0.7099999999999381, -2.8442118191204044 
0.719999999999937, -2.8438454707441196 
0.7299999999999359, -2.843455972453717 
0.7399999999999348, -2.8430155948247853 
0.7499999999999337, -2.8425335334860824 
0.7599999999999326, -2.8420567188276182 
0.7699999999999315, -2.8416455392840985 
0.7799999999999304, -2.8413040643104965 
0.7899999999999293, -2.8409748012035814 
0.7999999999999282, -2.8406004716750206 
0.8099999999999271, -2.840148081193334 
0.819999999999926, -2.839603412223398 
0.8299999999999249, -2.8389887512676366 
0.8399999999999238, -2.8384108426852683 
0.8499999999999227, -2.838005064687671 
0.8599999999999216, -2.83774163790208 
0.8699999999999205, -2.837476282549086 
0.8799999999999194, -2.8371324428737976 
0.8899999999999183, -2.836705445460456 
0.8999999999999172, -2.8362178898475077 
0.9099999999999161, -2.835710641406715 
0.919999999999915, -2.835237660936508 
0.9299999999999139, -2.834828740417577 
0.9399999999999128, -2.834454670189478 
0.9499999999999117, -2.8340615145895613 
0.9599999999999106, -2.8336183182445454 
0.9699999999999095, -2.8331276616405328 
0.9799999999999084, -2.832635179702116 
0.9899999999999073, -2.832216288258748 
0.9999999999999062, -2.8318901713213305 
1.0099999999999052, -2.831590355074377 
1.019999999999904, -2.8312458292686755 
1.029999999999903, -2.8308202930419353 
1.039999999999902, -2.8302998735795075 
1.0499999999999008, -2.829696801167679 
1.0599999999998997, -2.82909057670095 
1.0699999999998986, -2.8286180737341082 
1.0799999999998975, -2.828305578817396 
1.0899999999998964, -2.828030052706816 
1.0999999999998953, -2.827696111918892 
1.1099999999998942, -2.827285956214232 
1.119999999999893, -2.8268178934094625 
1.129999999999892, -2.8263290165110027 
1.1399999999998909, -2.8258665430913448 
1.1499999999998898, -2.825457539503243 
1.1599999999998887, -2.82508121874845 
1.1699999999998876, -2.8246898000257366 
1.1799999999998865, -2.8242485408162126 
1.1899999999998854, -2.82375042195397 
1.1999999999998843, -2.82323202082975 
1.2099999999998832, -2.8227822276671493 
1.219999999999882, -2.822455250965143 
1.229999999999881, -2.822187227288155 
1.2399999999998799, -2.82188403251806 
1.2499999999998788, -2.821498690503158 
1.2599999999998777, -2.821018289315708 
1.2699999999998766, -2.8204500306679745 
1.2799999999998755, -2.819845182825506 
1.2899999999998744, -2.8193174990403778 
1.2999999999998733, -2.8189395022654624 
1.3099999999998722, -2.8186373590506397 
1.319999999999871, -2.8183068468929253 
1.32999999999987, -2.8179107854758842 
1.3399999999998689, -2.8174581734435273 
1.3499999999998678, -2.8169817875278693 
1.3599999999998666, -2.8165269960358152 
1.3699999999998655, -2.816121515768253 
1.3799999999998644, -2.815749549720552 
1.3899999999998633, -2.815367113941751 
1.3999999999998622, -2.8149358454417976 
1.4099999999998611, -2.8144381628245694 
1.41999999999986, -2.8138926015975816 
1.429999999999859, -2.8133850564964638 
1.4399999999998578, -2.8130185857682286 
1.4499999999998567, -2.8127665912187463 
1.4599999999998556, -2.812509885054469 
1.4699999999998545, -2.8121751280213028 
1.4799999999998534, -2.8117453480273067 
1.4899999999998523, -2.8112274341873116 
1.4999999999998512, -2.8106536963156534 
1.5099999999998501, -2.810103409041913 
1.519999999999849, -2.809663538138147 
1.529999999999848, -2.809320589003149 
1.5399999999998468, -2.8089845967720137 
1.5499999999998457, -2.808599239553279 
1.5599999999998446, -2.8081586094731352 
1.5699999999998435, -2.807687928437507 
1.5799999999998424, -2.807233548220161 
1.5899999999998413, -2.80683122960873 
1.5999999999998402, -2.8064702344873416 
1.6099999999998391, -2.8061062395930234 
1.619999999999838, -2.8056965573213573 
1.629999999999837, -2.805214979669634 
1.6399999999998358, -2.8046594347745817 
1.6499999999998347, -2.8040872296645327 
1.6599999999998336, -2.8036282960019916 
1.6699999999998325, -2.80334062115477 
1.6799999999998314, -2.8031146154244615 
1.6899999999998303, -2.802832940011542 
1.6999999999998292, -2.802458177135172 
1.709999999999828, -2.801995514378725 
1.719999999999827, -2.801468816687423 
1.729999999999826, -2.8009295970935972 
1.7399999999998248, -2.8004517852534927 
1.7499999999998237, -2.800064619637099 
1.7599999999998226, -2.799714242955613 
1.7699999999998215, -2.799336113005061 
1.7799999999998204, -2.7989061346823036 
1.7899999999998193, -2.7984362046390445 
1.7999999999998182, -2.797970256909991 
1.809999999999817, -2.797560802358982 
1.819999999999816, -2.7972125265078303 
1.8299999999998149, -2.7968775822391807 
1.8399999999998138, -2.7965039617183534 
1.8499999999998127, -2.796058532276842 
1.8599999999998116, -2.7955256964929034 
1.8699999999998105, -2.7949249650543067 
1.8799999999998094, -2.794356983373407 
1.8899999999998083, -2.7939562139337815 
1.8999999999998072, -2.793703666210593 
1.909999999999806, -2.79345765264155 
1.919999999999805, -2.793134634874536 
1.9299999999998039, -2.792724718045481 
1.9399999999998028, -2.792246626483333 
1.9499999999998017, -2.7917367324319695 
1.9599999999998006, -2.7912498831246864 
1.9699999999997995, -2.7908294539043643 
1.9799999999997984, -2.790460153573137 
1.9899999999997973, -2.7900864096071163 
1.9999999999997962, -2.7896688504429616 
2.0099999999998173, -2.7892009853272732 
2.0199999999998384, -2.78871301697218 
2.0299999999998595, -2.788271552001127 
2.0399999999998806, -2.787919881350992 
2.0499999999999017, -2.7876187861354635 
2.059999999999923, -2.787296764979417 
2.069999999999944, -2.786907441552258 
2.079999999999965, -2.7864293837025014 
2.089999999999986, -2.7858602246648796 
2.100000000000007, -2.7852451981748585 
2.1100000000000283, -2.7847080541236813 
2.1200000000000494, -2.7843447505096703 
2.1300000000000705, -2.784081241590104 
2.1400000000000916, -2.7837919816245558 
2.1500000000001127, -2.783427434909883 
2.160000000000134, -2.782992483462831 
2.170000000000155, -2.7825142113527845 
2.180000000000176, -2.782035477700946 
2.190000000000197, -2.781599337016081 
2.2000000000002182, -2.7812144339576674 
2.2100000000002393, -2.780844413756347 
2.2200000000002604, -2.780443882466277 
2.2300000000002815, -2.7799883387821396 
2.2400000000003026, -2.7794834292668193 
2.2500000000003237, -2.778983855807879 
2.260000000000345, -2.7785790393770884 
2.270000000000366, -2.778286739562154 
2.280000000000387, -2.778023052630777 
2.290000000000408, -2.7777071635414883 
2.3000000000004293, -2.777305101354611 
2.3100000000004504, -2.776809309021706 
2.3200000000004715, -2.776233546541946 
2.3300000000004926, -2.7756412149367975 
2.3400000000005137, -2.7751462685456887 
2.3500000000005348, -2.774793959907058 
2.360000000000556, -2.7744966097291717 
2.370000000000577, -2.7741621664723537 
2.380000000000598, -2.773763338975506 
2.390000000000619, -2.7733123731201488 
2.4000000000006403, -2.772843462111947 
2.4100000000006614, -2.7724008967871705 
2.4200000000006825, -2.772007796142703 
2.4300000000007036, -2.7716446466218456 
2.4400000000007247, -2.7712678778347817 
2.450000000000746, -2.770840858682491 
2.460000000000767, -2.7703463296843562 
2.470000000000788, -2.7698011244144927 
2.480000000000809, -2.769288656372324 
2.49000000000083, -2.768916965311752 
2.5000000000008513, -2.768670557729057 
2.5100000000008724, -2.7684300123051986 
2.5200000000008935, -2.768115490921158 
2.5300000000009146, -2.7677075753180085 
2.5400000000009357, -2.7672129177294513 
2.550000000000957, -2.7666590992347535 
2.560000000000978, -2.7661125977040264 
2.570000000000999, -2.7656572024309574 
2.58000000000102, -2.7653013118248486 
2.5900000000010412, -2.764968760028433 
2.6000000000010624, -2.764596861006658 
2.6100000000010835, -2.764170643605581 
2.6200000000011046, -2.7637080732245916 
2.6300000000011257, -2.7632524888123235 
2.6400000000011468, -2.762847539096605 
2.650000000001168, -2.7624935711924623 
2.660000000001189, -2.762148893051539 
2.67000000000121, -2.7617673557901448 
2.680000000001231, -2.761317930864432 
2.6900000000012523, -2.760787333546179 
2.7000000000012734, -2.7602019827193844 
2.7100000000012945, -2.759668459762584 
2.7200000000013156, -2.7593056802109706 
2.7300000000013367, -2.759073500949029 
2.740000000001358, -2.758834341155906 
2.750000000001379, -2.7585140221564415 
2.7600000000014, -2.7581044490247555 
2.770000000001421, -2.7576226781328317 
2.780000000001442, -2.7571039129021404 
2.7900000000014633, -2.756606545895731 
2.8000000000014844, -2.756182465309776 
2.8100000000015055, -2.7558202762064083 
2.8200000000015266, -2.755460306630694 
2.8300000000015477, -2.7550590299577005 
2.840000000001569, -2.7546078460991468 
2.85000000000159, -2.7541315553324988 
2.860000000001611, -2.753687566490931 
2.870000000001632, -2.753321184389549 
2.8800000000016532, -2.75300896152586 
2.8900000000016743, -2.7526882442491654 
2.9000000000016954, -2.7523109180575025 
2.9100000000017165, -2.7518513966360763 
2.9200000000017377, -2.75130144392913 
2.9300000000017588, -2.750693134557183 
2.94000000000178, -2.7501380662925525 
2.950000000001801, -2.749753687510228 
2.960000000001822, -2.749497308124858 
2.970000000001843, -2.749235784405376 
2.9800000000018643, -2.7489009481894113 
2.9900000000018854, -2.7484889635774303 
3.0000000000019065, -2.748021453448664 
3.0100000000019276, -2.747536257154287 
3.0200000000019487, -2.7470807909141817 
3.03000000000197, -2.74668177336795 
3.040000000001991, -2.7463172092495074 
3.050000000002012, -2.7459391669543907 
3.060000000002033, -2.7455140778617584 
3.070000000002054, -2.7450354173919296 
3.0800000000020753, -2.744535021176631 
3.0900000000020964, -2.7440908733616656 
3.1000000000021175, -2.7437589023660447 
3.1100000000021386, -2.743493001065449 
3.1200000000021597, -2.7432060209763227 
3.130000000002181, -2.7428465663500385 
3.140000000002202, -2.742396795512948 
3.150000000002223, -2.7418570778750606 
3.160000000002244, -2.7412612579646765 
3.1700000000022652, -2.7407055828870357 
3.1800000000022863, -2.740290696572888 
3.1900000000023074, -2.7399891286206435 
3.2000000000023285, -2.739691712267203 
3.2100000000023496, -2.7393367418271355 
3.2200000000023707, -2.738918791246245 
3.230000000002392, -2.738459956280762 
3.240000000002413, -2.7379999288122594 
3.250000000002434, -2.737578539433766 
3.260000000002455, -2.7372040431338975 
3.2700000000024763, -2.7368454486330274 
3.2800000000024974, -2.736459697078078 
3.2900000000025185, -2.7360167164045066 
3.3000000000025396, -2.7355078915178295 
3.3100000000025607, -2.7349671615105176 
3.3200000000025818, -2.7344942315619405 
3.330000000002603, -2.7341720998136783 
3.340000000002624, -2.7339438477425224 
3.350000000002645, -2.733693507009004 
3.360000000002666, -2.7333613371875702 
3.3700000000026873, -2.7329371254901997 
3.3800000000027084, -2.7324312024435264 
3.3900000000027295, -2.731877294826379 
3.4000000000027506, -2.731348076654161 
3.4100000000027717, -2.7309182237499723 
3.420000000002793, -2.7305765017283994 
3.430000000002814, -2.7302445926526118 
3.440000000002835, -2.7298690422005714 
3.450000000002856, -2.7294407325909447 
3.460000000002877, -2.7289807980312966 
3.4700000000028983, -2.7285341440031474 
3.4800000000029194, -2.728141350188946 
3.4900000000029405, -2.7277973092387273 
3.5000000000029616, -2.7274583866743116 
3.5100000000029827, -2.727079763155895 
3.520000000003004, -2.726631979644314 
3.530000000003025, -2.7261026323937765 
3.540000000003046, -2.725518173390717 
3.550000000003067, -2.724983374021212 
3.5600000000030882, -2.7246172936991115 
3.5700000000031094, -2.724385692766958 
3.5800000000031305, -2.7241532064314367 
3.5900000000031516, -2.723843062334518 
3.6000000000031727, -2.7234454456400696 
3.6100000000031938, -2.7229767279732733 
3.620000000003215, -2.7224699068943035 
3.630000000003236, -2.7219785407108836 
3.640000000003257, -2.7215529863756394 
3.650000000003278, -2.7211892937444815 
3.6600000000032993, -2.7208338337245808 
3.6700000000033204, -2.7204413687000373 
3.6800000000033415, -2.7199984444815186 
3.6900000000033626, -2.7195235826375153 
3.7000000000033837, -2.719071303223507 
3.710000000003405, -2.7186977310986835 
3.720000000003426, -2.718392887669999 
3.730000000003447, -2.7180930000896 
3.740000000003468, -2.717743170449078 
3.750000000003489, -2.717314507123228 
3.7600000000035103, -2.7167952428609263 
3.7700000000035314, -2.716201340925136 
3.7800000000035525, -2.7156153533324 
3.7900000000035736, -2.7151661299802057 
3.8000000000035947, -2.7148733336444613 
3.810000000003616, -2.714620147450988 
3.820000000003637, -2.7143129496354934 
3.830000000003658, -2.7139306401996675 
3.840000000003679, -2.7134875493564956 
3.8500000000037002, -2.7130152044996576 
3.8600000000037213, -2.7125572980233157 
3.8700000000037424, -2.7121479656506575 
3.8800000000037635, -2.7117818008511603 
3.8900000000037847, -2.711418024723092 
3.9000000000038058, -2.711016599216355 
3.910000000003827, -2.710558433539679 
3.920000000003848, -2.7100539584990866 
3.930000000003869, -2.709563690329848 
3.94000000000389, -2.70917724191346 
3.9500000000039113, -2.708905203384824 
3.9600000000039324, -2.7086598166921116 
3.9700000000039535, -2.7083609780370312 
3.9800000000039746, -2.707976680759813 
3.9900000000039957, -2.707501600804554 
4.000000000004016, -2.706949058370429 
4.010000000003993, -2.706372274446959 
4.02000000000397, -2.705870412693965 
4.030000000003946, -2.7054995671302686 
4.040000000003923, -2.7051972850976904 
4.0500000000039, -2.704874174119029 
4.0600000000038765, -2.704493749039037 
4.070000000003853, -2.704060738198526 
4.08000000000383, -2.703603763352934 
4.090000000003807, -2.7031663732103057 
4.100000000003783, -2.7027784173927167 
4.11000000000376, -2.702428504617551 
4.120000000003737, -2.702076019996887 
4.130000000003713, -2.701681291771525 
4.14000000000369, -2.7012194626584187 
4.150000000003667, -2.700686966564668 
4.1600000000036434, -2.7001303519684074 
4.17000000000362, -2.699665172205279 
4.180000000003597, -2.6993665264734963 
4.1900000000035735, -2.699154591318432 
4.20000000000355, -2.6989089837475992 
4.210000000003527, -2.6985777851954493 
4.220000000003504, -2.6981583938206586 
4.23000000000348, -2.6976673878491653 
4.240000000003457, -2.6971414683238057 
4.250000000003434, -2.69664412212171 
4.26000000000341, -2.696229796331258 
4.270000000003387, -2.6958824239323715 
4.280000000003364, -2.6955377735027843 
4.2900000000033405, -2.6951517965263547 
4.300000000003317, -2.694716336454438 
4.310000000003294, -2.6942535178461147 
4.320000000003271, -2.693813853065234 
4.330000000003247, -2.6934417477302675 
4.340000000003224, -2.6931249053178563 
4.350000000003201, -2.692809590179691 
4.360000000003177, -2.6924479140603053 
4.370000000003154, -2.6920115842662353 
4.380000000003131, -2.6914879751744425 
4.390000000003107, -2.6908959265073973 
4.400000000003084, -2.690326100630232 
4.410000000003061, -2.68990732648365 
4.4200000000030375, -2.6896433635649784 
4.430000000003014, -2.6894086420391927 
4.440000000002991, -2.6891121521687715 
4.450000000002968, -2.6887355109507194 
4.460000000002944, -2.688293269234874 
4.470000000002921, -2.6878157538975658 
4.480000000002898, -2.687347407010891 
4.490000000002874, -2.6869287142209104 
4.500000000002851, -2.6865612588372603 
4.510000000002828, -2.6862046118346936 
4.520000000002804, -2.6858158316031253 
4.530000000002781, -2.685374445696713 
4.540000000002758, -2.6848884328321088 
4.5500000000027345, -2.6844088379653526 
4.560000000002711, -2.6840151496439386 
4.570000000002688, -2.6837264314766385 
4.580000000002665, -2.683471644224049 
4.590000000002641, -2.6831746050648304 
4.600000000002618, -2.68279868656549 
4.610000000002595, -2.6823329102660205 
4.620000000002571, -2.6817839127195104 
4.630000000002548, -2.681197130779471 
4.640000000002525, -2.6806738347078136 
4.6500000000025015, -2.68029172580541 
4.660000000002478, -2.680001342434865 
4.670000000002455, -2.6797019786186427 
4.6800000000024315, -2.6793447758474773 
4.690000000002408, -2.6789287389073233 
4.700000000002385, -2.6784771448028057 
4.710000000002362, -2.6780296956740317 
4.720000000002338, -2.6776234449475673 
4.730000000002315, -2.677262524272037 
4.740000000002292, -2.676914842761489 
4.750000000002268, -2.676538895597216 
4.760000000002245, -2.6761052778373715 
4.770000000002222, -2.6756031528243867 
4.7800000000021985, -2.6750591438840186 
4.790000000002175, -2.6745664040925963 
4.800000000002152, -2.674224272671454 
4.810000000002129, -2.674000940751725 
4.820000000002105, -2.673777227873849 
4.830000000002082, -2.673479371363372 
4.840000000002059, -2.6730916049719435 
4.850000000002035, -2.67262286147637 
4.860000000002012, -2.6720992988592487 
4.870000000001989, -2.6715760185823725 
4.880000000001965, -2.6711234949994123 
4.890000000001942, -2.6707604469855317 
4.900000000001919, -2.6704308838907074 
4.9100000000018955, -2.6700743122120825 
4.920000000001872, -2.6696676714702883 
4.930000000001849, -2.6692195171070705 
4.940000000001826, -2.6687666069149394 
4.950000000001802, -2.6683603534312708 
4.960000000001779, -2.6680192320635814 
4.970000000001756, -2.6677077297941225 
