t, s[1].omega / s[0].omega 
0, -1.7599970156739204 
0.009999999999999995, -1.7596781321407036 
0.019999999999999934, -1.7593214950244604 
0.029999999999999874, -1.7589359493069672 
0.04000000000000012, -1.758537568502263 
0.050000000000000405, -1.7581485784706348 
0.06000000000000069, -1.7577911619324962 
0.07000000000000098, -1.7574772701399037 
0.08000000000000126, -1.7572020335021903 
0.09000000000000155, -1.7569474833805159 
0.10000000000000184, -1.7566928584894967 
0.11000000000000212, -1.7564222960041973 
0.12000000000000241, -1.756126577167843 
0.130000000000002, -1.755802049584409 
0.1400000000000009, -1.7554505340307105 
0.1499999999999998, -1.7550816831326164 
0.1599999999999987, -1.7547159301816406 
0.1699999999999976, -1.7543822846973647 
0.1799999999999965, -1.7541058072561708 
0.1899999999999954, -1.7538909357767434 
0.1999999999999943, -1.7537171447585813 
0.2099999999999932, -1.7535519463862363 
0.2199999999999921, -1.753367341578684 
0.229999999999991, -1.7531472468918998 
0.2399999999999899, -1.7528864147758951 
0.2499999999999888, -1.7525867959590073 
0.2599999999999877, -1.7522551253326555 
0.2699999999999866, -1.7519023349552794 
0.2799999999999855, -1.751543430487843 
0.2899999999999844, -1.7511956071046566 
0.2999999999999833, -1.7508732834527467 
0.3099999999999822, -1.7505819273044232 
0.3199999999999811, -1.750315339042014 
0.32999999999998, -1.7500590011189363 
0.3399999999999789, -1.7497965285542605 
0.3499999999999778, -1.7495142934719865 
0.35999999999997667, -1.7492027102515757 
0.36999999999997557, -1.7488561981190187 
0.37999999999997447, -1.7484744712659581 
0.38999999999997337, -1.7480664069789245 
0.39999999999997227, -1.7476545841687792 
0.40999999999997117, -1.7472738046654832 
0.41999999999997006, -1.746956602113276 
0.42999999999996896, -1.7467120643313063 
0.43999999999996786, -1.7465189047752592 
0.44999999999996676, -1.7463409380298962 
0.45999999999996566, -1.7461475063774958 
0.46999999999996456, -1.7459221480317932 
0.47999999999996346, -1.7456604700979164 
0.48999999999996235, -1.7453653402128915 
0.49999999999996125, -1.7450440500652906 
0.5099999999999602, -1.7447077908748867 
0.519999999999959, -1.7443714840911695 
0.529999999999958, -1.7440513339673551 
0.5399999999999568, -1.743759213242488 
0.5499999999999557, -1.7434969586055122 
0.5599999999999546, -1.7432553179804173 
0.5699999999999535, -1.7430183897256355 
0.5799999999999524, -1.7427696422543506 
0.5899999999999513, -1.7424956560370561 
0.5999999999999502, -1.7421870936529906 
0.6099999999999491, -1.7418387690348058 
0.619999999999948, -1.7414508140807592 
0.6299999999999469, -1.7410317096160397 
0.6399999999999458, -1.7406016083904141 
0.6499999999999447, -1.7401911508699854 
0.6599999999999436, -1.7398306391011125 
0.6699999999999425, -1.7395331146702457 
0.6799999999999414, -1.7392863068221227 
0.6899999999999403, -1.7390623013189437 
0.6999999999999392, -1.738834155370223 
0.7099999999999381, -1.7385849787557823 
0.719999999999937, -1.7383078263495928 
0.7299999999999359, -1.7380025241172359 
0.7399999999999348, -1.7376739667754613 
0.7499999999999337, -1.737332697058574 
0.7599999999999326, -1.736995719410439 
0.7699999999999315, -1.7366836960320473 
0.7799999999999304, -1.736412453211754 
0.7899999999999293, -1.736183577764903 
0.7999999999999282, -1.7359827847734806 
0.8099999999999271, -1.7357875748360816 
0.819999999999926, -1.7355768023387426 
0.8299999999999249, -1.7353357991345646 
0.8399999999999238, -1.735056894944401 
0.8499999999999227, -1.7347382276626875 
0.8599999999999216, -1.7343831447310467 
0.8699999999999205, -1.7340008467262542 
0.8799999999999194, -1.7336072796620066 
0.8899999999999183, -1.733223808072489 
0.8999999999999172, -1.7328712276001283 
0.9099999999999161, -1.7325604472765168 
0.919999999999915, -1.7322866952292006 
0.9299999999999139, -1.732033003259596 
0.9399999999999128, -1.731779584650146 
0.9499999999999117, -1.7315109640653983 
0.9599999999999106, -1.7312177582294939 
0.9699999999999095, -1.7308957685940514 
0.9799999999999084, -1.7305458744281086 
0.9899999999999073, -1.730176280667062 
0.9999999999999062, -1.729805763757637 
1.0099999999999052, -1.7294627881922362 
1.019999999999904, -1.7291747127866892 
1.029999999999903, -1.7289507586750925 
1.039999999999902, -1.7287744249932533 
1.0499999999999008, -1.7286139111339096 
1.0599999999998997, -1.728439265280111 
1.0699999999998986, -1.7282319509332773 
1.0799999999998975, -1.727984976132048 
1.0899999999998964, -1.7276992398819018 
1.0999999999998953, -1.727380579254304 
1.1099999999998942, -1.7270387198994985 
1.119999999999893, -1.7266871671213277 
1.129999999999892, -1.726342038414644 
1.1399999999998909, -1.7260182129245838 
1.1499999999998898, -1.7257236362887156 
1.1599999999998887, -1.7254555652909307 
1.1699999999998876, -1.7252020256412837 
1.1799999999998865, -1.724947258294908 
1.1899999999998854, -1.7246768114848865 
1.1999999999998843, -1.7243797134496854 
1.2099999999998832, -1.7240486406773883 
1.219999999999882, -1.7236804578408627 
1.229999999999881, -1.7232788908078764 
1.2399999999998799, -1.722859076856651 
1.2499999999998788, -1.722449940515406 
1.2599999999998777, -1.7220870184364425 
1.2699999999998766, -1.7217938521416554 
1.2799999999998755, -1.7215658897639794 
1.2899999999998744, -1.721374255854887 
1.2999999999998733, -1.721184960340033 
1.3099999999998722, -1.7209741696562362 
1.319999999999871, -1.720731236610255 
1.32999999999987, -1.7204549080426754 
1.3399999999998689, -1.7201494423265682 
1.3499999999998678, -1.7198231194161533 
1.3599999999998666, -1.719488391597504 
1.3699999999998655, -1.7191612695695575 
1.3799999999998644, -1.7188575091608622 
1.3899999999998633, -1.7185860391444585 
1.3999999999998622, -1.7183441858680237 
1.4099999999998611, -1.7181188943781909 
1.41999999999986, -1.7178926462956547 
1.429999999999859, -1.7176492613627399 
1.4399999999998578, -1.7173766970061606 
1.4499999999998567, -1.7170674223597657 
1.4599999999998556, -1.7167183854599273 
1.4699999999998545, -1.7163321087094694 
1.4799999999998534, -1.715919100634403 
1.4899999999998523, -1.7154997581241507 
1.4999999999998512, -1.71510178298496 
1.5099999999998501, -1.7147500635754365 
1.519999999999849, -1.7144534043452087 
1.529999999999848, -1.7141997400740803 
1.5399999999998468, -1.713964917528695 
1.5499999999998457, -1.7137258767057209 
1.5599999999998446, -1.7134676429822366 
1.5699999999998435, -1.7131833062504431 
1.5799999999998424, -1.71287178288511 
1.5899999999998413, -1.7125369923005405 
1.5999999999998402, -1.712189179193219 
1.6099999999998391, -1.711846397168171 
1.619999999999838, -1.711531887894609 
1.629999999999837, -1.7112645000448787 
1.6399999999998358, -1.711047150640575 
1.6499999999998347, -1.7108640197201859 
1.6599999999998336, -1.7106893742744407 
1.6699999999998325, -1.7104993060847455 
1.6799999999998314, -1.710278063140707 
1.6899999999998303, -1.710018442292542 
1.6999999999998292, -1.7097197825001196 
1.709999999999828, -1.7093863848037878 
1.719999999999827, -1.7090272165077554 
1.729999999999826, -1.7086561598881835 
1.7399999999998248, -1.7082909595760758 
1.7499999999998237, -1.7079490466480807 
1.7599999999998226, -1.7076408035300497 
1.7699999999998215, -1.7073645590415605 
1.7799999999998204, -1.7071077956148255 
1.7899999999998193, -1.7068535902305553 
1.7999999999998182, -1.7065868191096143 
1.809999999999817, -1.7062966914536406 
1.819999999999816, -1.7059766379719332 
1.8299999999998149, -1.705624320451084 
1.8399999999998138, -1.7052437092206454 
1.8499999999998127, -1.704849103816894 
1.8599999999998116, -1.7044674038105216 
1.8699999999998105, -1.7041317189412424 
1.8799999999998094, -1.7038641732502005 
1.8899999999998083, -1.7036603673935002 
1.8999999999998072, -1.7034920050976012 
1.909999999999806, -1.7033247822549291 
1.919999999999805, -1.7031337438921959 
1.9299999999998039, -1.7029072114403558 
1.9399999999998028, -1.7026434759175806 
1.9499999999998017, -1.7023466889834917 
1.9599999999998006, -1.7020247756698357 
1.9699999999997995, -1.7016891171142752 
1.9799999999997984, -1.701354210239446 
1.9899999999997973, -1.701035215075437 
1.9999999999997962, -1.7007429485046088 
2.0099999999998173, -1.7004790386527702 
2.0199999999998384, -1.7002350837974038 
2.0299999999998595, -1.6999964920360022 
2.0399999999998806, -1.699747794644185 
2.0499999999999017, -1.699476092137036 
2.059999999999923, -1.6991720519145705 
2.069999999999944, -1.6988300230752813 
2.079999999999965, -1.6984490902557319 
2.089999999999986, -1.6980359075619025 
2.100000000000007, -1.6976081693708942 
2.1100000000000283, -1.6971946122085897 
2.1200000000000494, -1.696826338386445 
2.1300000000000705, -1.6965207928292894 
2.1400000000000916, -1.6962710914013244 
2.1500000000001127, -1.6960518259452357 
2.160000000000134, -1.695834891027666 
2.170000000000155, -1.6956006789970839 
2.180000000000176, -1.695339867615393 
2.190000000000197, -1.695050542679739 
2.2000000000002182, -1.694735729968189 
2.2100000000002393, -1.6944031240357993 
2.2200000000002604, -1.6940661122436338 
2.2300000000002815, -1.6937432576807545 
2.2400000000003026, -1.6934531296943878 
2.2500000000003237, -1.6932053188623843 
2.260000000000345, -1.6929943659580122 
2.270000000000366, -1.6928023571309225 
2.280000000000387, -1.6926075129464049 
2.290000000000408, -1.6923916749630354 
2.3000000000004293, -1.6921432527067861 
2.3100000000004504, -1.6918569043151006 
2.3200000000004715, -1.6915324859688017 
2.3300000000004926, -1.6911748079732507 
2.3400000000005137, -1.6907943244125196 
2.3500000000005348, -1.6904075332952158 
2.360000000000556, -1.6900348424775777 
2.370000000000577, -1.6896943498140942 
2.380000000000598, -1.6893937566354225 
2.390000000000619, -1.6891265632895116 
2.4000000000006403, -1.6888762619065738 
2.4100000000006614, -1.6886246121011834 
2.4200000000006825, -1.6883574094957683 
2.4300000000007036, -1.6880657671883221 
2.4400000000007247, -1.687745322972909 
2.450000000000746, -1.6873962739860144 
2.460000000000767, -1.6870255928769755 
2.470000000000788, -1.6866503966556468 
2.480000000000809, -1.686298065755143 
2.49000000000083, -1.6859973472667267 
2.5000000000008513, -1.6857619656249736 
2.5100000000008724, -1.6855804220947843 
2.5200000000008935, -1.685422997581896 
2.5300000000009146, -1.6852584752099673 
2.5400000000009357, -1.6850657281364625 
2.550000000000957, -1.6848355587372574 
2.560000000000978, -1.6845674066655671 
2.570000000000999, -1.6842659353742107 
2.58000000000102, -1.6839394198832687 
2.5900000000010412, -1.6835995047802157 
2.6000000000010624, -1.6832606974175555 
2.6100000000010835, -1.6829378241256996 
2.6200000000011046, -1.6826412502344392 
2.6300000000011257, -1.682372422235589 
2.6400000000011468, -1.6821231941248627 
2.650000000001168, -1.6818795260283212 
2.660000000001189, -1.6816265481821322 
2.67000000000121, -1.6813518078946217 
2.680000000001231, -1.681046161074375 
2.6900000000012523, -1.6807038720811316 
2.7000000000012734, -1.6803237517917808 
2.7100000000012945, -1.6799122077715818 
2.7200000000013156, -1.6794870405168882 
2.7300000000013367, -1.6790776494880315 
2.740000000001358, -1.6787160675612387 
2.750000000001379, -1.6784201718996123 
2.7600000000014, -1.6781824678939685 
2.770000000001421, -1.677976155178878 
2.780000000001442, -1.6777717244836752 
2.7900000000014633, -1.6775487446675286 
2.8000000000014844, -1.677297751256246 
2.8100000000015055, -1.677017094531805 
2.8200000000015266, -1.67671002322384 
2.8300000000015477, -1.6763839141058796 
2.840000000001569, -1.676050943912756 
2.85000000000159, -1.6757278360444983 
2.860000000001611, -1.675431946352979 
2.870000000001632, -1.6751737933531357 
2.8800000000016532, -1.6749510585606302 
2.8900000000016743, -1.6747494190184509 
2.9000000000016954, -1.6745492805695883 
2.9100000000017165, -1.6743327666254277 
2.9200000000017377, -1.67408723346389 
2.9300000000017588, -1.6738056590602077 
2.94000000000178, -1.6734859832077322 
2.950000000001801, -1.6731309909167187 
2.960000000001822, -1.6727491516533237 
2.970000000001843, -1.6723555326476038 
2.9800000000018643, -1.6719706646006665 
2.9900000000018854, -1.6716152071046224 
3.0000000000019065, -1.6713013421949874 
3.0100000000019276, -1.6710266737899606 
3.0200000000019487, -1.6707762534549429 
3.03000000000197, -1.6705308599596205 
3.040000000001991, -1.6702743704300669 
3.050000000002012, -1.6699963335941592 
3.060000000002033, -1.6696913096715875 
3.070000000002054, -1.669358135651165 
3.0800000000020753, -1.6690010403491393 
3.0900000000020964, -1.668632538185878 
3.1000000000021175, -1.6682752676173376 
3.1100000000021386, -1.667957441649492 
3.1200000000021597, -1.6676995936770855 
3.130000000002181, -1.6675010104086407 
3.140000000002202, -1.667339207032819 
3.150000000002223, -1.6671831214666089 
3.160000000002244, -1.6670072171697832 
3.1700000000022652, -1.6667972499530908 
3.1800000000022863, -1.6665489105962006 
3.1900000000023074, -1.6662643846141623 
3.2000000000023285, -1.665949974724328 
3.2100000000023496, -1.665615351905722 
3.2200000000023707, -1.6652734276073389 
3.230000000002392, -1.6649391328013938 
3.240000000002413, -1.6646258852022715 
3.250000000002434, -1.6643406704217054 
3.260000000002455, -1.664080924689643 
3.2700000000024763, -1.6638357696488417 
3.2800000000024974, -1.6635905815320349 
3.2900000000025185, -1.6633314608596017 
3.3000000000025396, -1.6630473984296565 
3.3100000000025607, -1.6627305998344017 
3.3200000000025818, -1.662376755789698 
3.330000000002603, -1.6619867812477682 
3.340000000002624, -1.6615703111354558 
3.350000000002645, -1.6611488702358603 
3.360000000002666, -1.6607536692377942 
3.3700000000026873, -1.6604137630934566 
3.3800000000027084, -1.6601396708381873 
3.3900000000027295, -1.6599170205991243 
3.4000000000027506, -1.6597169024371694 
3.4100000000027717, -1.6595119482705378 
3.420000000002793, -1.6592850380434592 
3.430000000002814, -1.6590291975215359 
3.440000000002835, -1.6587442041431022 
3.450000000002856, -1.6584341795971977 
3.460000000002877, -1.6581072737659635 
3.4700000000028983, -1.6577763760413078 
3.4800000000029194, -1.6574584095045357 
3.4900000000029405, -1.6571698417041554 
3.5000000000029616, -1.6569192977850462 
3.5100000000029827, -1.656702555173278 
3.520000000003004, -1.6565043850321086 
3.530000000003025, -1.6563054137112794 
3.540000000003046, -1.6560885643249885 
3.550000000003067, -1.6558420413222392 
3.5600000000030882, -1.6555595118285154 
3.5700000000031094, -1.6552394623399924 
3.5800000000031305, -1.6548851294117477 
3.5900000000031516, -1.65450528612315 
3.6000000000031727, -1.654114972012016 
3.6100000000031938, -1.6537341687766625 
3.620000000003215, -1.6533825551845962 
3.630000000003236, -1.6530714344228716 
3.640000000003257, -1.65279822962592 
3.650000000003278, -1.652548529152368 
3.6600000000032993, -1.6523038274258361 
3.6700000000033204, -1.652048424630206 
3.6800000000033415, -1.6517719107679665 
3.6900000000033626, -1.6514686080131404 
3.7000000000033837, -1.6511368813508227 
3.710000000003405, -1.6507801805942062 
3.720000000003426, -1.650409899333828 
3.730000000003447, -1.6500475922344613 
3.740000000003468, -1.6497214702669918 
3.750000000003489, -1.6494541112009198 
3.7600000000035103, -1.6492482153002759 
3.7700000000035314, -1.6490838579898264 
3.7800000000035525, -1.64893028283565 
3.7900000000035736, -1.648760609598454 
3.8000000000035947, -1.6485589374054812 
3.810000000003616, -1.6483197255112743 
3.820000000003637, -1.6480443621538878 
3.830000000003658, -1.6477384820087164 
3.840000000003679, -1.647410956643779 
3.8500000000037002, -1.6470737869897323 
3.8600000000037213, -1.6467413012256862 
3.8700000000037424, -1.6464272526124386 
3.8800000000037635, -1.6461401738079668 
3.8900000000037847, -1.6458797110966459 
3.9000000000038058, -1.6456367927493836 
3.910000000003827, -1.6453974893049992 
3.920000000003848, -1.645147595438814 
3.930000000003869, -1.6448753537591656 
3.94000000000389, -1.6445721452837998 
3.9500000000039113, -1.6442326060522727 
3.9600000000039324, -1.6438557157360236 
3.9700000000039535, -1.6434475283457306 
3.9800000000039746, -1.6430244872581952 
3.9900000000039957, -1.6426136871501686 
4.000000000004016, -1.6422453862955309 
4.010000000003993, -1.6419384126454482 
4.02000000000397, -1.641689123274017 
4.030000000003946, -1.6414747819813271 
4.040000000003923, -1.6412676604729453 
4.0500000000039, -1.6410467836066185 
4.0600000000038765, -1.6408011075059399 
4.070000000003853, -1.6405272870832728 
4.08000000000383, -1.6402269120664328 
4.090000000003807, -1.639905532583518 
4.100000000003783, -1.6395733770007155 
4.11000000000376, -1.6392459648441609 
4.120000000003737, -1.6389417757413842 
4.130000000003713, -1.6386755334132492 
4.14000000000369, -1.6384504345968391 
4.150000000003667, -1.6382557671182714 
4.1600000000036434, -1.6380720795357326 
4.17000000000362, -1.6378792334799734 
4.180000000003597, -1.637661870157786 
4.1900000000035735, -1.6374109387469726 
4.20000000000355, -1.6371230075367318 
4.210000000003527, -1.6367993543402388 
4.220000000003504, -1.636445818618062 
4.23000000000348, -1.636073268634749 
4.240000000003457, -1.6356975180730917 
4.250000000003434, -1.6353369364076191 
4.26000000000341, -1.6350069198460926 
4.270000000003387, -1.6347134233087661 
4.280000000003364, -1.6344502895338686 
4.2900000000033405, -1.6342028371208044 
4.300000000003317, -1.6339545805891595 
4.310000000003294, -1.6336920791216005 
4.320000000003271, -1.6334062374281924 
4.330000000003247, -1.6330917661113684 
4.340000000003224, -1.6327471428097975 
4.350000000003201, -1.632376434901952 
4.360000000003177, -1.6319926772350317 
4.370000000003154, -1.6316198020437178 
4.380000000003131, -1.6312877171302915 
4.390000000003107, -1.6310184216667447 
4.400000000003084, -1.6308119246596544 
4.410000000003061, -1.6306456320032345 
4.4200000000030375, -1.6304879557282228 
4.430000000003014, -1.6303129597471013 
4.440000000002991, -1.6301063202559045 
4.450000000002968, -1.6298637909837659 
4.460000000002944, -1.6295874911107795 
4.470000000002921, -1.6292833486360112 
4.480000000002898, -1.628960320593785 
4.490000000002874, -1.6286304205581168 
4.500000000002851, -1.6283078502399324 
4.510000000002828, -1.6280058728231173 
4.520000000002804, -1.627732055642921 
4.530000000002781, -1.627484866027429 
4.540000000002758, -1.6272542982805482 
4.5500000000027345, -1.6270259528800999 
4.560000000002711, -1.6267855227714925 
4.570000000002688, -1.6265213903321531 
4.580000000002665, -1.6262253137194658 
4.590000000002641, -1.625892537919519 
4.600000000002618, -1.6255226366020321 
4.610000000002595, -1.6251215820568663 
4.620000000002571, -1.624704173311656 
4.630000000002548, -1.6242941086347358 
4.640000000002525, -1.6239182249821114 
4.6500000000025015, -1.6235950004998716 
4.660000000002478, -1.6233247410609768 
4.670000000002455, -1.6230904051553967 
4.6800000000024315, -1.6228681558928368 
4.690000000002408, -1.62263790685431 
4.700000000002385, -1.6223874400788119 
4.710000000002362, -1.622111410882096 
4.720000000002338, -1.6218092416160257 
4.730000000002315, -1.6214843968052108 
4.740000000002292, -1.6211454612449767 
4.750000000002268, -1.620807645440508 
4.760000000002245, -1.6204916437579744 
4.770000000002222, -1.6202170185659803 
4.7800000000021985, -1.6199921285983279 
4.790000000002175, -1.619808439588758 
4.800000000002152, -1.6196446575435324 
4.810000000002129, -1.6194767569861113 
4.820000000002105, -1.6192860352570413 
4.830000000002082, -1.6190618277301105 
4.840000000002059, -1.6188005371544243 
4.850000000002035, -1.6185037596783982 
4.860000000002012, -1.618177115438181 
4.870000000001989, -1.617830007509528 
4.880000000001965, -1.6174755130122513 
4.890000000001942, -1.6171290244204566 
4.900000000001919, -1.6168046387973312 
4.9100000000018955, -1.6165101623989553 
4.920000000001872, -1.616243782814243 
4.930000000001849, -1.615995100470237 
