t, s[1].omega / s[0].omega 
0, -1.1499974762999412 
0.009999999999999995, -1.1497333582503517 
0.019999999999999934, -1.1494470414077882 
0.029999999999999874, -1.1491416517159523 
0.04000000000000012, -1.1488222521058253 
0.050000000000000405, -1.1484955828651988 
0.06000000000000069, -1.1481695587727 
0.07000000000000098, -1.1478524266999317 
0.08000000000000126, -1.1475515860686476 
0.09000000000000155, -1.1472722731451002 
0.10000000000000184, -1.1470165058299482 
0.11000000000000212, -1.1467827027496516 
0.12000000000000241, -1.1465661413801593 
0.130000000000002, -1.1463600402579495 
0.1400000000000009, -1.1461568091699648 
0.1499999999999998, -1.1459490583003646 
0.1599999999999987, -1.1457302026697467 
0.1699999999999976, -1.1454947419086001 
0.1799999999999965, -1.145238411661595 
0.1899999999999954, -1.1449583877811471 
0.1999999999999943, -1.1446536322851586 
0.2099999999999932, -1.144325351374979 
0.2199999999999921, -1.1439774221718735 
0.229999999999991, -1.143616559954037 
0.2399999999999899, -1.143251970422602 
0.2499999999999888, -1.1428943020577045 
0.2599999999999877, -1.1425539203614714 
0.2699999999999866, -1.142238852051106 
0.2799999999999855, -1.1419530497635244 
0.2899999999999844, -1.1416956592837153 
0.2999999999999833, -1.1414615871746583 
0.3099999999999822, -1.1412430528863153 
0.3199999999999811, -1.141031394586623 
0.32999999999998, -1.140818452183274 
0.3399999999999789, -1.1405972441123198 
0.3499999999999778, -1.140362052887847 
0.35999999999997667, -1.1401082310587975 
0.36999999999997557, -1.13983204394823 
0.37999999999997447, -1.1395307788363322 
0.38999999999997337, -1.1392032358010844 
0.39999999999997227, -1.1388505709849799 
0.40999999999997117, -1.138477263290479 
0.41999999999997006, -1.1380917414958363 
0.42999999999996896, -1.1377060645176107 
0.43999999999996786, -1.1373342011991692 
0.44999999999996676, -1.1369890403065435 
0.45999999999996566, -1.1366790844777956 
0.46999999999996456, -1.1364062654767855 
0.47999999999996346, -1.1361659161518882 
0.48999999999996235, -1.1359487811139304 
0.49999999999996125, -1.1357439055673346 
0.5099999999999602, -1.1355410707048417 
0.519999999999959, -1.1353320705521566 
0.529999999999958, -1.1351108911870507 
0.5399999999999568, -1.1348732620346504 
0.5499999999999557, -1.1346160708422919 
0.5599999999999546, -1.1343369834658308 
0.5699999999999535, -1.1340344612441724 
0.5799999999999524, -1.1337082628698643 
0.5899999999999513, -1.1333603979637261 
0.5999999999999502, -1.1329962852142779 
0.6099999999999491, -1.1326255464765345 
0.619999999999948, -1.13226160840815 
0.6299999999999469, -1.131919455776008 
0.6399999999999458, -1.1316117724725716 
0.6499999999999447, -1.131344975239259 
0.6599999999999436, -1.13111721254498 
0.6699999999999425, -1.1309194423892062 
0.6799999999999414, -1.1307388294939735 
0.6899999999999403, -1.130562515857412 
0.6999999999999392, -1.130380140967857 
0.7099999999999381, -1.1301846589837587 
0.719999999999937, -1.1299719318611994 
0.7299999999999359, -1.1297398390892432 
0.7399999999999348, -1.1294874625580076 
0.7499999999999337, -1.1292146343192424 
0.7599999999999326, -1.1289219513001636 
0.7699999999999315, -1.128611260246102 
0.7799999999999304, -1.1282865117938656 
0.7899999999999293, -1.1279546890414476 
0.7999999999999282, -1.1276262338850547 
0.8099999999999271, -1.1273142104673486 
0.819999999999926, -1.1270317257358573 
0.8299999999999249, -1.1267880918919888 
0.8399999999999238, -1.1265854004556588 
0.8499999999999227, -1.126417467100138 
0.8599999999999216, -1.1262718664322389 
0.8699999999999205, -1.12613389036924 
0.8799999999999194, -1.1259903494466255 
0.8899999999999183, -1.1258317513260878 
0.8999999999999172, -1.1256526624636587 
0.9099999999999161, -1.1254509193956637 
0.919999999999915, -1.1252265009523152 
0.9299999999999139, -1.1249806072149322 
0.9399999999999128, -1.1247151796886294 
0.9499999999999117, -1.1244328969372248 
0.9599999999999106, -1.1241375724554918 
0.9699999999999095, -1.1238347841673673 
0.9799999999999084, -1.1235324163865559 
0.9899999999999073, -1.1232406242366832 
0.9999999999999062, -1.122970703953476 
1.0099999999999052, -1.1227327069080175 
1.019999999999904, -1.12253240522427 
1.029999999999903, -1.1223689535818675 
1.039999999999902, -1.122234571222441 
1.0499999999999008, -1.122116561790215 
1.0599999999998997, -1.1220007011360695 
1.0699999999998986, -1.1218744494168242 
1.0799999999998975, -1.1217288746925758 
1.0899999999998964, -1.1215590702152458 
1.0999999999998953, -1.1213635249834066 
1.1099999999998942, -1.1211431021280645 
1.119999999999893, -1.1209001290610743 
1.129999999999892, -1.1206378513633939 
1.1399999999998909, -1.1203602971903721 
1.1499999999998898, -1.1200724643175501 
1.1599999999998887, -1.1197806393142362 
1.1699999999998876, -1.1194925597934755 
1.1799999999998865, -1.119217072356371 
1.1899999999998854, -1.1189630269595345 
1.1999999999998843, -1.118737472665868 
1.2099999999998832, -1.1185436928296466 
1.219999999999882, -1.1183799212403005 
1.229999999999881, -1.1182394011150363 
1.2399999999998799, -1.1181118310034432 
1.2499999999998788, -1.1179856078987433 
1.2599999999998777, -1.11785003439956 
1.2699999999998766, -1.1176968585285727 
1.2799999999998755, -1.1175209252156288 
1.2899999999998744, -1.1173200765209308 
1.2999999999998733, -1.11709461909448 
1.3099999999998722, -1.116846688063353 
1.319999999999871, -1.116579741861353 
1.32999999999987, -1.1162982892755018 
1.3399999999998689, -1.1160078192349672 
1.3499999999998678, -1.1157147926764277 
1.3599999999998666, -1.1154264804811231 
1.3699999999998655, -1.115150431163208 
1.3799999999998644, -1.114893478034468 
1.3899999999998633, -1.1146604472243224 
1.3999999999998622, -1.1144529852818474 
1.4099999999998611, -1.1142689918513868 
1.41999999999986, -1.1141029223684489 
1.429999999999859, -1.1139468485543744 
1.4399999999998578, -1.1137918847175972 
1.4499999999998567, -1.1136295510758525 
1.4599999999998556, -1.1134527960940492 
1.4699999999998545, -1.113256590946068 
1.4799999999998534, -1.113038141945927 
1.4899999999998523, -1.1127968274028637 
1.4999999999998512, -1.1125339795658253 
1.5099999999998501, -1.1122526189009347 
1.519999999999849, -1.1119572089291165 
1.529999999999848, -1.1116534353360774 
1.5399999999998468, -1.1113479373235495 
1.5499999999998457, -1.1110478671291633 
1.5599999999998446, -1.1107601730906904 
1.5699999999998435, -1.1104906228271505 
1.5799999999998424, -1.1102427710389138 
1.5899999999998413, -1.110017213536561 
1.5999999999998402, -1.1098114275692992 
1.6099999999998391, -1.1096202682402665 
1.619999999999838, -1.1094369190182123 
1.629999999999837, -1.1092539614549346 
1.6399999999998358, -1.1090642899175858 
1.6499999999998347, -1.1088617604670699 
1.6599999999998336, -1.108641602698635 
1.6699999999998325, -1.1084006778349682 
1.6799999999998314, -1.1081376498277842 
1.6899999999998303, -1.1078530938439266 
1.6999999999998292, -1.107549531903846 
1.709999999999828, -1.1072313653826167 
1.719999999999827, -1.1069046581365196 
1.729999999999826, -1.106576707032593 
1.7399999999998248, -1.106255337153486 
1.7499999999998237, -1.1059479143622446 
1.7599999999998226, -1.1056601974784706 
1.7699999999998215, -1.1053953084241759 
1.7799999999998204, -1.1051531644185189 
1.7899999999998193, -1.1049305927427002 
1.7999999999998182, -1.1047220723558513 
1.809999999999817, -1.1045207938890884 
1.819999999999816, -1.1043196660392265 
1.8299999999998149, -1.1041120322067035 
1.8399999999998138, -1.1038920692384167 
1.8499999999998127, -1.1036549882658961 
1.8599999999998116, -1.1033971969617609 
1.8699999999998105, -1.1031165360709545 
1.8799999999998094, -1.102812615617672 
1.8899999999998083, -1.1024871845535502 
1.8999999999998072, -1.1021443963927966 
1.909999999999806, -1.1017907985553228 
1.919999999999805, -1.1014348862924601 
1.9299999999998039, -1.101086136493146 
1.9399999999998028, -1.1007535854995072 
1.9499999999998017, -1.1004442231848697 
1.9599999999998006, -1.1001616575927027 
1.9699999999997995, -1.0999055158428195 
1.9799999999997984, -1.099671799715096 
1.9899999999997973, -1.0994540099773886 
1.9999999999997962, -1.0992445494075085 
2.0099999999998173, -1.0990359019217506 
2.0199999999998384, -1.098821322622242 
2.0299999999998595, -1.0985950617867386 
2.0399999999998806, -1.0983523242008741 
2.0499999999999017, -1.098089203679816 
2.059999999999923, -1.097802781549618 
2.069999999999944, -1.0974914866338803 
2.079999999999965, -1.0971556994728717 
2.089999999999986, -1.0967984467793712 
2.100000000000007, -1.0964258946143635 
2.1100000000000283, -1.096047271126863 
2.1200000000000494, -1.0956739180924964 
2.1300000000000705, -1.0953174419742757 
2.1400000000000916, -1.0949873597165305 
2.1500000000001127, -1.0946890081857465 
2.160000000000134, -1.094422526921894 
2.170000000000155, -1.094183297861496 
2.180000000000176, -1.0939635471386997 
2.190000000000197, -1.0937543334559279 
2.2000000000002182, -1.093547157210246 
2.2100000000002393, -1.0933348145975754 
2.2200000000002604, -1.0931115527455921 
2.2300000000002815, -1.0928728187848187 
2.2400000000003026, -1.09261492433278 
2.2500000000003237, -1.0923348717909724 
2.260000000000345, -1.092030497379495 
2.270000000000366, -1.0917009964306392 
2.280000000000387, -1.0913477775281395 
2.290000000000408, -1.0909754106084888 
2.3000000000004293, -1.090592216031299 
2.3100000000004504, -1.0902099179355416 
2.3200000000004715, -1.0898419591943003 
2.3300000000004926, -1.0895006512218062 
2.3400000000005137, -1.0891940886685474 
2.3500000000005348, -1.0889241505806724 
2.360000000000556, -1.0886864922093813 
2.370000000000577, -1.0884723911436107 
2.380000000000598, -1.088271408747032 
2.390000000000619, -1.0880736809956695 
2.4000000000006403, -1.0878711841485007 
2.4100000000006614, -1.0876579860698934 
2.4200000000006825, -1.0874298722601758 
2.4300000000007036, -1.0871837802882385 
2.4400000000007247, -1.0869173553778413 
2.450000000000746, -1.0866288085773372 
2.460000000000767, -1.0863171706840966 
2.470000000000788, -1.0859829607954827 
2.480000000000809, -1.0856291643846723 
2.49000000000083, -1.0852621989986957 
2.5000000000008513, -1.0848922872035422 
2.5100000000008724, -1.0845325627941746 
2.5200000000008935, -1.0841965953900716 
2.5300000000009146, -1.08389489110927 
2.5400000000009357, -1.0836318229708488 
2.550000000000957, -1.0834045346255576 
2.560000000000978, -1.0832043327895782 
2.570000000000999, -1.0830196799217822 
2.58000000000102, -1.0828392333937156 
2.5900000000010412, -1.0826537895933999 
2.6000000000010624, -1.0824568836433324 
2.6100000000010835, -1.0822444426016986 
2.6200000000011046, -1.0820140566613827 
2.6300000000011257, -1.0817642964864065 
2.6400000000011468, -1.081494309319365 
2.650000000001168, -1.081203793211965 
2.660000000001189, -1.0808933774983345 
2.67000000000121, -1.0805653677454665 
2.680000000001231, -1.080224675808206 
2.6900000000012523, -1.0798795272656243 
2.7000000000012734, -1.0795413177581379 
2.7100000000012945, -1.0792230344680602 
2.7200000000013156, -1.0789362350368996 
2.7300000000013367, -1.0786875704751708 
2.740000000001358, -1.078476530724479 
2.750000000001379, -1.078295677782372 
2.7600000000014, -1.0781332152060912 
2.770000000001421, -1.0779764580300017 
2.780000000001442, -1.0778146021119008 
2.7900000000014633, -1.0776400095170322 
2.8000000000014844, -1.0774481658050419 
2.8100000000015055, -1.0772369219601263 
2.8200000000015266, -1.0770056044712404 
2.8300000000015477, -1.0767543464711444 
2.840000000001569, -1.0764837860810035 
2.85000000000159, -1.0761951623648884 
2.860000000001611, -1.0758907784450094 
2.870000000001632, -1.0755747256643076 
2.8800000000016532, -1.0752536177140302 
2.8900000000016743, -1.0749368824937346 
2.9000000000016954, -1.0746360420394123 
2.9100000000017165, -1.0743626281113197 
2.9200000000017377, -1.0741250789498207 
2.9300000000017588, -1.0739258402808038 
2.94000000000178, -1.0737601988693162 
2.950000000001801, -1.0736175938029098 
2.960000000001822, -1.073484742901591 
2.970000000001843, -1.073349015783237 
2.9800000000018643, -1.0732007008974773 
2.9900000000018854, -1.073033732271227 
3.0000000000019065, -1.0728452485060873 
3.0100000000019276, -1.0726346426907527 
3.0200000000019487, -1.0724026376847795 
3.03000000000197, -1.0721506704087846 
3.040000000001991, -1.0718806734551933 
3.050000000002012, -1.0715952373562665 
3.060000000002033, -1.0712980753200658 
3.070000000002054, -1.070994631534361 
3.0800000000020753, -1.070692542520962 
3.0900000000020964, -1.0704015227368293 
3.1000000000021175, -1.0701322486477174 
3.1100000000021386, -1.0698941443367924 
3.1200000000021597, -1.0696926311198498 
3.130000000002181, -1.069527016080376 
3.140000000002202, -1.069390174534912 
3.150000000002223, -1.0692703321672956 
3.160000000002244, -1.0691541296557145 
3.1700000000022652, -1.0690295994492987 
3.1800000000022863, -1.0688880112935895 
3.1900000000023074, -1.0687243315674806 
3.2000000000023285, -1.068536679803112 
3.2100000000023496, -1.0683253756870632 
3.2200000000023707, -1.0680920505438711 
3.230000000002392, -1.0678390730968506 
3.240000000002413, -1.0675693579526584 
3.250000000002434, -1.067286517859631 
3.260000000002455, -1.0669952505193094 
3.2700000000024763, -1.0667017710177764 
3.2800000000024974, -1.0664140006917848 
3.2900000000025185, -1.0661411598671555 
3.3000000000025396, -1.0658925073091603 
3.3100000000025607, -1.0656753192765145 
3.3200000000025818, -1.0654927143048896 
3.330000000002603, -1.0653422679762339 
3.340000000002624, -1.0652161712551376 
3.350000000002645, -1.0651029792822093 
3.360000000002666, -1.064990232943409 
3.3700000000026873, -1.0648669243165103 
3.3800000000027084, -1.064725044836663 
3.3900000000027295, -1.0645600149328942 
3.4000000000027506, -1.0643702649935949 
3.4100000000027717, -1.0641564271085522 
3.420000000002793, -1.0639205404214347 
3.430000000002814, -1.063665508090835 
3.440000000002835, -1.0633948840955487 
3.450000000002856, -1.06311295403756 
3.460000000002877, -1.0628249920126296 
3.4700000000028983, -1.062537500330445 
3.4800000000029194, -1.062258173896981 
3.4900000000029405, -1.061995329993448 
3.5000000000029616, -1.0617566874279283 
3.5100000000029827, -1.0615476889278863 
3.520000000003004, -1.0613699085025012 
3.530000000003025, -1.0612202218444333 
3.540000000003046, -1.0610911756259689 
3.550000000003067, -1.0609724777187988 
3.5600000000030882, -1.0608530641863276 
3.5700000000031094, -1.0607230438534072 
3.5800000000031305, -1.0605750006148218 
3.5900000000031516, -1.0604044784679656 
3.6000000000031727, -1.0602097859147404 
3.6100000000031938, -1.0599914208775594 
3.620000000003215, -1.0597514256686718 
3.630000000003236, -1.0594928907268755 
3.640000000003257, -1.0592197039708722 
3.650000000003278, -1.0589365316937642 
3.6600000000032993, -1.0586489268260675 
3.6700000000033204, -1.0583633891832596 
3.6800000000033415, -1.058087164284805 
3.6900000000033626, -1.0578276046395656 
3.7000000000033837, -1.0575910719038792 
3.710000000003405, -1.0573816070723896 
3.720000000003426, -1.0571998115485957 
3.730000000003447, -1.0570423992706357 
3.740000000003468, -1.0569026449273724 
3.750000000003489, -1.0567715966510778 
3.7600000000035103, -1.0566396548192856 
3.7700000000035314, -1.0564980618955917 
3.7800000000035525, -1.056339971979246 
3.7900000000035736, -1.0561609672917969 
3.8000000000035947, -1.0559590703381931 
3.810000000003616, -1.0557344174245256 
3.820000000003637, -1.0554887986141914 
3.830000000003658, -1.0552252403973885 
3.840000000003679, -1.0549477339689013 
3.8500000000037002, -1.0546611210831804 
3.8600000000037213, -1.0543710619702 
3.8700000000037424, -1.0540839426068982 
3.8800000000037635, -1.0538065554571707 
3.8900000000037847, -1.0535454409878064 
3.9000000000038058, -1.0533059220691334 
3.910000000003827, -1.0530910552156882 
3.920000000003848, -1.052900850243688 
3.930000000003869, -1.0527320676038745 
3.94000000000389, -1.052578692755917 
3.9500000000039113, -1.0524329351326225 
3.9600000000039324, -1.0522864492288422 
3.9700000000039535, -1.052131476471765 
3.9800000000039746, -1.0519617064358329 
3.9900000000039957, -1.0517727758607758 
4.000000000004016, -1.0515624196023885 
4.010000000003993, -1.0513303519093014 
4.02000000000397, -1.0510779920709488 
4.030000000003946, -1.0508081527713407 
4.040000000003923, -1.0505247790230352 
4.0500000000039, -1.0502327659062698 
4.0600000000038765, -1.0499378110929054 
4.070000000003853, -1.049646198184973 
4.08000000000383, -1.0493643898937164 
4.090000000003807, -1.0490983640309 
4.100000000003783, -1.048852751898205 
4.11000000000376, -1.0486299866492186 
4.120000000003737, -1.0484297441042838 
4.130000000003713, -1.048248890109579 
4.14000000000369, -1.0480819632000733 
4.150000000003667, -1.0479220324933771 
4.1600000000036434, -1.0477616841239579 
4.17000000000362, -1.0475939226322737 
4.180000000003597, -1.0474128665660476 
4.1900000000035735, -1.0472142019927795 
4.20000000000355, -1.0469954062747955 
4.210000000003527, -1.0467557775857264 
4.220000000003504, -1.0464963209703158 
4.23000000000348, -1.0462195525983966 
4.240000000003457, -1.0459292797677615 
4.250000000003434, -1.0456303855558002 
4.26000000000341, -1.0453285981788096 
4.270000000003387, -1.0450301776530875 
4.280000000003364, -1.0447414385814278 
4.2900000000033405, -1.0444680753566724 
4.300000000003317, -1.044214363258764 
4.310000000003294, -1.0439824261878923 
4.320000000003271, -1.0437718076139055 
4.330000000003247, -1.0435795034717523 
4.340000000003224, -1.0434004479113697 
4.350000000003201, -1.0432282879733628 
4.360000000003177, -1.0430562285194083 
4.370000000003154, -1.042877779317425 
4.380000000003131, -1.0426873302330188 
4.390000000003107, -1.0424805529739916 
4.400000000003084, -1.0422546547633849 
4.410000000003061, -1.0420085057513113 
4.4200000000030375, -1.0417426543821238 
4.430000000003014, -1.0414592468316426 
4.440000000002991, -1.0411618721497828 
4.450000000002968, -1.0408553490470707 
4.460000000002944, -1.0405454463014323 
4.470000000002921, -1.0402384981467865 
4.480000000002898, -1.0399408666733365 
4.490000000002874, -1.0396582428270424 
4.500000000002851, -1.0393948674707862 
4.510000000002828, -1.039152851071826 
4.520000000002804, -1.0389318026769263 
4.530000000002781, -1.038728900025338 
4.540000000002758, -1.0385393748767622 
4.5500000000027345, -1.038357246434845 
4.560000000002711, -1.038176092518743 
4.570000000002688, -1.037989707171833 
4.580000000002665, -1.0377925935437613 
4.590000000002641, -1.0375803156220578 
4.600000000002618, -1.037349754154423 
4.610000000002595, -1.0370992939473462 
4.620000000002571, -1.0368289416563776 
4.630000000002548, -1.036540358096047 
4.640000000002525, -1.0362367909371482 
4.6500000000025015, -1.0359229004137478 
4.660000000002478, -1.035604468487291 
4.670000000002455, -1.0352879706591012 
4.6800000000024315, -1.034979987997489 
4.690000000002408, -1.034686470547309 
4.700000000002385, -1.0344119390785727 
4.710000000002362, -1.0341587968634673 
4.720000000002338, -1.0339269522896797 
4.730000000002315, -1.0337138797506933 
4.740000000002292, -1.0335150937501736 
4.750000000002268, -1.0333248686015948 
4.760000000002245, -1.0331369879125474 
4.770000000002222, -1.0329453666803081 
4.7800000000021985, -1.0327444968701371 
4.790000000002175, -1.0325297541676204 
4.800000000002152, -1.0322976334972924 
4.810000000002129, -1.0320459601656515 
4.820000000002105, -1.0317740807487124 
4.830000000002082, -1.031483002106276 
4.840000000002059, -1.0311754335410712 
4.850000000002035, -1.0308556936032058 
4.860000000002012, -1.030529455613797 
4.870000000001989, -1.030203314554481 
4.880000000001965, -1.02988416855419 
4.890000000001942, -1.029578440228977 
4.900000000001919, -1.02929122844878 
4.9100000000018955, -1.0290255587711516 
4.920000000001872, -1.0287819351483791 
4.930000000001849, -1.0285583351980516 
4.940000000001826, -1.0283506444438415 
