t, s[1].omega / s[0].omega 
0, -1.289997387417857 
0.009999999999999995, -1.2897203034489613 
0.019999999999999934, -1.2894134161703659 
0.029999999999999874, -1.289081316660767 
0.04000000000000012, -1.2887316571779783 
0.050000000000000405, -1.2883748796141163 
0.06000000000000069, -1.2880232704102683 
0.07000000000000098, -1.2876890599032849 
0.08000000000000126, -1.2873817617729786 
0.09000000000000155, -1.2871056506791576 
0.10000000000000184, -1.2868586142299132 
0.11000000000000212, -1.286633041926771 
0.12000000000000241, -1.2864182172981438 
0.130000000000002, -1.2862028945621784 
0.1400000000000009, -1.2859769879054608 
0.1499999999999998, -1.285732148864397 
0.1599999999999987, -1.2854616754489037 
0.1699999999999976, -1.285160385372171 
0.1799999999999965, -1.2848249561261322 
0.1899999999999954, -1.2844549811398815 
0.1999999999999943, -1.2840546334933802 
0.2099999999999932, -1.283634302349085 
0.2199999999999921, -1.2832109687542892 
0.229999999999991, -1.282805907804654 
0.2399999999999899, -1.2824392914779812 
0.2499999999999888, -1.2821235032853764 
0.2599999999999877, -1.2818588253755119 
0.2699999999999866, -1.2816342553121434 
0.2799999999999855, -1.2814326861173433 
0.2899999999999844, -1.2812369131381203 
0.2999999999999833, -1.281033401507974 
0.3099999999999822, -1.2808131635548228 
0.3199999999999811, -1.2805708559768907 
0.32999999999998, -1.2803034790716252 
0.3399999999999789, -1.2800095727280605 
0.3499999999999778, -1.2796893166991776 
0.35999999999997667, -1.2793456320324041 
0.36999999999997557, -1.27898602522693 
0.37999999999997447, -1.2786242546830633 
0.38999999999997337, -1.2782800659584599 
0.39999999999997227, -1.2779751929039125 
0.40999999999997117, -1.277725828158499 
0.41999999999997006, -1.2775352686044739 
0.42999999999996896, -1.2773918529764852 
0.43999999999996786, -1.2772738929077496 
0.44999999999996676, -1.2771580469937522 
0.45999999999996566, -1.2770259702918854 
0.46999999999996456, -1.276866785421885 
0.47999999999996346, -1.276676205593316 
0.48999999999996235, -1.2764543588975723 
0.49999999999996125, -1.2762038636489637 
0.5099999999999602, -1.2759288056065543 
0.519999999999959, -1.2756346576755506 
0.529999999999958, -1.2753288578577138 
0.5399999999999568, -1.2750214980447758 
0.5499999999999557, -1.2747252975146588 
0.5599999999999546, -1.27445400085091 
0.5699999999999535, -1.274219010274894 
0.5799999999999524, -1.274025425090087 
0.5899999999999513, -1.273869657283144 
0.5999999999999502, -1.273740167515969 
0.6099999999999491, -1.2736209174406672 
0.619999999999948, -1.2734956358024647 
0.6299999999999469, -1.2733510712196263 
0.6399999999999458, -1.2731785019181898 
0.6499999999999447, -1.2729737790573739 
0.6599999999999436, -1.2727365913839215 
0.6699999999999425, -1.2724695799854897 
0.6799999999999414, -1.2721776808260474 
0.6899999999999403, -1.2718677932970714 
0.6999999999999392, -1.2715486146829922 
0.7099999999999381, -1.271230275617216 
0.719999999999937, -1.2709233599502863 
0.7299999999999359, -1.270637142914431 
0.7399999999999348, -1.27037744073828 
0.7499999999999337, -1.2701449848513653 
0.7599999999999326, -1.2699351847327076 
0.7699999999999315, -1.2697394131642692 
0.7799999999999304, -1.2695471134865977 
0.7899999999999293, -1.2693477725748747 
0.7999999999999282, -1.2691321964721924 
0.8099999999999271, -1.2688930981679423 
0.819999999999926, -1.26862533704552 
0.8299999999999249, -1.2683261637119612 
0.8399999999999238, -1.2679956580234333 
0.8499999999999227, -1.267637330896774 
0.8599999999999216, -1.2672586435491193 
0.8699999999999205, -1.2668710044345415 
0.8799999999999194, -1.2664887167923864 
0.8899999999999183, -1.2661265543644071 
0.8999999999999172, -1.2657963001619719 
0.9099999999999161, -1.2655034837807382 
0.919999999999915, -1.2652459411827315 
0.9299999999999139, -1.2650150126808999 
0.9399999999999128, -1.2647986137092253 
0.9499999999999117, -1.264584437068095 
0.9599999999999106, -1.2643619342572547 
0.9699999999999095, -1.2641228352111402 
0.9799999999999084, -1.2638607765746017 
0.9899999999999073, -1.263570791804208 
0.9999999999999062, -1.2632492458993707 
1.0099999999999052, -1.2628945613539426 
1.019999999999904, -1.2625088082448124 
1.029999999999903, -1.2620997678449584 
1.039999999999902, -1.2616823519657803 
1.0499999999999008, -1.261277637420911 
1.0599999999998997, -1.2609082130348024 
1.0699999999998986, -1.2605907707397612 
1.0799999999998975, -1.26032972606379 
1.0899999999998964, -1.260116021852595 
1.0999999999998953, -1.2599317926952518 
1.1099999999998942, -1.2597574426784104 
1.119999999999893, -1.2595769713641718 
1.129999999999892, -1.2593798718697777 
1.1399999999998909, -1.2591604574167783 
1.1499999999998898, -1.2589162619706427 
1.1599999999998887, -1.2586467074011425 
1.1699999999998876, -1.258352573775823 
1.1799999999998865, -1.2580364014957226 
1.1899999999998854, -1.2577037009677903 
1.1999999999998843, -1.2573644786132303 
1.2099999999998832, -1.2570339870995084 
1.219999999999882, -1.2567311442224198 
1.229999999999881, -1.2564736862578427 
1.2399999999998799, -1.2562713988502399 
1.2499999999998788, -1.2561212384883766 
1.2599999999998777, -1.2560078501415564 
1.2699999999998766, -1.2559093073922079 
1.2799999999998755, -1.2558043618151902 
1.2899999999998744, -1.2556773959693266 
1.2999999999998733, -1.2555198196004558 
1.3099999999998722, -1.2553289380631594 
1.319999999999871, -1.2551059643473033 
1.32999999999987, -1.2548543541736397 
1.3399999999998689, -1.2545789385565491 
1.3499999999998678, -1.254285843247429 
1.3599999999998666, -1.2539829027709168 
1.3699999999998655, -1.2536800561067873 
1.3799999999998644, -1.2533890387064355 
1.3899999999998633, -1.2531217821029046 
1.3999999999998622, -1.2528875709829916 
1.4099999999998611, -1.2526900191316543 
1.41999999999986, -1.2525254751367298 
1.429999999999859, -1.252383827809431 
1.4399999999998578, -1.2522512691540046 
1.4499999999998567, -1.2521136129424018 
1.4599999999998556, -1.2519588886039208 
1.4699999999998545, -1.2517786930694539 
1.4799999999998534, -1.251568462450748 
1.4899999999998523, -1.2513271125086174 
1.4999999999998512, -1.2510564790180292 
1.5099999999998501, -1.250760840203102 
1.519999999999849, -1.2504466180154163 
1.529999999999848, -1.250122159270092 
1.5399999999998468, -1.2497973220375984 
1.5499999999998457, -1.2494825293565723 
1.5599999999998446, -1.249187135741854 
1.5699999999998435, -1.248917410177977 
1.5799999999998424, -1.248674912716149 
1.5899999999998413, -1.248456076138999 
1.5999999999998402, -1.2482532221790368 
1.6099999999998391, -1.2480564639883214 
1.619999999999838, -1.2478556079594407 
1.629999999999837, -1.2476414484958152 
1.6399999999998358, -1.2474063846673284 
1.6499999999998347, -1.2471446543450806 
1.6599999999998336, -1.2468525492381786 
1.6699999999998325, -1.24652884186149 
1.6799999999998314, -1.2461754478405442 
1.6899999999998303, -1.2457981259512771 
1.6999999999998292, -1.2454068106643346 
1.709999999999828, -1.2450150399503332 
1.719999999999827, -1.2446380354143844 
1.729999999999826, -1.2442894940449283 
1.7399999999998248, -1.243978012898305 
1.7499999999998237, -1.2437047325112482 
1.7599999999998226, -1.2434634591226565 
1.7699999999998215, -1.2432431417498861 
1.7799999999998204, -1.2430312326113468 
1.7899999999998193, -1.2428162933644462 
1.7999999999998182, -1.242589123586496 
1.809999999999817, -1.242342687964524 
1.819999999999816, -1.2420715520182077 
1.8299999999998149, -1.2417714788063552 
1.8399999999998138, -1.2414396227446665 
1.8499999999998127, -1.2410755401935072 
1.8599999999998116, -1.240682945796186 
1.8699999999998105, -1.2402716270106287 
1.8799999999998094, -1.2398582282577046 
1.8899999999998083, -1.239464267287619 
1.8999999999998072, -1.2391106814965203 
1.909999999999806, -1.2388106617494532 
1.919999999999805, -1.2385647411491822 
1.9299999999998039, -1.2383613330264176 
1.9399999999998028, -1.23818213833248 
1.9499999999998017, -1.2380086968403445 
1.9599999999998006, -1.2378266636505686 
1.9699999999997995, -1.237626928756352 
1.9799999999997984, -1.2374046723021943 
1.9899999999997973, -1.2371578319358387 
1.9999999999997962, -1.2368859468539124 
2.0099999999998173, -1.2365897844175149 
2.0199999999998384, -1.2362718338623955 
2.0299999999998595, -1.235937536537131 
2.0399999999998806, -1.2355967728927586 
2.0499999999999017, -1.235264558436703 
2.059999999999923, -1.2349594827421542 
2.069999999999944, -1.2346990328743006 
2.079999999999965, -1.2344930774980338 
2.089999999999986, -1.2343390994563408 
2.100000000000007, -1.2342225285854538 
2.1100000000000283, -1.2341221294501898 
2.1200000000000494, -1.2340170022527948 
2.1300000000000705, -1.2338915146049827 
2.1400000000000916, -1.233736821809434 
2.1500000000001127, -1.2335498691248776 
2.160000000000134, -1.2333314740548658 
2.170000000000155, -1.2330846619590143 
2.180000000000176, -1.23281375546155 
2.190000000000197, -1.232524247990137 
2.2000000000002182, -1.23222322905862 
2.2100000000002393, -1.2319199259783309 
2.2200000000002604, -1.2316257261419439 
2.2300000000002815, -1.2313530103977848 
2.2400000000003026, -1.2311125712202924 
2.2500000000003237, -1.230910351627068 
2.260000000000345, -1.230745082920587 
2.270000000000366, -1.2306082057689554 
2.280000000000387, -1.2304861724338445 
2.290000000000408, -1.230363925732568 
2.3000000000004293, -1.230228039766154 
2.3100000000004504, -1.2300686250615294 
2.3200000000004715, -1.2298799169768888 
2.3300000000004926, -1.22965995773029 
2.3400000000005137, -1.2294098907742677 
2.3500000000005348, -1.2291332723925823 
2.360000000000556, -1.2288356117468475 
2.370000000000577, -1.228524141466551 
2.380000000000598, -1.2282076230077594 
2.390000000000619, -1.2278958538721239 
2.4000000000006403, -1.2275985720284592 
2.4100000000006614, -1.2273237464951785 
2.4200000000006825, -1.2270757275046245 
2.4300000000007036, -1.2268540598934579 
2.4400000000007247, -1.2266535713226807 
2.450000000000746, -1.2264656875511029 
2.460000000000767, -1.2262803193318492 
2.470000000000788, -1.2260875630749426 
2.480000000000809, -1.2258788136091288 
2.49000000000083, -1.225647322502876 
2.5000000000008513, -1.2253884631158818 
2.5100000000008724, -1.225099956303449 
2.5200000000008935, -1.224782180417281 
2.5300000000009146, -1.2244385369634727 
2.5400000000009357, -1.2240757085776173 
2.550000000000957, -1.2237035357635064 
2.560000000000978, -1.2233341865500584 
2.570000000000999, -1.2229803986207122 
2.58000000000102, -1.2226529464064362 
2.5900000000010412, -1.222358056363907 
2.6000000000010624, -1.2220958642884618 
2.6100000000010835, -1.2218606967618624 
2.6200000000011046, -1.2216429998280638 
2.6300000000011257, -1.2214318651955778 
2.6400000000011468, -1.2212170195071432 
2.650000000001168, -1.220989762538824 
2.660000000001189, -1.2207430348294692 
2.67000000000121, -1.2204711300262123 
2.680000000001231, -1.2201695586173884 
2.6900000000012523, -1.2198354126296622 
2.7000000000012734, -1.2194683764311454 
2.7100000000012945, -1.2190722424197697 
2.7200000000013156, -1.2186563665952417 
2.7300000000013367, -1.2182360380166426 
2.740000000001358, -1.217830627178893 
2.750000000001379, -1.2174591511155555 
2.7600000000014, -1.217134579100366 
2.770000000001421, -1.2168596784487453 
2.780000000001442, -1.2166267990666617 
2.7900000000014633, -1.2164215457991976 
2.8000000000014844, -1.2162279010023287 
2.8100000000015055, -1.2160321133397778 
2.8200000000015266, -1.2158242466921707 
2.8300000000015477, -1.21559788291985 
2.840000000001569, -1.215349052816612 
2.85000000000159, -1.2150752620355976 
2.860000000001611, -1.2147750876241026 
2.870000000001632, -1.214448552903367 
2.8800000000016532, -1.2140983066620064 
2.8900000000016743, -1.2137313402575547 
2.9000000000016954, -1.2133604236430535 
2.9100000000017165, -1.2130038107154482 
2.9200000000017377, -1.212681808138449 
2.9300000000017588, -1.2124103998246685 
2.94000000000178, -1.212194803545122 
2.950000000001801, -1.2120270510312345 
2.960000000001822, -1.2118893441139424 
2.970000000001843, -1.2117608545412333 
2.9800000000018643, -1.2116238288928383 
2.9900000000018854, -1.2114664996155966 
3.0000000000019065, -1.2112829642512188 
3.0100000000019276, -1.2110715528188936 
3.0200000000019487, -1.2108330806269458 
3.03000000000197, -1.2105697158872348 
3.040000000001991, -1.2102846587586458 
3.050000000002012, -1.2099825546954805 
3.060000000002033, -1.2096703898136516 
3.070000000002054, -1.2093583666008252 
3.0800000000020753, -1.2090599361984957 
3.0900000000020964, -1.2087900798078681 
3.1000000000021175, -1.208561586163887 
3.1100000000021386, -1.2083805151566347 
3.1200000000021597, -1.2082432393332418 
3.130000000002181, -1.2081369928599148 
3.140000000002202, -1.2080437465535503 
3.150000000002223, -1.2079452832514135 
3.160000000002244, -1.2078271361392985 
3.1700000000022652, -1.207680296718522 
3.1800000000022863, -1.207500976069916 
3.1900000000023074, -1.207289358812748 
3.2000000000023285, -1.2070482373530729 
3.2100000000023496, -1.2067820497866046 
3.2200000000023707, -1.2064964786748478 
3.230000000002392, -1.2061984999762962 
3.240000000002413, -1.2058965761296334 
3.250000000002434, -1.2056005470113462 
3.260000000002455, -1.2053207710735427 
3.2700000000024763, -1.2050663588102755 
3.2800000000024974, -1.2048429274591643 
3.2900000000025185, -1.2046508361163968 
3.3000000000025396, -1.2044848184309687 
3.3100000000025607, -1.2043352235689972 
3.3200000000025818, -1.2041902530303743 
3.330000000002603, -1.2040382619070185 
3.340000000002624, -1.2038694588631922 
3.350000000002645, -1.2036768150342214 
3.360000000002666, -1.2034563286261633 
3.3700000000026873, -1.2032069042749636 
3.3800000000027084, -1.2029300781611274 
3.3900000000027295, -1.2026297404691486 
3.4000000000027506, -1.2023119070627035 
3.4100000000027717, -1.2019844721041584 
3.420000000002793, -1.201656753530742 
3.430000000002814, -1.2013385975981339 
3.440000000002835, -1.2010389402087447 
3.450000000002856, -1.2007640578099337 
3.460000000002877, -1.2005161042745127 
3.4700000000028983, -1.2002925953886612 
3.4800000000029194, -1.200087101477529 
3.4900000000029405, -1.1998907943428194 
3.5000000000029616, -1.19969414465783 
3.5100000000029827, -1.199488198902402 
3.520000000003004, -1.1992652732693385 
3.530000000003025, -1.199019245541119 
3.540000000003046, -1.1987457427281152 
3.550000000003067, -1.198442451715799 
3.5600000000030882, -1.1981096243533433 
3.5700000000031094, -1.1977506775147757 
3.5800000000031305, -1.197372634235376 
3.5900000000031516, -1.1969860404907715 
3.6000000000031727, -1.1966039829821904 
3.6100000000031938, -1.1962400300230962 
3.620000000003215, -1.195905390126597 
3.630000000003236, -1.1956061847467772 
3.640000000003257, -1.195342012061944 
3.650000000003278, -1.1951065062064508 
3.6600000000032993, -1.1948895423991137 
3.6700000000033204, -1.194679911629538 
3.6800000000033415, -1.1944673186613972 
3.6900000000033626, -1.1942432465863881 
3.7000000000033837, -1.1940009202425856 
3.710000000003405, -1.1937348992509897 
3.720000000003426, -1.1934407981679545 
3.730000000003447, -1.1931154769807446 
3.740000000003468, -1.192757873686708 
3.750000000003489, -1.1923704224428917 
3.7600000000035103, -1.1919606328493724 
3.7700000000035314, -1.191541932964983 
3.7800000000035525, -1.1911326101771946 
3.7900000000035736, -1.1907521569480646 
3.8000000000035947, -1.1904157917368021 
3.810000000003616, -1.1901296006117683 
3.820000000003637, -1.1898890004768918 
3.830000000003658, -1.1896813103460597 
3.840000000003679, -1.189490632175978 
3.8500000000037002, -1.1893022784166347 
3.8600000000037213, -1.1891050896537974 
3.8700000000037424, -1.1888916738561772 
3.8800000000037635, -1.1886575075677395 
3.8900000000037847, -1.1883998412140884 
3.9000000000038058, -1.1881169865991685 
3.910000000003827, -1.1878082546270807 
3.920000000003848, -1.187474637227629 
3.930000000003869, -1.1871201599335437 
3.94000000000389, -1.1867534927902028 
3.9500000000039113, -1.186388853729161 
3.9600000000039324, -1.1860448104600696 
3.9700000000039535, -1.1857400628221255 
3.9800000000039746, -1.1854871674402925 
3.9900000000039957, -1.1852873930849281 
4.000000000004016, -1.185130048700397 
4.010000000003993, -1.184996785357396 
4.02000000000397, -1.1848680347217473 
4.030000000003946, -1.184728031027578 
4.040000000003923, -1.1845667802231188 
4.0500000000039, -1.184379526430725 
4.0600000000038765, -1.184165133906521 
4.070000000003853, -1.1839245299021184 
4.08000000000383, -1.1836597611523385 
4.090000000003807, -1.1833737933492021 
4.100000000003783, -1.1830709751241857 
4.11000000000376, -1.1827579427377983 
4.120000000003737, -1.1824445117263382 
4.130000000003713, -1.1821437922981606 
4.14000000000369, -1.1818706544832396 
4.150000000003667, -1.1816382223057684 
4.1600000000036434, -1.1814534029296153 
4.17000000000362, -1.181313692807246 
4.180000000003597, -1.1812072806767506 
4.1900000000035735, -1.1811165643332517 
4.20000000000355, -1.1810231750690607 
4.210000000003527, -1.1809121261373918 
4.220000000003504, -1.1807737872362742 
4.23000000000348, -1.1806038105328862 
4.240000000003457, -1.1804019139490662 
4.250000000003434, -1.180170452789934 
4.26000000000341, -1.1799133598925962 
4.270000000003387, -1.1796356596304227 
4.280000000003364, -1.1793434960764988 
4.2900000000033405, -1.1790444353530016 
4.300000000003317, -1.178747654242342 
4.310000000003294, -1.1784635416686133 
4.320000000003271, -1.1782023598484783 
4.330000000003247, -1.177972064855167 
4.340000000003224, -1.1777760250180365 
4.350000000003201, -1.1776117126122392 
4.360000000003177, -1.1774710763681717 
4.370000000003154, -1.1773424347605281 
4.380000000003131, -1.1772130355962478 
4.390000000003107, -1.1770713464506832 
4.400000000003084, -1.1769085353801971 
4.410000000003061, -1.176719070271845 
4.4200000000030375, -1.1765006547017018 
4.430000000003014, -1.1762538073826305 
4.440000000002991, -1.1759813584347367 
4.450000000002968, -1.1756880412273958 
4.460000000002944, -1.175380230402811 
4.470000000002921, -1.1750657321910856 
4.480000000002898, -1.1747534096654237 
4.490000000002874, -1.174452396768374 
4.500000000002851, -1.1741708043168075 
4.510000000002828, -1.1739141476200277 
4.520000000002804, -1.173684047625978 
4.530000000002781, -1.1734777900014888 
4.540000000002758, -1.1732889591679625 
4.5500000000027345, -1.1731088426120277 
4.560000000002711, -1.1729280153004917 
4.570000000002688, -1.1727376182404659 
4.580000000002665, -1.172530163243716 
4.590000000002641, -1.1722999631612672 
4.600000000002618, -1.172043379616219 
4.610000000002595, -1.1717590329540997 
4.620000000002571, -1.1714480202807505 
4.630000000002548, -1.171114097659093 
4.640000000002525, -1.170763715887954 
4.6500000000025015, -1.1704057484510977 
4.660000000002478, -1.1700507284831942 
4.670000000002455, -1.1697094782410227 
4.6800000000024315, -1.1693912379826217 
4.690000000002408, -1.1691017475881886 
4.700000000002385, -1.1688419826644565 
4.710000000002362, -1.1686081099511543 
4.720000000002338, -1.1683926718902458 
4.730000000002315, -1.168186408982153 
4.740000000002292, -1.1679799344437192 
4.750000000002268, -1.1677647673489595 
4.760000000002245, -1.167533696960829 
4.770000000002222, -1.1672807666349259 
4.7800000000021985, -1.1670012407820312 
4.790000000002175, -1.166691834568194 
4.800000000002152, -1.1663513329009207 
4.810000000002129, -1.1659815325595915 
4.820000000002105, -1.1655882124814236 
4.830000000002082, -1.165181614442988 
4.840000000002059, -1.1647758226857126 
4.850000000002035, -1.1643866462126735 
4.860000000002012, -1.1640282344589439 
4.870000000001989, -1.1637094988383831 
4.880000000001965, -1.1634318856690278 
4.890000000001942, -1.1631895698420611 
4.900000000001919, -1.162971849063195 
4.9100000000018955, -1.1627663814533602 
4.920000000001872, -1.1625617853907886 
4.930000000001849, -1.162348888210546 
4.940000000001826, -1.162120780895324 
