t, s[1].omega / s[0].omega 
0, -0.21999780767618965 
0.009999999999999995, -0.2197806737824935 
0.019999999999999934, -0.2195672228848732 
0.029999999999999874, -0.21935616101940508 
0.04000000000000012, -0.21914567598260817 
0.050000000000000405, -0.21893380209292426 
0.06000000000000069, -0.21871871833742346 
0.07000000000000098, -0.21849890457178703 
0.08000000000000126, -0.2182731502930444 
0.09000000000000155, -0.21804045903176697 
0.10000000000000184, -0.21779990606932015 
0.11000000000000212, -0.2175504988681809 
0.12000000000000241, -0.2172910762069781 
0.130000000000002, -0.2170202754509944 
0.1400000000000009, -0.2167365994187973 
0.1499999999999998, -0.21643861684656923 
0.1599999999999987, -0.2161253169451427 
0.1699999999999976, -0.21579658977117094 
0.1799999999999965, -0.21545371596175444 
0.1899999999999954, -0.2150996592214617 
0.1999999999999943, -0.214738945175672 
0.2099999999999932, -0.21437704777766528 
0.2199999999999921, -0.21401944522728528 
0.229999999999991, -0.21367068854282456 
0.2399999999999899, -0.21333380733320437 
0.2499999999999888, -0.21301018315982062 
0.2599999999999877, -0.21269980497482863 
0.2699999999999866, -0.21240171179260486 
0.2799999999999855, -0.21211444072332322 
0.2899999999999844, -0.21183637359063429 
0.2999999999999833, -0.21156594988991612 
0.3099999999999822, -0.21130175840165472 
0.3199999999999811, -0.2110425340762833 
0.32999999999998, -0.21078708310470712 
0.3399999999999789, -0.2105341508205721 
0.3499999999999778, -0.2102822456072503 
0.35999999999997667, -0.2100294471108397 
0.36999999999997557, -0.209773265121856 
0.37999999999997447, -0.20951066904588694 
0.38999999999997337, -0.20923843773170941 
0.39999999999997227, -0.20895391086906204 
0.40999999999997117, -0.20865600176758153 
0.41999999999997006, -0.2083460415471543 
0.42999999999996896, -0.20802792790451957 
0.43999999999996786, -0.20770735763399414 
0.44999999999996676, -0.20739046589440444 
0.45999999999996566, -0.20708251969768918 
0.46999999999996456, -0.20678717077887065 
0.47999999999996346, -0.20650636947764583 
0.48999999999996235, -0.20624072951032696 
0.49999999999996125, -0.20599005817891475 
0.5099999999999602, -0.20575384980020886 
0.519999999999959, -0.2055316546851648 
0.529999999999958, -0.20532331282594085 
0.5399999999999568, -0.2051290709775358 
0.5499999999999557, -0.20494959935016607 
0.5599999999999546, -0.20478590671983327 
0.5699999999999535, -0.20463913369085204 
0.5799999999999524, -0.2045101961211025 
0.5899999999999513, -0.20439927138862957 
0.5999999999999502, -0.2043051874085149 
0.6099999999999491, -0.20422488868837366 
0.619999999999948, -0.20415326463357641 
0.6299999999999469, -0.20408361723468124 
0.6399999999999458, -0.2040088111091467 
0.6499999999999447, -0.20392275123015963 
0.6599999999999436, -0.20382156483278852 
0.6699999999999425, -0.20370399995346883 
0.6799999999999414, -0.2035710131936051 
0.6899999999999403, -0.2034249195492682 
0.6999999999999392, -0.20326854971995542 
0.7099999999999381, -0.2031046746573983 
0.719999999999937, -0.20293573653975025 
0.7299999999999359, -0.20276380425731994 
0.7399999999999348, -0.20259065072032464 
0.7499999999999337, -0.2024178756363441 
0.7599999999999326, -0.2022470281341579 
0.7699999999999315, -0.20207970119201502 
0.7799999999999304, -0.20191757323150922 
0.7899999999999293, -0.20176236801447742 
0.7999999999999282, -0.20161570272421972 
0.8099999999999271, -0.20147880886241648 
0.819999999999926, -0.20135215197453576 
0.8299999999999249, -0.201235041778971 
0.8399999999999238, -0.20112538665131732 
0.8499999999999227, -0.20101975483063686 
0.8599999999999216, -0.20091381612428827 
0.8699999999999205, -0.20080306928175565 
0.8799999999999194, -0.20068360860028361 
0.8899999999999183, -0.2005526606999423 
0.8999999999999172, -0.20040874897333788 
0.9099999999999161, -0.20025152287484826 
0.919999999999915, -0.20008140383181963 
0.9299999999999139, -0.1998992083513855 
0.9399999999999128, -0.19970585166211693 
0.9499999999999117, -0.19950217054284086 
0.9599999999999106, -0.19928886342267468 
0.9699999999999095, -0.19906653040980232 
0.9799999999999084, -0.1988357922270258 
0.9899999999999073, -0.19859746103643433 
0.9999999999999062, -0.19835272030523313 
1.0099999999999052, -0.19810324880405322 
1.019999999999904, -0.1978512123874942 
1.029999999999903, -0.19759906970665875 
1.039999999999902, -0.19734920441361176 
1.0499999999999008, -0.19710348298981645 
1.0599999999998997, -0.1968628917613517 
1.0699999999998986, -0.19662738622735537 
1.0799999999998975, -0.19639599588282475 
1.0899999999998964, -0.19616712065854472 
1.0999999999998953, -0.1959388905803012 
1.1099999999998942, -0.19570946418637208 
1.119999999999893, -0.1954771955839139 
1.129999999999892, -0.19524066451081148 
1.1399999999998909, -0.19499860663963015 
1.1499999999998898, -0.19474979478401674 
1.1599999999998887, -0.19449291644847672 
1.1699999999998876, -0.19422648472096077 
1.1799999999998865, -0.19394881767237074 
1.1899999999998854, -0.19365812663993995 
1.1999999999998843, -0.1933527560585458 
1.2099999999998832, -0.19303159697691213 
1.219999999999882, -0.19269463140881637 
1.229999999999881, -0.19234345624653215 
1.2399999999998799, -0.1919815388317737 
1.2499999999998788, -0.19161397373018077 
1.2599999999998777, -0.19124670262558016 
1.2699999999998766, -0.19088543886644857 
1.2799999999998755, -0.19053470132956152 
1.2899999999998744, -0.1901972818758933 
1.2999999999998733, -0.18987422570657486 
1.3099999999998722, -0.18956518261055735 
1.319999999999871, -0.18926890514985809 
1.32999999999987, -0.18898371200569647 
1.3399999999998689, -0.18870782378635137 
1.3499999999998678, -0.18843955314677394 
1.3599999999998666, -0.18817736979245217 
1.3699999999998655, -0.18791986976912028 
1.3799999999998644, -0.18766567222782726 
1.3899999999998633, -0.18741325974362338 
1.3999999999998622, -0.18716078201993339 
1.4099999999998611, -0.18690586714121565 
1.41999999999986, -0.18664553247100002 
1.429999999999859, -0.1863763404988902 
1.4399999999998578, -0.18609494590575962 
1.4499999999998567, -0.1857990459210283 
1.4599999999998556, -0.18548845916686846 
1.4699999999998545, -0.18516578913374154 
1.4799999999998534, -0.18483618229764417 
1.4899999999998523, -0.18450616847714382 
1.4999999999998512, -0.1841821257172655 
1.5099999999998501, -0.18386906741871858 
1.519999999999849, -0.18357013463527308 
1.529999999999848, -0.18328673864179762 
1.5399999999998468, -0.18301906163036333 
1.5499999999998457, -0.18276662963028623 
1.5599999999998446, -0.18252879119264734 
1.5699999999998435, -0.18230504814154802 
1.5799999999998424, -0.1820952459828771 
1.5899999999998413, -0.18189964686600513 
1.5999999999998402, -0.18171889690045373 
1.6099999999998391, -0.18155387913772372 
1.619999999999838, -0.18140542743310517 
1.629999999999837, -0.1812738805696008 
1.6399999999998358, -0.1811585007601128 
1.6499999999998347, -0.1810568802940903 
1.6599999999998336, -0.18096459198649675 
1.6699999999998325, -0.18087540744641853 
1.6799999999998314, -0.18078226744253528 
1.6899999999998303, -0.18067879773358425 
1.6999999999998292, -0.18056075037677033 
1.709999999999828, -0.18042670316698875 
1.719999999999827, -0.18027778446259096 
1.729999999999826, -0.18011674594752108 
1.7399999999998248, -0.179946936277533 
1.7499999999998237, -0.1797715684459334 
1.7599999999998226, -0.17959338111965253 
1.7699999999998215, -0.17941460098192194 
1.7799999999998204, -0.17923706492882668 
1.7899999999998193, -0.17906239360250126 
1.7999999999998182, -0.1788921547654396 
1.809999999999817, -0.1787279855859772 
1.819999999999816, -0.1785716528673932 
1.8299999999998149, -0.17842502663761808 
1.8399999999998138, -0.17828993619269035 
1.8499999999998127, -0.17816788230607583 
1.8599999999998116, -0.17805961008370444 
1.8699999999998105, -0.1779646130324851 
1.8799999999998094, -0.17788072717724102 
1.8899999999998083, -0.1778040336156675 
1.8999999999998072, -0.1777292427218078 
1.909999999999806, -0.17765054638195682 
1.919999999999805, -0.1775626761508951 
1.9299999999998039, -0.17746177268059507 
1.9399999999998028, -0.17734577301837137 
1.9499999999998017, -0.17721428188063484 
1.9599999999998006, -0.17706811485401985 
1.9699999999997995, -0.17690876223571406 
1.9799999999997984, -0.17673794961522155 
1.9899999999997973, -0.1765573631566806 
1.9999999999997962, -0.17636853195037716 
2.0099999999998173, -0.1761728293200461 
2.0199999999998384, -0.17597155193409 
2.0299999999998595, -0.17576603925415077 
2.0399999999998806, -0.1755577942438881 
2.0499999999999017, -0.17534855812380684 
2.059999999999923, -0.17514028613110016 
2.069999999999944, -0.17493498303271415 
2.079999999999965, -0.17473439849213096 
2.089999999999986, -0.17453964776916955 
2.100000000000007, -0.17435088283140002 
2.1100000000000283, -0.1741671515625454 
2.1200000000000494, -0.17398652510874554 
2.1300000000000705, -0.17380646471778577 
2.1400000000000916, -0.17362429758724113 
2.1500000000001127, -0.17343763573403984 
2.160000000000134, -0.17324461896995352 
2.170000000000155, -0.17304395447619852 
2.180000000000176, -0.17283480345134378 
2.190000000000197, -0.1726165972967394 
2.2000000000002182, -0.17238885734962472 
2.2100000000002393, -0.17215106772767994 
2.2200000000002604, -0.1719026303593351 
2.2300000000002815, -0.17164292046276564 
2.2400000000003026, -0.17137145297860099 
2.2500000000003237, -0.17108815275428377 
2.260000000000345, -0.1707936826015491 
2.270000000000366, -0.17048972747313418 
2.280000000000387, -0.17017909066159798 
2.290000000000408, -0.16986547922718986 
2.3000000000004293, -0.16955296789520707 
2.3100000000004504, -0.16924528872928335 
2.3200000000004715, -0.16894519366414892 
2.3300000000004926, -0.1686541026293547 
2.3400000000005137, -0.1683721074341212 
2.3500000000005348, -0.16809825039549403 
2.360000000000556, -0.16783091978103842 
2.370000000000577, -0.1675682154507162 
2.380000000000598, -0.16730819952907394 
2.390000000000619, -0.16704901204576092 
2.4000000000006403, -0.16678887354947242 
2.4100000000006614, -0.1665260125456509 
2.4200000000006825, -0.16625855585352547 
2.4300000000007036, -0.16598441816695061 
2.4400000000007247, -0.16570123315180726 
2.450000000000746, -0.16540638504000696 
2.460000000000767, -0.16509721784861292 
2.470000000000788, -0.16477149249934314 
2.480000000000809, -0.16442808987252794 
2.49000000000083, -0.16406779968413804 
2.5000000000008513, -0.16369385328032535 
2.5100000000008724, -0.16331181767852138 
2.5200000000008935, -0.1629287075875337 
2.5300000000009146, -0.16255159674335254 
2.5400000000009357, -0.1621862961781754 
2.550000000000957, -0.16183658248594984 
2.560000000000978, -0.16150410984544278 
2.570000000000999, -0.16118882011818378 
2.58000000000102, -0.1608895523569911 
2.5900000000010412, -0.1606046155907293 
2.6000000000010624, -0.1603322093432215 
2.6100000000010835, -0.16007067104202793 
2.6200000000011046, -0.15981857491421023 
2.6300000000011257, -0.15957471461872547 
2.6400000000011468, -0.1593379913360611 
2.650000000001168, -0.15910721711893383 
2.660000000001189, -0.15888084412617126 
2.67000000000121, -0.158656657660705 
2.680000000001231, -0.15843153356368297 
2.6900000000012523, -0.15820144322873622 
2.7000000000012734, -0.1579619244043729 
2.7100000000012945, -0.1577091082190331 
2.7200000000013156, -0.1574410498919472 
2.7300000000013367, -0.1571587364164231 
2.740000000001358, -0.1568661289249667 
2.750000000001379, -0.15656911632658782 
2.7600000000014, -0.15627392603969184 
2.770000000001421, -0.15598577235556632 
2.780000000001442, -0.15570820567633753 
2.7900000000014633, -0.1554431453365839 
2.8000000000014844, -0.15519130825391156 
2.8100000000015055, -0.15495273977254548 
2.8200000000015266, -0.15472727143265808 
2.8300000000015477, -0.1545148443423162 
2.840000000001569, -0.1543156988092524 
2.85000000000159, -0.15413044630737155 
2.860000000001611, -0.15396002862681135 
2.870000000001632, -0.1538055488542865 
2.8800000000016532, -0.15366794509716147 
2.8900000000016743, -0.1535474893357907 
2.9000000000016954, -0.15344315333799297 
2.9100000000017165, -0.1533520028439627 
2.9200000000017377, -0.15326892241876808 
2.9300000000017588, -0.15318701474197755 
2.94000000000178, -0.15309880567278505 
2.950000000001801, -0.15299792429839298 
2.960000000001822, -0.15288052967138815 
2.970000000001843, -0.15274582804551234 
2.9800000000018643, -0.15259557327529402 
2.9900000000018854, -0.15243299727601436 
3.0000000000019065, -0.1522617570920271 
3.0100000000019276, -0.15208524874174925 
3.0200000000019487, -0.15190633243121116 
3.03000000000197, -0.151727345148068 
3.040000000001991, -0.15155025308551678 
3.050000000002012, -0.15137683962261045 
3.060000000002033, -0.15120887163840022 
3.070000000002054, -0.15104821342896332 
3.0800000000020753, -0.15089686332461774 
3.0900000000020964, -0.1507568824736764 
3.1000000000021175, -0.15063018111932616 
3.1100000000021386, -0.15051814125031532 
3.1200000000021597, -0.15042110237989356 
3.130000000002181, -0.1503378245432058 
3.140000000002202, -0.15026514156498288 
3.150000000002223, -0.15019805407670273 
3.160000000002244, -0.15013039878713955 
3.1700000000022652, -0.1500559644473747 
3.1800000000022863, -0.1499696581649415 
3.1900000000023074, -0.14986827489436055 
3.2000000000023285, -0.14975064756071338 
3.2100000000023496, -0.14961727613949835 
3.2200000000023707, -0.14946972019004898 
3.230000000002392, -0.14931002258215667 
3.240000000002413, -0.14914030621788818 
3.250000000002434, -0.14896256646438438 
3.260000000002455, -0.14877861946538742 
3.2700000000024763, -0.148590151595589 
3.2800000000024974, -0.14839882100941207 
3.2900000000025185, -0.14820636831450978 
3.3000000000025396, -0.14801469246474747 
3.3100000000025607, -0.1478258437810167 
3.3200000000025818, -0.14764189032138791 
3.330000000002603, -0.14746464046029834 
3.340000000002624, -0.14729525888629105 
3.350000000002645, -0.14713388104935426 
3.360000000002666, -0.14697937668235234 
3.3700000000026873, -0.14682939526427674 
3.3800000000027084, -0.14668072990401654 
3.3900000000027295, -0.14652989829414514 
3.4000000000027506, -0.146373740059834 
3.4100000000027717, -0.14620983468637552 
3.420000000002793, -0.14603664615269998 
3.430000000002814, -0.1458534256770446 
3.440000000002835, -0.14565997935852948 
3.450000000002856, -0.14545641358481814 
3.460000000002877, -0.14524293572930275 
3.4700000000028983, -0.14501974716156235 
3.4800000000029194, -0.14478703851537678 
3.4900000000029405, -0.14454508251952833 
3.5000000000029616, -0.14429440666569615 
3.5100000000029827, -0.14403600621608545 
3.520000000003004, -0.14377152675560922 
3.530000000003025, -0.1435033203106465 
3.540000000003046, -0.14323428908514418 
3.550000000003067, -0.1429674972493244 
3.5600000000030882, -0.1427056371446202 
3.5700000000031094, -0.14245052225501245 
3.5800000000031305, -0.14220278428368108 
3.5900000000031516, -0.14196186631268481 
3.6000000000031727, -0.1417262797487331 
3.6100000000031938, -0.1414939994918262 
3.620000000003215, -0.1412628494674499 
3.630000000003236, -0.1410307726598205 
3.640000000003257, -0.14079594899531844 
3.650000000003278, -0.14055678267937483 
3.6600000000032993, -0.1403118096384674 
3.6700000000033204, -0.14005957944285202 
3.6800000000033415, -0.13979855907441852 
3.6900000000033626, -0.1395271007413772 
3.7000000000033837, -0.13924351611600685 
3.710000000003405, -0.1389462970165121 
3.720000000003426, -0.138634499572684 
3.730000000003447, -0.1383082457986594 
3.740000000003468, -0.13796919549652067 
3.750000000003489, -0.13762075481891448 
3.7600000000035103, -0.13726780969933658 
3.7700000000035314, -0.13691595647250288 
3.7800000000035525, -0.13657046458631855 
3.7900000000035736, -0.13623535742112408 
3.8000000000035947, -0.13591291878490627 
3.810000000003616, -0.1356036982422078 
3.820000000003637, -0.13530687494774943 
3.830000000003658, -0.13502075830023869 
3.840000000003679, -0.1347432431407651 
3.8500000000037002, -0.13447212531737254 
3.8600000000037213, -0.1342052601910494 
3.8700000000037424, -0.1339405892604192 
3.8800000000037635, -0.1336760731401551 
3.8900000000037847, -0.13340956781165345 
3.9000000000038058, -0.13313868054421457 
3.910000000003827, -0.1328606532028202 
3.920000000003848, -0.13257234772524323 
3.930000000003869, -0.13227044076957464 
3.94000000000389, -0.13195193568629324 
3.9500000000039113, -0.13161501054552355 
3.9600000000039324, -0.1312600072845866 
3.9700000000039535, -0.13089011714851823 
3.9800000000039746, -0.130511267554247 
3.9900000000039957, -0.1301310492364767 
4.000000000004016, -0.1297570763674821 
4.010000000003993, -0.12939549485112803 
4.02000000000397, -0.12905018501591925 
4.030000000003946, -0.12872275012547063 
4.040000000003923, -0.12841302588519238 
4.0500000000039, -0.12811976053136437 
4.0600000000038765, -0.12784121808585036 
4.070000000003853, -0.12757559997667095 
4.08000000000383, -0.12732127761976503 
4.090000000003807, -0.1270768679889681 
4.100000000003783, -0.12684118532777305 
4.11000000000376, -0.12661308813892655 
4.120000000003737, -0.1263912298790362 
4.130000000003713, -0.1261737305952184 
4.14000000000369, -0.12595783073955055 
4.150000000003667, -0.1257396728128079 
4.1600000000036434, -0.12551444744112794 
4.17000000000362, -0.12527713527242346 
4.180000000003597, -0.12502384223715754 
4.1900000000035735, -0.12475327543351492 
4.20000000000355, -0.12446756766847382 
4.210000000003527, -0.12417186943295037 
4.220000000003504, -0.12387286685111965 
4.23000000000348, -0.12357702491776897 
4.240000000003457, -0.12328935562846685 
4.250000000003434, -0.12301301168593141 
4.26000000000341, -0.1227495261568001 
4.270000000003387, -0.12249934640899314 
4.280000000003364, -0.12226238396531897 
4.2900000000033405, -0.12203844428969482 
4.300000000003317, -0.12182750447275384 
4.310000000003294, -0.12162985088478317 
4.320000000003271, -0.12144609073495109 
4.330000000003247, -0.12127703366362985 
4.340000000003224, -0.12112342063681605 
4.350000000003201, -0.12098547661439703 
4.360000000003177, -0.12086230507853743 
4.370000000003154, -0.1207512482634066 
4.380000000003131, -0.12064749213347843 
4.390000000003107, -0.12054429807453013 
4.400000000003084, -0.12043411152111708 
4.410000000003061, -0.12031033855300659 
4.4200000000030375, -0.12016904282441225 
4.430000000003014, -0.12000971229743104 
4.440000000002991, -0.11983479160694052 
4.450000000002968, -0.11964841692635877 
4.460000000002944, -0.1194550963499961 
4.470000000002921, -0.11925884160638238 
4.480000000002898, -0.11906284518511298 
4.490000000002874, -0.11886954159613079 
4.500000000002851, -0.11868084578483121 
4.510000000002828, -0.11849842290745585 
4.520000000002804, -0.11832391528324174 
4.530000000002781, -0.11815909476331429 
4.540000000002758, -0.1180059205205618 
4.5500000000027345, -0.11786647532985713 
4.560000000002711, -0.1177427429781545 
4.570000000002688, -0.11763619416189101 
4.580000000002665, -0.11754719097173194 
4.590000000002641, -0.11747431838651165 
4.600000000002618, -0.11741388893696483 
4.610000000002595, -0.11735995884522368 
4.620000000002571, -0.11730510122397675 
4.630000000002548, -0.1172418385426744 
4.640000000002525, -0.11716421508494053 
4.6500000000025015, -0.11706884337528893 
4.660000000002478, -0.11695505972044581 
4.670000000002455, -0.11682432846635689 
4.6800000000024315, -0.11667934011895598 
4.690000000002408, -0.11652321218688937 
4.700000000002385, -0.11635898360324595 
4.710000000002362, -0.1161894006442705 
4.720000000002338, -0.11601690524798988 
4.730000000002315, -0.11584373029819539 
4.740000000002292, -0.11567203014115286 
4.750000000002268, -0.11550399581427422 
4.760000000002245, -0.1153419128964565 
4.770000000002222, -0.1151881192384151 
4.7800000000021985, -0.11504482158162099 
4.790000000002175, -0.11491374980710041 
4.800000000002152, -0.11479567897370306 
4.810000000002129, -0.11468993204298157 
4.820000000002105, -0.11459405980576425 
