t, s[1].omega / s[0].omega 
0, -0.28999779831264816 
0.009999999999999995, -0.28977855330773067 
0.019999999999999934, -0.28956077013179604 
0.029999999999999874, -0.28934344580157256 
0.04000000000000012, -0.28912518715091984 
0.050000000000000405, -0.28890450094884174 
0.06000000000000069, -0.2886800221776481 
0.07000000000000098, -0.28845062205766436 
0.08000000000000126, -0.28821539609813845 
0.09000000000000155, -0.2879735701036676 
0.10000000000000184, -0.28772437059851375 
0.11000000000000212, -0.2874668966793846 
0.12000000000000241, -0.2872000184677759 
0.130000000000002, -0.28692232331587664 
0.1400000000000009, -0.28663213731598053 
0.1499999999999998, -0.28632766176409025 
0.1599999999999987, -0.28600726882592814 
0.1699999999999976, -0.2856699755270896 
0.1799999999999965, -0.28531603889777635 
0.1899999999999954, -0.28494749591784335 
0.1999999999999943, -0.28456837975354565 
0.2099999999999932, -0.2841843895568756 
0.2199999999999921, -0.283802018860873 
0.229999999999991, -0.2834274347249453 
0.2399999999999899, -0.28306553002812274 
0.2499999999999888, -0.2827194481003966 
0.2599999999999877, -0.2823906192446507 
0.2699999999999866, -0.2820791449955452 
0.2799999999999855, -0.28178430979175717 
0.2899999999999844, -0.2815050552155737 
0.2999999999999833, -0.2812403392438867 
0.3099999999999822, -0.28098936860642454 
0.3199999999999811, -0.2807517223807136 
0.32999999999998, -0.2805273874090445 
0.3399999999999789, -0.2803167138404241 
0.3499999999999778, -0.2801202828076578 
0.35999999999997667, -0.27993866741485407 
0.36999999999997557, -0.279772074447889 
0.37999999999997447, -0.27961989175036084 
0.38999999999997337, -0.279480242640885 
0.39999999999997227, -0.27934974222753467 
0.40999999999997117, -0.27922368778539824 
0.41999999999997006, -0.2790967976068278 
0.42999999999996896, -0.27896432456758974 
0.43999999999996786, -0.27882308637635045 
0.44999999999996676, -0.2786719414940594 
0.45999999999996566, -0.2785115615010842 
0.46999999999996456, -0.27834374482251356 
0.47999999999996346, -0.27817067376876875 
0.48999999999996235, -0.27799439557568595 
0.49999999999996125, -0.2778165937335687 
0.5099999999999602, -0.27763857552644755 
0.519999999999959, -0.27746136899392776 
0.529999999999958, -0.27728585005755085 
0.5399999999999568, -0.2771128583895825 
0.5499999999999557, -0.2769432853341637 
0.5599999999999546, -0.27677812559293097 
0.5699999999999535, -0.2766184813407468 
0.5799999999999524, -0.27646550005482 
0.5899999999999513, -0.27632022437477366 
0.5999999999999502, -0.2761833441837519 
0.6099999999999491, -0.2760548760261481 
0.619999999999948, -0.275933849442043 
0.6299999999999469, -0.2758181286456608 
0.6399999999999458, -0.2757044980140758 
0.6499999999999447, -0.27558905920056576 
0.6599999999999436, -0.27546784781304023 
0.6699999999999425, -0.2753374614091108 
0.6799999999999414, -0.2751954831404765 
0.6899999999999403, -0.2750405935301853 
0.6999999999999392, -0.27487240639321986 
0.7099999999999381, -0.2746911535563325 
0.719999999999937, -0.2744973485800662 
0.7299999999999359, -0.27429151443354644 
0.7399999999999348, -0.27407400963953665 
0.7499999999999337, -0.2738449568076852 
0.7599999999999326, -0.2736042681907293 
0.7699999999999315, -0.2733517641585927 
0.7799999999999304, -0.27308737865496124 
0.7899999999999293, -0.2728114293718168 
0.7999999999999282, -0.2725248959991254 
0.8099999999999271, -0.27222961008201635 
0.819999999999926, -0.2719282465652949 
0.8299999999999249, -0.27162405411421714 
0.8399999999999238, -0.2713203683780817 
0.8499999999999227, -0.27102006329101613 
0.8599999999999216, -0.2707251325785997 
0.8699999999999205, -0.2704365272574793 
0.8799999999999194, -0.27015425255201053 
0.8899999999999183, -0.2698776287690179 
0.8999999999999172, -0.26960559122575517 
0.9099999999999161, -0.26933693534927516 
0.919999999999915, -0.2690704664234674 
0.9299999999999139, -0.26880505631434776 
0.9399999999999128, -0.2685396296523518 
0.9499999999999117, -0.26827310383411335 
0.9599999999999106, -0.26800430152975024 
0.9699999999999095, -0.2677318510947474 
0.9799999999999084, -0.26745409653491337 
0.9899999999999073, -0.2671690581326531 
0.9999999999999062, -0.2668745137925714 
1.0099999999999052, -0.26656828973573043 
1.019999999999904, -0.2662488161000075 
1.029999999999903, -0.26591587699243247 
1.039999999999902, -0.265571288315588 
1.0499999999999008, -0.26521911190247266 
1.0599999999998997, -0.2648651425337469 
1.0699999999998986, -0.2645157843844782 
1.0799999999998975, -0.2641767896021491 
1.0899999999998964, -0.2638523698230961 
1.0999999999998953, -0.2635449168603072 
1.1099999999998942, -0.2632552423840399 
1.119999999999893, -0.26298308431629613 
1.129999999999892, -0.2627276469397511 
1.1399999999998909, -0.2624880425288986 
1.1499999999998898, -0.2622635949909984 
1.1599999999998887, -0.26205401657594124 
1.1699999999998876, -0.2618594814203192 
1.1799999999998865, -0.26168061009921034 
1.1899999999998854, -0.2615183610509945 
1.1999999999998843, -0.26137380817525224 
1.2099999999998832, -0.26124778031902385 
1.219999999999882, -0.26114036257166845 
1.229999999999881, -0.26105032501160286 
1.2399999999998799, -0.260974646327306 
1.2499999999998788, -0.2609083862767161 
1.2599999999998777, -0.26084513328175124 
1.2699999999998766, -0.2607780370321352 
1.2799999999998755, -0.2607011057505016 
1.2899999999998744, -0.2606102466799005 
1.2999999999998733, -0.26050365526597563 
1.3099999999998722, -0.2603815278583562 
1.319999999999871, -0.2602453871568423 
1.32999999999987, -0.2600973734769572 
1.3399999999998689, -0.2599397210496367 
1.3499999999998678, -0.2597744708296693 
1.3599999999998666, -0.25960337189802185 
1.3699999999998655, -0.2594278989370182 
1.3799999999998644, -0.2592493275663776 
1.3899999999998633, -0.25906883065560204 
1.3999999999998622, -0.2588875718695375 
1.4099999999998611, -0.2587067747296633 
1.41999999999986, -0.25852774025217573 
1.429999999999859, -0.2583517823214551 
1.4399999999998578, -0.2581800591336409 
1.4499999999998567, -0.2580133108661633 
1.4599999999998556, -0.2578515653361467 
1.4699999999998545, -0.25769392135984004 
1.4799999999998534, -0.2575385262498532 
1.4899999999998523, -0.2573828041893094 
1.4999999999998512, -0.2572238837466889 
1.5099999999998501, -0.2570590775192534 
1.519999999999849, -0.2568862477674405 
1.529999999999848, -0.2567039586346224 
1.5399999999998468, -0.2565114171260514 
1.5499999999998457, -0.2563082778703568 
1.5599999999998446, -0.256094404220958 
1.5699999999998435, -0.2558696561006743 
1.5799999999998424, -0.2556337432982669 
1.5899999999998413, -0.25538616181235024 
1.5999999999998402, -0.25512622430916354 
1.6099999999998391, -0.25485319649017396 
1.619999999999838, -0.25456654608785784 
1.629999999999837, -0.2542662863628143 
1.6399999999998358, -0.25395334529930846 
1.6499999999998347, -0.2536298313079184 
1.6599999999998336, -0.25329904154688376 
1.6699999999998325, -0.25296512057525733 
1.6799999999998314, -0.2526324249137524 
1.6899999999998303, -0.2523048010055361 
1.6999999999998292, -0.2519850304298972 
1.709999999999828, -0.25167460267687347 
1.719999999999827, -0.2513738155382067 
1.729999999999826, -0.2510820823475307 
1.7399999999998248, -0.25079829493939465 
1.7499999999998237, -0.25052113142544663 
1.7599999999998226, -0.2502492599740943 
1.7699999999998215, -0.24998143746305987 
1.7799999999998204, -0.24971652390985585 
1.7899999999998193, -0.24945343578737544 
1.7999999999998182, -0.2491910550179363 
1.809999999999817, -0.24892810608152877 
1.819999999999816, -0.24866301971434565 
1.8299999999998149, -0.2483938241827674 
1.8399999999998138, -0.24811814305923147 
1.8499999999998127, -0.24783341192082817 
1.8599999999998116, -0.24753740668180316 
1.8699999999998105, -0.24722904613927707 
1.8799999999998094, -0.24690920164757654 
1.8899999999998083, -0.24658107384723035 
1.8999999999998072, -0.246249802593313 
1.909999999999806, -0.24592138555555682 
1.919999999999805, -0.24560138993268393 
1.9299999999998039, -0.2452940078988246 
1.9399999999998028, -0.2450017232551236 
1.9499999999998017, -0.24472550959089617 
1.9599999999998006, -0.24446530632083419 
1.9699999999997995, -0.24422053655189052 
1.9799999999997984, -0.24399053301702306 
1.9899999999997973, -0.2437748315964013 
1.9999999999997962, -0.24357334200877517 
2.0099999999998173, -0.2433864171573767 
2.0199999999998384, -0.24321483240319713 
2.0299999999998595, -0.24305966752669464 
2.0399999999998806, -0.24292206825745954 
2.0499999999999017, -0.24280286319138908 
2.059999999999923, -0.24270204149077151 
2.069999999999944, -0.24261817017723097 
2.079999999999965, -0.2425479370993453 
2.089999999999986, -0.24248608655755954 
2.100000000000007, -0.24242596379240702 
2.1100000000000283, -0.24236063752958947 
2.1200000000000494, -0.24228423003525895 
2.1300000000000705, -0.24219291384933372 
2.1400000000000916, -0.24208521054864937 
2.1500000000001127, -0.24196161899387034 
2.160000000000134, -0.24182389616800046 
2.170000000000155, -0.24167434426614026 
2.180000000000176, -0.2415153054192701 
2.190000000000197, -0.24134889843121304 
2.2000000000002182, -0.241176940954763 
2.2100000000002393, -0.24100098258554725 
2.2200000000002604, -0.24082239111162687 
2.2300000000002815, -0.24064245499396325 
2.2400000000003026, -0.24046247659901945 
2.2500000000003237, -0.24028383121240865 
2.260000000000345, -0.2401079616572753 
2.270000000000366, -0.23993627737318085 
2.280000000000387, -0.23976994234712098 
2.290000000000408, -0.23960957602225658 
2.3000000000004293, -0.2394549475693748 
2.3100000000004504, -0.2393047875877214 
2.3200000000004715, -0.23915683296222218 
2.3300000000004926, -0.23900814103749082 
2.3400000000005137, -0.23885558872180862 
2.3500000000005348, -0.23869638284931724 
2.360000000000556, -0.2385284104740783 
2.370000000000577, -0.23835034635643165 
2.380000000000598, -0.2381615447063218 
2.390000000000619, -0.2379618086128666 
2.4000000000006403, -0.23775113617761212 
2.4100000000006614, -0.2375295116237745 
2.4200000000006825, -0.23729677513564615 
2.4300000000007036, -0.2370525845608249 
2.4400000000007247, -0.23679647578635593 
2.450000000000746, -0.2365280266762869 
2.460000000000767, -0.2362471183722803 
2.470000000000788, -0.23595425659869845 
2.480000000000809, -0.23565086605085178 
2.49000000000083, -0.23533942822855874 
2.5000000000008513, -0.2350233422548252 
2.5100000000008724, -0.23470647971314854 
2.5200000000008935, -0.23439254792730702 
2.5300000000009146, -0.23408448066389737 
2.5400000000009357, -0.23378406271644359 
2.550000000000957, -0.23349187454110557 
2.560000000000978, -0.23320750122094056 
2.570000000000999, -0.23292986935759608 
2.58000000000102, -0.2326575773705195 
2.5900000000010412, -0.23238913693658883 
2.6000000000010624, -0.23212310164332242 
2.6100000000010835, -0.23185809686456804 
2.6200000000011046, -0.23159277849384985 
2.6300000000011257, -0.23132574664446123 
2.6400000000011468, -0.23105543576121534 
2.650000000001168, -0.23078000461359616 
2.660000000001189, -0.2304972645392176 
2.67000000000121, -0.23020471196754758 
2.680000000001231, -0.22989975772370644 
2.6900000000012523, -0.22958023438969755 
2.7000000000012734, -0.22924516427643313 
2.7100000000012945, -0.2288955743383268 
2.7200000000013156, -0.22853495682564035 
2.7300000000013367, -0.22816900013671618 
2.740000000001358, -0.227804552234184 
2.750000000001379, -0.22744822340939316 
2.7600000000014, -0.2271052210657296 
2.770000000001421, -0.22677880435033057 
2.780000000001442, -0.22647037150864988 
2.7900000000014633, -0.2261799387514265 
2.8000000000014844, -0.2259067315455155 
2.8100000000015055, -0.22564970342022767 
2.8200000000015266, -0.22540790959491255 
2.8300000000015477, -0.22518073467465202 
2.840000000001569, -0.2249679996968131 
2.85000000000159, -0.2247699696408584 
2.860000000001611, -0.22458726467169682 
2.870000000001632, -0.2244206594299698 
2.8800000000016532, -0.2242707466214068 
2.8900000000016743, -0.2241374596876254 
2.9000000000016954, -0.2240195115294489 
2.9100000000017165, -0.2239139132172808 
2.9200000000017377, -0.22381584113212663 
2.9300000000017588, -0.22371911227522068 
2.94000000000178, -0.22361729993825383 
2.950000000001801, -0.22350513423563095 
2.960000000001822, -0.22337957350986382 
2.970000000001843, -0.22324008134248152 
2.9800000000018643, -0.22308811574601534 
2.9900000000018854, -0.22292623442121706 
3.0000000000019065, -0.22275726995150125 
3.0100000000019276, -0.22258381657172702 
3.0200000000019487, -0.2224080376723438 
3.03000000000197, -0.22223168758157336 
3.040000000001991, -0.22205623337490046 
3.050000000002012, -0.2218829998715576 
3.060000000002033, -0.22171329772071244 
3.070000000002054, -0.22154851415955323 
3.0800000000020753, -0.22139014949440497 
3.0900000000020964, -0.22123977683858825 
3.1000000000021175, -0.22109889802502333 
3.1100000000021386, -0.22096867708769005 
3.1200000000021597, -0.2208495661463623 
3.130000000002181, -0.22074089960512416 
3.140000000002202, -0.22064060130883395 
3.150000000002223, -0.2205451775910526 
3.160000000002244, -0.22045010360379091 
3.1700000000022652, -0.22035054669915177 
3.1800000000022863, -0.22024219343368046 
3.1900000000023074, -0.22012188387480863 
3.2000000000023285, -0.2199878622292744 
3.2100000000023496, -0.21983964617093438 
3.2200000000023707, -0.2196776633582896 
3.230000000002392, -0.21950283475503504 
3.240000000002413, -0.21931623008232365 
3.250000000002434, -0.21911884705561185 
3.260000000002455, -0.2189115156075725 
3.2700000000024763, -0.2186949079032078 
3.2800000000024974, -0.21846963194768917 
3.2900000000025185, -0.2182363853474946 
3.3000000000025396, -0.2179961359369278 
3.3100000000025607, -0.21775027644851197 
3.3200000000025818, -0.21750068244226467 
3.330000000002603, -0.2172496079139914 
3.340000000002624, -0.21699939941476537 
3.350000000002645, -0.2167520895243138 
3.360000000002666, -0.21650900242218038 
3.3700000000026873, -0.21627051713085232 
3.3800000000027084, -0.2160360705938143 
3.3900000000027295, -0.21580437832536403 
3.4000000000027506, -0.21557376626515357 
3.4100000000027717, -0.21534248557395858 
3.420000000002793, -0.21510892013679556 
3.430000000002814, -0.21487165944217082 
3.440000000002835, -0.21462946029010266 
3.450000000002856, -0.2143811431134889 
3.460000000002877, -0.21412546808328559 
3.4700000000028983, -0.21386102750777486 
3.4800000000029194, -0.21358618672121024 
3.4900000000029405, -0.21329911020108655 
3.5000000000029616, -0.21299791815873853 
3.5100000000029827, -0.21268101584831672 
3.520000000003004, -0.21234759929037894 
3.530000000003025, -0.2119982495347897 
3.540000000003046, -0.21163540538943582 
3.550000000003067, -0.21126343863169977 
3.5600000000030882, -0.21088815330192107 
3.5700000000031094, -0.2105157966953343 
3.5800000000031305, -0.21015193816967798 
3.5900000000031516, -0.20980063377601882 
3.6000000000031727, -0.20946411096784057 
3.6100000000031938, -0.20914293941180584 
3.620000000003215, -0.20883648393600432 
3.630000000003236, -0.20854341834493134 
3.640000000003257, -0.20826215490946 
3.650000000003278, -0.20799113373741882 
3.6600000000032993, -0.2077289751895952 
3.6700000000033204, -0.20747452120291793 
3.6800000000033415, -0.20722678994040677 
3.6900000000033626, -0.2069848573641558 
3.7000000000033837, -0.2067476715972516 
3.710000000003405, -0.2065138126096176 
3.720000000003426, -0.206281241537484 
3.730000000003447, -0.20604714382700978 
3.740000000003468, -0.2058080344211397 
3.750000000003489, -0.20556029112659524 
3.7600000000035103, -0.20530112312432625 
3.7700000000035314, -0.20502966724594196 
3.7800000000035525, -0.20474764794881262 
3.7900000000035736, -0.20445914677631377 
3.8000000000035947, -0.2041695328467103 
3.810000000003616, -0.20388410444360372 
3.820000000003637, -0.2036070638132733 
3.830000000003658, -0.20334111786527673 
3.840000000003679, -0.20308761866681838 
3.8500000000037002, -0.20284698350647287 
3.8600000000037213, -0.20261916159178592 
3.8700000000037424, -0.20240401978983721 
3.8800000000037635, -0.20220160919532354 
3.8900000000037847, -0.20201231878285641 
3.9000000000038058, -0.2018369301446418 
3.910000000003827, -0.20167657491005073 
3.920000000003848, -0.2015325779160621 
3.930000000003869, -0.20140615715561547 
3.94000000000389, -0.2012979615845661 
3.9500000000039113, -0.20120747859031868 
3.9600000000039324, -0.20113244298520777 
3.9700000000039535, -0.20106849838586083 
3.9800000000039746, -0.2010094061011471 
3.9900000000039957, -0.2009479478935608 
4.000000000004016, -0.2008773192900167 
4.010000000003993, -0.200792473802694 
4.02000000000397, -0.20069085787593552 
4.030000000003946, -0.20057232911607933 
4.040000000003923, -0.20043848591282565 
4.0500000000039, -0.20029183016367824 
4.0600000000038765, -0.20013508974077848 
4.070000000003853, -0.19997082094516305 
4.08000000000383, -0.19980125860841422 
4.090000000003807, -0.19962832629039692 
4.100000000003783, -0.19945372638807837 
4.11000000000376, -0.19927905572431973 
4.120000000003737, -0.19910591165383942 
4.130000000003713, -0.19893596037671857 
4.14000000000369, -0.19877093664553874 
4.150000000003667, -0.19861254169760917 
4.1600000000036434, -0.19846221674173717 
4.17000000000362, -0.19832080412510728 
4.180000000003597, -0.19818816783463283 
4.1900000000035735, -0.1980629076068255 
4.20000000000355, -0.19794232258513367 
4.210000000003527, -0.19782271874000285 
4.220000000003504, -0.1977000124828984 
4.23000000000348, -0.19757043497175852 
4.240000000003457, -0.1974310896929117 
4.250000000003434, -0.19728019977040306 
4.26000000000341, -0.19711703690003965 
4.270000000003387, -0.1969416450249423 
4.280000000003364, -0.19675450401409192 
4.2900000000033405, -0.19655624145527412 
4.300000000003317, -0.19634744433081974 
4.310000000003294, -0.19612858128986194 
4.320000000003271, -0.19590002747192695 
4.330000000003247, -0.19566217759887827 
4.340000000003224, -0.1954156256415266 
4.350000000003201, -0.1951613714703512 
4.360000000003177, -0.19490098782445106 
4.370000000003154, -0.19463666106832003 
4.380000000003131, -0.19437103346974893 
4.390000000003107, -0.1941068398863311 
4.400000000003084, -0.1938464283285574 
4.410000000003061, -0.19359132551786742 
4.4200000000030375, -0.19334200217122427 
4.430000000003014, -0.19309790596756252 
4.440000000002991, -0.19285771580917538 
4.450000000002968, -0.19261969432972964 
4.460000000002944, -0.1923820081814756 
4.470000000002921, -0.1921429331096768 
4.480000000002898, -0.19190092431058386 
4.490000000002874, -0.19165457902376085 
4.500000000002851, -0.1914025368405989 
4.510000000002828, -0.19114336189885522 
4.520000000002804, -0.19087544451179594 
4.530000000002781, -0.19059695865583623 
4.540000000002758, -0.19030591863731314 
4.5500000000027345, -0.19000038538045758 
4.560000000002711, -0.18967886069526535 
4.570000000002688, -0.1893408506092674 
4.580000000002665, -0.1889874665634132 
4.590000000002641, -0.18862181055095545 
4.600000000002618, -0.1882488662149378 
4.610000000002595, -0.18787478650735134 
4.620000000002571, -0.187505774694192 
4.630000000002548, -0.18714698338340952 
4.640000000002525, -0.18680182505538037 
4.6500000000025015, -0.18647183943051374 
4.660000000002478, -0.186157001577235 
4.670000000002455, -0.1858562345782112 
4.6800000000024315, -0.18556791752983287 
4.690000000002408, -0.1852902725676004 
4.700000000002385, -0.18502159970103946 
4.710000000002362, -0.18476037582128269 
4.720000000002338, -0.18450524764757703 
4.730000000002315, -0.1842549428446394 
4.740000000002292, -0.18400811418571725 
4.750000000002268, -0.1837631310510407 
4.760000000002245, -0.1835178518985218 
4.770000000002222, -0.18326945759892763 
4.7800000000021985, -0.18301448827691946 
4.790000000002175, -0.18274925623265553 
4.800000000002152, -0.18247071573830537 
4.810000000002129, -0.1821776026675142 
4.820000000002105, -0.18187133342230402 
4.830000000002082, -0.18155608596965556 
4.840000000002059, -0.18123788034223526 
