t, s[1].omega / s[0].omega 
0, -0.07999781870513072 
0.009999999999999995, -0.07978330528744562 
0.019999999999999934, -0.07957540450669272 
0.029999999999999874, -0.07937260713446698 
0.04000000000000012, -0.07917277380024332 
0.050000000000000405, -0.07897354895117156 
0.06000000000000069, -0.07877272509296916 
0.07000000000000098, -0.07856846807928178 
0.08000000000000126, -0.07835938412625891 
0.09000000000000155, -0.07814446662911105 
0.10000000000000184, -0.07792298576992658 
0.11000000000000212, -0.07769438041143158 
0.12000000000000241, -0.07745819538699017 
0.130000000000002, -0.07721409018673933 
0.1400000000000009, -0.07696192966883643 
0.1499999999999998, -0.07670194854697948 
0.1599999999999987, -0.07643495286806819 
0.1699999999999976, -0.07616248578308513 
0.1799999999999965, -0.07588685986310126 
0.1899999999999954, -0.07561097364414135 
0.1999999999999943, -0.07533790288375443 
0.2099999999999932, -0.07507036265321024 
0.2199999999999921, -0.0748102120615939 
0.229999999999991, -0.07455816544256125 
0.2399999999999899, -0.07431378527816014 
0.2499999999999888, -0.07407571851904056 
0.2599999999999877, -0.07384206022765305 
0.2699999999999866, -0.0736107139280327 
0.2799999999999855, -0.07337965565538736 
0.2899999999999844, -0.07314706731365514 
0.2999999999999833, -0.07291135507326171 
0.3099999999999822, -0.0726710958467824 
0.3199999999999811, -0.0724249612999376 
0.32999999999998, -0.07217166453364923 
0.3399999999999789, -0.07190996823441616 
0.3499999999999778, -0.0716387861316356 
0.35999999999997667, -0.07135739494294872 
0.36999999999997557, -0.07106574010719617 
0.37999999999997447, -0.07076476085487252 
0.38999999999997337, -0.07045659766095927 
0.39999999999997227, -0.07014452695342885 
0.40999999999997117, -0.06983254344545484 
0.41999999999997006, -0.06952466925405207 
0.42999999999996896, -0.06922421689925998 
0.43999999999996786, -0.06893326167060926 
0.44999999999996676, -0.0686524682470637 
0.45999999999996566, -0.06838125186739921 
0.46999999999996456, -0.06811813900681798 
0.47999999999996346, -0.06786116809779442 
0.48999999999996235, -0.06760821414621536 
0.49999999999996125, -0.06735718645170997 
0.5099999999999602, -0.06710610232935871 
0.519999999999959, -0.06685306975304053 
0.529999999999958, -0.06659622228724661 
0.5399999999999568, -0.06633365107620376 
0.5499999999999557, -0.06606338004626074 
0.5599999999999546, -0.06578343416763584 
0.5699999999999535, -0.06549204884643839 
0.5799999999999524, -0.06518804306861146 
0.5899999999999513, -0.06487131037706054 
0.5999999999999502, -0.06454327524190255 
0.6099999999999491, -0.06420707681752152 
0.619999999999948, -0.06386727562186048 
0.6299999999999469, -0.06352907622898177 
0.6399999999999458, -0.06319731871917558 
0.6499999999999447, -0.06287561906397773 
0.6599999999999436, -0.06256593655740092 
0.6699999999999425, -0.06226861122261369 
0.6799999999999414, -0.06198272093157923 
0.6899999999999403, -0.06170654792988809 
0.6999999999999392, -0.061437991813940905 
0.7099999999999381, -0.06117484962150329 
0.719999999999937, -0.060914952198835984 
0.7299999999999359, -0.06065618346758905 
0.7399999999999348, -0.06039642228470636 
0.7499999999999337, -0.06013344914033121 
0.7599999999999326, -0.059864864145571184 
0.7699999999999315, -0.059588074675981983 
0.7799999999999304, -0.05930042629791989 
0.7899999999999293, -0.058999549042755825 
0.7999999999999282, -0.05868393771957231 
0.8099999999999271, -0.05835365467087254 
0.819999999999926, -0.05801087491990635 
0.8299999999999249, -0.05765992106603497 
0.8399999999999238, -0.057306600260273 
0.8499999999999227, -0.05695702030564139 
0.8599999999999216, -0.05661636180004207 
0.8699999999999205, -0.05628807324386239 
0.8799999999999194, -0.05597367322631765 
0.8899999999999183, -0.0556730382832594 
0.8999999999999172, -0.05538491603069423 
0.9099999999999161, -0.05510743418006949 
0.919999999999915, -0.05483847937433117 
0.9299999999999139, -0.05457591240486246 
0.9399999999999128, -0.054317638468686855 
0.9499999999999117, -0.054061569072691384 
0.9599999999999106, -0.05380551394567802 
0.9699999999999095, -0.053547043493261656 
0.9799999999999084, -0.05328337615821073 
0.9899999999999073, -0.05301137308595655 
0.9999999999999062, -0.052727750455983616 
1.0099999999999052, -0.052429606999113754 
1.019999999999904, -0.05211525367103835 
1.029999999999903, -0.05178511138084589 
1.039999999999902, -0.051442230456164306 
1.0499999999999008, -0.051092014249850305 
1.0599999999998997, -0.05074110885278654 
1.0699999999998986, -0.05039591206942914 
1.0799999999998975, -0.05006134611428949 
1.0899999999998964, -0.04974029712815113 
1.0999999999998953, -0.04943371289799965 
1.1099999999998942, -0.04914108734726397 
1.119999999999893, -0.048861034441997866 
1.129999999999892, -0.048591762101486594 
1.1399999999998909, -0.04833137584868265 
1.1499999999998898, -0.04807801579707451 
1.1599999999998887, -0.04782985851789387 
1.1699999999998876, -0.047585017792765215 
1.1799999999998865, -0.047341376218690015 
1.1899999999998854, -0.047096389277831795 
1.1999999999998843, -0.0468469348771569 
1.2099999999998832, -0.046589331143329256 
1.219999999999882, -0.04631968014762218 
1.229999999999881, -0.04603464239183843 
1.2399999999998799, -0.0457325357232815 
1.2499999999998788, -0.04541433379717296 
1.2599999999998777, -0.04508396895231577 
1.2699999999998766, -0.04474760119126129 
1.2799999999998755, -0.044412114597676314 
1.2899999999998744, -0.04408355304152512 
1.2999999999998733, -0.0437661335730943 
1.3099999999998722, -0.043462029264090554 
1.319999999999871, -0.043171713316564816 
1.32999999999987, -0.04289452759214432 
1.3399999999998689, -0.04262921916167887 
1.3499999999998678, -0.042374324506766606 
1.3599999999998666, -0.042128379355574425 
1.3699999999998655, -0.041889975599578244 
1.3799999999998644, -0.04165769395259446 
1.3899999999998633, -0.04142993602646934 
1.3999999999998622, -0.041204682363831194 
1.4099999999998611, -0.040979229643017076 
1.41999999999986, -0.04075001839762288 
1.429999999999859, -0.04051273396304779 
1.4399999999998578, -0.04026287909238183 
1.4499999999998567, -0.03999686834374699 
1.4599999999998556, -0.03971334541719228 
1.4699999999998545, -0.039414075680123686 
1.4799999999998534, -0.0391038028723033 
1.4899999999998523, -0.03878902171744972 
1.4999999999998512, -0.0384762830693101 
1.5099999999998501, -0.038170832388883615 
1.519999999999849, -0.03787601286892323 
1.529999999999848, -0.037593366650005705 
1.5399999999998468, -0.03732311132736084 
1.5499999999998457, -0.037064684853192656 
1.5599999999998446, -0.036817183879870194 
1.5699999999998435, -0.03657963857715135 
1.5799999999998424, -0.036351128650646124 
1.5899999999998413, -0.03613076151820159 
1.5999999999998402, -0.035917528944465885 
1.6099999999998391, -0.035710055450196274 
1.619999999999838, -0.035506270246863585 
1.629999999999837, -0.03530309014859875 
1.6399999999998358, -0.0350962911905479 
1.6499999999998347, -0.03488081866901032 
1.6599999999998336, -0.03465171940090005 
1.6699999999998325, -0.0344055687317122 
1.6799999999998314, -0.03414181169342539 
1.6899999999998303, -0.033863243127047735 
1.6999999999998292, -0.03357525598911802 
1.709999999999828, -0.03328424957195446 
1.719999999999827, -0.03299603597069238 
1.729999999999826, -0.032714885701476557 
1.7399999999998248, -0.032443333142660506 
1.7499999999998237, -0.03218248969848147 
1.7599999999998226, -0.03193253924724111 
1.7699999999998215, -0.0316931940848829 
1.7799999999998204, -0.03146401581353199 
1.7899999999998193, -0.031244583805574728 
1.7999999999998182, -0.031034521491378426 
1.809999999999817, -0.030833389665304127 
1.819999999999816, -0.030640449800776147 
1.8299999999998149, -0.030454310830001254 
1.8399999999998138, -0.030272520895390585 
1.8499999999998127, -0.030091260667018553 
1.8599999999998116, -0.029905402871027147 
1.8699999999998105, -0.02970921144370394 
1.8799999999998094, -0.02949771429610713 
1.8899999999998083, -0.029268302704206488 
1.8999999999998072, -0.029021735869735877 
1.909999999999806, -0.02876192540608649 
1.919999999999805, -0.028494616735237087 
1.9299999999998039, -0.02822572934199454 
1.9399999999998028, -0.02796013136787469 
1.9499999999998017, -0.027701155778287516 
1.9599999999998006, -0.02745071445616712 
1.9699999999997995, -0.027209700589978097 
1.9799999999997984, -0.026978427280724426 
1.9899999999997973, -0.026756971498665814 
1.9999999999997962, -0.026545381888946017 
2.0099999999998173, -0.026343747711115507 
2.0199999999998384, -0.026152130727589096 
2.0299999999998595, -0.025970355052918635 
2.0399999999998806, -0.025797654496852222 
2.0499999999999017, -0.025632216413418247 
2.059999999999923, -0.025470753104612442 
2.069999999999944, -0.025308358612649844 
2.079999999999965, -0.025138973263641083 
2.089999999999986, -0.0249566149880951 
2.100000000000007, -0.024757077194851252 
2.1100000000000283, -0.02453930695914169 
2.1200000000000494, -0.024305677319278476 
2.1300000000000705, -0.02406101558572164 
2.1400000000000916, -0.023811007483942014 
2.1500000000001127, -0.023560806980831885 
2.160000000000134, -0.023314311372826486 
2.170000000000155, -0.02307407728792981 
2.180000000000176, -0.02284160888256096 
2.190000000000197, -0.02261775430737587 
2.2000000000002182, -0.022403052255683557 
2.2100000000002393, -0.022197964498220837 
2.2200000000002604, -0.022002978086548355 
2.2300000000002815, -0.02181857145412505 
2.2400000000003026, -0.02164503301252111 
2.2500000000003237, -0.02148212166596981 
2.260000000000345, -0.02132859083044012 
2.270000000000366, -0.021181683624313847 
2.280000000000387, -0.02103684122962892 
2.290000000000408, -0.020887967926429295 
2.3000000000004293, -0.020728497492873775 
2.3100000000004504, -0.020553089114367228 
2.3200000000004715, -0.020359239204148276 
2.3300000000004926, -0.02014794129362335 
2.3400000000005137, -0.01992305511861548 
2.3500000000005348, -0.019689846514663625 
2.360000000000556, -0.019453523392539425 
2.370000000000577, -0.01921833370432995 
2.380000000000598, -0.018987309600809178 
2.390000000000619, -0.018762441318927472 
2.4000000000006403, -0.018545019668647744 
2.4100000000006614, -0.01833597099666453 
2.4200000000006825, -0.018136101870771703 
2.4300000000007036, -0.01794622454442309 
2.4400000000007247, -0.01776715011385893 
2.450000000000746, -0.017599532622708088 
2.460000000000767, -0.017443546276527437 
2.470000000000788, -0.01729840471365035 
2.480000000000809, -0.01716181139077179 
2.49000000000083, -0.017029566215620243 
2.5000000000008513, -0.01689567776694069 
2.5100000000008724, -0.016753279872338246 
2.5200000000008935, -0.016596279132483648 
2.5300000000009146, -0.016421097525417615 
2.5400000000009357, -0.016227612135126378 
2.550000000000957, -0.01601881217020385 
2.560000000000978, -0.015799493806052983 
2.570000000000999, -0.015574782817480204 
2.58000000000102, -0.01534911562610002 
2.5900000000010412, -0.01512584933858411 
2.6000000000010624, -0.014907335765630761 
2.6100000000010835, -0.014695209526279299 
2.6200000000011046, -0.014490704340826699 
2.6300000000011257, -0.014294900926122373 
2.6400000000011468, -0.014108867008324347 
2.650000000001168, -0.01393366985168123 
2.660000000001189, -0.0137702400856937 
2.67000000000121, -0.013619063773214753 
2.680000000001231, -0.013479702962014506 
2.6900000000012523, -0.013350220460093414 
2.7000000000012734, -0.01322672020231307 
2.7100000000012945, -0.01310335203806504 
2.7200000000013156, -0.012973111929125486 
2.7300000000013367, -0.012829432341811728 
2.740000000001358, -0.012667991582261503 
2.750000000001379, -0.012487840025386361 
2.7600000000014, -0.012291273275021422 
2.770000000001421, -0.01208266482510257 
2.780000000001442, -0.011867005618253806 
2.7900000000014633, -0.011648815469076545 
2.8000000000014844, -0.011431658129496581 
2.8100000000015055, -0.011218137590053624 
2.8200000000015266, -0.01101013945797852 
2.8300000000015477, -0.010809127503659748 
2.840000000001569, -0.010616389572960835 
2.85000000000159, -0.010433185406332212 
2.860000000001611, -0.010260771435368295 
2.870000000001632, -0.01010027768705962 
2.8800000000016532, -0.009952410017663341 
2.8900000000016743, -0.009816972342779288 
2.9000000000016954, -0.009692276299572523 
2.9100000000017165, -0.00957464088776197 
2.9200000000017377, -0.00945832957412522 
2.9300000000017588, -0.009336274137774877 
2.94000000000178, -0.009201621709065912 
2.950000000001801, -0.009049576925178495 
2.960000000001822, -0.008878641094291945 
2.970000000001843, -0.0086906268030045 
2.9800000000018643, -0.008489590545960799 
2.9900000000018854, -0.008280396363112274 
3.0000000000019065, -0.00806759080668065 
3.0100000000019276, -0.00785485858611423 
3.0200000000019487, -0.007644966068992301 
3.03000000000197, -0.0074399683080421455 
3.040000000001991, -0.0072414890057433245 
3.050000000002012, -0.007050962275029914 
3.060000000002033, -0.006869783387237231 
3.070000000002054, -0.006699339624911367 
3.0800000000020753, -0.006540893534736121 
3.0900000000020964, -0.006395289264144702 
3.1000000000021175, -0.006262473636218363 
3.1100000000021386, -0.006140895715433844 
3.1200000000021597, -0.006026984279883061 
3.130000000002181, -0.005915051581070539 
3.140000000002202, -0.0057979822609497515 
3.150000000002223, -0.005668762854927041 
3.160000000002244, -0.005522342431853691 
3.1700000000022652, -0.005356927552874787 
3.1800000000022863, -0.005174066968989667 
3.1900000000023074, -0.00497763647425982 
3.2000000000023285, -0.00477241910472942 
3.2100000000023496, -0.004562965726553512 
3.2200000000023707, -0.004353022115760866 
3.230000000002392, -0.004145444673516033 
3.240000000002413, -0.0039423876982364195 
3.250000000002434, -0.00374557243980488 
3.260000000002455, -0.003556524551538963 
3.2700000000024763, -0.0033767242459817612 
3.2800000000024974, -0.0032076377353651175 
3.2900000000025185, -0.003050600232003551 
3.3000000000025396, -0.0029065196863317763 
3.3100000000025607, -0.002775392189074593 
3.3200000000025818, -0.002655693523371457 
3.330000000002603, -0.0025438491966663706 
3.340000000002624, -0.002434135994708437 
3.350000000002645, -0.00231937750678333 
3.360000000002666, -0.002192487545647279 
3.3700000000026873, -0.0020483450693350954 
3.3800000000027084, -0.0018850973879079094 
3.3900000000027295, -0.0017042471834868085 
3.4000000000027506, -0.0015096382688763435 
3.4100000000027717, -0.0013060376296371598 
3.420000000002793, -0.001097997292838219 
3.430000000002814, -0.0008892801903626485 
3.440000000002835, -0.0006827722543174441 
3.450000000002856, -0.0004806651532462406 
3.460000000002877, -0.000284721184342398 
3.4700000000028983, -0.00009650724371835176 
3.4800000000029194, 3.450842390963859e-7 
3.4900000000029405, -2.1195156868749207e-8 
3.5000000000029616, -8.580599521152214e-7 
3.5100000000029827, -1.6011228906446383e-7 
3.520000000003004, -7.903718416111551e-7 
3.530000000003025, -0.000001146533186710119 
3.540000000003046, -0.0000011786789991566575 
3.550000000003067, -1.392050603994993e-7 
3.5600000000030882, -2.307550736582777e-7 
3.5700000000031094, -1.9745816961480777e-7 
3.5800000000031305, -8.392005907838955e-7 
3.5900000000031516, 2.6522206135969217e-7 
3.6000000000031727, 1.2585351317551091e-8 
3.6100000000031938, 2.800226205537881e-7 
3.620000000003215, -8.228852626230554e-7 
3.630000000003236, -5.684043558275321e-7 
3.640000000003257, 2.180826993295209e-7 
3.650000000003278, 1.3413087169863598e-7 
3.6600000000032993, -8.456685928055601e-8 
3.6700000000033204, -7.371786901393871e-7 
3.6800000000033415, -4.823356700298078e-7 
3.6900000000033626, -8.398638502141058e-7 
3.7000000000033837, -3.9756493271758886e-7 
3.710000000003405, -4.920687281036538e-7 
3.720000000003426, -5.330633939547704e-7 
3.730000000003447, -4.061996109506191e-7 
3.740000000003468, -0.0000013106676953037865 
3.750000000003489, -1.6498788549321823e-7 
3.7600000000035103, -0.0000012009313355945494 
3.7700000000035314, -4.266679703575497e-8 
3.7800000000035525, 1.3874683140277622e-7 
3.7900000000035736, -8.924642953998796e-7 
3.8000000000035947, -1.8750770499668416e-7 
3.810000000003616, 4.4045397899301906e-7 
3.820000000003637, -1.2364310071938075e-7 
3.830000000003658, 5.796146383049623e-7 
3.840000000003679, -4.993402741967086e-7 
3.8500000000037002, 2.2483693540475736e-7 
3.8600000000037213, -5.878922289211899e-8 
3.8700000000037424, -5.839923587920669e-7 
3.8800000000037635, -1.8065695153575324e-7 
3.8900000000037847, -4.087875944693664e-7 
3.9000000000038058, 1.191342072806378e-7 
3.910000000003827, -8.76017857604511e-8 
3.920000000003848, -8.959224389304617e-7 
3.930000000003869, -2.2233523199854e-7 
3.94000000000389, -7.864639637180489e-7 
3.9500000000039113, -4.7299225730095563e-8 
3.9600000000039324, -0.0000013382584643341694 
3.9700000000039535, -6.629990671029844e-8 
3.9800000000039746, -5.423668895606569e-7 
3.9900000000039957, -9.239265797500194e-7 
4.000000000004016, -8.865938348873145e-7 
4.010000000003993, -5.871127037268679e-7 
4.02000000000397, -5.449124374953737e-7 
4.030000000003946, -5.025991081011325e-7 
4.040000000003923, 5.392195990037643e-7 
4.0500000000039, -4.3140315853070937e-7 
4.0600000000038765, 2.216955821045794e-7 
4.070000000003853, -2.682532763749891e-7 
4.08000000000383, 3.479792324007788e-7 
4.090000000003807, -0.0000011042677548310618 
4.100000000003783, -3.668057191207338e-7 
4.11000000000376, -4.1148538873134703e-7 
4.120000000003737, 1.818450763491213e-7 
4.130000000003713, 1.1031864081873515e-7 
4.14000000000369, 4.5572859608605824e-8 
4.150000000003667, -4.773248138712124e-7 
4.1600000000036434, -2.621846643858898e-7 
4.17000000000362, -3.3723684944772216e-7 
4.180000000003597, -0.000001093940657237614 
4.1900000000035735, -0.0000010020523532319417 
4.20000000000355, -4.782176305667093e-7 
4.210000000003527, -8.216445853567865e-7 
4.220000000003504, 5.191679163772414e-7 
4.23000000000348, -3.767662310228355e-8 
4.240000000003457, -8.576932149700656e-7 
4.250000000003434, 5.085384623984519e-7 
4.26000000000341, -3.651550756213258e-7 
4.270000000003387, 2.082358534572458e-7 
4.280000000003364, -4.945919659185071e-7 
4.2900000000033405, -1.956034300058552e-7 
4.300000000003317, -6.016154330987371e-7 
4.310000000003294, -3.566611846808856e-7 
4.320000000003271, 4.7468318205114037e-7 
4.330000000003247, 4.105660479129855e-7 
4.340000000003224, -3.8009451357727045e-7 
4.350000000003201, 2.7081156294330695e-7 
4.360000000003177, -9.316215228427163e-7 
4.370000000003154, -0.0000012277619502239764 
4.380000000003131, -6.736231182851977e-8 
4.390000000003107, 7.746402413964867e-8 
4.400000000003084, 3.266825900141628e-8 
4.410000000003061, 2.3038050456298803e-8 
4.4200000000030375, -6.977676693521522e-7 
4.430000000003014, 2.2401313741901188e-7 
4.440000000002991, 5.079342879873168e-7 
4.450000000002968, 2.635117240585236e-7 
4.460000000002944, -9.665293629855605e-7 
4.470000000002921, -3.012006387003231e-7 
4.480000000002898, 1.839882519386679e-7 
4.490000000002874, 7.151458111845644e-7 
4.500000000002851, 6.915861732380945e-7 
4.510000000002828, -1.2636345561970372e-7 
4.520000000002804, -3.7868595560295696e-7 
4.530000000002781, -1.2934769547776055e-7 
4.540000000002758, -8.550389965378931e-7 
4.5500000000027345, -9.139633424499462e-7 
4.560000000002711, -9.998473909416492e-7 
4.570000000002688, 3.11007613154246e-8 
4.580000000002665, -3.6506454640543575e-8 
4.590000000002641, -0.0000012541184285123437 
4.600000000002618, -1.8414971230754713e-7 
4.610000000002595, -3.438665039732912e-7 
4.620000000002571, -8.730424066451862e-7 
4.630000000002548, -5.151426133565806e-7 
4.640000000002525, -1.989763400600134e-8 
4.6500000000025015, -3.6227825257896936e-7 
4.660000000002478, -4.649844852753053e-8 
4.670000000002455, -9.800212807914935e-7 
4.6800000000024315, -2.4007345364222174e-7 
4.690000000002408, 1.4856068597780917e-7 
4.700000000002385, 4.539937393744331e-7 
4.710000000002362, 1.0262773777525394e-7 
