t, s[1].omega / s[0].omega 
0, -0.7999976533784376 
0.009999999999999995, -0.7997543391473085 
0.019999999999999934, -0.7994944354124586 
0.029999999999999874, -0.7992195044958122 
0.04000000000000012, -0.7989320035537315 
0.050000000000000405, -0.7986351252201397 
0.06000000000000069, -0.7983326359546351 
0.07000000000000098, -0.7980287414266305 
0.08000000000000126, -0.7977279853881994 
0.09000000000000155, -0.7974351617149281 
0.10000000000000184, -0.7971551998150863 
0.11000000000000212, -0.7968929794177466 
0.12000000000000241, -0.796653044456431 
0.130000000000002, -0.7964392142386154 
0.1400000000000009, -0.7962541252051192 
0.1499999999999998, -0.7960987678739322 
0.1599999999999987, -0.7959721028696028 
0.1699999999999976, -0.7958708449287808 
0.1799999999999965, -0.7957894961427348 
0.1899999999999954, -0.7957206881241156 
0.1999999999999943, -0.7956558481019427 
0.2099999999999932, -0.7955861268832953 
0.2199999999999921, -0.7955034285866572 
0.229999999999991, -0.795401308969749 
0.2399999999999899, -0.7952755200194086 
0.2499999999999888, -0.795124092060273 
0.2599999999999877, -0.7949470078608984 
0.2699999999999866, -0.7947456465242314 
0.2799999999999855, -0.7945222040038711 
0.2899999999999844, -0.7942792454927242 
0.2999999999999833, -0.7940194647564678 
0.3099999999999822, -0.7937456598094775 
0.3199999999999811, -0.7934608956949716 
0.32999999999998, -0.7931688025168817 
0.3399999999999789, -0.7928739321432146 
0.3499999999999778, -0.7925820584795797 
0.35999999999997667, -0.7923002586795296 
0.36999999999997557, -0.7920365848359958 
0.37999999999997447, -0.7917991787621725 
0.38999999999997337, -0.7915948454787592 
0.39999999999997227, -0.7914273767160214 
0.40999999999997117, -0.7912961866935955 
0.41999999999997006, -0.7911958827827736 
0.42999999999996896, -0.7911170981659912 
0.43999999999996786, -0.791048361222347 
0.44999999999996676, -0.7909783064866744 
0.45999999999996566, -0.7908974551441978 
0.46999999999996456, -0.7907991148837523 
0.47999999999996346, -0.7906793977626558 
0.48999999999996235, -0.790536652865242 
0.49999999999996125, -0.7903706718827935 
0.5099999999999602, -0.7901819310352577 
0.519999999999959, -0.7899710007174067 
0.529999999999958, -0.7897381573463459 
0.5399999999999568, -0.7894831877103936 
0.5499999999999557, -0.789205372583386 
0.5599999999999546, -0.7889036534919812 
0.5699999999999535, -0.7885770044006635 
0.5799999999999524, -0.7882250279182015 
0.5899999999999513, -0.787848750973051 
0.5999999999999502, -0.7874514927022761 
0.6099999999999491, -0.7870395344397952 
0.619999999999948, -0.7866222148873117 
0.6299999999999469, -0.7862111284646833 
0.6399999999999458, -0.7858184035899096 
0.6499999999999447, -0.7854544876841091 
0.6599999999999436, -0.7851261887727065 
0.6699999999999425, -0.7848356625670452 
0.6799999999999414, -0.7845806029808224 
0.6899999999999403, -0.7843553803371098 
0.6999999999999392, -0.7841525784074804 
0.7099999999999381, -0.7839644017725469 
0.719999999999937, -0.7837836439018825 
0.7299999999999359, -0.7836041513080695 
0.7399999999999348, -0.783420882106511 
0.7499999999999337, -0.7832297190169346 
0.7599999999999326, -0.7830271897567795 
0.7699999999999315, -0.7828102131898093 
0.7799999999999304, -0.7825759541158053 
0.7899999999999293, -0.7823218402583628 
0.7999999999999282, -0.7820457643839598 
0.8099999999999271, -0.7817464506667979 
0.819999999999926, -0.7814239045585111 
0.8299999999999249, -0.7810798077953592 
0.8399999999999238, -0.7807177018545607 
0.8499999999999227, -0.780342853811124 
0.8599999999999216, -0.7799618063013477 
0.8699999999999205, -0.7795817216252984 
0.8799999999999194, -0.779209679773522 
0.8899999999999183, -0.7788520666806554 
0.8999999999999172, -0.7785141253563235 
0.9099999999999161, -0.7781996831348554 
0.919999999999915, -0.7779110359613302 
0.9299999999999139, -0.7776489622269589 
0.9399999999999128, -0.777412839658659 
0.9499999999999117, -0.7772008380528002 
0.9599999999999106, -0.7770101563566215 
0.9699999999999095, -0.7768372697157236 
0.9799999999999084, -0.7766781563971297 
0.9899999999999073, -0.7765284875543037 
0.9999999999999062, -0.7763837808045967 
1.0099999999999052, -0.7762395346428622 
1.019999999999904, -0.7760913684875387 
1.029999999999903, -0.7759351895499244 
1.039999999999902, -0.7757673934996571 
1.0499999999999008, -0.7755850848886298 
1.0599999999998997, -0.7753862819178985 
1.0699999999998986, -0.7751700578622055 
1.0799999999998975, -0.774936578652068 
1.0899999999998964, -0.7746870259227433 
1.0999999999998953, -0.774423435596163 
1.1099999999998942, -0.7741485118453195 
1.119999999999893, -0.7738654789535168 
1.129999999999892, -0.7735780098203233 
1.1399999999998909, -0.7732902329186043 
1.1499999999998898, -0.7730067832367558 
1.1599999999998887, -0.7727328349722844 
1.1699999999998876, -0.7724740379852177 
1.1799999999998865, -0.7722362801028153 
1.1899999999998854, -0.7720252193045971 
1.1999999999998843, -0.7718455792217711 
1.2099999999998832, -0.7717002780570896 
1.219999999999882, -0.7715895532047503 
1.229999999999881, -0.7715103239043072 
1.2399999999998799, -0.7714560586608195 
1.2499999999998788, -0.771417335509388 
1.2599999999998777, -0.7713830838484794 
1.2699999999998766, -0.771342232770799 
1.2799999999998755, -0.7712852977966399 
1.2899999999998744, -0.7712054492283412 
1.2999999999998733, -0.7710988327262059 
1.3099999999998722, -0.7709642170655625 
1.319999999999871, -0.7708022493124159 
1.32999999999987, -0.770614628566527 
1.3399999999998689, -0.77040341556961 
1.3499999999998678, -0.7701705726046321 
1.3599999999998666, -0.7699177408848266 
1.3699999999998655, -0.7696462255089495 
1.3799999999998644, -0.7693571551531974 
1.3899999999998633, -0.7690517914134556 
1.3999999999998622, -0.7687319606870613 
1.4099999999998611, -0.7684005553973335 
1.41999999999986, -0.7680619967592113 
1.429999999999859, -0.767722482503445 
1.4399999999998578, -0.7673898026554693 
1.4499999999998567, -0.7670725589718993 
1.4599999999998556, -0.7667788137533088 
1.4699999999998545, -0.7665144802728513 
1.4799999999998534, -0.7662819945251718 
1.4899999999998523, -0.7660797901916326 
1.4999999999998512, -0.7659027853202893 
1.5099999999998501, -0.7657436516680617 
1.519999999999849, -0.7655943478889908 
1.529999999999848, -0.7654474035140387 
1.5399999999998468, -0.7652966700521315 
1.5499999999998457, -0.7651375234402499 
1.5599999999998446, -0.7649666707823581 
1.5699999999998435, -0.7647817572873171 
1.5799999999998424, -0.7645809330068604 
1.5899999999998413, -0.7643624810129703 
1.5999999999998402, -0.76412456449574 
1.6099999999998391, -0.7638651299139501 
1.619999999999838, -0.7635819996845185 
1.629999999999837, -0.7632731840356819 
1.6399999999998358, -0.7629374159768556 
1.6499999999998347, -0.7625748486427407 
1.6599999999998336, -0.7621877554857697 
1.6699999999998325, -0.7617809856823008 
1.6799999999998314, -0.7613619248285668 
1.6899999999998303, -0.7609398445361281 
1.6999999999998292, -0.7605247532699266 
1.709999999999828, -0.7601260583907962 
1.719999999999827, -0.7597514005364588 
1.729999999999826, -0.7594059155389873 
1.7399999999998248, -0.759092002075076 
1.7499999999998237, -0.7588095230250752 
1.7599999999998226, -0.7585562907385144 
1.7699999999998215, -0.7583286745887787 
1.7799999999998204, -0.7581221968974954 
1.7899999999998193, -0.7579320277388353 
1.7999999999998182, -0.7577533364054013 
1.809999999999817, -0.7575814991715981 
1.819999999999816, -0.7574121940676033 
1.8299999999998149, -0.7572414306573296 
1.8399999999998138, -0.7570655654889111 
1.8499999999998127, -0.7568813429722733 
1.8599999999998116, -0.7566859800283193 
1.8699999999998105, -0.7564772872218862 
1.8799999999998094, -0.7562537984722335 
1.8899999999998083, -0.7560148740427285 
1.8999999999998072, -0.7557607488678132 
1.909999999999806, -0.7554925143579839 
1.919999999999805, -0.7552120389925829 
1.9299999999998039, -0.754921847236844 
1.9399999999998028, -0.7546249855555497 
1.9499999999998017, -0.7543249051364576 
1.9599999999998006, -0.7540253805879964 
1.9699999999997995, -0.7537304644425287 
1.9799999999997984, -0.7534444557359478 
1.9899999999997973, -0.7531718449286096 
1.9999999999997962, -0.7529171920111863 
2.0099999999998173, -0.7526849016004781 
2.0199999999998384, -0.7524788775002313 
2.0299999999998595, -0.7523020671323161 
2.0399999999998806, -0.7521559399513953 
2.0499999999999017, -0.7520399797321418 
2.059999999999923, -0.7519513038544966 
2.069999999999944, -0.7518845439813697 
2.079999999999965, -0.751832112743396 
2.089999999999986, -0.7517849151742058 
2.100000000000007, -0.7517334326940903 
2.1100000000000283, -0.7516689497614685 
2.1200000000000494, -0.7515845969614311 
2.1300000000000705, -0.751475929528852 
2.1400000000000916, -0.7513409401871803 
2.1500000000001127, -0.7511796154083062 
2.160000000000134, -0.7509932678945521 
2.170000000000155, -0.7507838762195896 
2.180000000000176, -0.7505535804841288 
2.190000000000197, -0.7503043902851175 
2.2000000000002182, -0.7500381003057339 
2.2100000000002393, -0.749756384307114 
2.2200000000002604, -0.7494610343168505 
2.2300000000002815, -0.7491543083962378 
2.2400000000003026, -0.7488393321905038 
2.2500000000003237, -0.7485204605175704 
2.260000000000345, -0.748203455011465 
2.270000000000366, -0.7478953038384053 
2.280000000000387, -0.747603549443691 
2.290000000000408, -0.747335138696416 
2.3000000000004293, -0.7470950421619023 
2.3100000000004504, -0.7468850882155418 
2.3200000000004715, -0.7467034680869483 
2.3300000000004926, -0.7465451282024578 
2.3400000000005137, -0.7464028946062907 
2.3500000000005348, -0.7462688943049753 
2.360000000000556, -0.7461358002375783 
2.370000000000577, -0.7459976028963591 
2.380000000000598, -0.7458498551637102 
2.390000000000619, -0.7456895125210555 
2.4000000000006403, -0.7455145521830892 
2.4100000000006614, -0.7453235313446565 
2.4200000000006825, -0.7451151895238316 
2.4300000000007036, -0.7448881518624753 
2.4400000000007247, -0.7446407647459428 
2.450000000000746, -0.7443710903803455 
2.460000000000767, -0.7440770911206517 
2.470000000000788, -0.7437570292513153 
2.480000000000809, -0.7434100729755015 
2.49000000000083, -0.7430370222041334 
2.5000000000008513, -0.7426409640613575 
2.5100000000008724, -0.7422275957092567 
2.5200000000008935, -0.7418049889448833 
2.5300000000009146, -0.7413827472389506 
2.5400000000009357, -0.7409707474840491 
2.550000000000957, -0.7405778232043323 
2.560000000000978, -0.7402107383573997 
2.570000000000999, -0.739873649032451 
2.58000000000102, -0.7395680628509521 
2.5900000000010412, -0.7392931750930839 
2.6000000000010624, -0.7390464131531645 
2.6100000000010835, -0.7388240349580859 
2.6200000000011046, -0.7386216696303274 
2.6300000000011257, -0.7384347371455897 
2.6400000000011468, -0.7382587269805205 
2.650000000001168, -0.7380893492768739 
2.660000000001189, -0.7379225940509012 
2.67000000000121, -0.7377547438892178 
2.680000000001231, -0.7375823837011354 
2.6900000000012523, -0.7374024387434364 
2.7000000000012734, -0.737212252503425 
2.7100000000012945, -0.7370096951584623 
2.7200000000013156, -0.736793278754708 
2.7300000000013367, -0.7365622515979227 
2.740000000001358, -0.7363166499850409 
2.750000000001379, -0.7360572951749756 
2.7600000000014, -0.7357857348564446 
2.770000000001421, -0.7355041418484175 
2.780000000001442, -0.7352151960552011 
2.7900000000014633, -0.7349219815815176 
2.8000000000014844, -0.7346279235122533 
2.8100000000015055, -0.7343367697149739 
2.8200000000015266, -0.7340525996467755 
2.8300000000015477, -0.7337798223393378 
2.840000000001569, -0.7335231142706065 
2.85000000000159, -0.7332872470348437 
2.860000000001611, -0.7330767662453403 
2.870000000001632, -0.7328955086263172 
2.8800000000016532, -0.7327459848522679 
2.8900000000016743, -0.7326287100964718 
2.9000000000016954, -0.732541625139679 
2.9100000000017165, -0.7324797988492591 
2.9200000000017377, -0.7324356026165603 
2.9300000000017588, -0.7323994592558959 
2.94000000000178, -0.7323610851349521 
2.950000000001801, -0.7323109298850974 
2.960000000001822, -0.7322413997255979 
2.970000000001843, -0.7321475250148313 
2.9800000000018643, -0.7320269683364687 
2.9900000000018854, -0.7318795195873092 
3.0000000000019065, -0.7317063525490585 
3.0100000000019276, -0.7315092966105322 
3.0200000000019487, -0.7312902749929682 
3.03000000000197, -0.7310509581259479 
3.040000000001991, -0.7307926193693433 
3.050000000002012, -0.7305161610540999 
3.060000000002033, -0.7302222839416261 
3.070000000002054, -0.7299117829931954 
3.0800000000020753, -0.729585951293483 
3.0900000000020964, -0.7292470515441846 
3.1000000000021175, -0.7288987675684685 
3.1100000000021386, -0.7285464878810903 
3.1200000000021597, -0.7281972327384293 
3.130000000002181, -0.7278590669732268 
3.140000000002202, -0.7275399848544385 
3.150000000002223, -0.7272464897302233 
3.160000000002244, -0.7269823052422543 
3.1700000000022652, -0.726747686703339 
3.1800000000022863, -0.726539580042949 
3.1900000000023074, -0.7263525151457866 
3.2000000000023285, -0.7261798443246548 
3.2100000000023496, -0.7260148914123775 
3.2200000000023707, -0.7258517303562079 
3.230000000002392, -0.7256855242988014 
3.240000000002413, -0.725512509207502 
3.250000000002434, -0.7253297650599597 
3.260000000002455, -0.725134908442367 
3.2700000000024763, -0.7249258047509386 
3.2800000000024974, -0.7247003650343311 
3.2900000000025185, -0.7244564720958833 
3.3000000000025396, -0.7241920683236687 
3.3100000000025607, -0.7239054207441726 
3.3200000000025818, -0.7235955426203187 
3.330000000002603, -0.7232626912395037 
3.340000000002624, -0.7229087972244053 
3.350000000002645, -0.722537654672693 
3.360000000002666, -0.7221547538597056 
3.3700000000026873, -0.7217667632786372 
3.3800000000027084, -0.7213808002290449 
3.3900000000027295, -0.7210036907964774 
3.4000000000027506, -0.7206413849628757 
3.4100000000027717, -0.7202986011565838 
3.420000000002793, -0.7199786885290254 
3.430000000002814, -0.7196836497120624 
3.440000000002835, -0.7194142604075171 
3.450000000002856, -0.7191702358393608 
3.460000000002877, -0.7189504106713207 
3.4700000000028983, -0.7187529106992216 
3.4800000000029194, -0.7185753014925294 
3.4900000000029405, -0.7184147044660325 
3.5000000000029616, -0.7182678775075676 
3.5100000000029827, -0.7181312661365287 
3.520000000003004, -0.7180010411271635 
3.530000000003025, -0.7178731473839649 
3.540000000003046, -0.7177433937223527 
3.550000000003067, -0.7176076101205562 
3.5600000000030882, -0.7174618830189734 
3.5700000000031094, -0.7173028481916258 
3.5800000000031305, -0.7171279829179769 
3.5900000000031516, -0.7169358164320807 
3.6000000000031727, -0.7167259923320021 
3.6100000000031938, -0.7164991692248884 
3.620000000003215, -0.7162568080814222 
3.630000000003236, -0.71600093133394 
3.640000000003257, -0.7157339353384045 
3.650000000003278, -0.7154585061959575 
3.6600000000032993, -0.7151776500910443 
3.6700000000033204, -0.7148948163206682 
3.6800000000033415, -0.7146140652336317 
3.6900000000033626, -0.7143402098832139 
3.7000000000033837, -0.7140788376368634 
3.710000000003405, -0.713836103632878 
3.720000000003426, -0.7136182004763822 
3.730000000003447, -0.7134304731548335 
3.740000000003468, -0.7132762800515 
3.750000000003489, -0.7131558767162622 
3.7600000000035103, -0.7130657336118209 
3.7700000000035314, -0.7129986682123604 
3.7800000000035525, -0.7129449071686135 
3.7900000000035736, -0.7128937922410512 
3.8000000000035947, -0.7128355494821764 
3.810000000003616, -0.7127625561832117 
3.820000000003637, -0.7126698344089952 
3.830000000003658, -0.712554850145612 
3.840000000003679, -0.7124168995802409 
3.8500000000037002, -0.7122563759476533 
3.8600000000037213, -0.7120741125139569 
3.8700000000037424, -0.7118708858874387 
3.8800000000037635, -0.7116470898950202 
3.8900000000037847, -0.7114025609231626 
3.9000000000038058, -0.7111365381523325 
3.910000000003827, -0.7108477608621244 
3.920000000003848, -0.7105347260501291 
3.930000000003869, -0.7101961382934778 
3.94000000000389, -0.7098315617573092 
3.9500000000039113, -0.7094422140333347 
3.9600000000039324, -0.709031724718846 
3.9700000000039535, -0.7086065658386491 
3.9800000000039746, -0.708175843657475 
3.9900000000039957, -0.7077503090383963 
4.000000000004016, -0.7073407667012409 
4.010000000003993, -0.7069563611607326 
4.02000000000397, -0.7066032835169322 
4.030000000003946, -0.7062842355297858 
4.040000000003923, -0.7059986581264945 
4.0500000000039, -0.7057434797221496 
4.0600000000038765, -0.7055140592747751 
4.070000000003853, -0.7053050587915641 
4.08000000000383, -0.7051110975412662 
4.090000000003807, -0.7049271492636586 
4.100000000003783, -0.7047487155567795 
4.11000000000376, -0.7045718426497732 
4.120000000003737, -0.7043930559579453 
4.130000000003713, -0.7042092787279046 
4.14000000000369, -0.704017784869645 
4.150000000003667, -0.7038162142238852 
4.1600000000036434, -0.7036026519435555 
4.17000000000362, -0.7033757464061576 
4.180000000003597, -0.7031348215851281 
4.1900000000035735, -0.7028799404648722 
4.20000000000355, -0.7026118971610738 
4.210000000003527, -0.7023321442713593 
4.220000000003504, -0.7020426813537448 
4.23000000000348, -0.7017459334539271 
4.240000000003457, -0.7014446418529328 
4.250000000003434, -0.7011417815510861 
4.26000000000341, -0.7008405133465916 
4.270000000003387, -0.7005441698841158 
4.280000000003364, -0.7002562637021638 
4.2900000000033405, -0.699980493629253 
4.300000000003317, -0.6997207174163471 
4.310000000003294, -0.6994808555825296 
4.320000000003271, -0.6992646951512733 
4.330000000003247, -0.6990755731145947 
4.340000000003224, -0.6989159396761206 
4.350000000003201, -0.6987868330373799 
4.360000000003177, -0.6986873421186394 
4.370000000003154, -0.6986141860723698 
4.380000000003131, -0.6985615799091001 
4.390000000003107, -0.6985215462666424 
4.400000000003084, -0.6984847357053667 
4.410000000003061, -0.6984416346849691 
4.4200000000030375, -0.6983838510388017 
4.430000000003014, -0.6983050966942045 
4.440000000002991, -0.6982016046249033 
4.450000000002968, -0.6980719556263189 
4.460000000002944, -0.6979165005322058 
4.470000000002921, -0.6977366397520804 
4.480000000002898, -0.6975341709711997 
4.490000000002874, -0.6973108129182586 
4.500000000002851, -0.6970679264857996 
4.510000000002828, -0.6968064104041176 
4.520000000002804, -0.6965267407283446 
4.530000000002781, -0.6962291338773088 
4.540000000002758, -0.6959138254312077 
4.5500000000027345, -0.6955814588802955 
4.560000000002711, -0.6952335605212366 
4.570000000002688, -0.6948730333525645 
4.580000000002665, -0.6945045393021461 
4.590000000002641, -0.6941345815938887 
4.600000000002618, -0.6937710992629508 
4.610000000002595, -0.6934225000224203 
4.620000000002571, -0.6930962891404493 
4.630000000002548, -0.6927976961215861 
4.640000000002525, -0.6925287816980994 
4.6500000000025015, -0.6922883272040441 
4.660000000002478, -0.6920724657995714 
4.670000000002455, -0.6918757322055915 
4.6800000000024315, -0.6916921340949526 
4.690000000002408, -0.6915159627704968 
4.700000000002385, -0.6913422411630831 
4.710000000002362, -0.691166848547086 
4.720000000002338, -0.6909864277446442 
4.730000000002315, -0.6907981877653488 
4.740000000002292, -0.6905996939330432 
4.750000000002268, -0.6903887119630612 
4.760000000002245, -0.6901631514152101 
4.770000000002222, -0.6899211350525964 
4.7800000000021985, -0.6896611956050176 
4.790000000002175, -0.6893825642135893 
4.800000000002152, -0.689085471130631 
4.810000000002129, -0.6887713510776574 
4.820000000002105, -0.6884428604764218 
4.830000000002082, -0.6881036786593453 
4.840000000002059, -0.6877581497509057 
4.850000000002035, -0.6874108761487274 
4.860000000002012, -0.6870663702090968 
4.870000000001989, -0.6867288223554826 
4.880000000001965, -0.6864019886172779 
4.890000000001942, -0.6860891656629696 
4.900000000001919, -0.6857932112159868 
4.9100000000018955, -0.6855165732786095 
4.920000000001872, -0.6852613026885848 
