t, s[1].omega / s[0].omega 
0, -5.499989976625858 
0.009999999999999995, -5.498905439025509 
0.019999999999999934, -5.497786450579267 
0.029999999999999874, -5.4968859598430715 
0.04000000000000012, -5.495959336078521 
0.050000000000000405, -5.494903146243745 
0.06000000000000069, -5.493834536771751 
0.07000000000000098, -5.492891542513797 
0.08000000000000126, -5.491923244285385 
0.09000000000000155, -5.490883532337261 
0.10000000000000184, -5.48987387214033 
0.11000000000000212, -5.488915312525728 
0.12000000000000241, -5.487904013042583 
0.130000000000002, -5.486862852047738 
0.1400000000000009, -5.485908109821952 
0.1499999999999998, -5.484953271322494 
0.1599999999999987, -5.483896567078114 
0.1699999999999976, -5.482829808818037 
0.1799999999999965, -5.48193736134229 
0.1899999999999954, -5.481006003106818 
0.1999999999999943, -5.479920399899269 
0.2099999999999932, -5.478810142860588 
0.2199999999999921, -5.4779362799695415 
0.229999999999991, -5.477023761097649 
0.2399999999999899, -5.475958669330036 
0.2499999999999888, -5.474866167815879 
0.2599999999999877, -5.473946437781495 
0.2699999999999866, -5.4730066944508415 
0.2799999999999855, -5.471968182439342 
0.2899999999999844, -5.47093612655486 
0.2999999999999833, -5.46998739584403 
0.3099999999999822, -5.4690042700727926 
0.3199999999999811, -5.467971682236046 
0.32999999999998, -5.466993461990329 
0.3399999999999789, -5.466041829416136 
0.3499999999999778, -5.465016613562164 
0.35999999999997667, -5.463968145020755 
0.36999999999997557, -5.463048079927765 
0.37999999999997447, -5.462114623661694 
0.38999999999997337, -5.461050559011876 
0.39999999999997227, -5.4599554041696035 
0.40999999999997117, -5.459080689468488 
0.41999999999997006, -5.458179852662806 
0.42999999999996896, -5.4571171709945085 
0.43999999999996786, -5.456002130925819 
0.44999999999996676, -5.455099286645313 
0.45999999999996566, -5.454193752814277 
0.46999999999996456, -5.453159925509766 
0.47999999999996346, -5.452098045075169 
0.48999999999996235, -5.451156504420782 
0.49999999999996125, -5.450207272264353 
0.5099999999999602, -5.44918368366863 
0.519999999999959, -5.448179622121627 
0.529999999999958, -5.447232174309486 
0.5399999999999568, -5.446241403604477 
0.5499999999999557, -5.445205498892366 
0.5599999999999546, -5.444252669627718 
0.5699999999999535, -5.4433218241566275 
0.5799999999999524, -5.442294050485172 
0.5899999999999513, -5.441215505237939 
0.5999999999999502, -5.4403124962267375 
0.6099999999999491, -5.439421161698357 
0.619999999999948, -5.438380171828748 
0.6299999999999469, -5.437254321122853 
0.6399999999999458, -5.436346160552634 
0.6499999999999447, -5.4354770225233215 
0.6599999999999436, -5.434459251044453 
0.6699999999999425, -5.433365188005494 
0.6799999999999414, -5.432416137219604 
0.6899999999999403, -5.431508539728964 
0.6999999999999392, -5.430502778895325 
0.7099999999999381, -5.429470807813869 
0.719999999999937, -5.428517818496776 
0.7299999999999359, -5.427563475137239 
0.7399999999999348, -5.426545196927899 
0.7499999999999337, -5.425559569298695 
0.7599999999999326, -5.424627025741551 
0.7699999999999315, -5.423639940646938 
0.7799999999999304, -5.422583995748577 
0.7899999999999293, -5.421636489479064 
0.7999999999999282, -5.420747950991957 
0.8099999999999271, -5.41974561096765 
0.819999999999926, -5.4186324670289645 
0.8299999999999249, -5.417686580971434 
0.8399999999999238, -5.416845340749228 
0.8499999999999227, -5.415860449681585 
0.8599999999999216, -5.414749162744984 
0.8699999999999205, -5.413763516061156 
0.8799999999999194, -5.4129003296478775 
0.8899999999999183, -5.411928494200302 
0.8999999999999172, -5.410875207146367 
0.9099999999999161, -5.409894066409358 
0.919999999999915, -5.408975776618172 
0.9299999999999139, -5.4079879662995465 
0.9399999999999128, -5.406976909003986 
0.9499999999999117, -5.406027620364595 
0.9599999999999106, -5.405077599572461 
0.9699999999999095, -5.4040557012231165 
0.9799999999999084, -5.403065422354834 
0.9899999999999073, -5.402163772936367 
0.9999999999999062, -5.401205067689856 
1.0099999999999052, -5.40013210307744 
1.019999999999904, -5.399129783336184 
1.029999999999903, -5.398289604827916 
1.039999999999902, -5.397351174331352 
1.0499999999999008, -5.396258517863171 
1.0599999999998997, -5.395209432608548 
1.0699999999998986, -5.394371124946486 
1.0799999999998975, -5.393452215553583 
1.0899999999998964, -5.392401645314598 
1.0999999999998953, -5.391365513363324 
1.1099999999998942, -5.390468477334633 
1.119999999999893, -5.389528254885402 
1.129999999999892, -5.38851240622058 
1.1399999999998909, -5.387526174685702 
1.1499999999998898, -5.386598548638866 
1.1599999999998887, -5.385622154859659 
1.1699999999998876, -5.384611604399139 
1.1799999999998865, -5.383674793252859 
1.1899999999998854, -5.382748908455634 
1.1999999999998843, -5.381733882312952 
1.2099999999998832, -5.380694338290295 
1.219999999999882, -5.37981238751813 
1.229999999999881, -5.378918760872169 
1.2399999999998799, -5.377882419155406 
1.2499999999998788, -5.376784378398807 
1.2599999999998777, -5.37591299585888 
1.2699999999998766, -5.375056588509039 
1.2799999999998755, -5.374045974334222 
1.2899999999998744, -5.372956726478412 
1.2999999999998733, -5.372031963189533 
1.3099999999998722, -5.3711528703299605 
1.319999999999871, -5.370165739267562 
1.32999999999987, -5.369138377964156 
1.3399999999998689, -5.3681971433761095 
1.3499999999998678, -5.3672710740897 
1.3599999999998666, -5.366276666213578 
1.3699999999998655, -5.365294922929239 
1.3799999999998644, -5.364372664002035 
1.3899999999998633, -5.363416102306414 
1.3999999999998622, -5.362387593798584 
1.4099999999998611, -5.361433848295329 
1.41999999999986, -5.3605576207827035 
1.429999999999859, -5.359592548893249 
1.4399999999998578, -5.358509232854861 
1.4499999999998567, -5.357541447059995 
1.4599999999998556, -5.356722397905132 
1.4699999999998545, -5.3557825902267675 
1.4799999999998534, -5.354695810083354 
1.4899999999998523, -5.353677324537648 
1.4999999999998512, -5.3528416522260525 
1.5099999999998501, -5.35191943031134 
1.519999999999849, -5.350885768803455 
1.529999999999848, -5.349882346418839 
1.5399999999998468, -5.348987494160714 
1.5499999999998457, -5.348044002076781 
1.5599999999998446, -5.347042763033676 
1.5699999999998435, -5.346084075221993 
1.5799999999998424, -5.3451649378648165 
1.5899999999998413, -5.344187165690007 
1.5999999999998402, -5.343185115164622 
1.6099999999998391, -5.342275662857434 
1.619999999999838, -5.341366248140121 
1.629999999999837, -5.340352726045822 
1.6399999999998358, -5.339307290154342 
1.6499999999998347, -5.33844607198349 
1.6599999999998336, -5.337579775434067 
1.6699999999998325, -5.3365628148806135 
1.6799999999998314, -5.335464561929454 
1.6899999999998303, -5.33458031969592 
1.6999999999998292, -5.333741815665912 
1.709999999999828, -5.332760740314333 
1.719999999999827, -5.331698485449163 
1.729999999999826, -5.330761676344728 
1.7399999999998248, -5.329884446418532 
1.7499999999998237, -5.328916799458141 
1.7599999999998226, -5.327913360746406 
1.7699999999998215, -5.326978709840149 
1.7799999999998204, -5.326058869033762 
1.7899999999998193, -5.325073312833013 
1.7999999999998182, -5.324102778551908 
1.809999999999817, -5.3232005872651325 
1.819999999999816, -5.322262622751255 
1.8299999999998149, -5.321234728297982 
1.8399999999998138, -5.32026625615843 
1.8499999999998127, -5.3194227409781005 
1.8599999999998116, -5.318498921706705 
1.8699999999998105, -5.31743291204499 
1.8799999999998094, -5.316409370153566 
1.8899999999998083, -5.3156014195306565 
1.8999999999998072, -5.31471586171233 
1.909999999999806, -5.313679464463862 
1.919999999999805, -5.312631167976968 
1.9299999999998039, -5.311767650404888 
1.9399999999998028, -5.310880012021457 
1.9499999999998017, -5.309887286545408 
1.9599999999998006, -5.308887834923294 
1.9699999999997995, -5.307981183366765 
1.9799999999997984, -5.307057922231753 
1.9899999999997973, -5.306072851895068 
1.9999999999997962, -5.305120944900656 
2.0099999999998173, -5.304217443056354 
2.0199999999998384, -5.303263199409005 
2.0299999999998595, -5.302249590685364 
2.0399999999998806, -5.301333592255766 
2.0499999999999017, -5.300469923396151 
2.059999999999923, -5.299504638234387 
2.069999999999944, -5.2984324958860505 
2.079999999999965, -5.29750683993604 
2.089999999999986, -5.296701796886562 
2.100000000000007, -5.295766090112711 
2.1100000000000283, -5.294690683908644 
2.1200000000000494, -5.2937013726448345 
2.1300000000000705, -5.2928817371702594 
2.1400000000000916, -5.291971196543083 
2.1500000000001127, -5.29095427164702 
2.160000000000134, -5.2899701967418835 
2.170000000000155, -5.289090196827347 
2.180000000000176, -5.288162709795369 
2.190000000000197, -5.2871786862525445 
2.2000000000002182, -5.286236296247769 
2.2100000000002393, -5.285334100097022 
2.2200000000002604, -5.284375011231159 
2.2300000000002815, -5.28338457265159 
2.2400000000003026, -5.282488285899862 
2.2500000000003237, -5.281603514427927 
2.260000000000345, -5.280616707346303 
2.270000000000366, -5.279572851744705 
2.280000000000387, -5.278708454121707 
2.290000000000408, -5.277877919721857 
2.3000000000004293, -5.276903117395812 
2.3100000000004504, -5.275815877327364 
2.3200000000004715, -5.274899724267231 
2.3300000000004926, -5.27409267037342 
2.3400000000005137, -5.273157570927183 
2.3500000000005348, -5.272119967241371 
2.360000000000556, -5.271161699584455 
2.370000000000577, -5.270303409574112 
2.380000000000598, -5.269372277762399 
2.390000000000619, -5.268386266350626 
2.4000000000006403, -5.267450459706923 
2.4100000000006614, -5.266553959639586 
2.4200000000006825, -5.265597918134337 
2.4300000000007036, -5.264625136019763 
2.4400000000007247, -5.263731812617669 
2.450000000000746, -5.2628351444211745 
2.460000000000767, -5.261844454258936 
2.470000000000788, -5.260837037264088 
2.480000000000809, -5.2599940186782455 
2.49000000000083, -5.259138637577471 
2.5000000000008513, -5.258140714724174 
2.5100000000008724, -5.257066355682536 
2.5200000000008935, -5.256206622266289 
2.5300000000009146, -5.255396386399796 
2.5400000000009357, -5.25444086771839 
2.550000000000957, -5.2533885240946425 
2.560000000000978, -5.252459427560912 
2.570000000000999, -5.251618766308828 
2.58000000000102, -5.250685638284596 
2.5900000000010412, -5.249694503846031 
2.6000000000010624, -5.248764138610069 
2.6100000000010835, -5.247877390006081 
2.6200000000011046, -5.246928813629891 
2.6300000000011257, -5.245964988028002 
2.6400000000011468, -5.245069114992502 
2.650000000001168, -5.244170070132754 
2.660000000001189, -5.243187350818193 
2.67000000000121, -5.242206599103502 
2.680000000001231, -5.241363608476487 
2.6900000000012523, -5.240493415929604 
2.7000000000012734, -5.239489216422269 
2.7100000000012945, -5.238437790585876 
2.7200000000013156, -5.237608146053335 
2.7300000000013367, -5.236792324279751 
2.740000000001358, -5.235824500069677 
2.750000000001379, -5.234763338203681 
2.7600000000014, -5.2338584602095715 
2.770000000001421, -5.233034271139958 
2.780000000001442, -5.232102444078138 
2.7900000000014633, -5.231104063340395 
2.8000000000014844, -5.23017636406849 
2.8100000000015055, -5.229302917859641 
2.8200000000015266, -5.2283648082556 
2.8300000000015477, -5.227403387678561 
2.840000000001569, -5.226502911797832 
2.85000000000159, -5.225608800519293 
2.860000000001611, -5.224640493368718 
2.870000000001632, -5.223673413948251 
2.8800000000016532, -5.222822103102557 
2.8900000000016743, -5.221947909058242 
2.9000000000016954, -5.220951802786741 
2.9100000000017165, -5.219919954451132 
2.9200000000017377, -5.219098014633504 
2.9300000000017588, -5.21828110372065 
2.94000000000178, -5.21731214409667 
2.950000000001801, -5.216246415082799 
2.960000000001822, -5.215353775497404 
2.970000000001843, -5.2145474705047 
2.9800000000018643, -5.213622747695107 
2.9900000000018854, -5.212616664447937 
3.0000000000019065, -5.211685260649964 
3.0100000000019276, -5.210827863687209 
3.0200000000019487, -5.209904012566726 
3.03000000000197, -5.2089417942255105 
3.040000000001991, -5.208033842473258 
3.050000000002012, -5.207149078919774 
3.060000000002033, -5.206199122303966 
3.070000000002054, -5.205236831279945 
3.0800000000020753, -5.204373253026598 
3.0900000000020964, -5.203503269915841 
3.1000000000021175, -5.202525968939012 
3.1100000000021386, -5.201506160785273 
3.1200000000021597, -5.200674736421765 
3.130000000002181, -5.199862986286966 
3.140000000002202, -5.198905828223552 
3.150000000002223, -5.197839700362618 
3.160000000002244, -5.19694143612601 
3.1700000000022652, -5.19615490194885 
3.1800000000022863, -5.195246085362468 
3.1900000000023074, -5.194235259472736 
3.2000000000023285, -5.193289372552368 
3.2100000000023496, -5.19244842806495 
3.2200000000023707, -5.191544753193724 
3.230000000002392, -5.190582590063108 
3.240000000002413, -5.189662053898401 
3.250000000002434, -5.1887872812668565 
3.260000000002455, -5.187859557665127 
3.2700000000024763, -5.186899345692253 
3.2800000000024974, -5.186019311485689 
3.2900000000025185, -5.185157369266774 
3.3000000000025396, -5.1842065617826005 
3.3100000000025607, -5.183195447350608 
3.3200000000025818, -5.182339582241094 
3.330000000002603, -5.18153679626761 
3.340000000002624, -5.180604303152554 
3.350000000002645, -5.17954599955868 
3.360000000002666, -5.178620266357439 
3.3700000000026873, -5.177851612307227 
3.3800000000027084, -5.176970079008498 
3.3900000000027295, -5.175963527951049 
3.4000000000027506, -5.174989942014258 
3.4100000000027717, -5.174159523820793 
3.420000000002793, -5.1732841448565585 
3.430000000002814, -5.172328236886407 
3.440000000002835, -5.171389221937444 
3.450000000002856, -5.1705192316383295 
3.460000000002877, -5.169618004419696 
3.4700000000028983, -5.168663948416374 
3.4800000000029194, -5.167762648756281 
3.4900000000029405, -5.166906557373197 
3.5000000000029616, -5.165987267156334 
3.5100000000029827, -5.1649898722869425 
3.520000000003004, -5.1640966362829595 
3.530000000003025, -5.1632997852670295 
3.540000000003046, -5.162402410159709 
3.550000000003067, -5.161367056329242 
3.5600000000030882, -5.160395192656022 
3.5700000000031094, -5.159631340852426 
3.5800000000031305, -5.158789115585738 
3.5900000000031516, -5.157803160872315 
3.6000000000031727, -5.156794345444233 
3.6100000000031938, -5.155955427245507 
3.620000000003215, -5.1551166307771945 
3.630000000003236, -5.154179351071987 
3.640000000003257, -5.153220484877316 
3.650000000003278, -5.15234151282627 
3.6600000000032993, -5.151469170930502 
3.6700000000033204, -5.150531699921448 
3.6800000000033415, -5.149607617315222 
3.6900000000033626, -5.148747713732101 
3.7000000000033837, -5.147860935079388 
3.710000000003405, -5.146889553894862 
3.720000000003426, -5.145954416030656 
3.730000000003447, -5.145149036529794 
3.740000000003468, -5.144291919146796 
3.750000000003489, -5.143298697935729 
3.7600000000035103, -5.142280727562127 
3.7700000000035314, -5.141488858488707 
3.7800000000035525, -5.140693920047117 
3.7900000000035736, -5.139749415291868 
3.8000000000035947, -5.138717106680952 
3.810000000003616, -5.137833816497226 
3.820000000003637, -5.137033098734365 
3.830000000003658, -5.136131720321274 
3.840000000003679, -5.135163717711952 
3.8500000000037002, -5.134255169124535 
3.8600000000037213, -5.133405936756377 
3.8700000000037424, -5.132498910390124 
3.8800000000037635, -5.131560543384238 
3.8900000000037847, -5.130681292016629 
3.9000000000038058, -5.129820341844346 
3.910000000003827, -5.128888227020722 
3.920000000003848, -5.127925420292915 
3.930000000003869, -5.127085200428704 
3.94000000000389, -5.126263679881788 
3.9500000000039113, -5.125327904567852 
3.9600000000039324, -5.124295570979383 
3.9700000000039535, -5.123427753732516 
3.9800000000039746, -5.122672561188743 
3.9900000000039957, -5.121788977131496 
4.000000000004016, -5.120769385956289 
4.010000000003993, -5.119806971468451 
4.02000000000397, -5.119021755568063 
4.030000000003946, -5.118174243830303 
4.040000000003923, -5.117222359245818 
4.0500000000039, -5.116272087843536 
4.0600000000038765, -5.115421570508828 
4.070000000003853, -5.114555698354358 
4.08000000000383, -5.113624866605197 
4.090000000003807, -5.1127149905036315 
4.100000000003783, -5.111860682308123 
4.11000000000376, -5.110973550510362 
4.120000000003737, -5.110016745268352 
4.130000000003713, -5.109119013583404 
4.14000000000369, -5.108310849688554 
4.150000000003667, -5.107437044769887 
4.1600000000036434, -5.1064403948117505 
4.17000000000362, -5.105474868082137 
4.180000000003597, -5.104714411850799 
4.1900000000035735, -5.103903094533903 
4.20000000000355, -5.10293969311208 
4.210000000003527, -5.1019118499983565 
4.220000000003504, -5.1010758594304555 
4.23000000000348, -5.100289519933406 
4.240000000003457, -5.099385747913094 
4.250000000003434, -5.098413353472222 
4.26000000000341, -5.097518755155862 
4.270000000003387, -5.09668805388567 
4.280000000003364, -5.095792748924245 
4.2900000000033405, -5.094862217096838 
4.300000000003317, -5.093985564789003 
4.310000000003294, -5.0931328240742255 
4.320000000003271, -5.092215991530445 
4.330000000003247, -5.091273644445678 
4.340000000003224, -5.090435188176106 
4.350000000003201, -5.08961159292911 
4.360000000003177, -5.088684981254426 
4.370000000003154, -5.087674954201242 
4.380000000003131, -5.086825094023068 
4.390000000003107, -5.086072679488539 
4.400000000003084, -5.0851942587776975 
4.410000000003061, -5.084177042860896 
4.4200000000030375, -5.0832211187605 
4.430000000003014, -5.0824577066529395 
4.440000000002991, -5.081629013612242 
4.450000000002968, -5.080683394693261 
4.460000000002944, -5.079726209038357 
4.470000000002921, -5.078885482970927 
4.480000000002898, -5.078043142263987 
4.490000000002874, -5.07712741241975 
4.500000000002851, -5.076213754405296 
4.510000000002828, -5.075361348064828 
4.520000000002804, -5.0744956901386296 
4.530000000002781, -5.073561645070967 
4.540000000002758, -5.0726586364776605 
4.5500000000027345, -5.071846066805696 
4.560000000002711, -5.070992805627396 
4.570000000002688, -5.070026634337564 
4.580000000002665, -5.069057924935822 
4.590000000002641, -5.068286319956628 
4.600000000002618, -5.067499052740293 
4.610000000002595, -5.066564449690337 
4.620000000002571, -5.065534369857996 
4.630000000002548, -5.064676987491118 
4.640000000002525, -5.0639216506715865 
4.6500000000025015, -5.063050306782497 
4.660000000002478, -5.062082098401779 
4.670000000002455, -5.061164995519038 
4.6800000000024315, -5.060352073874363 
4.690000000002408, -5.059489694437373 
4.700000000002385, -5.0585666637993425 
4.710000000002362, -5.05767553647382 
4.720000000002338, -5.056835356320108 
4.730000000002315, -5.055953502444512 
4.740000000002292, -5.055019228117806 
4.750000000002268, -5.054155290024134 
4.760000000002245, -5.05334576435428 
4.770000000002222, -5.052463790521012 
4.7800000000021985, -5.05147895908702 
4.790000000002175, -5.050575617850802 
4.800000000002152, -5.049831446459572 
4.810000000002129, -5.049005487114831 
4.820000000002105, -5.048030476685047 
4.830000000002082, -5.047026434257915 
4.840000000002059, -5.046241326194496 
4.850000000002035, -5.04546727494572 
4.860000000002012, -5.044563937829137 
4.870000000001989, -5.04359173245057 
4.880000000001965, -5.042718145659115 
4.890000000001942, -5.041911677182705 
4.900000000001919, -5.041033053648597 
4.9100000000018955, -5.040112339743935 
4.920000000001872, -5.039242172366594 
4.930000000001849, -5.038405502280819 
4.940000000001826, -5.037511307936812 
4.950000000001802, -5.0365881709235785 
4.960000000001779, -5.035751711522267 
4.970000000001756, -5.034936793508929 
4.980000000001732, -5.034032901440993 
4.990000000001709, -5.033048781598235 
5.000000000001686, -5.032202375177433 
5.0100000000016625, -5.031459253745613 
5.020000000001639, -5.030603194320456 
5.030000000001616, -5.02960486469842 
