t, s[1].omega / s[0].omega 
0, -0.30999779512219183 
0.009999999999999995, -0.3097774123773598 
0.019999999999999934, -0.3095570311703558 
0.029999999999999874, -0.30933608520897626 
0.04000000000000012, -0.3091137830077697 
0.050000000000000405, -0.30888926839931546 
0.06000000000000069, -0.3086617480780519 
0.07000000000000098, -0.30843055339292424 
0.08000000000000126, -0.30819513543047594 
0.09000000000000155, -0.30795501356722454 
0.10000000000000184, -0.3077097034016486 
0.11000000000000212, -0.30745864571247106 
0.12000000000000241, -0.3072011519090208 
0.130000000000002, -0.3069363788462936 
0.1400000000000009, -0.3066633483581341 
0.1499999999999998, -0.3063810319831025 
0.1599999999999987, -0.30608852249213986 
0.1699999999999976, -0.30578530039101304 
0.1799999999999965, -0.3054715657375256 
0.1899999999999954, -0.30514854694337024 
0.1999999999999943, -0.30481864964169797 
0.2099999999999932, -0.3044853215269667 
0.2199999999999921, -0.3041526110232987 
0.229999999999991, -0.3038245443892757 
0.2399999999999899, -0.3035045377797312 
0.2499999999999888, -0.3031950314600121 
0.2599999999999877, -0.302897412972218 
0.2699999999999866, -0.3026121743365378 
0.2799999999999855, -0.30233919027234635 
0.2899999999999844, -0.30207801286712194 
0.2999999999999833, -0.30182811889060224 
0.3099999999999822, -0.30158908594075473 
0.3199999999999811, -0.301360697614252 
0.32999999999998, -0.301142985480846 
0.3399999999999789, -0.30093621256713393 
0.3499999999999778, -0.30074079588720537 
0.35999999999997667, -0.30055716048615944 
0.36999999999997557, -0.3003855210712411 
0.37999999999997447, -0.3002256063412844 
0.38999999999997337, -0.3000763783425918 
0.39999999999997227, -0.2999358443214046 
0.40999999999997117, -0.2998010806856524 
0.41999999999997006, -0.29966854625434636 
0.42999999999996896, -0.29953464198277235 
0.43999999999996786, -0.2993963339636959 
0.44999999999996676, -0.2992516020614985 
0.45999999999996566, -0.299099565393194 
0.46999999999996456, -0.29894030507532265 
0.47999999999996346, -0.298774528944837 
0.48999999999996235, -0.2986032363464915 
0.49999999999996125, -0.298427475972601 
0.5099999999999602, -0.29824821530877976 
0.519999999999959, -0.2980662972329317 
0.529999999999958, -0.29788244923758345 
0.5399999999999568, -0.2976973177874672 
0.5499999999999557, -0.2975115103341804 
0.5599999999999546, -0.2973256335916476 
0.5699999999999535, -0.2971403175194781 
0.5799999999999524, -0.2969562119870835 
0.5899999999999513, -0.29677394147682185 
0.5999999999999502, -0.2965940081490372 
0.6099999999999491, -0.2964166498522455 
0.619999999999948, -0.2962416858846881 
0.6299999999999469, -0.2960684077592547 
0.6399999999999458, -0.2958955756314201 
0.6499999999999447, -0.29572155013630885 
0.6599999999999436, -0.2955445327617948 
0.6699999999999425, -0.29536283705692024 
0.6799999999999414, -0.2951751005395408 
0.6899999999999403, -0.2949803796766964 
0.6999999999999392, -0.29477812360194516 
0.7099999999999381, -0.294568063790405 
0.719999999999937, -0.2943500706511519 
0.7299999999999359, -0.29412401923017367 
0.7399999999999348, -0.29388968972765694 
0.7499999999999337, -0.29364671591032593 
0.7599999999999326, -0.2933945895504294 
0.7699999999999315, -0.29313272919578137 
0.7799999999999304, -0.29286062057070256 
0.7899999999999293, -0.2925780258674763 
0.7999999999999282, -0.2922852342925052 
0.8099999999999271, -0.29198328962329334 
0.819999999999926, -0.29167410122554605 
0.8299999999999249, -0.2913603536015824 
0.8399999999999238, -0.2910451942929785 
0.8499999999999227, -0.2907317778958978 
0.8599999999999216, -0.2904228146851297 
0.8699999999999205, -0.2901202661210021 
0.8799999999999194, -0.28982525321998387 
0.8899999999999183, -0.2895381522535546 
0.8999999999999172, -0.28925879763492507 
0.9099999999999161, -0.28898670788856823 
0.919999999999915, -0.28872127820673066 
0.9299999999999139, -0.2884619160833159 
0.9399999999999128, -0.2882081191320508 
0.9499999999999117, -0.287959503343445 
0.9599999999999106, -0.2877157896973996 
0.9699999999999095, -0.2874767530290352 
0.9799999999999084, -0.2872421348018926 
0.9899999999999073, -0.2870115259475679 
0.9999999999999062, -0.2867842410644553 
1.0099999999999052, -0.28655923029802355 
1.019999999999904, -0.2863350981561482 
1.029999999999903, -0.28611029266467913 
1.039999999999902, -0.28588346614137905 
1.0499999999999008, -0.2856538990606217 
1.0599999999998997, -0.28542179266427103 
1.0699999999998986, -0.2851882659694298 
1.0799999999998975, -0.2849550472614145 
1.0899999999998964, -0.28472401663219105 
1.0999999999998953, -0.28449680742737965 
1.1099999999998942, -0.2842745955835154 
1.119999999999893, -0.2840580850993033 
1.129999999999892, -0.2838476210708084 
1.1399999999998909, -0.28364334901498145 
1.1499999999998898, -0.28344536375767826 
1.1599999999998887, -0.2832538213226457 
1.1699999999998876, -0.2830690069138959 
1.1799999999998865, -0.28289135905905527 
1.1899999999998854, -0.28272144831076795 
1.1999999999998843, -0.2825599039941621 
1.2099999999998832, -0.2824072799994188 
1.219999999999882, -0.28226385667212317 
1.229999999999881, -0.28212939579723245 
1.2399999999998799, -0.28200289945254015 
1.2499999999998788, -0.2818824587959571 
1.2599999999998777, -0.2817652889628946 
1.2699999999998766, -0.2816480035220159 
1.2799999999998755, -0.2815270867855986 
1.2899999999998744, -0.2813994223465935 
1.2999999999998733, -0.28126270094969474 
1.3099999999998722, -0.2811155901354107 
1.319999999999871, -0.2809576602393358 
1.32999999999987, -0.2807891515663615 
1.3399999999998689, -0.2806106934167566 
1.3499999999998678, -0.2804230583039719 
1.3599999999998666, -0.2802269904762999 
1.3699999999998655, -0.2800231140827788 
1.3799999999998644, -0.2798119105789433 
1.3899999999998633, -0.27959375198354275 
1.3999999999998622, -0.2793689776902695 
1.4099999999998611, -0.2791380007453924 
1.41999999999986, -0.27890142162642695 
1.429999999999859, -0.2786601157445926 
1.4399999999998578, -0.27841525363041 
1.4499999999998567, -0.27816822203494135 
1.4599999999998556, -0.2779204463239867 
1.4699999999998545, -0.2776731596363021 
1.4799999999998534, -0.27742719646584746 
1.4899999999998523, -0.27718288344878017 
1.4999999999998512, -0.2769400573740256 
1.5099999999998501, -0.2766981854780098 
1.519999999999849, -0.27645652792890485 
1.529999999999848, -0.2762142816099547 
1.5399999999998468, -0.27597066887653854 
1.5499999999998457, -0.2757249648550935 
1.5599999999998446, -0.27547647698199174 
1.5699999999998435, -0.2752244973280938 
1.5799999999998424, -0.27496824664154673 
1.5899999999998413, -0.27470682585185374 
1.5999999999998402, -0.2744391908780577 
1.6099999999998391, -0.2741641714115203 
1.619999999999838, -0.27388056115311266 
1.629999999999837, -0.27358730757382344 
1.6399999999998358, -0.27328381026168624 
1.6499999999998347, -0.2729702871730325 
1.6599999999998336, -0.27264809647053767 
1.6699999999998325, -0.27231985247874135 
1.6799999999998314, -0.2719892096354519 
1.6899999999998303, -0.27166032545774216 
1.6999999999998292, -0.27133717744030267 
1.709999999999828, -0.27102298041818873 
1.719999999999827, -0.27071988091158816 
1.729999999999826, -0.27042895815510926 
1.7399999999998248, -0.27015044268452815 
1.7499999999998237, -0.26988402507134707 
1.7599999999998226, -0.26962915364528073 
1.7699999999998215, -0.2693852681383088 
1.7799999999998204, -0.2691519550152143 
1.7899999999998193, -0.26892902976968 
1.7999999999998182, -0.2687165548175351 
1.809999999999817, -0.26851479603753925 
1.819999999999816, -0.268324113599093 
1.8299999999998149, -0.26814478030457467 
1.8399999999998138, -0.26797673062769845 
1.8499999999998127, -0.26781927222025503 
1.8599999999998116, -0.2676708371387839 
1.8699999999998105, -0.26752889179888006 
1.8799999999998094, -0.2673901205078684 
1.8899999999998083, -0.26725090908604904 
1.8999999999998072, -0.2671080009265154 
1.909999999999806, -0.2669590769564368 
1.919999999999805, -0.2668030324610494 
1.9299999999998039, -0.26663988753409346 
1.9399999999998028, -0.2664704486872832 
1.9499999999998017, -0.2662959122892402 
1.9599999999998006, -0.26611755326765585 
1.9699999999997995, -0.2659365493721888 
1.9799999999997984, -0.2657539221947577 
1.9899999999997973, -0.26557055108313954 
1.9999999999997962, -0.26538722040343304 
2.0099999999998173, -0.2652046740192724 
2.0199999999998384, -0.2650236613516399 
2.0299999999998595, -0.26484496348036984 
2.0399999999998806, -0.2646693868795995 
2.0499999999999017, -0.2644977105795098 
2.059999999999923, -0.2643305755511508 
2.069999999999944, -0.2641683187850622 
2.079999999999965, -0.26401078079777623 
2.089999999999986, -0.263857146439673 
2.100000000000007, -0.2637058956097854 
2.1100000000000283, -0.2635549209504551 
2.1200000000000494, -0.2634018090364395 
2.1300000000000705, -0.2632442068825325 
2.1400000000000916, -0.26308015332264484 
2.1500000000001127, -0.26290827424980334 
2.160000000000134, -0.2627278071258395 
2.170000000000155, -0.26253848873410757 
2.180000000000176, -0.26234037490420253 
2.190000000000197, -0.26213365748476747 
2.2000000000002182, -0.26191852045659114 
2.2100000000002393, -0.2616950536892645 
2.2200000000002604, -0.2614632290277942 
2.2300000000002815, -0.2612229384962709 
2.2400000000003026, -0.2609740924017732 
2.2500000000003237, -0.260716768855564 
2.260000000000345, -0.2604513908213796 
2.270000000000366, -0.26017888388239074 
2.280000000000387, -0.2599007494969649 
2.290000000000408, -0.259618994426266 
2.3000000000004293, -0.2593359004800344 
2.3100000000004504, -0.259053687373335 
2.3200000000004715, -0.25877417598553765 
2.3300000000004926, -0.25849856147656725 
2.3400000000005137, -0.2582273527178983 
2.3500000000005348, -0.25796046192220107 
2.360000000000556, -0.257697378886538 
2.370000000000577, -0.2574373561813629 
2.380000000000598, -0.2571795543688351 
2.390000000000619, -0.25692312761470737 
2.4000000000006403, -0.2566672533221852 
2.4100000000006614, -0.25641111988477816 
2.4200000000006825, -0.25615388791035887 
2.4300000000007036, -0.25589463858605443 
2.4400000000007247, -0.2556323236346172 
2.450000000000746, -0.25536573768376314 
2.460000000000767, -0.255093545374124 
2.470000000000788, -0.25481440536193095 
2.480000000000809, -0.2545272258449927 
2.49000000000083, -0.2542315416673777 
2.5000000000008513, -0.2539279183784599 
2.5100000000008724, -0.253618205285507 
2.5200000000008935, -0.2533054584043698 
2.5300000000009146, -0.25299348427656315 
2.5400000000009357, -0.2526861532547592 
2.550000000000957, -0.2523867501435699 
2.560000000000978, -0.2520975840492875 
2.570000000000999, -0.2518199230213927 
2.58000000000102, -0.2515541764233368 
2.5900000000010412, -0.25130019216128724 
2.6000000000010624, -0.251057556771235 
2.6100000000010835, -0.2508258365774193 
2.6200000000011046, -0.25060474084109496 
2.6300000000011257, -0.25039421013595914 
2.6400000000011468, -0.2501944378004731 
2.650000000001168, -0.2500058268703308 
2.660000000001189, -0.24982887699614417 
2.67000000000121, -0.24966399278659118 
2.680000000001231, -0.24951121469004334 
2.6900000000012523, -0.24936990296646097 
2.7000000000012734, -0.24923845364187888 
2.7100000000012945, -0.2491141723798896 
2.7200000000013156, -0.24899343444081876 
2.7300000000013367, -0.24887217388193142 
2.740000000001358, -0.24874658550435552 
2.750000000001379, -0.2486137860204634 
2.7600000000014, -0.248472183292819 
2.770000000001421, -0.24832145817951207 
2.780000000001442, -0.24816225449234408 
2.7900000000014633, -0.2479957666864455 
2.8000000000014844, -0.24782338462402037 
2.8100000000015055, -0.24764646626477402 
2.8200000000015266, -0.24746623469373272 
2.8300000000015477, -0.2472837624332216 
2.840000000001569, -0.2471000038238096 
2.85000000000159, -0.2469158464070203 
2.860000000001611, -0.24673216178733956 
2.870000000001632, -0.24654984060952984 
2.8800000000016532, -0.24636979573849724 
2.8900000000016743, -0.24619291649015737 
2.9000000000016954, -0.2460199609916136 
2.9100000000017165, -0.24585138950849722 
2.9200000000017377, -0.2456871700191765 
2.9300000000017588, -0.24552661899266806 
2.94000000000178, -0.2453683546759638 
2.950000000001801, -0.245210416550032 
2.960000000001822, -0.24505054194804612 
2.970000000001843, -0.24488651901398076 
2.9800000000018643, -0.2447164992006341 
2.9900000000018854, -0.24453917632856287 
3.0000000000019065, -0.24435380442805 
3.0100000000019276, -0.24416008987712287 
3.0200000000019487, -0.2439580232861454 
3.03000000000197, -0.24374771163194145 
3.040000000001991, -0.2435292492041763 
3.050000000002012, -0.2433026449359869 
3.060000000002033, -0.24306781157400503 
3.070000000002054, -0.24282461747368064 
3.0800000000020753, -0.24257299835361623 
3.0900000000020964, -0.2423131171673693 
3.1000000000021175, -0.24204554158846645 
3.1100000000021386, -0.24177138463605058 
3.1200000000021597, -0.24149233987141555 
3.130000000002181, -0.24121055883793016 
3.140000000002202, -0.24092837300458622 
3.150000000002223, -0.2406479338403554 
3.160000000002244, -0.24037088867564735 
3.1700000000022652, -0.24009819464553214 
3.1800000000022863, -0.23983010780366562 
3.1900000000023074, -0.23956631215784566 
3.2000000000023285, -0.23930611339047553 
3.2100000000023496, -0.23904862444065325 
3.2200000000023707, -0.23879289870462178 
3.230000000002392, -0.23853799848874918 
3.240000000002413, -0.2382830074394418 
3.250000000002434, -0.23802700382509237 
3.260000000002455, -0.23776901179109 
3.2700000000024763, -0.23750794665686029 
3.2800000000024974, -0.23724257297364248 
3.2900000000025185, -0.23697150236702186 
3.3000000000025396, -0.23669326923045758 
3.3100000000025607, -0.2364065254700544 
3.3200000000025818, -0.23611037218974357 
3.330000000002603, -0.23580478110775585 
3.340000000002624, -0.23549096562787214 
3.350000000002645, -0.23517150386822494 
3.360000000002666, -0.23485007298939825 
3.3700000000026873, -0.23453083283061255 
3.3800000000027084, -0.23421768443232818 
3.3900000000027295, -0.2339136826611444 
3.4000000000027506, -0.23362077207671023 
3.4100000000027717, -0.2333398434702072 
3.420000000002793, -0.2330709934173934 
3.430000000002814, -0.23281384909080632 
3.440000000002835, -0.2325678615122928 
3.450000000002856, -0.23233252332352494 
3.460000000002877, -0.2321075038158203 
3.4700000000028983, -0.2318927091236777 
3.4800000000029194, -0.2316882752328116 
3.4900000000029405, -0.2314944941743528 
3.5000000000029616, -0.23131166727090938 
3.5100000000029827, -0.23113988141114183 
3.520000000003004, -0.23097872323394072 
3.530000000003025, -0.23082698633999268 
3.540000000003046, -0.23068247874549405 
3.550000000003067, -0.2305420672524295 
3.5600000000030882, -0.23040205069509886 
3.5700000000031094, -0.23025881276588303 
3.5800000000031305, -0.2301095321221842 
3.5900000000031516, -0.22995265859969827 
3.6000000000031727, -0.22978798027265418 
3.6100000000031938, -0.22961632694265782 
3.620000000003215, -0.22943911211159787 
3.630000000003236, -0.22925791936249293 
3.640000000003257, -0.22907424045227542 
3.650000000003278, -0.2288893699586428 
3.6600000000032993, -0.2287044085775441 
3.6700000000033204, -0.22852032082694756 
3.6800000000033415, -0.22833800763426834 
3.6900000000033626, -0.2281583700947754 
3.7000000000033837, -0.22798234944087029 
3.710000000003405, -0.2278109298761087 
3.720000000003426, -0.22764508926638075 
3.730000000003447, -0.22748568372201405 
3.740000000003468, -0.2273332628084912 
3.750000000003489, -0.22718783740922294 
3.7600000000035103, -0.2270486590195886 
3.7700000000035314, -0.2269141005475596 
3.7800000000035525, -0.22678172659067983 
3.7900000000035736, -0.22664858543572172 
3.8000000000035947, -0.22651165979124138 
3.810000000003616, -0.22636833254499572 
3.820000000003637, -0.22621671475528626 
3.830000000003658, -0.22605575359226973 
3.840000000003679, -0.22588513756821899 
3.8500000000037002, -0.22570508321898605 
3.8600000000037213, -0.2255160974263705 
3.8700000000037424, -0.2253187808119277 
3.8800000000037635, -0.22511370091638408 
3.8900000000037847, -0.22490133829985876 
3.9000000000038058, -0.22468209719792678 
3.910000000003827, -0.22445636883193268 
3.920000000003848, -0.22422463215435906 
3.930000000003869, -0.2239875687037299 
3.94000000000389, -0.2237461557992006 
3.9500000000039113, -0.22350169309598017 
3.9600000000039324, -0.22325572418616058 
3.9700000000039535, -0.22300984631227547 
3.9800000000039746, -0.2227654503046143 
3.9900000000039957, -0.22252347372995426 
4.000000000004016, -0.2222842541312083 
4.010000000003993, -0.22204752865430527 
4.02000000000397, -0.2218125640478747 
4.030000000003946, -0.22157835305055545 
4.040000000003923, -0.2213438022498872 
4.0500000000039, -0.22110785928487786 
4.0600000000038765, -0.2208695630726008 
4.070000000003853, -0.22062802937719944 
4.08000000000383, -0.22038239721297548 
4.090000000003807, -0.2201317624705858 
4.100000000003783, -0.21987512161723566 
4.11000000000376, -0.21961134671310897 
4.120000000003737, -0.21933921532081238 
4.130000000003713, -0.2190575218654026 
4.14000000000369, -0.2187652917146735 
4.150000000003667, -0.21846209332976282 
4.1600000000036434, -0.21814839062820385 
4.17000000000362, -0.21782581277905208 
4.180000000003597, -0.21749718866831627 
4.1900000000035735, -0.21716625040645873 
4.20000000000355, -0.21683705339063125 
4.210000000003527, -0.21651330569010532 
4.220000000003504, -0.2161978411249464 
4.23000000000348, -0.21589238195710503 
4.240000000003457, -0.2155975929826345 
4.250000000003434, -0.21531332497711872 
4.26000000000341, -0.2150389211209062 
4.270000000003387, -0.21477349303289017 
4.280000000003364, -0.2145161217988683 
4.2900000000033405, -0.21426597621477272 
4.300000000003317, -0.21402235795275798 
4.310000000003294, -0.21378468610213103 
4.320000000003271, -0.21355242961438198 
4.330000000003247, -0.21332499330661125 
4.340000000003224, -0.21310156811031172 
4.350000000003201, -0.21288097458900634 
4.360000000003177, -0.2126615601268545 
4.370000000003154, -0.21244123998810904 
4.380000000003131, -0.21221776595846573 
4.390000000003107, -0.21198922508506096 
4.400000000003084, -0.21175462270160827 
4.410000000003061, -0.21151428373719727 
4.4200000000030375, -0.2112698439058808 
4.430000000003014, -0.21102381554852875 
4.440000000002991, -0.21077894595423582 
4.450000000002968, -0.21053765774912225 
4.460000000002944, -0.21030174966309997 
4.470000000002921, -0.21007236766892884 
4.480000000002898, -0.2098501514840856 
4.490000000002874, -0.20963544562119307 
4.500000000002851, -0.2094284984279921 
4.510000000002828, -0.20922961315115657 
4.520000000002804, -0.20903924080811748 
4.530000000002781, -0.20885801339034854 
4.540000000002758, -0.20868671351116902 
4.5500000000027345, -0.20852617054836475 
4.560000000002711, -0.20837707152538357 
4.570000000002688, -0.20823968616371222 
4.580000000002665, -0.20811353730862106 
4.590000000002641, -0.20799709916908019 
4.600000000002618, -0.20788765516911725 
4.610000000002595, -0.20778145003024023 
4.620000000002571, -0.20767418471054327 
4.630000000002548, -0.20756174162915783 
4.640000000002525, -0.20744088771207303 
4.6500000000025015, -0.20730969869700178 
4.660000000002478, -0.2071675952379946 
4.670000000002455, -0.2070150689862577 
4.6800000000024315, -0.20685327797117373 
4.690000000002408, -0.20668367326151604 
4.700000000002385, -0.20650773990802734 
4.710000000002362, -0.2063268621612476 
4.720000000002338, -0.20614228501894635 
4.730000000002315, -0.20595513605973906 
4.740000000002292, -0.20576647698879774 
4.750000000002268, -0.20557736088433193 
4.760000000002245, -0.20538887355786314 
4.770000000002222, -0.20520213643152405 
4.7800000000021985, -0.2050182488445586 
4.790000000002175, -0.20483815693898683 
4.800000000002152, -0.20466245964724705 
4.810000000002129, -0.20449119711694258 
4.820000000002105, -0.20432369786146248 
4.830000000002082, -0.20415856439952895 
4.840000000002059, -0.20399383727402426 
4.850000000002035, -0.20382730476143163 
