t, s[1].omega / s[0].omega 
0, -0.41999777419632445 
0.009999999999999995, -0.4197740028838842 
0.019999999999999934, -0.41954764601948247 
0.029999999999999874, -0.4193180961413335 
0.04000000000000012, -0.41908455528110233 
0.050000000000000405, -0.41884624898414424 
0.06000000000000069, -0.41860257693750214 
0.07000000000000098, -0.4183531623766994 
0.08000000000000126, -0.4180978137599132 
0.09000000000000155, -0.41783643851238794 
0.10000000000000184, -0.41756894745766554 
0.11000000000000212, -0.41729517318046705 
0.12000000000000241, -0.4170148099006636 
0.130000000000002, -0.41672737404477933 
0.1400000000000009, -0.41643218610840166 
0.1499999999999998, -0.416128386327604 
0.1599999999999987, -0.4158150179930312 
0.1699999999999976, -0.4154912342625662 
0.1799999999999965, -0.41515668217763035 
0.1899999999999954, -0.41481205287693956 
0.1999999999999943, -0.41445964466279267 
0.2099999999999932, -0.414103637193117 
0.2199999999999921, -0.4137497810593005 
0.229999999999991, -0.4134044663210605 
0.2399999999999899, -0.4130735032761937 
0.2499999999999888, -0.4127611242258659 
0.2599999999999877, -0.412469553876541 
0.2699999999999866, -0.41219916438088305 
0.2799999999999855, -0.41194899037996874 
0.2899999999999844, -0.41171733543691696 
0.2999999999999833, -0.41150228853300225 
0.3099999999999822, -0.41130208065330975 
0.3199999999999811, -0.41111528662503893 
0.32999999999998, -0.41094090779996006 
0.3399999999999789, -0.41077837154458247 
0.3499999999999778, -0.41062746990043636 
0.35999999999997667, -0.4104882428387061 
0.36999999999997557, -0.4103607981267853 
0.37999999999997447, -0.4102450567988384 
0.38999999999997337, -0.410140428878901 
0.39999999999997227, -0.41004546381226464 
0.40999999999997117, -0.40995757564944135 
0.41999999999997006, -0.40987298184355314 
0.42999999999996896, -0.40978696821993077 
0.43999999999996786, -0.40969447683054805 
0.44999999999996676, -0.409590853548918 
0.45999999999996566, -0.4094724944913832 
0.46999999999996456, -0.40933717421695437 
0.47999999999996346, -0.40918399529352706 
0.48999999999996235, -0.4090130562605476 
0.49999999999996125, -0.4088250034614309 
0.5099999999999602, -0.40862060709175446 
0.519999999999959, -0.40840043572557966 
0.529999999999958, -0.4081646472174881 
0.5399999999999568, -0.407912887912319 
0.5499999999999557, -0.4076442933415801 
0.5599999999999546, -0.4073575996225058 
0.5699999999999535, -0.40705139101500887 
0.5799999999999524, -0.40672450834460105 
0.5899999999999513, -0.4063766060090364 
0.5999999999999502, -0.4060087625854728 
0.6099999999999491, -0.4056239471341024 
0.619999999999948, -0.4052270955566595 
0.6299999999999469, -0.4048246442676218 
0.6399999999999458, -0.40442360130803773 
0.6499999999999447, -0.4040304705807108 
0.6599999999999436, -0.40365040939348323 
0.6699999999999425, -0.40328685197246134 
0.6799999999999414, -0.4029415977315769 
0.6899999999999403, -0.4026152000339979 
0.6999999999999392, -0.40230745826704106 
0.7099999999999381, -0.4020178722685177 
0.719999999999937, -0.40174599499170993 
0.7299999999999359, -0.40149167421525933 
0.7399999999999348, -0.40125519744979654 
0.7499999999999337, -0.40103735358808523 
0.7599999999999326, -0.4008394110403174 
0.7699999999999315, -0.4006629938059453 
0.7799999999999304, -0.40050982232990656 
0.7899999999999293, -0.40038128660878414 
0.7999999999999282, -0.400277851491668 
0.8099999999999271, -0.40019837335047714 
0.819999999999926, -0.400139524819166 
0.8299999999999249, -0.40009561941243127 
0.8399999999999238, -0.40005909030951264 
0.8499999999999227, -0.4000216324304942 
0.8599999999999216, -0.39997565650841926 
0.8699999999999205, -0.3999154916112934 
0.8799999999999194, -0.3998379084759457 
0.8899999999999183, -0.3997419193749435 
0.8999999999999172, -0.3996281350448214 
0.9099999999999161, -0.3994980329124426 
0.919999999999915, -0.39935336768456303 
0.9299999999999139, -0.3991957945981358 
0.9399999999999128, -0.39902667653857987 
0.9499999999999117, -0.39884701770709197 
0.9599999999999106, -0.39865747731260226 
0.9699999999999095, -0.3984584378262078 
0.9799999999999084, -0.3982501180674246 
0.9899999999999073, -0.39803272528204103 
0.9999999999999062, -0.3978066302845484 
1.0099999999999052, -0.3975725283793453 
1.019999999999904, -0.39733152764559954 
1.029999999999903, -0.39708510582137524 
1.039999999999902, -0.3968349151699994 
1.0499999999999008, -0.39658248477878294 
1.0599999999998997, -0.3963289317663038 
1.0699999999998986, -0.39607479863868456 
1.0799999999998975, -0.3958200716262898 
1.0899999999998964, -0.39556434510636035 
1.0999999999998953, -0.3953070394844097 
1.1099999999998942, -0.3950475822688217 
1.119999999999893, -0.39478550643994453 
1.129999999999892, -0.3945204683736553 
1.1399999999998909, -0.39425221387459425 
1.1499999999998898, -0.3939805228130378 
1.1599999999998887, -0.3937051514444223 
1.1699999999998876, -0.3934257784747489 
1.1799999999998865, -0.3931419534838251 
1.1899999999998854, -0.3928530482574113 
1.1999999999998843, -0.3925582258190535 
1.2099999999998832, -0.39225646911730094 
1.219999999999882, -0.3919467416642172 
1.229999999999881, -0.39162835458423373 
1.2399999999998799, -0.39130154023348174 
1.2499999999998788, -0.3909680653339588 
1.2599999999998777, -0.3906315480976594 
1.2699999999998766, -0.39029716235873096 
1.2799999999998755, -0.3899707102326372 
1.2899999999998744, -0.3896574335678525 
1.2999999999998733, -0.389361082335328 
1.3099999999998722, -0.38908355670232025 
1.319999999999871, -0.3888251002572024 
1.32999999999987, -0.3885848062633742 
1.3399999999998689, -0.388361181879607 
1.3499999999998678, -0.3881526120458477 
1.3599999999998666, -0.3879576705006088 
1.3699999999998655, -0.3877752903290871 
1.3799999999998644, -0.3876048288237589 
1.3899999999998633, -0.38744605738189214 
1.3999999999998622, -0.3872990917349504 
1.4099999999998611, -0.38716426067595233 
1.41999999999986, -0.38704189967989266 
1.429999999999859, -0.3869320574933746 
1.4399999999998578, -0.3868341281962061 
1.4499999999998567, -0.38674647209987084 
1.4599999999998556, -0.3866661509596639 
1.4699999999998545, -0.38658893374361675 
1.4799999999998534, -0.38650967606343706 
1.4899999999998523, -0.38642302757699054 
1.4999999999998512, -0.3863242494913705 
1.5099999999998501, -0.3862098511924737 
1.519999999999849, -0.3860778442369892 
1.529999999999848, -0.3859275986363136 
1.5399999999998468, -0.3857594399234839 
1.5499999999998457, -0.3855741690316692 
1.5599999999998446, -0.38537263964658386 
1.5699999999998435, -0.3851554535230151 
1.5799999999998424, -0.38492278100025523 
1.5899999999998413, -0.3846742946675898 
1.5999999999998402, -0.3844092101294316 
1.6099999999998391, -0.3841264438473601 
1.619999999999838, -0.3838249077754487 
1.629999999999837, -0.383503946503732 
1.6399999999998358, -0.3831638706488009 
1.6499999999998347, -0.3828064553900017 
1.6599999999998336, -0.38243519996681347 
1.6699999999998325, -0.38205515926532946 
1.6799999999998314, -0.3816723082154655 
1.6899999999998303, -0.38129262256508034 
1.6999999999998292, -0.3809212045359199 
1.709999999999828, -0.38056174099084067 
1.719999999999827, -0.38021639654059614 
1.729999999999826, -0.37988605497378647 
1.7399999999998248, -0.37957073426303906 
1.7499999999998237, -0.379270018104711 
1.7599999999998226, -0.37898341425380044 
1.7699999999998215, -0.37871061287621155 
1.7799999999998204, -0.3784516532191974 
1.7899999999998193, -0.3782070148967421 
1.7999999999998182, -0.37797764075566087 
1.809999999999817, -0.3777648809880757 
1.819999999999816, -0.377570330562121 
1.8299999999998149, -0.37739552351081285 
1.8399999999998138, -0.37724146284948545 
1.8499999999998127, -0.37710802199005933 
1.8599999999998116, -0.37699335836374653 
1.8699999999998105, -0.3768935951973595 
1.8799999999998094, -0.3768030527839273 
1.8899999999998083, -0.3767151357236883 
1.8999999999998072, -0.37662362979396746 
1.909999999999806, -0.3765238715838954 
1.919999999999805, -0.376413302983621 
1.9299999999998039, -0.37629130017304996 
1.9399999999998028, -0.3761585505672225 
1.9499999999998017, -0.3760163637863513 
1.9599999999998006, -0.3758661649531007 
1.9699999999997995, -0.37570922517580707 
1.9799999999997984, -0.37554657065959723 
1.9899999999997973, -0.37537898997959085 
1.9999999999997962, -0.3752070826982798 
2.0099999999998173, -0.3750313221773669 
2.0199999999998384, -0.37485212437483456 
2.0299999999998595, -0.37466992011997113 
2.0399999999998806, -0.37448522305417264 
2.0499999999999017, -0.37429867309357717 
2.059999999999923, -0.3741110233372443 
2.069999999999944, -0.3739230390573637 
2.079999999999965, -0.3737353030364373 
2.089999999999986, -0.3735479716351745 
2.100000000000007, -0.3733605762291187 
2.1100000000000283, -0.3731719747066388 
2.1200000000000494, -0.37298050343264133 
2.1300000000000705, -0.37278428414722453 
2.1400000000000916, -0.3725815638599409 
2.1500000000001127, -0.3723709592937571 
2.160000000000134, -0.3721515376335639 
2.170000000000155, -0.3719227437939927 
2.180000000000176, -0.37168423358132185 
2.190000000000197, -0.3714356785078261 
2.2000000000002182, -0.37117658796370645 
2.2100000000002393, -0.37090617117379576 
2.2200000000002604, -0.37062324943929437 
2.2300000000002815, -0.3703262327605238 
2.2400000000003026, -0.37001319153021983 
2.2500000000003237, -0.3696820751061817 
2.260000000000345, -0.3693311360917747 
2.270000000000366, -0.36895958074581864 
2.280000000000387, -0.36856835334703614 
2.290000000000408, -0.36816079490551407 
2.3000000000004293, -0.3677428065131273 
2.3100000000004504, -0.36732225280160147 
2.3200000000004715, -0.3669076912572439 
2.3300000000004926, -0.3665068903698144 
2.3400000000005137, -0.3661257032318198 
2.3500000000005348, -0.36576762400763296 
2.360000000000556, -0.3654339925543988 
2.370000000000577, -0.36512458262367226 
2.380000000000598, -0.364838285901625 
2.390000000000619, -0.3645737043201397 
2.4000000000006403, -0.36432957849363956 
2.4100000000006614, -0.3641050548643969 
2.4200000000006825, -0.36389982242422086 
2.4300000000007036, -0.36371414704931676 
2.4400000000007247, -0.36354881369206776 
2.450000000000746, -0.3634049652418135 
2.460000000000767, -0.36328381093793954 
2.470000000000788, -0.3631861784400145 
2.480000000000809, -0.3631119177957751 
2.49000000000083, -0.3630592448813873 
2.5000000000008513, -0.3630242237495687 
2.5100000000008724, -0.3630006685873925 
2.5200000000008935, -0.3629806922227923 
2.5300000000009146, -0.36295587941827856 
2.5400000000009357, -0.36291872211698506 
2.550000000000957, -0.3628637708116754 
2.560000000000978, -0.3627881038365151 
2.570000000000999, -0.36269108581764437 
2.58000000000102, -0.3625736924028667 
2.5900000000010412, -0.3624377477301569 
2.6000000000010624, -0.36228530534664743 
2.6100000000010835, -0.3621182489769579 
2.6200000000011046, -0.3619380906243624 
2.6300000000011257, -0.3617459118222234 
2.6400000000011468, -0.36154240199573506 
2.650000000001168, -0.36132796748330215 
2.660000000001189, -0.36110289839154563 
2.67000000000121, -0.3608675794399555 
2.680000000001231, -0.36062271302342264 
2.6900000000012523, -0.360369494720148 
2.7000000000012734, -0.36010966314551907 
2.7100000000012945, -0.3598453643510622 
2.7200000000013156, -0.35957883806791696 
2.7300000000013367, -0.35931202246355104 
2.740000000001358, -0.35904622696259625 
2.750000000001379, -0.35878199467454647 
2.7600000000014, -0.3585191812896225 
2.770000000001421, -0.3582571795758679 
2.780000000001442, -0.3579951759533776 
2.7900000000014633, -0.3577323478180624 
2.8000000000014844, -0.3574679645501071 
2.8100000000015055, -0.3572014021237836 
2.8200000000015266, -0.3569321021271606 
2.8300000000015477, -0.3566595041829443 
2.840000000001569, -0.3563829690245521 
2.85000000000159, -0.3561016991918484 
2.860000000001611, -0.3558146625057909 
2.870000000001632, -0.3555205345177989 
2.8800000000016532, -0.35521770193623153 
2.8900000000016743, -0.3549044032299853 
2.9000000000016954, -0.35457909864710985 
2.9100000000017165, -0.35424110899147443 
2.9200000000017377, -0.353891400384599 
2.9300000000017588, -0.3535331745972604 
2.94000000000178, -0.3531718423300684 
2.950000000001801, -0.3528141924034477 
2.960000000001822, -0.3524670317499797 
2.970000000001843, -0.35213588915342753 
2.9800000000018643, -0.3518242845437113 
2.9900000000018854, -0.3515336912785402 
3.0000000000019065, -0.3512639888966308 
3.0100000000019276, -0.3510140996077825 
3.0200000000019487, -0.35078257700440885 
3.03000000000197, -0.3505680417793787 
3.040000000001991, -0.35036945278809106 
3.050000000002012, -0.3501862436582373 
3.060000000002033, -0.35001835934627645 
3.070000000002054, -0.34986621230243825 
3.0800000000020753, -0.3497305574949206 
3.0900000000020964, -0.3496122685043642 
3.1000000000021175, -0.3495119926803865 
3.1100000000021386, -0.34942968425304843 
3.1200000000021597, -0.3493640708560562 
3.130000000002181, -0.34931219485705056 
3.140000000002202, -0.3492692437926269 
3.150000000002223, -0.3492288675387321 
3.160000000002244, -0.3491840171118262 
3.1700000000022652, -0.34912808114272864 
3.1800000000022863, -0.34905591172344785 
3.1900000000023074, -0.34896437722580786 
3.2000000000023285, -0.3488523300655821 
3.2100000000023496, -0.3487201419077314 
3.2200000000023707, -0.3485690729452648 
3.230000000002392, -0.3484006951854151 
3.240000000002413, -0.3482164765193093 
3.250000000002434, -0.34801753969016713 
3.260000000002455, -0.34780456796630654 
3.2700000000024763, -0.34757782624707567 
3.2800000000024974, -0.3473372799840667 
3.2900000000025185, -0.347082805533906 
3.3000000000025396, -0.34681448073326737 
3.3100000000025607, -0.3465329164835267 
3.3200000000025818, -0.3462395449710789 
3.330000000002603, -0.3459367450681303 
3.340000000002624, -0.34562770233327494 
3.350000000002645, -0.3453159927059614 
3.360000000002666, -0.34500501011816204 
3.3700000000026873, -0.3446974433296443 
3.3800000000027084, -0.34439498101530475 
3.3900000000027295, -0.3440983050456873 
3.4000000000027506, -0.34380730452565655 
3.4100000000027717, -0.34352138101417157 
3.420000000002793, -0.34323973020247034 
3.430000000002814, -0.3429615402121628 
3.440000000002835, -0.34268609862291255 
3.450000000002856, -0.34241282792020133 
3.460000000002877, -0.34214127298131547 
3.4700000000028983, -0.34187105508348326 
3.4800000000029194, -0.34160179528356704 
3.4900000000029405, -0.3413330038016885 
3.5000000000029616, -0.3410639383756973 
3.5100000000029827, -0.34079346075386424 
3.520000000003004, -0.3405199682860067 
3.530000000003025, -0.3402415271950797 
3.540000000003046, -0.3399563286142935 
3.550000000003067, -0.33966345539830917 
3.5600000000030882, -0.3393636927980874 
3.5700000000031094, -0.3390599187423645 
3.5800000000031305, -0.3387567242765546 
3.5900000000031516, -0.338459356893281 
3.6000000000031727, -0.338172498321024 
3.6100000000031938, -0.33789942413544544 
3.620000000003215, -0.33764177612902385 
3.630000000003236, -0.33739983006176105 
3.640000000003257, -0.33717299145032553 
3.650000000003278, -0.3369602927855821 
3.6600000000032993, -0.3367607770271375 
3.6700000000033204, -0.3365737436090452 
3.6800000000033415, -0.3363988778461332 
3.6900000000033626, -0.33623629242755715 
3.7000000000033837, -0.3360864978786024 
3.710000000003405, -0.3359503003954225 
3.720000000003426, -0.3358286093396989 
3.730000000003447, -0.33572213228548015 
3.740000000003468, -0.33563095473866233 
3.750000000003489, -0.33555405428124885 
3.7600000000035103, -0.3354888783659072 
3.7700000000035314, -0.33543118141106787 
3.7800000000035525, -0.33537530079984645 
3.7900000000035736, -0.33531490404765874 
3.8000000000035947, -0.33524400780351105 
3.810000000003616, -0.3351579050187147 
3.820000000003637, -0.33505367538885567 
3.830000000003658, -0.3349301733907587 
3.840000000003679, -0.3347876227291138 
3.8500000000037002, -0.3346270514539743 
3.8600000000037213, -0.3344497660823078 
3.8700000000037424, -0.33425696575566743 
3.8800000000037635, -0.3340495153504669 
3.8900000000037847, -0.3338278578228827 
3.9000000000038058, -0.33359204263104747 
3.910000000003827, -0.33334185880123324 
3.920000000003848, -0.33307706939448234 
3.930000000003869, -0.33279773425216247 
3.94000000000389, -0.3325045725187882 
3.9500000000039113, -0.33219926426915536 
3.9600000000039324, -0.3318845552249407 
3.9700000000039535, -0.3315640575150507 
3.9800000000039746, -0.3312417519848464 
3.9900000000039957, -0.33092134354258607 
4.000000000004016, -0.33060570142759976 
4.010000000003993, -0.3302965689639043 
4.02000000000397, -0.3299945882485583 
4.030000000003946, -0.3296995520820135 
4.040000000003923, -0.3294107401778434 
4.0500000000039, -0.329127221194436 
4.0600000000038765, -0.32884806254377846 
4.070000000003853, -0.32857244274918085 
4.08000000000383, -0.32829968744022336 
4.090000000003807, -0.3280292526782099 
4.100000000003783, -0.32776066953105587 
4.11000000000376, -0.32749345238424726 
4.120000000003737, -0.327226968696393 
4.130000000003713, -0.3269602777050236 
4.14000000000369, -0.32669197761818036 
4.150000000003667, -0.3264201545686432 
4.1600000000036434, -0.3261425749829916 
4.17000000000362, -0.325857238755615 
4.180000000003597, -0.3255632412030883 
4.1900000000035735, -0.3252616104084402 
4.20000000000355, -0.32495561504507264 
4.210000000003527, -0.3246502304405008 
4.220000000003504, -0.32435095156647026 
4.23000000000348, -0.3240625356636536 
4.240000000003457, -0.3237882146991047 
4.250000000003434, -0.32352955087588625 
4.26000000000341, -0.32328676790150424 
4.270000000003387, -0.32305927507544335 
4.280000000003364, -0.32284616655853327 
4.2900000000033405, -0.32264659546572894 
4.300000000003317, -0.322460009043043 
4.310000000003294, -0.32228626919417924 
4.320000000003271, -0.32212568555098314 
4.330000000003247, -0.3219789736882092 
4.340000000003224, -0.3218471314626956 
4.350000000003201, -0.321731211105613 
4.360000000003177, -0.3216319642202273 
4.370000000003154, -0.3215493645173694 
4.380000000003131, -0.32148207802108975 
4.390000000003107, -0.3214270401124367 
4.400000000003084, -0.32137936148942836 
4.410000000003061, -0.32133274154050573 
4.4200000000030375, -0.3212803767277497 
4.430000000003014, -0.32121609240863874 
4.440000000002991, -0.32113528192543594 
4.450000000002968, -0.32103533390727435 
4.460000000002944, -0.32091549746541675 
4.470000000002921, -0.32077637423537547 
4.480000000002898, -0.320619301077413 
4.490000000002874, -0.32044581844501285 
4.500000000002851, -0.32025730703772387 
4.510000000002828, -0.32005479429695105 
4.520000000002804, -0.3198389005833815 
4.530000000002781, -0.3196098965841577 
4.540000000002758, -0.31936785595726624 
4.5500000000027345, -0.3191128923621319 
4.560000000002711, -0.3188454562522212 
4.570000000002688, -0.3185666320629922 
4.580000000002665, -0.3182783356654614 
4.590000000002641, -0.317983299761273 
4.600000000002618, -0.3176847870275334 
4.610000000002595, -0.3173860851465201 
4.620000000002571, -0.3170899527848477 
4.630000000002548, -0.3167982184482213 
4.640000000002525, -0.31651165615535104 
4.6500000000025015, -0.3162301278078975 
4.660000000002478, -0.31595287947435896 
4.670000000002455, -0.31567885556204195 
4.6800000000024315, -0.3154069369092148 
4.690000000002408, -0.3151360706857034 
4.700000000002385, -0.3148653049464175 
4.710000000002362, -0.3145937575640533 
4.720000000002338, -0.3143205457635412 
4.730000000002315, -0.31404469181301453 
4.740000000002292, -0.31376501354331476 
4.750000000002268, -0.31348001302530204 
4.760000000002245, -0.3131877984762744 
4.770000000002222, -0.312886113256021 
4.7800000000021985, -0.3125725843089457 
4.790000000002175, -0.3122452922581718 
4.800000000002152, -0.31190364030684337 
4.810000000002129, -0.31154925146083245 
4.820000000002105, -0.31118640540922365 
4.830000000002082, -0.31082160138251086 
4.840000000002059, -0.3104622840103019 
4.850000000002035, -0.31011528009058614 
4.860000000002012, -0.3097856263460373 
