t, s[1].omega / s[0].omega 
0, -1.6499971123435366 
0.009999999999999995, -1.6496830386121981 
0.019999999999999934, -1.649321642179348 
0.029999999999999874, -1.6489219702292555 
0.04000000000000012, -1.6485008054711137 
0.050000000000000405, -1.6480825958660934 
0.06000000000000069, -1.6476946764239961 
0.07000000000000098, -1.6473570881223298 
0.08000000000000126, -1.6470726398098336 
0.09000000000000155, -1.646825973931172 
0.10000000000000184, -1.6465927941318526 
0.11000000000000212, -1.6463506274684658 
0.12000000000000241, -1.6460837426891815 
0.130000000000002, -1.645782688441986 
0.1400000000000009, -1.6454427272867445 
0.1499999999999998, -1.6450645510356523 
0.1599999999999987, -1.6446585261648263 
0.1699999999999976, -1.644250463803481 
0.1799999999999965, -1.6438815530619508 
0.1899999999999954, -1.6435933153755808 
0.1999999999999943, -1.6434017690582838 
0.2099999999999932, -1.6432843905147503 
0.2199999999999921, -1.6431948133957366 
0.229999999999991, -1.6430890978775536 
0.2399999999999899, -1.64294064747567 
0.2499999999999888, -1.642740106095287 
0.2599999999999877, -1.6424890749932028 
0.2699999999999866, -1.6421948383677882 
0.2799999999999855, -1.6418681901792938 
0.2899999999999844, -1.641523453882473 
0.2999999999999833, -1.641178466965723 
0.3099999999999822, -1.6408520652302037 
0.3199999999999811, -1.6405583822302323 
0.32999999999998, -1.6403008796799718 
0.3399999999999789, -1.6400706938345422 
0.3499999999999778, -1.639850667584708 
0.35999999999997667, -1.6396217029598605 
0.36999999999997557, -1.6393672064955613 
0.37999999999997447, -1.6390743902901406 
0.38999999999997337, -1.6387340495875857 
0.39999999999997227, -1.6383411444160338 
0.40999999999997117, -1.63789778382946 
0.41999999999997006, -1.6374185437575082 
0.42999999999996896, -1.6369347480114258 
0.43999999999996786, -1.6364903325973117 
0.44999999999996676, -1.6361239645641916 
0.45999999999996566, -1.635846549319907 
0.46999999999996456, -1.6356353083177164 
0.47999999999996346, -1.6354507714298279 
0.48999999999996235, -1.6352583981334543 
0.49999999999996125, -1.6350379906219998 
0.5099999999999602, -1.6347817624589336 
0.519999999999959, -1.6344894556507608 
0.529999999999958, -1.634165748880045 
0.5399999999999568, -1.6338209599878084 
0.5499999999999557, -1.6334733362642786 
0.5599999999999546, -1.633148813294886 
0.5699999999999535, -1.6328736011735692 
0.5799999999999524, -1.6326608569912568 
0.5899999999999513, -1.6325018137647476 
0.5999999999999502, -1.632370088896775 
0.6099999999999491, -1.632234700536472 
0.619999999999948, -1.6320708686127996 
0.6299999999999469, -1.6318637362408193 
0.6399999999999458, -1.6316072011725242 
0.6499999999999447, -1.631301603607317 
0.6599999999999436, -1.6309524535634417 
0.6699999999999425, -1.6305706173104801 
0.6799999999999414, -1.630173015408166 
0.6899999999999403, -1.6297817496117943 
0.6999999999999392, -1.6294194305522403 
0.7099999999999381, -1.6291009554906466 
0.719999999999937, -1.6288265366556942 
0.7299999999999359, -1.6285819755079882 
0.7399999999999348, -1.628346149585047 
0.7499999999999337, -1.6280992118103785 
0.7599999999999326, -1.6278263384925444 
0.7699999999999315, -1.6275174838187485 
0.7799999999999304, -1.6271664419100969 
0.7899999999999293, -1.626772077980829 
0.7999999999999282, -1.6263430302053208 
0.8099999999999271, -1.6259042192826976 
0.819999999999926, -1.625498058833766 
0.8299999999999249, -1.6251704781360694 
0.8399999999999238, -1.62494391210751 
0.8499999999999227, -1.624800619143037 
0.8599999999999216, -1.6246950118408452 
0.8699999999999205, -1.6245811764022087 
0.8799999999999194, -1.6244302153355694 
0.8899999999999183, -1.6242312196681312 
0.8999999999999172, -1.6239848233112084 
0.9099999999999161, -1.6236974986772572 
0.919999999999915, -1.6233791784204143 
0.9299999999999139, -1.6230434007378605 
0.9399999999999128, -1.6227076929800082 
0.9499999999999117, -1.6223914160563777 
0.9599999999999106, -1.6221098847913509 
0.9699999999999095, -1.6218676239745118 
0.9799999999999084, -1.621656012522037 
0.9899999999999073, -1.6214572380237466 
0.9999999999999062, -1.6212510974291487 
1.0099999999999052, -1.6210200752365735 
1.019999999999904, -1.620751152015235 
1.029999999999903, -1.6204356836640297 
1.039999999999902, -1.6200694275724328 
1.0499999999999008, -1.6196541121542627 
1.0599999999998997, -1.6192006953197542 
1.0699999999998986, -1.6187324902855835 
1.0799999999998975, -1.6182838028972508 
1.0899999999998964, -1.6178895863934262 
1.0999999999998953, -1.617568654701498 
1.1099999999998942, -1.6173133385895149 
1.119999999999893, -1.617095914893008 
1.129999999999892, -1.6168850606883851 
1.1399999999998909, -1.6166577065571783 
1.1499999999998898, -1.6164012141139281 
1.1599999999998887, -1.6161104964598856 
1.1699999999998876, -1.61578553005399 
1.1799999999998865, -1.6154317541699332 
1.1899999999998854, -1.6150632358711132 
1.1999999999998843, -1.6147056132066002 
1.2099999999998832, -1.61439265482625 
1.219999999999882, -1.614152140384292 
1.229999999999881, -1.6139884116776915 
1.2399999999998799, -1.6138778871304393 
1.2499999999998788, -1.6137823961091673 
1.2599999999998777, -1.613667142270759 
1.2699999999998766, -1.6135102290228591 
1.2799999999998755, -1.6133027253002332 
1.2899999999998744, -1.6130447387428521 
1.2999999999998733, -1.6127419148239106 
1.3099999999998722, -1.6124038947236627 
1.319999999999871, -1.6120442977785927 
1.32999999999987, -1.611680652862411 
1.3399999999998689, -1.6113322590792882 
1.3499999999998678, -1.6110150422805698 
1.3599999999998666, -1.6107353959670014 
1.3699999999998655, -1.6104873076459636 
1.3799999999998644, -1.6102552674320652 
1.3899999999998633, -1.6100205858533805 
1.3999999999998622, -1.6097664870940782 
1.4099999999998611, -1.6094798444936511 
1.41999999999986, -1.6091508374381438 
1.429999999999859, -1.6087730208793853 
1.4399999999998578, -1.6083457974019122 
1.4499999999998567, -1.607879884577725 
1.4599999999998556, -1.6074032532963247 
1.4699999999998545, -1.6069601155683806 
1.4799999999998534, -1.6065949987144421 
1.4899999999998523, -1.6063272509968922 
1.4999999999998512, -1.6061385289805614 
1.5099999999998501, -1.605986782384208 
1.519999999999849, -1.6058312132306518 
1.529999999999848, -1.605646431066073 
1.5399999999998468, -1.6054223734110316 
1.5499999999998457, -1.605158584557231 
1.5599999999998446, -1.6048597657992782 
1.5699999999998435, -1.6045345833462048 
1.5799999999998424, -1.6041968180663546 
1.5899999999998413, -1.6038662458115573 
1.5999999999998402, -1.603565658015647 
1.6099999999998391, -1.603312514461646 
1.619999999999838, -1.6031097529624234 
1.629999999999837, -1.6029435532720402 
1.6399999999998358, -1.6027899960761747 
1.6499999999998347, -1.6026246121295489 
1.6599999999998336, -1.602428561448012 
1.6699999999998325, -1.6021902057545376 
1.6799999999998314, -1.6019042207625453 
1.6899999999998303, -1.6015705828257514 
1.6999999999998292, -1.601194623550373 
1.709999999999828, -1.6007881319679818 
1.719999999999827, -1.6003702599056713 
1.729999999999826, -1.5999658407517845 
1.7399999999998248, -1.5995989867587221 
1.7499999999998237, -1.5992833653782674 
1.7599999999998226, -1.5990156215075682 
1.7699999999998215, -1.5987779012485848 
1.7799999999998204, -1.598547246244131 
1.7899999999998193, -1.598303927621208 
1.7999999999998182, -1.5980343170163696 
1.809999999999817, -1.5977299262165885 
1.819999999999816, -1.5973862075791296 
1.8299999999998149, -1.5970036649604646 
1.8399999999998138, -1.5965921453395158 
1.8499999999998127, -1.5961764000205272 
1.8599999999998116, -1.5957963068876562 
1.8699999999998105, -1.595493440768101 
1.8799999999998094, -1.5952869030149701 
1.8899999999998083, -1.595159034073982 
1.8999999999998072, -1.5950666252886676 
1.909999999999806, -1.5949656269031776 
1.919999999999805, -1.5948274047593243 
1.9299999999998039, -1.594640431974114 
1.9399999999998028, -1.5944047017550365 
1.9499999999998017, -1.594126236673893 
1.9599999999998006, -1.593814426478223 
1.9699999999997995, -1.593481805667749 
1.9799999999997984, -1.5931444758898963 
1.9899999999997973, -1.5928208022962123 
1.9999999999997962, -1.5925268878905938 
2.0099999999998173, -1.5922703683489146 
2.0199999999998384, -1.5920468432483643 
2.0299999999998595, -1.5918418217547945 
2.0399999999998806, -1.591636456745777 
2.0499999999999017, -1.591412935547737 
2.059999999999923, -1.5911571094507324 
2.069999999999944, -1.5908588326824886 
2.079999999999965, -1.5905118341704765 
2.089999999999986, -1.5901147081505342 
2.100000000000007, -1.5896736609707365 
2.1100000000000283, -1.5892061258324293 
2.1200000000000494, -1.5887420277475894 
2.1300000000000705, -1.5883178214296332 
2.1400000000000916, -1.5879618413970253 
2.1500000000001127, -1.5876793815330754 
2.160000000000134, -1.5874508781351824 
2.170000000000155, -1.587244967438634 
2.180000000000176, -1.5870337016263714 
2.190000000000197, -1.5867993262339377 
2.2000000000002182, -1.5865332580129041 
2.2100000000002393, -1.5862328708476248 
2.2200000000002604, -1.5859000037034385 
2.2300000000002815, -1.5855423937917055 
2.2400000000003026, -1.5851770670896976 
2.2500000000003237, -1.5848319399083945 
2.260000000000345, -1.584539738859099 
2.270000000000366, -1.5843226415380598 
2.280000000000387, -1.5841777324571098 
2.290000000000408, -1.5840772878254021 
2.3000000000004293, -1.583983712687632 
2.3100000000004504, -1.5838653923690826 
2.3200000000004715, -1.5837036523487413 
2.3300000000004926, -1.5834917257672678 
2.3400000000005137, -1.583230888563293 
2.3500000000005348, -1.5829273600889295 
2.360000000000556, -1.5825910457191235 
2.370000000000577, -1.5822355637666405 
2.380000000000598, -1.581878040477894 
2.390000000000619, -1.5815368673941386 
2.4000000000006403, -1.5812267726999534 
2.4100000000006614, -1.5809532365785928 
2.4200000000006825, -1.5807101131592487 
2.4300000000007036, -1.5804824571126852 
2.4400000000007247, -1.5802523069635475 
2.450000000000746, -1.5800033604267785 
2.460000000000767, -1.5797226639500845 
2.470000000000788, -1.57940038107782 
2.480000000000809, -1.5790298025054168 
2.49000000000083, -1.5786093666143746 
2.5000000000008513, -1.5781473249319875 
2.5100000000008724, -1.5776672682322959 
2.5200000000008935, -1.5772087306830707 
2.5300000000009146, -1.5768155421983372 
2.5400000000009357, -1.5765135177199372 
2.550000000000957, -1.5762947514444048 
2.560000000000978, -1.5761244444692406 
2.570000000000999, -1.5759626560781004 
2.58000000000102, -1.5757807897174358 
2.5900000000010412, -1.5755648701833214 
2.6000000000010624, -1.5753113117126545 
2.6100000000010835, -1.5750223279382642 
2.6200000000011046, -1.5747040580440472 
2.6300000000011257, -1.5743674013971836 
2.6400000000011468, -1.5740297719230487 
2.650000000001168, -1.5737144223224753 
2.660000000001189, -1.573444089459659 
2.67000000000121, -1.5732303719315068 
2.680000000001231, -1.5730666113837082 
2.6900000000012523, -1.5729307610215186 
2.7000000000012734, -1.5727954459263833 
2.7100000000012945, -1.57263722306073 
2.7200000000013156, -1.5724406614768969 
2.7300000000013367, -1.5721981773876441 
2.740000000001358, -1.5719083724172467 
2.750000000001379, -1.571574827043628 
2.7600000000014, -1.5712060014796334 
2.770000000001421, -1.5708158057066293 
2.780000000001442, -1.57042343830646 
2.7900000000014633, -1.5700505862437377 
2.8000000000014844, -1.5697151851844628 
2.8100000000015055, -1.5694242019869953 
2.8200000000015266, -1.5691705737961514 
2.8300000000015477, -1.5689370739545065 
2.840000000001569, -1.5687038488659624 
2.85000000000159, -1.5684540380465448 
2.860000000001611, -1.5681753145170723 
2.870000000001632, -1.567859060347935 
2.8800000000016532, -1.5674998880122497 
2.8900000000016743, -1.5670974680728924 
2.9000000000016954, -1.5666613140512842 
2.9100000000017165, -1.5662165081276602 
2.9200000000017377, -1.565803852470799 
2.9300000000017588, -1.5654665304487454 
2.94000000000178, -1.565226179351907 
2.950000000001801, -1.5650681618220161 
2.960000000001822, -1.56495159063303 
2.970000000001843, -1.5648333323685835 
2.9800000000018643, -1.5646845069152144 
2.9900000000018854, -1.5644927088045086 
3.0000000000019065, -1.5642567556377895 
3.0100000000019276, -1.5639813447568058 
3.0200000000019487, -1.5636745012114721 
3.03000000000197, -1.5633475887318835 
3.040000000001991, -1.5630162088774004 
3.050000000002012, -1.562699473133915 
3.060000000002033, -1.5624155483475 
3.070000000002054, -1.5621744721073503 
3.0800000000020753, -1.5619730806035241 
3.0900000000020964, -1.5617962393858402 
3.1000000000021175, -1.5616231616124774 
3.1100000000021386, -1.5614340140029355 
3.1200000000021597, -1.5612135538866394 
3.130000000002181, -1.56095185645049 
3.140000000002202, -1.5606438484113307 
3.150000000002223, -1.5602891960736298 
3.160000000002244, -1.5598932387940132 
3.1700000000022652, -1.559468660414014 
3.1800000000022863, -1.5590363898357145 
3.1900000000023074, -1.558623153783679 
3.2000000000023285, -1.5582538374638428 
3.2100000000023496, -1.557941056485657 
3.2200000000023707, -1.5576792418343144 
3.230000000002392, -1.5574485839299599 
3.240000000002413, -1.5572252428843767 
3.250000000002434, -1.5569895647234882 
3.260000000002455, -1.5567285206645647 
3.2700000000024763, -1.556434414486716 
3.2800000000024974, -1.5561033707501402 
3.2900000000025185, -1.5557358947828963 
3.3000000000025396, -1.555340271797699 
3.3100000000025607, -1.554937440380685 
3.3200000000025818, -1.5545622920902231 
3.330000000002603, -1.5542541570537 
3.340000000002624, -1.5540364443585715 
3.350000000002645, -1.5539005118637355 
3.360000000002666, -1.5538101484325686 
3.3700000000026873, -1.5537221924760272 
3.3800000000027084, -1.5536044342088373 
3.3900000000027295, -1.5534409131510991 
3.4000000000027506, -1.5532283547823522 
3.4100000000027717, -1.552970767883095 
3.420000000002793, -1.5526759631011764 
3.430000000002814, -1.5523545349427141 
3.440000000002835, -1.552020224890777 
3.450000000002856, -1.5516897938788834 
3.460000000002877, -1.551380504250431 
3.4700000000028983, -1.5511049509015407 
3.4800000000029194, -1.5508659170180137 
3.4900000000029405, -1.5506550399314813 
3.5000000000029616, -1.550456287390789 
3.5100000000029827, -1.5502514989718263 
3.520000000003004, -1.5500245814379432 
3.530000000003025, -1.5497631494739563 
3.540000000003046, -1.5494585779514687 
3.550000000003067, -1.549106069286077 
3.5600000000030882, -1.5487058752996588 
3.5700000000031094, -1.5482658996734113 
3.5800000000031305, -1.5478045343776832 
3.5900000000031516, -1.5473507409313145 
3.6000000000031727, -1.5469376212094503 
3.6100000000031938, -1.546589347208717 
3.620000000003215, -1.546309171181934 
3.630000000003236, -1.5460788740150333 
3.640000000003257, -1.5458701185214188 
3.650000000003278, -1.5456572910185566 
3.6600000000032993, -1.5454234126511646 
3.6700000000033204, -1.5451595038229704 
3.6800000000033415, -1.5448618927856521 
3.6900000000033626, -1.544530845452547 
3.7000000000033837, -1.5441718060717746 
3.710000000003405, -1.5437988293518845 
3.720000000003426, -1.5434374080628177 
3.730000000003447, -1.5431211825542182 
3.740000000003468, -1.5428787140997176 
3.750000000003489, -1.5427166121487348 
3.7600000000035103, -1.5426137862949891 
3.7700000000035314, -1.5425328237105922 
3.7800000000035525, -1.5424376868159135 
3.7900000000035736, -1.5423045503784847 
3.8000000000035947, -1.5421230267929473 
3.810000000003616, -1.5418924332821038 
3.820000000003637, -1.5416177891179856 
3.830000000003658, -1.541307574861145 
3.840000000003679, -1.540973251476838 
3.8500000000037002, -1.5406294322739265 
3.8600000000037213, -1.5402930411525548 
3.8700000000037424, -1.5399801261222026 
3.8800000000037635, -1.539700828994155 
3.8900000000037847, -1.5394553444159094 
3.9000000000038058, -1.539233838883387 
3.910000000003827, -1.5390203873056547 
3.920000000003848, -1.5387980204684757 
3.930000000003869, -1.538552012710719 
3.94000000000389, -1.5382708199913613 
3.9500000000039113, -1.5379459336043086 
3.9600000000039324, -1.537572286316718 
3.9700000000039535, -1.5371503072273724 
3.9800000000039746, -1.5366896708661544 
3.9900000000039957, -1.5362129130221394 
4.000000000004016, -1.5357546102968866 
4.010000000003993, -1.5353516155401714 
4.02000000000397, -1.535026304387022 
4.030000000003946, -1.5347747372124452 
4.040000000003923, -1.5345707139593814 
4.0500000000039, -1.5343814630003396 
4.0600000000038765, -1.5341810587478546 
4.070000000003853, -1.5339545094334386 
4.08000000000383, -1.5336954541683967 
4.090000000003807, -1.5334028015133179 
4.100000000003783, -1.5330792913949849 
4.11000000000376, -1.532732639534882 
4.120000000003737, -1.5323782990000467 
4.130000000003713, -1.53204086526341 
4.14000000000369, -1.5317495601433195 
4.150000000003667, -1.5315261119298735 
4.1600000000036434, -1.5313719286397753 
4.17000000000362, -1.531265840921016 
4.180000000003597, -1.5311746990034147 
4.1900000000035735, -1.5310673961860612 
4.20000000000355, -1.5309230386686574 
4.210000000003527, -1.5307318954890095 
4.220000000003504, -1.530492666068268 
4.23000000000348, -1.5302094852655033 
4.240000000003457, -1.5298902220517667 
4.250000000003434, -1.529546115592854 
4.26000000000341, -1.529191836964332 
4.270000000003387, -1.5288445103753099 
4.280000000003364, -1.5285204944702366 
4.2900000000033405, -1.528230380528677 
4.300000000003317, -1.5279748838526106 
4.310000000003294, -1.5277446071718244 
4.320000000003271, -1.5275239121990474 
4.330000000003247, -1.527296025087606 
4.340000000003224, -1.5270463587095464 
4.350000000003201, -1.5267633738103645 
4.360000000003177, -1.526438285708103 
4.370000000003154, -1.526065355474347 
4.380000000003131, -1.5256440033177419 
4.390000000003107, -1.5251829554851288 
4.400000000003084, -1.5247046244506213 
4.410000000003061, -1.5242449932058926 
4.4200000000030375, -1.5238436087479255 
4.430000000003014, -1.5235252323147035 
4.440000000002991, -1.523286219083459 
4.450000000002968, -1.5230983832891134 
4.460000000002944, -1.5229261638358602 
4.470000000002921, -1.522741611282156 
4.480000000002898, -1.5225290453849167 
4.490000000002874, -1.5222824728897124 
4.500000000002851, -1.5220016447785343 
4.510000000002828, -1.5216900001421667 
4.520000000002804, -1.5213551534517002 
4.530000000002781, -1.521011037936285 
4.540000000002758, -1.5206792490941008 
4.5500000000027345, -1.520385823054547 
4.560000000002711, -1.520151607232701 
4.570000000002688, -1.5199810050039386 
4.580000000002665, -1.5198583386742954 
4.590000000002641, -1.5197552306443551 
4.600000000002618, -1.5196425141678762 
4.610000000002595, -1.5194985181006984 
4.620000000002571, -1.5193113062124672 
4.630000000002548, -1.5190771305261166 
4.640000000002525, -1.5187980262082648 
4.6500000000025015, -1.518480202227738 
4.660000000002478, -1.5181335747042308 
4.670000000002455, -1.517771856748018 
4.6800000000024315, -1.5174119592491855 
4.690000000002408, -1.5170713754696545 
4.700000000002385, -1.5167633953448532 
4.710000000002362, -1.5164922320129315 
4.720000000002338, -1.5162513487664118 
4.730000000002315, -1.5160263584219253 
4.740000000002292, -1.51580029471628 
4.750000000002268, -1.5155577644311249 
4.760000000002245, -1.5152864450889143 
4.770000000002222, -1.5149768346708783 
4.7800000000021985, -1.5146220573514 
4.790000000002175, -1.5142192216989834 
4.800000000002152, -1.5137730161788965 
4.810000000002129, -1.5133006193683722 
4.820000000002105, -1.5128341159216734 
4.830000000002082, -1.5124143466171358 
4.840000000002059, -1.51207407811243 
4.850000000002035, -1.5118201840691596 
4.860000000002012, -1.511630625367261 
4.870000000001989, -1.5114689960434105 
4.880000000001965, -1.511302523243207 
4.890000000001942, -1.511110801511657 
4.900000000001919, -1.510885019208416 
4.9100000000018955, -1.5106237123023214 
4.920000000001872, -1.5103295506697205 
4.930000000001849, -1.5100086052465873 
4.940000000001826, -1.509671720086946 
