t, s[1].omega / s[0].omega 
0, -0.11999781664967793 
0.009999999999999995, -0.11978325861377806 
0.019999999999999934, -0.11957556018644104 
0.029999999999999874, -0.11937301921188252 
0.04000000000000012, -0.1191732355276375 
0.050000000000000405, -0.11897358535220667 
0.06000000000000069, -0.11877162841826697 
0.07000000000000098, -0.11856534629994767 
0.08000000000000126, -0.11835319497636539 
0.09000000000000155, -0.11813402059274788 
0.10000000000000184, -0.1179069130017651 
0.11000000000000212, -0.11767106500354733 
0.12000000000000241, -0.11742568652918564 
0.130000000000002, -0.11717000688766352 
0.1400000000000009, -0.116903386382244 
0.1499999999999998, -0.11662554208192558 
0.1599999999999987, -0.11633685871420611 
0.1699999999999976, -0.11603870079578812 
0.1799999999999965, -0.11573358678068421 
0.1899999999999954, -0.1154250780649636 
0.1999999999999943, -0.11511731916719563 
0.2099999999999932, -0.11481432426345814 
0.2199999999999921, -0.1145192454362683 
0.229999999999991, -0.1142338768226178 
0.2399999999999899, -0.11395853178531108 
0.2499999999999888, -0.11369226213938952 
0.2599999999999877, -0.11343327124740712 
0.2699999999999866, -0.11317934940983795 
0.2799999999999855, -0.11292820872228163 
0.2899999999999844, -0.11267766782336615 
0.2999999999999833, -0.11242569670138917 
0.3099999999999822, -0.1121703632873581 
0.3199999999999811, -0.11190973183289314 
0.32999999999998, -0.11164176152764668 
0.3399999999999789, -0.11136425443322151 
0.3499999999999778, -0.11107490872707064 
0.35999999999997667, -0.11077153855230952 
0.36999999999997557, -0.1104525032690447 
0.37999999999997447, -0.1101173172514954 
0.38999999999997337, -0.10976727924738414 
0.39999999999997227, -0.10940582731354875 
0.40999999999997117, -0.10903832137453522 
0.41999999999997006, -0.10867117433841642 
0.42999999999996896, -0.10831060107428066 
0.43999999999996786, -0.10796147309396627 
0.44999999999996676, -0.1076266801239069 
0.45999999999996566, -0.10730710027196033 
0.46999999999996456, -0.10700200790907446 
0.47999999999996346, -0.10670964925085225 
0.48999999999996235, -0.10642776852107043 
0.49999999999996125, -0.10615397577357162 
0.5099999999999602, -0.1058859371550573 
0.519999999999959, -0.1056214157746171 
0.529999999999958, -0.10535820477843043 
0.5399999999999568, -0.10509399220388164 
0.5499999999999557, -0.10482619684749853 
0.5599999999999546, -0.10455182804848165 
0.5699999999999535, -0.10426745448832482 
0.5799999999999524, -0.10396940558450891 
0.5899999999999513, -0.10365433107633533 
0.5999999999999502, -0.10332013979991635 
0.6099999999999491, -0.1029670902857099 
0.619999999999948, -0.10259852380825518 
0.6299999999999469, -0.10222069361240618 
0.6399999999999458, -0.10184154756307248 
0.6499999999999447, -0.10146894260675006 
0.6599999999999436, -0.10110908630936463 
0.6699999999999425, -0.1007657638842924 
0.6799999999999414, -0.10044039711296468 
0.6899999999999403, -0.10013261942720864 
0.6999999999999392, -0.09984099197236347 
0.7099999999999381, -0.09956361314304478 
0.719999999999937, -0.0992985266331564 
0.7299999999999359, -0.09904392962193898 
0.7399999999999348, -0.0987982180700287 
0.7499999999999337, -0.09855990448806366 
0.7599999999999326, -0.09832743019702217 
0.7699999999999315, -0.09809888883842596 
0.7799999999999304, -0.09787169792135444 
0.7899999999999293, -0.09764231412777664 
0.7999999999999282, -0.09740617979914784 
0.8099999999999271, -0.09715815323100095 
0.819999999999926, -0.09689358655582037 
0.8299999999999249, -0.09660986538154524 
0.8399999999999238, -0.09630774322445823 
0.8499999999999227, -0.09599163729558677 
0.8599999999999216, -0.09566855349750583 
0.8699999999999205, -0.09534616820933493 
0.8799999999999194, -0.09503104564145201 
0.8899999999999183, -0.09472768052798196 
0.8999999999999172, -0.09443843587256903 
0.9099999999999161, -0.09416403580342089 
0.919999999999915, -0.09390422247959013 
0.9299999999999139, -0.09365832976083474 
0.9399999999999128, -0.09342568149238176 
0.9499999999999117, -0.09320581202855215 
0.9599999999999106, -0.09299853354125438 
0.9699999999999095, -0.09280386569384327 
0.9799999999999084, -0.09262182326525034 
0.9899999999999073, -0.09245204708885466 
0.9999999999999062, -0.09229328627428703 
1.0099999999999052, -0.09214282007553849 
1.019999999999904, -0.09199605000883102 
1.029999999999903, -0.09184662855474474 
1.039999999999902, -0.09168744621896426 
1.0499999999999008, -0.09151240413150388 
1.0599999999998997, -0.09131827868419976 
1.0699999999998986, -0.09110567781310165 
1.0799999999998975, -0.09087855000053685 
1.0899999999998964, -0.09064262583434357 
1.0999999999998953, -0.09040371757807777 
1.1099999999998942, -0.09016660463880363 
1.119999999999893, -0.08993467784641308 
1.129999999999892, -0.08971011948968874 
1.1399999999998909, -0.089494310004012 
1.1499999999998898, -0.08928824468887472 
1.1599999999998887, -0.08909286035452979 
1.1699999999998876, -0.08890924356147184 
1.1799999999998865, -0.08873871529981936 
1.1899999999998854, -0.08858277990041177 
1.1999999999998843, -0.0884429087894387 
1.2099999999998832, -0.08832012338115496 
1.219999999999882, -0.08821437275602516 
1.229999999999881, -0.08812379949205257 
1.2399999999998799, -0.08804415239967028 
1.2499999999998788, -0.08796875610536654 
1.2599999999998777, -0.08788939781021238 
1.2699999999998766, -0.08779808502962355 
1.2799999999998755, -0.08768902035598329 
1.2899999999998744, -0.08755984916388215 
1.2999999999998733, -0.08741163612720126 
1.3099999999998722, -0.08724780879804127 
1.319999999999871, -0.08707278764128601 
1.32999999999987, -0.08689092116468942 
1.3399999999998689, -0.08670594941718485 
1.3499999999998678, -0.0865209069259591 
1.3599999999998666, -0.08633827227048356 
1.3699999999998655, -0.08616020295494978 
1.3799999999998644, -0.08598875963108475 
1.3899999999998633, -0.08582607011711295 
1.3999999999998622, -0.0856744008779886 
1.4099999999998611, -0.0855361005685903 
1.41999999999986, -0.08541337235160805 
1.429999999999859, -0.08530783944884951 
1.4399999999998578, -0.08521991702005213 
1.4499999999998567, -0.08514811189854762 
1.4599999999998556, -0.08508852077257707 
1.4699999999998545, -0.0850348913909883 
1.4799999999998534, -0.08497949751687789 
1.4899999999998523, -0.0849146936222284 
1.4999999999998512, -0.08483456539320523 
1.5099999999998501, -0.08473596619327241 
1.519999999999849, -0.08461858948252754 
1.529999999999848, -0.08448427340180911 
1.5399999999998468, -0.08433603196581267 
1.5499999999998457, -0.08417723586360178 
1.5599999999998446, -0.08401112078950645 
1.5699999999998435, -0.08384060163797807 
1.5799999999998424, -0.08366828926748483 
1.5899999999998413, -0.08349660696013081 
1.5999999999998402, -0.0833279309402667 
1.6099999999998391, -0.08316470094523257 
1.619999999999838, -0.08300945435426108 
1.629999999999837, -0.08286473653806593 
1.6399999999998358, -0.08273284459336755 
1.6499999999998347, -0.08261538950827536 
1.6599999999998336, -0.08251272851057403 
1.6699999999998325, -0.08242342189858082 
1.6799999999998314, -0.08234396366132497 
1.6899999999998303, -0.08226903493001515 
1.6999999999998292, -0.08219235662112143 
1.709999999999828, -0.08210791421965878 
1.719999999999827, -0.08201109354586833 
1.729999999999826, -0.08189930475983398 
1.7399999999998248, -0.08177196493986438 
1.7499999999998237, -0.08163002246455912 
1.7599999999998226, -0.08147533305954206 
1.7699999999998215, -0.08131013007624757 
1.7799999999998204, -0.08113669214476002 
1.7899999999998193, -0.08095720353966379 
1.7999999999998182, -0.08077375454425509 
1.809999999999817, -0.08058842111697069 
1.819999999999816, -0.0804033682057774 
1.8299999999998149, -0.0802209236907914 
1.8399999999998138, -0.08004356862309737 
1.8499999999998127, -0.07987379307463859 
1.8599999999998116, -0.07971378936134116 
1.8699999999998105, -0.0795650059002422 
1.8799999999998094, -0.07942766103229176 
1.8899999999998083, -0.07930038840827922 
1.8999999999998072, -0.07918020373099419 
1.909999999999806, -0.07906290018831702 
1.919999999999805, -0.07894380321927173 
1.9299999999998039, -0.07881863561440941 
1.9399999999998028, -0.07868418794091278 
1.9499999999998017, -0.07853860330099939 
1.9599999999998006, -0.07838128253809414 
1.9699999999997995, -0.07821256065333068 
1.9799999999997984, -0.07803333384204154 
1.9899999999997973, -0.07784476154277997 
1.9999999999997962, -0.07764809424820604 
2.0099999999998173, -0.07744462550176417 
2.0199999999998384, -0.07723574040925205 
2.0299999999998595, -0.07702302064147173 
2.0399999999998806, -0.07680835517663269 
2.0499999999999017, -0.0765939943884022 
2.059999999999923, -0.07638248152148755 
2.069999999999944, -0.07617641557800017 
2.079999999999965, -0.07597805261852417 
2.089999999999986, -0.0757888280199755 
2.100000000000007, -0.07560894722984257 
2.1100000000000283, -0.07543720623670404 
2.1200000000000494, -0.07527114170054265 
2.1300000000000705, -0.07510748871806774 
2.1400000000000916, -0.07494279772130852 
2.1500000000001127, -0.07477400281346455 
2.160000000000134, -0.07459877745471846 
2.170000000000155, -0.07441562653718248 
2.180000000000176, -0.07422377252725292 
2.190000000000197, -0.07402294448754801 
2.2000000000002182, -0.07381317089972268 
2.2100000000002393, -0.07359464085369113 
2.2200000000002604, -0.0733676618950796 
2.2300000000002815, -0.07313271681077603 
2.2400000000003026, -0.07289060102434752 
2.2500000000003237, -0.07264259829767397 
2.260000000000345, -0.07239062354114989 
2.270000000000366, -0.07213724075577156 
2.280000000000387, -0.07188547628950284 
2.290000000000408, -0.07163841046016302 
2.3000000000004293, -0.07139862946055528 
2.3100000000004504, -0.0711677030520134 
2.3200000000004715, -0.07094586718030503 
2.3300000000004926, -0.07073201952724435 
2.3400000000005137, -0.07052401620325652 
2.3500000000005348, -0.07031914964670719 
2.360000000000556, -0.07011464035216541 
2.370000000000577, -0.0699080023195627 
2.380000000000598, -0.06969721880701149 
2.390000000000619, -0.0694807453556388 
2.4000000000006403, -0.06925740590897467 
2.4100000000006614, -0.06902625829019947 
2.4200000000006825, -0.06878649204000577 
2.4300000000007036, -0.06853740242298771 
2.4400000000007247, -0.06827846707436294 
2.450000000000746, -0.06800953198951284 
2.460000000000767, -0.06773108101147922 
2.470000000000788, -0.06744451312681501 
2.480000000000809, -0.06715230063652763 
2.49000000000083, -0.06685788957625158 
2.5000000000008513, -0.0665652730673371 
2.5100000000008724, -0.06627831118193714 
2.5200000000008935, -0.06600000872646108 
2.5300000000009146, -0.0657319983362151 
2.5400000000009357, -0.06547438328121534 
2.550000000000957, -0.06522593751624065 
2.560000000000978, -0.06498453353630966 
2.570000000000999, -0.06474762370482237 
2.58000000000102, -0.06451263281090205 
2.5900000000010412, -0.06427719111490407 
2.6000000000010624, -0.06403920765997526 
2.6100000000010835, -0.06379682871656975 
2.6200000000011046, -0.06354834250130846 
2.6300000000011257, -0.06329208960594859 
2.6400000000011468, -0.06302643196495107 
2.650000000001168, -0.0627498274140241 
2.660000000001189, -0.06246104607411096 
2.67000000000121, -0.06215953312358573 
2.680000000001231, -0.06184585523931513 
2.6900000000012523, -0.06152207472971176 
2.7000000000012734, -0.06119183208699451 
2.7100000000012945, -0.06085996762496263 
2.7200000000013156, -0.060531704902028326 
2.7300000000013367, -0.06021165346763644 
2.740000000001358, -0.05990299411174614 
2.750000000001379, -0.059607105456124757 
2.7600000000014, -0.05932366577307539 
2.770000000001421, -0.059051076662491785 
2.780000000001442, -0.058786991766066665 
2.7900000000014633, -0.058528776415199005 
2.8000000000014844, -0.058273809912222106 
2.8100000000015055, -0.05801961933790972 
2.8200000000015266, -0.05776388054552175 
2.8300000000015477, -0.05750434019484517 
2.840000000001569, -0.057238715312486574 
2.85000000000159, -0.05696462743951208 
2.860000000001611, -0.056679633606738354 
2.870000000001632, -0.056381420718738896 
2.8800000000016532, -0.05606821268377832 
2.8900000000016743, -0.05573937057921308 
2.9000000000016954, -0.05539603360784845 
2.9100000000017165, -0.05504150648514543 
2.9200000000017377, -0.05468107810175808 
2.9300000000017588, -0.0543211644585198 
2.94000000000178, -0.05396802817711995 
2.950000000001801, -0.05362657336000505 
2.960000000001822, -0.053299648138070845 
2.970000000001843, -0.052987983824219 
2.9800000000018643, -0.052690607012720006 
2.9900000000018854, -0.05240544377141058 
3.0000000000019065, -0.05212988121150336 
3.0100000000019276, -0.051861163226025034 
3.0200000000019487, -0.05159659512674758 
3.03000000000197, -0.05133358802113282 
3.040000000001991, -0.051069594147904115 
3.050000000002012, -0.05080198713534577 
3.060000000002033, -0.050527943397810623 
3.070000000002054, -0.05024439298714761 
3.0800000000020753, -0.04994812879478953 
3.0900000000020964, -0.0496361715100216 
3.1000000000021175, -0.04930644080029201 
3.1100000000021386, -0.04895863669479557 
3.1200000000021597, -0.0485950115014223 
3.130000000002181, -0.04822056657150027 
3.140000000002202, -0.047842354403836454 
3.150000000002223, -0.04746802530027437 
3.160000000002244, -0.047104209378885376 
3.1700000000022652, -0.04675538764737315 
3.1800000000022863, -0.046423557909572574 
3.1900000000023074, -0.04610857108970033 
3.2000000000023285, -0.04580879532609618 
3.2100000000023496, -0.045521791067322 
3.2200000000023707, -0.045244818732349854 
3.230000000002392, -0.044975129772173786 
3.240000000002413, -0.04471006599799117 
3.250000000002434, -0.04444701772369504 
3.260000000002455, -0.044183292711748215 
3.2700000000024763, -0.043915947510487156 
3.2800000000024974, -0.04364164589631265 
3.2900000000025185, -0.04335664101659745 
3.3000000000025396, -0.04305701434751499 
3.3100000000025607, -0.04273929859420136 
3.3200000000025818, -0.04240148889786362 
3.330000000002603, -0.04204417444061235 
3.340000000002624, -0.0416712317034688 
3.350000000002645, -0.04128951546313436 
3.360000000002666, -0.04090745212866792 
3.3700000000026873, -0.04053310433835071 
3.3800000000027084, -0.040172567191368205 
3.3900000000027295, -0.03982924969319849 
3.4000000000027506, -0.03950403330999789 
3.4100000000027717, -0.039195936769998635 
3.420000000002793, -0.03890288385591945 
3.430000000002814, -0.038622323564117975 
3.440000000002835, -0.03835161653670459 
3.450000000002856, -0.0380882010853384 
3.460000000002877, -0.0378295879764274 
3.4700000000028983, -0.03757323455903947 
3.4800000000029194, -0.03731634390828839 
3.4900000000029405, -0.037055643917963225 
3.5000000000029616, -0.036787236900217395 
3.5100000000029827, -0.03650666809314992 
3.520000000003004, -0.036209400815308324 
3.530000000003025, -0.035891815888172626 
3.540000000003046, -0.035552582621931964 
3.550000000003067, -0.035193842461475014 
3.5600000000030882, -0.034821440673855134 
3.5700000000031094, -0.03444380652967079 
3.5800000000031305, -0.03406989202830053 
3.5900000000031516, -0.033707150831737 
3.6000000000031727, -0.03336037877725235 
3.6100000000031938, -0.0330315976369171 
3.620000000003215, -0.0327206395465347 
3.630000000003236, -0.03242595995271774 
3.640000000003257, -0.032145350082740914 
3.650000000003278, -0.031876414673533235 
3.6600000000032993, -0.03161680912249364 
3.6700000000033204, -0.03136428087514874 
3.6800000000033415, -0.031116564120887553 
3.6900000000033626, -0.03087116806234705 
3.7000000000033837, -0.030625102243383755 
3.710000000003405, -0.03037461574251097 
3.720000000003426, -0.03011509640200664 
3.730000000003447, -0.029841353076628475 
3.740000000003468, -0.02954849533596165 
3.750000000003489, -0.02923339669704248 
3.7600000000035103, -0.028896260982679306 
3.7700000000035314, -0.028541414890277235 
3.7800000000035525, -0.028176633682714013 
3.7900000000035736, -0.02781115739769919 
3.8000000000035947, -0.027453386072646357 
3.810000000003616, -0.02710930258871231 
3.820000000003637, -0.026782031075276713 
3.830000000003658, -0.026472271790682494 
3.840000000003679, -0.026179104174952776 
3.8500000000037002, -0.025900758234475952 
3.8600000000037213, -0.025635167337745117 
3.8700000000037424, -0.02538027131548749 
3.8800000000037635, -0.025134106605061168 
3.8900000000037847, -0.024894730070216316 
3.9000000000038058, -0.02466001233633722 
3.910000000003827, -0.024427333931648292 
3.920000000003848, -0.024193245745255495 
3.930000000003869, -0.023953228466273256 
3.94000000000389, -0.02370178800372466 
3.9500000000039113, -0.02343316980301405 
3.9600000000039324, -0.023142804769122106 
3.9700000000039535, -0.022829120739093156 
3.9800000000039746, -0.02249481231314897 
3.9900000000039957, -0.02214664726578583 
4.000000000004016, -0.02179369430947642 
4.010000000003993, -0.02144487966542312 
4.02000000000397, -0.021107075260895388 
4.030000000003946, -0.020784342059091004 
4.040000000003923, -0.020478183550830434 
4.0500000000039, -0.02018829757895428 
4.0600000000038765, -0.019913372891110094 
4.070000000003853, -0.019651694749617775 
4.08000000000383, -0.0194015014082 
4.090000000003807, -0.019161117612002676 
4.100000000003783, -0.01892890819322012 
4.11000000000376, -0.01870308394808541 
4.120000000003737, -0.018481385195664148 
4.130000000003713, -0.01826069148720212 
4.14000000000369, -0.01803667897687952 
4.150000000003667, -0.01780376481771288 
4.1600000000036434, -0.017555664631221612 
4.17000000000362, -0.017286772966031712 
4.180000000003597, -0.01699411032083154 
4.1900000000035735, -0.01667894492592171 
4.20000000000355, -0.016347014254236545 
4.210000000003527, -0.016006998511604236 
4.220000000003504, -0.015668040373038428 
4.23000000000348, -0.015337600337716079 
4.240000000003457, -0.015020442781849191 
4.250000000003434, -0.014718719501975364 
4.26000000000341, -0.014432654783522531 
4.270000000003387, -0.014161343551756278 
4.280000000003364, -0.013903388464410305 
4.2900000000033405, -0.013657293870140055 
4.300000000003317, -0.013421632155791202 
4.310000000003294, -0.01319502150496719 
4.320000000003271, -0.012975944186240543 
4.330000000003247, -0.012762425228974963 
4.340000000003224, -0.012551610786844084 
4.350000000003201, -0.012339357775416601 
4.360000000003177, -0.012120073632107967 
4.370000000003154, -0.011887158762629826 
4.380000000003131, -0.011634326813510376 
4.390000000003107, -0.011357626132057758 
4.400000000003084, -0.011057292803930056 
4.410000000003061, -0.010738265620833796 
4.4200000000030375, -0.010408853584651252 
4.430000000003014, -0.01007825807339523 
4.440000000002991, -0.0097542847263956 
4.450000000002968, -0.00944215472060883 
4.460000000002944, -0.009144464162321701 
4.470000000002921, -0.00886181311668115 
4.480000000002898, -0.008593595933592301 
4.490000000002874, -0.008338653571801576 
4.500000000002851, -0.008095689143152552 
4.510000000002828, -0.007863454095147882 
4.520000000002804, -0.00764074056129353 
4.530000000002781, -0.007426206599811573 
4.540000000002758, -0.00721805080750231 
4.5500000000027345, -0.007013570832442415 
4.560000000002711, -0.006808713275605336 
4.570000000002688, -0.0065978563506042765 
4.580000000002665, -0.006374195741755026 
4.590000000002641, -0.006131045156291334 
4.600000000002618, -0.005863912649280918 
4.610000000002595, -0.005572484235161063 
4.620000000002571, -0.005261287521737988 
4.630000000002548, -0.004938445685762477 
4.640000000002525, -0.004613189006143234 
4.6500000000025015, -0.0042934911218334045 
4.660000000002478, -0.003984796390952262 
4.670000000002455, -0.003689921992864331 
4.6800000000024315, -0.0034096608444319993 
4.690000000002408, -0.0031435666634236845 
4.700000000002385, -0.0028906107387244103 
4.710000000002362, -0.0026496045126077937 
4.720000000002338, -0.002419391723450529 
4.730000000002315, -0.002198843665787026 
4.740000000002292, -0.0019866828240058996 
4.750000000002268, -0.0017811501576897502 
4.760000000002245, -0.001579550475311419 
4.770000000002222, -0.0013777865329657108 
