t, s[1].omega / s[0].omega 
0, -1.7699970065168753 
0.009999999999999995, -1.7696770651705953 
0.019999999999999934, -1.7693191252774085 
0.029999999999999874, -1.768932167963094 
0.04000000000000012, -1.7685325467843955 
0.050000000000000405, -1.7681428600345288 
0.06000000000000069, -1.7677855080792035 
0.07000000000000098, -1.7674722081090972 
0.08000000000000126, -1.7671974524425642 
0.09000000000000155, -1.7669426794460432 
0.10000000000000184, -1.766686928157915 
0.11000000000000212, -1.766414480860466 
0.12000000000000241, -1.766116409310062 
0.130000000000002, -1.7657894349800902 
0.1400000000000009, -1.7654359560776842 
0.1499999999999998, -1.765066552649913 
0.1599999999999987, -1.764702743773587 
0.1699999999999976, -1.7643738939359022 
0.1799999999999965, -1.7641036386539792 
0.1899999999999954, -1.7638935982264372 
0.1999999999999943, -1.7637210419987794 
0.2099999999999932, -1.7635532294910106 
0.2199999999999921, -1.7633633130336654 
0.229999999999991, -1.7631365761062299 
0.2399999999999899, -1.7628687501160574 
0.2499999999999888, -1.7625624146612289 
0.2599999999999877, -1.7622248666621805 
0.2699999999999866, -1.7618677410518515 
0.2799999999999855, -1.761506798949037 
0.2899999999999844, -1.7611595750238718 
0.2999999999999833, -1.7608398405096803 
0.3099999999999822, -1.760551397806657 
0.3199999999999811, -1.7602861863777275 
0.32999999999998, -1.7600286326888714 
0.3399999999999789, -1.759762352438053 
0.3499999999999778, -1.7594743188724333 
0.35999999999997667, -1.7591557146576489 
0.36999999999997557, -1.758801941812002 
0.37999999999997447, -1.7584144096327115 
0.38999999999997337, -1.7580049014861203 
0.39999999999997227, -1.7575995451861517 
0.40999999999997117, -1.7572346182137373 
0.41999999999997006, -1.756938814973445 
0.42999999999996896, -1.7567131579725015 
0.43999999999996786, -1.7565300255869538 
0.44999999999996676, -1.756352479184902 
0.45999999999996566, -1.7561529295199378 
0.46999999999996456, -1.7559184247833017 
0.47999999999996346, -1.7556469956090406 
0.48999999999996235, -1.7553430184225267 
0.49999999999996125, -1.7550150138900942 
0.5099999999999602, -1.7546754107371225 
0.519999999999959, -1.7543399441297596 
0.529999999999958, -1.754024253157183 
0.5399999999999568, -1.7537378090497462 
0.5499999999999557, -1.7534791730994619 
0.5599999999999546, -1.753236681968002 
0.5699999999999535, -1.752993812885045 
0.5799999999999524, -1.7527347855679938 
0.5899999999999513, -1.752447369565814 
0.5999999999999502, -1.7521233473319202 
0.6099999999999491, -1.7517588226038214 
0.619999999999948, -1.7513561924969738 
0.6299999999999469, -1.750927946987351 
0.6399999999999458, -1.7504994182786682 
0.6499999999999447, -1.750104309261888 
0.6599999999999436, -1.7497694462882696 
0.6699999999999425, -1.7494980540513922 
0.6799999999999414, -1.7492685253000484 
0.6899999999999403, -1.7490500095345591 
0.6999999999999392, -1.748818190322655 
0.7099999999999381, -1.7485603565715266 
0.719999999999937, -1.7482729708816263 
0.7299999999999359, -1.747958440273035 
0.7399999999999348, -1.74762418861485 
0.7499999999999337, -1.747283494560854 
0.7599999999999326, -1.7469550937536433 
0.7699999999999315, -1.7466579884352345 
0.7799999999999304, -1.7464020675197833 
0.7899999999999293, -1.7461817350619202 
0.7999999999999282, -1.7459787546584775 
0.8099999999999271, -1.745771235282398 
0.819999999999926, -1.745541137771308 
0.8299999999999249, -1.7452769767090648 
0.8399999999999238, -1.7449733841462494 
0.8499999999999227, -1.7446302968393084 
0.8599999999999216, -1.74425330381772 
0.8699999999999205, -1.743855014540395 
0.8799999999999194, -1.743455513246745 
0.8899999999999183, -1.7430786874930377 
0.8999999999999172, -1.7427430506281727 
0.9099999999999161, -1.7424520095038378 
0.919999999999915, -1.7421924374407407 
0.9299999999999139, -1.7419432042399907 
0.9399999999999128, -1.7416852794684128 
0.9499999999999117, -1.7414062660883616 
0.9599999999999106, -1.7411000488163857 
0.9699999999999095, -1.7407656821282331 
0.9799999999999084, -1.7404082696149703 
0.9899999999999073, -1.740041826586627 
0.9999999999999062, -1.739690618310938 
1.0099999999999052, -1.7393828763098178 
1.019999999999904, -1.739135680037652 
1.029999999999903, -1.738942479622241 
1.039999999999902, -1.7387765982661758 
1.0499999999999008, -1.738606832197086 
1.0599999999998997, -1.738410249638203 
1.0699999999998986, -1.7381755315467593 
1.0799999999998975, -1.7379004686822728 
1.0899999999998964, -1.737588769345783 
1.0999999999998953, -1.7372484911030068 
1.1099999999998942, -1.7368918730111862 
1.119999999999893, -1.7365348701854675 
1.129999999999892, -1.7361943160724027 
1.1399999999998909, -1.7358822701313552 
1.1499999999998898, -1.7356005283789742 
1.1599999999998887, -1.7353398136708207 
1.1699999999998876, -1.7350845358976859 
1.1799999999998865, -1.73481899316771 
1.1899999999998854, -1.7345308677763303 
1.1999999999998843, -1.7342118013176961 
1.2099999999998832, -1.7338574578853456 
1.219999999999882, -1.7334693934054362 
1.229999999999881, -1.7330593177194067 
1.2399999999998799, -1.7326528295505619 
1.2499999999998788, -1.7322853622084413 
1.2599999999998777, -1.7319853949347794 
1.2699999999998766, -1.7317551691897681 
1.2799999999998755, -1.7315689680484596 
1.2899999999998744, -1.7313909725461105 
1.2999999999998733, -1.731193519495124 
1.3099999999998722, -1.7309629663918937 
1.319999999999871, -1.7306965794877989 
1.32999999999987, -1.7303980273397055 
1.3399999999998689, -1.7300750794564284 
1.3499999999998678, -1.7297393426197687 
1.3599999999998666, -1.7294059531883785 
1.3699999999998655, -1.7290907488048923 
1.3799999999998644, -1.7288044997321979 
1.3899999999998633, -1.728547645501401 
1.3999999999998622, -1.7283099623392464 
1.4099999999998611, -1.7280753322305362 
1.41999999999986, -1.7278275474358868 
1.429999999999859, -1.727553685657848 
1.4399999999998578, -1.72724489459114 
1.4499999999998567, -1.7268964639727702 
1.4599999999998556, -1.7265090148223525 
1.4699999999998545, -1.726091397321132 
1.4799999999998534, -1.7256636679205208 
1.4899999999998523, -1.7252556123948704 
1.4999999999998512, -1.7248962607561278 
1.5099999999998501, -1.724598011184621 
1.519999999999849, -1.7243492086381114 
1.529999999999848, -1.7241231911514496 
1.5399999999998468, -1.723893903369838 
1.5499999999998457, -1.7236446494737472 
1.5599999999998446, -1.7233682142523683 
1.5699999999998435, -1.7230639512116572 
1.5799999999998424, -1.722736188240591 
1.5899999999998413, -1.7223948754566571 
1.5999999999998402, -1.722056647347252 
1.6099999999998391, -1.7217425121703243 
1.619999999999838, -1.7214696440763586 
1.629999999999837, -1.721241385588495 
1.6399999999998358, -1.7210444572816566 
1.6499999999998347, -1.7208561169167982 
1.6599999999998336, -1.720654253354058 
1.6699999999998325, -1.7204232779096202 
1.6799999999998314, -1.720154996620952 
1.6899999999998303, -1.719847305844085 
1.6999999999998292, -1.7195032154259375 
1.709999999999828, -1.719131066740245 
1.719999999999827, -1.7187452423591139 
1.729999999999826, -1.7183653144057671 
1.7399999999998248, -1.7180113299262048 
1.7499999999998237, -1.7176956572655198 
1.7599999999998226, -1.7174166997362323 
1.7699999999998215, -1.717160326064215 
1.7799999999998204, -1.7169077680129092 
1.7899999999998193, -1.716642972242542 
1.7999999999998182, -1.7163552955970556 
1.809999999999817, -1.7160390456399308 
1.819999999999816, -1.7156931558609767 
1.8299999999998149, -1.7153230089777185 
1.8399999999998138, -1.7149440050789326 
1.8499999999998127, -1.7145828654261641 
1.8599999999998116, -1.7142701421787059 
1.8699999999998105, -1.7140233876839392 
1.8799999999998094, -1.7138342447156982 
1.8899999999998083, -1.7136734396871145 
1.8999999999998072, -1.7135081868236504 
1.909999999999806, -1.7133155219729708 
1.919999999999805, -1.7130850618736158 
1.9299999999998039, -1.712815724360335 
1.9399999999998028, -1.712512052248996 
1.9499999999998017, -1.7121824308052649 
1.9599999999998006, -1.7118388090187995 
1.9699999999997995, -1.7114961688804438 
1.9799999999997984, -1.711169818309807 
1.9899999999997973, -1.71087030065133 
1.9999999999997962, -1.710598725819974 
2.0099999999998173, -1.7103462548521233 
2.0199999999998384, -1.7100982227402224 
2.0299999999998595, -1.7098394898887954 
2.0399999999998806, -1.709557656067787 
2.0499999999999017, -1.7092438067035212 
2.059999999999923, -1.708892657828344 
2.069999999999944, -1.7085040869222923 
2.079999999999965, -1.7080868007114844 
2.089999999999986, -1.7076622688074163 
2.100000000000007, -1.7072632981674674 
2.1100000000000283, -1.7069215536019535 
2.1200000000000494, -1.7066488668603867 
2.1300000000000705, -1.7064294899298633 
2.1400000000000916, -1.7062318558070924 
2.1500000000001127, -1.706026825371221 
2.160000000000134, -1.705797014690118 
2.170000000000155, -1.705536119688211 
2.180000000000176, -1.7052449492597546 
2.190000000000197, -1.70492886360372 
2.2000000000002182, -1.7045974851056418 
2.2100000000002393, -1.7042651240902074 
2.2200000000002604, -1.703949102383215 
2.2300000000002815, -1.7036640979417215 
2.2400000000003026, -1.7034148959815547 
2.2500000000003237, -1.7031934218207827 
2.260000000000345, -1.7029827205058612 
2.270000000000366, -1.7027641077637221 
2.280000000000387, -1.7025223622816212 
2.290000000000408, -1.7022474343077814 
2.3000000000004293, -1.7019342199746714 
2.3100000000004504, -1.701582417376505 
2.3200000000004715, -1.701197509033673 
2.3300000000004926, -1.700792501724155 
2.3400000000005137, -1.7003883378355382 
2.3500000000005348, -1.700009745094773 
2.360000000000556, -1.6996754955652373 
2.370000000000577, -1.699388579562008 
2.380000000000598, -1.6991351782527198 
2.390000000000619, -1.6988935705649706 
2.4000000000006403, -1.6986443720816233 
2.4100000000006614, -1.6983750836122282 
2.4200000000006825, -1.6980796308209236 
2.4300000000007036, -1.6977568953004436 
2.4400000000007247, -1.6974109377927813 
2.450000000000746, -1.6970532105945018 
2.460000000000767, -1.6967043009322704 
2.470000000000788, -1.696390256439145 
2.480000000000809, -1.6961308209856534 
2.49000000000083, -1.6959265913666013 
2.5000000000008513, -1.6957575506480318 
2.5100000000008724, -1.6955945912590895 
2.5200000000008935, -1.6954127337440628 
2.5300000000009146, -1.6951971264847774 
2.5400000000009357, -1.6949423853652459 
2.550000000000957, -1.6946497333300534 
2.560000000000978, -1.6943249464428405 
2.570000000000999, -1.6939777647463576 
2.58000000000102, -1.6936218312541798 
2.5900000000010412, -1.693273376776188 
2.6000000000010624, -1.6929472672506343 
2.6100000000010835, -1.6926513591103678 
2.6200000000011046, -1.6923828671534735 
2.6300000000011257, -1.692129900220797 
2.6400000000011468, -1.6918769028553786 
2.650000000001168, -1.6916096976125228 
2.660000000001189, -1.6913176026235526 
2.67000000000121, -1.690993505811523 
2.680000000001231, -1.6906341792105717 
2.6900000000012523, -1.6902425471126623 
2.7000000000012734, -1.6898318653643063 
2.7100000000012945, -1.6894284726583748 
2.7200000000013156, -1.6890664521435348 
2.7300000000013367, -1.6887711987193508 
2.740000000001358, -1.6885427299704585 
2.750000000001379, -1.6883558151873488 
2.7600000000014, -1.6881767464737414 
2.770000000001421, -1.6879795890830114 
2.780000000001442, -1.687751313799853 
2.7900000000014633, -1.687488996763938 
2.8000000000014844, -1.6871957280826972 
2.8100000000015055, -1.6868784824729794 
2.8200000000015266, -1.6865479326889925 
2.8300000000015477, -1.68621842853076 
2.840000000001569, -1.6859057750412862 
2.85000000000159, -1.6856219338728706 
2.860000000001611, -1.6853693848458484 
2.870000000001632, -1.6851396792919662 
2.8800000000016532, -1.6849173623503024 
2.8900000000016743, -1.6846858428546188 
2.9000000000016954, -1.684431413759628 
2.9100000000017165, -1.6841445471652379 
2.9200000000017377, -1.6838198786604104 
2.9300000000017588, -1.683456603400049 
2.94000000000178, -1.6830601457794987 
2.950000000001801, -1.6826445200957962 
2.960000000001822, -1.6822328248473535 
2.970000000001843, -1.6818520989951604 
2.9800000000018643, -1.6815218460704056 
2.9900000000018854, -1.6812433918779388 
3.0000000000019065, -1.681000038695635 
3.0100000000019276, -1.6807678463042557 
3.0200000000019487, -1.6805266643470564 
3.03000000000197, -1.6802643547283165 
3.040000000001991, -1.6799757326539524 
3.050000000002012, -1.6796606330083796 
3.060000000002033, -1.67932370433753 
3.070000000002054, -1.6789760616379379 
3.0800000000020753, -1.678636541908896 
3.0900000000020964, -1.6783284047970028 
3.1000000000021175, -1.6780693674327378 
3.1100000000021386, -1.6778606804504217 
3.1200000000021597, -1.6776853856746516 
3.130000000002181, -1.6775175390634722 
3.140000000002202, -1.67733362143969 
3.150000000002223, -1.6771184578307654 
3.160000000002244, -1.6768654037119233 
3.1700000000022652, -1.6765742372027514 
3.1800000000022863, -1.6762494437695707 
3.1900000000023074, -1.675899715376157 
3.2000000000023285, -1.6755380277864262 
3.2100000000023496, -1.6751807104749097 
3.2200000000023707, -1.674843940110859 
3.230000000002392, -1.6745379891136962 
3.240000000002413, -1.674262593207977 
3.250000000002434, -1.67400730142023 
3.260000000002455, -1.6737566218610767 
3.2700000000024763, -1.6734957066352814 
3.2800000000024974, -1.6732131943591273 
3.2900000000025185, -1.6729014633909642 
3.3000000000025396, -1.6725565252306178 
3.3100000000025607, -1.6721795105350477 
3.3200000000025818, -1.671780266745816 
3.330000000002603, -1.6713808806503252 
3.340000000002624, -1.6710133865759729 
3.350000000002645, -1.6707067117326857 
3.360000000002666, -1.670468924678324 
3.3700000000026873, -1.6702814032248576 
3.3800000000027084, -1.6701113734164372 
3.3900000000027295, -1.6699295328485697 
3.4000000000027506, -1.669718754012472 
3.4100000000027717, -1.6694732423733463 
3.420000000002793, -1.6691944212483079 
3.430000000002814, -1.6688879634878266 
3.440000000002835, -1.6685629280113148 
3.450000000002856, -1.6682318840761163 
3.460000000002877, -1.6679099443441257 
3.4700000000028983, -1.6676110463209812 
3.4800000000029194, -1.6673424010775206 
3.4900000000029405, -1.6671009171336675 
3.5000000000029616, -1.666874576316466 
3.5100000000029827, -1.6666474640604114 
3.520000000003004, -1.6664046552651293 
3.530000000003025, -1.6661346728569597 
3.540000000003046, -1.6658299398084242 
3.550000000003067, -1.6654868668312819 
3.5600000000030882, -1.6651069013964885 
3.5700000000031094, -1.6646987892751812 
3.5800000000031305, -1.664280633382041 
3.5900000000031516, -1.6638784041645915 
3.6000000000031727, -1.6635177472166351 
3.6100000000031938, -1.6632115224707564 
3.620000000003215, -1.6629527922109617 
3.630000000003236, -1.6627202005501078 
3.640000000003257, -1.6624902040292735 
3.650000000003278, -1.6622456588569274 
3.6600000000032993, -1.6619774308849884 
3.6700000000033204, -1.6616824723216979 
3.6800000000033415, -1.6613622635939254 
3.6900000000033626, -1.6610232291180775 
3.7000000000033837, -1.660678500634899 
3.710000000003405, -1.6603482259526214 
3.720000000003426, -1.6600545595986316 
3.730000000003447, -1.6598110978115248 
3.740000000003468, -1.6596140945158122 
3.750000000003489, -1.6594438678151544 
3.7600000000035103, -1.6592749638437112 
3.7700000000035314, -1.6590861109205062 
3.7800000000035525, -1.6588644260181191 
3.7900000000035736, -1.6586048718637763 
3.8000000000035947, -1.658308217923775 
3.810000000003616, -1.6579796401079787 
3.820000000003637, -1.6576284229621596 
3.830000000003658, -1.6572679707489897 
3.840000000003679, -1.6569145555997455 
3.8500000000037002, -1.6565834983946583 
3.8600000000037213, -1.6562835525340656 
3.8700000000037424, -1.6560129810770785 
3.8800000000037635, -1.6557606353321734 
3.8900000000037847, -1.655511192615603 
3.9000000000038058, -1.6552503787757753 
3.910000000003827, -1.6549673598758088 
3.920000000003848, -1.6546548494458324 
3.930000000003869, -1.6543090663901432 
3.94000000000389, -1.653931299892475 
3.9500000000039113, -1.6535314610478717 
3.9600000000039324, -1.6531314275940878 
3.9700000000039535, -1.652762696094232 
3.9800000000039746, -1.6524537562297337 
3.9900000000039957, -1.6522129999149997 
4.000000000004016, -1.652022866877876 
4.010000000003993, -1.6518515793600237 
4.02000000000397, -1.6516701739148967 
4.030000000003946, -1.651461294554765 
4.040000000003923, -1.651218697922707 
4.0500000000039, -1.6509433365586006 
4.0600000000038765, -1.6506403983056472 
4.070000000003853, -1.650318393326894 
4.08000000000383, -1.649989338956447 
4.090000000003807, -1.6496680785920925 
4.100000000003783, -1.6493689525177655 
4.11000000000376, -1.6491003190163755 
4.120000000003737, -1.648860470446142 
4.130000000003713, -1.648638296627066 
4.14000000000369, -1.648418011983031 
4.150000000003667, -1.6481842764479713 
4.1600000000036434, -1.6479250726410566 
4.17000000000362, -1.6476323876722652 
4.180000000003597, -1.6473021908621461 
4.1900000000035735, -1.6469350614787128 
4.20000000000355, -1.6465379136276013 
4.210000000003527, -1.6461259161616262 
4.220000000003504, -1.6457220547047497 
4.23000000000348, -1.6453513045239876 
4.240000000003457, -1.6450299199954255 
4.250000000003434, -1.6447569275246596 
4.26000000000341, -1.6445156607957478 
4.270000000003387, -1.6442837882877654 
4.280000000003364, -1.6440427528089632 
4.2900000000033405, -1.6437811922780035 
4.300000000003317, -1.6434939427631445 
4.310000000003294, -1.643180383031492 
4.320000000003271, -1.642844366426451 
4.330000000003247, -1.6424959473781822 
4.340000000003224, -1.6421530150299641 
4.350000000003201, -1.6418389634690704 
4.360000000003177, -1.641573663280959 
4.370000000003154, -1.641361939204853 
4.380000000003131, -1.641189596431833 
4.390000000003107, -1.641031045077942 
4.400000000003084, -1.6408612098590905 
4.410000000003061, -1.6406629379621953 
4.4200000000030375, -1.6404281299187815 
4.430000000003014, -1.6401556779023039 
4.440000000002991, -1.639849282512388 
4.450000000002968, -1.639516416943584 
4.460000000002944, -1.6391681914056533 
4.470000000002921, -1.6388189063846519 
4.480000000002898, -1.6384838084290987 
4.490000000002874, -1.6381746405009998 
4.500000000002851, -1.6378949571219752 
4.510000000002828, -1.6376385867145142 
4.520000000002804, -1.6373926011954327 
4.530000000002781, -1.6371423860974885 
4.540000000002758, -1.6368753420096982 
4.5500000000027345, -1.6365820658766321 
4.560000000002711, -1.6362562731607961 
4.570000000002688, -1.6358953262278875 
4.580000000002665, -1.635502560909989 
4.590000000002641, -1.635091067160968 
4.600000000002618, -1.6346858464773693 
4.610000000002595, -1.6343188150068884 
4.620000000002571, -1.6340144315970135 
4.630000000002548, -1.6337748647033703 
4.640000000002525, -1.6335789347798368 
4.6500000000025015, -1.6333958846226957 
4.660000000002478, -1.6332002929845977 
4.670000000002455, -1.632977999096513 
4.6800000000024315, -1.6327244502707239 
4.690000000002408, -1.6324410915558132 
4.700000000002385, -1.6321331679229747 
4.710000000002362, -1.631809448582867 
4.720000000002338, -1.6314826686125712 
4.730000000002315, -1.6311685363312887 
4.740000000002292, -1.6308815786809805 
4.750000000002268, -1.63062895866145 
4.760000000002245, -1.6304066135921722 
4.770000000002222, -1.6302009894225358 
4.7800000000021985, -1.6299947446845457 
4.790000000002175, -1.6297721518515274 
4.800000000002152, -1.629521766458479 
4.810000000002129, -1.6292368127485024 
4.820000000002105, -1.6289148848922423 
4.830000000002082, -1.6285581777992586 
4.840000000002059, -1.628174530598556 
4.850000000002035, -1.6277784508715585 
4.860000000002012, -1.627390157147217 
4.870000000001989, -1.627030596293348 
4.880000000001965, -1.6267131192996356 
4.890000000001942, -1.6264370462533229 
4.900000000001919, -1.6261887442391614 
4.9100000000018955, -1.6259492528748307 
4.920000000001872, -1.6257018821070872 
4.930000000001849, -1.6254353987368784 
4.940000000001826, -1.6251436370950187 
