t, s[1].omega / s[0].omega 
0, -1.459997266509228 
0.009999999999999995, -1.4597098549575382 
0.019999999999999934, -1.4593962238122409 
0.029999999999999874, -1.4590613085790871 
0.04000000000000012, -1.4587134528778116 
0.050000000000000405, -1.458363970688897 
0.06000000000000069, -1.4580254941954038 
0.07000000000000098, -1.457708926778123 
0.08000000000000126, -1.4574199707798043 
0.09000000000000155, -1.4571571520490896 
0.10000000000000184, -1.4569126980542568 
0.11000000000000212, -1.4566756411407753 
0.12000000000000241, -1.4564350955247276 
0.130000000000002, -1.4561821427893367 
0.1400000000000009, -1.4559102277946292 
0.1499999999999998, -1.4556149103544156 
0.1599999999999987, -1.455293898410932 
0.1699999999999976, -1.454947933482335 
0.1799999999999965, -1.4545825403190396 
0.1899999999999954, -1.4542097662094116 
0.1999999999999943, -1.4538479434235156 
0.2099999999999932, -1.453517374026968 
0.2199999999999921, -1.4532323471070951 
0.229999999999991, -1.4529941367793842 
0.2399999999999899, -1.452790526992776 
0.2499999999999888, -1.4526022255144497 
0.2599999999999877, -1.452410914712487 
0.2699999999999866, -1.4522039621115224 
0.2799999999999855, -1.451974996882544 
0.2899999999999844, -1.4517223452196155 
0.2999999999999833, -1.4514473570474524 
0.3099999999999822, -1.4511535922378056 
0.3199999999999811, -1.450846932526353 
0.32999999999998, -1.4505360878294977 
0.3399999999999789, -1.4502324981551842 
0.3499999999999778, -1.4499485320924992 
0.35999999999997667, -1.4496937823021727 
0.36999999999997557, -1.449471078743517 
0.37999999999997447, -1.4492748571389718 
0.38999999999997337, -1.4490931102101376 
0.39999999999997227, -1.4489115325874489 
0.40999999999997117, -1.4487173807858063 
0.41999999999997006, -1.4485015941756543 
0.42999999999996896, -1.4482592433554233 
0.43999999999996786, -1.4479891094220982 
0.44999999999996676, -1.4476931378837092 
0.45999999999996566, -1.4473761264276193 
0.46999999999996456, -1.4470455915562237 
0.47999999999996346, -1.4467114080980756 
0.48999999999996235, -1.4463846495369785 
0.49999999999996125, -1.4460753290312989 
0.5099999999999602, -1.4457895647158376 
0.519999999999959, -1.4455275542291455 
0.529999999999958, -1.4452836437059302 
0.5399999999999568, -1.4450484535819257 
0.5499999999999557, -1.4448116781637341 
0.5599999999999546, -1.4445641081625362 
0.5699999999999535, -1.4442984253521938 
0.5799999999999524, -1.4440092547020513 
0.5899999999999513, -1.443693250001888 
0.5999999999999502, -1.4433497976399132 
0.6099999999999491, -1.4429824882712652 
0.619999999999948, -1.442600816070795 
0.6299999999999469, -1.442220653817922 
0.6399999999999458, -1.4418615972868658 
0.6499999999999447, -1.4415406213666673 
0.6599999999999436, -1.4412648506747041 
0.6699999999999425, -1.441028483523096 
0.6799999999999414, -1.4408162875826656 
0.6899999999999403, -1.4406106877288438 
0.6999999999999392, -1.44039746210786 
0.7099999999999381, -1.440167768524939 
0.719999999999937, -1.4399174664099854 
0.7299999999999359, -1.4396456730220681 
0.7399999999999348, -1.4393538495565266 
0.7499999999999337, -1.4390458428894566 
0.7599999999999326, -1.4387286613348182 
0.7699999999999315, -1.4384131612814781 
0.7799999999999304, -1.438113284175531 
0.7899999999999293, -1.4378427170222225 
0.7999999999999282, -1.4376096381092982 
0.8099999999999271, -1.4374125765570243 
0.819999999999926, -1.437240495133485 
0.8299999999999249, -1.437077107131158 
0.8399999999999238, -1.4369064079392302 
0.8499999999999227, -1.4367164444584473 
0.8599999999999216, -1.436500479224572 
0.8699999999999205, -1.4362564046036246 
0.8799999999999194, -1.4359856203310892 
0.8899999999999183, -1.435692157113829 
0.8999999999999172, -1.43538226156048 
0.9099999999999161, -1.4350642008285939 
0.919999999999915, -1.4347477496757317 
0.9299999999999139, -1.434442821468204 
0.9399999999999128, -1.4341571985939883 
0.9499999999999117, -1.4338941779046144 
0.9599999999999106, -1.4336514407094483 
0.9699999999999095, -1.433421880076275 
0.9799999999999084, -1.433195842733294 
0.9899999999999073, -1.432963483816908 
0.9999999999999062, -1.432716281659061 
1.0099999999999052, -1.4324476326533608 
1.019999999999904, -1.4321530327202336 
1.029999999999903, -1.4318304232591577 
1.039999999999902, -1.4314810192186054 
1.0499999999999008, -1.4311104989534504 
1.0599999999998997, -1.4307298612156552 
1.0699999999998986, -1.430354734060262 
1.0799999999998975, -1.430002064493853 
1.0899999999998964, -1.4296846167382566 
1.0999999999998953, -1.4294060037280043 
1.1099999999998942, -1.4291596221686713 
1.119999999999893, -1.4289322250790673 
1.129999999999892, -1.4287093636809176 
1.1399999999998909, -1.428479317747447 
1.1499999999998898, -1.4282343321737871 
1.1599999999998887, -1.4279700720078161 
1.1699999999998876, -1.4276847157099242 
1.1799999999998865, -1.4273786338925023 
1.1899999999998854, -1.4270549945775879 
1.1999999999998843, -1.4267210596027111 
1.2099999999998832, -1.4263891912388433 
1.219999999999882, -1.4260758478574795 
1.229999999999881, -1.4257971790700104 
1.2399999999998799, -1.4255622928374354 
1.2499999999998788, -1.4253683634121623 
1.2599999999998777, -1.4252014826729784 
1.2699999999998766, -1.4250426732156702 
1.2799999999998755, -1.4248746765340181 
1.2899999999998744, -1.4246858409210599 
1.2999999999998733, -1.4244706129601121 
1.3099999999998722, -1.4242281741601415 
1.319999999999871, -1.423960842492665 
1.32999999999987, -1.4236730751267928 
1.3399999999998689, -1.423371172501811 
1.3499999999998678, -1.423063299355812 
1.3599999999998666, -1.4227591525975136 
1.3699999999998655, -1.4224686288569663 
1.3799999999998644, -1.4221994249477041 
1.3899999999998633, -1.4219545033287058 
1.3999999999998622, -1.4217308982820631 
1.4099999999998611, -1.4215206471021846 
1.41999999999986, -1.4213132304053793 
1.429999999999859, -1.421098146687013 
1.4399999999998578, -1.4208666369585572 
1.4499999999998567, -1.4206124363670203 
1.4599999999998556, -1.4203319785425417 
1.4699999999998545, -1.420024534688139 
1.4799999999998534, -1.4196925388720707 
1.4899999999998523, -1.4193420241832388 
1.4999999999998512, -1.4189827488606097 
1.5099999999998501, -1.418627337732268 
1.519999999999849, -1.4182888946022518 
1.529999999999848, -1.4179773717350554 
1.5399999999998468, -1.4176962381057274 
1.5499999999998457, -1.4174414532333461 
1.5599999999998446, -1.4172034437986187 
1.5699999999998435, -1.4169706830318474 
1.5799999999998424, -1.416732710779135 
1.5899999999998413, -1.416481486754351 
1.5999999999998402, -1.4162113930911369 
1.6099999999998391, -1.4159188214390452 
1.619999999999838, -1.4156021595920458 
1.629999999999837, -1.4152626122597805 
1.6399999999998358, -1.4149057926708855 
1.6499999999998347, -1.41454325470696 
1.6599999999998336, -1.4141922145754875 
1.6699999999998325, -1.4138716417417463 
1.6799999999998314, -1.4135950748377395 
1.6899999999998303, -1.4133641591610877 
1.6999999999998292, -1.4131678251082778 
1.709999999999828, -1.412987783724686 
1.719999999999827, -1.412805993137686 
1.729999999999826, -1.4126094753473355 
1.7399999999998248, -1.412391310943284 
1.7499999999998237, -1.412149355121869 
1.7599999999998226, -1.4118845658391823 
1.7699999999998215, -1.4115999879522785 
1.7799999999998204, -1.4113006075506163 
1.7899999999998193, -1.4109937537598984 
1.7999999999998182, -1.4106893233428173 
1.809999999999817, -1.4103988713220847 
1.819999999999816, -1.410132982999189 
1.8299999999998149, -1.4098976119551545 
1.8399999999998138, -1.4096914099032494 
1.8499999999998127, -1.4095058833525829 
1.8599999999998116, -1.4093282886771052 
1.8699999999998105, -1.4091454331314528 
1.8799999999998094, -1.408946539313022 
1.8899999999998083, -1.4087245164151865 
1.8999999999998072, -1.4084760167393924 
1.909999999999806, -1.4082009769606794 
1.919999999999805, -1.4079021692914424 
1.9299999999998039, -1.4075849574472503 
1.9399999999998028, -1.40725712518814 
1.9499999999998017, -1.4069283834640651 
1.9599999999998006, -1.4066090968560867 
1.9699999999997995, -1.40630810711276 
1.9799999999997984, -1.4060302698738427 
1.9899999999997973, -1.4057749271724451 
1.9999999999997962, -1.4055362564934217 
2.0099999999998173, -1.4053052726008917 
2.0199999999998384, -1.4050722643217033 
2.0299999999998595, -1.404828517284331 
2.0399999999998806, -1.4045670097203513 
2.0499999999999017, -1.404282499409545 
2.059999999999923, -1.4039716380698308 
2.069999999999944, -1.403633588170568 
2.079999999999965, -1.4032712618815566 
2.089999999999986, -1.4028927639033069 
2.100000000000007, -1.4025119319042847 
2.1100000000000283, -1.402146476803288 
2.1200000000000494, -1.401813053790525 
2.1300000000000705, -1.4015209889760327 
2.1400000000000916, -1.4012685060758194 
2.1500000000001127, -1.4010441932945623 
2.160000000000134, -1.4008324426530518 
2.170000000000155, -1.4006189590175984 
2.180000000000176, -1.4003936027547117 
2.190000000000197, -1.40015055658058 
2.2000000000002182, -1.3998872606619686 
2.2100000000002393, -1.3996034365430643 
2.2200000000002604, -1.399300859880861 
2.2300000000002815, -1.3989839765986962 
2.2400000000003026, -1.398660955792953 
2.2500000000003237, -1.3983441674435375 
2.260000000000345, -1.398048648922495 
2.270000000000366, -1.3977877936795093 
2.280000000000387, -1.3975677303308454 
2.290000000000408, -1.3973839469541693 
2.3000000000004293, -1.397222791525767 
2.3100000000004504, -1.397066809296867 
2.3200000000004715, -1.3969003564607894 
2.3300000000004926, -1.3967127833859494 
2.3400000000005137, -1.396498889798703 
2.3500000000005348, -1.3962578449711724 
2.360000000000556, -1.3959918464723942 
2.370000000000577, -1.3957052198327342 
2.380000000000598, -1.3954040802691061 
2.390000000000619, -1.395096264165663 
2.4000000000006403, -1.3947909853728782 
2.4100000000006614, -1.394497674842844 
2.4200000000006825, -1.3942239108526224 
2.4300000000007036, -1.3939731520836642 
2.4400000000007247, -1.3937434971481015 
2.450000000000746, -1.3935282456884608 
2.460000000000767, -1.3933179023657554 
2.470000000000788, -1.3931024996764596 
2.480000000000809, -1.392873296725491 
2.49000000000083, -1.392623619613539 
2.5000000000008513, -1.3923491562439374 
2.5100000000008724, -1.392048145495269 
2.5200000000008935, -1.3917217351725824 
2.5300000000009146, -1.3913745008301763 
2.5400000000009357, -1.3910148001872435 
2.550000000000957, -1.3906543606721589 
2.560000000000978, -1.3903064773133127 
2.570000000000999, -1.3899827602525243 
2.58000000000102, -1.3896895108862863 
2.5900000000010412, -1.3894256642864167 
2.6000000000010624, -1.3891836208245907 
2.6100000000010835, -1.3889523600049052 
2.6200000000011046, -1.38872082878512 
2.6300000000011257, -1.3884799899160822 
2.6400000000011468, -1.388223300051956 
2.650000000001168, -1.3879463460597647 
2.660000000001189, -1.3876465061342067 
2.67000000000121, -1.3873232211238844 
2.680000000001231, -1.386979084703296 
2.6900000000012523, -1.3866214478281573 
2.7000000000012734, -1.3862634598647987 
2.7100000000012945, -1.3859227843450979 
2.7200000000013156, -1.385616767992704 
2.7300000000013367, -1.3853554581320426 
2.740000000001358, -1.38513678918212 
2.750000000001379, -1.3849476489629464 
2.7600000000014, -1.3847699538913694 
2.770000000001421, -1.384587262935367 
2.780000000001442, -1.3843883935126864 
2.7900000000014633, -1.384167724281307 
2.8000000000014844, -1.3839238037002912 
2.8100000000015055, -1.3836578546895095 
2.8200000000015266, -1.383372965270605 
2.8300000000015477, -1.3830740744032768 
2.840000000001569, -1.3827684219486023 
2.85000000000159, -1.382465777102362 
2.860000000001611, -1.3821775512788705 
2.870000000001632, -1.3819142537607942 
2.8800000000016532, -1.381681930959424 
2.8900000000016743, -1.381479498376717 
2.9000000000016954, -1.3812987552223006 
2.9100000000017165, -1.381127106908676 
2.9200000000017377, -1.3809513083447205 
2.9300000000017588, -1.3807604029776404 
2.94000000000178, -1.3805471043932902 
2.950000000001801, -1.380307903219457 
2.960000000001822, -1.3800425682748958 
2.970000000001843, -1.37975359388267 
2.9800000000018643, -1.37944584721304 
2.9900000000018854, -1.3791263633654105 
3.0000000000019065, -1.378803981237471 
3.0100000000019276, -1.3784884004540618 
3.0200000000019487, -1.3781884359132506 
3.03000000000197, -1.377909815660369 
3.040000000001991, -1.3776534771771174 
3.050000000002012, -1.377415328231272 
3.060000000002033, -1.3771876220832455 
3.070000000002054, -1.3769611182235486 
3.0800000000020753, -1.3767269408077838 
3.0900000000020964, -1.376477587171058 
3.1000000000021175, -1.3762072381584307 
3.1100000000021386, -1.3759118685925449 
3.1200000000021597, -1.3755896205380682 
3.130000000002181, -1.3752416534522909 
3.140000000002202, -1.3748733075787962 
3.150000000002223, -1.3744949274728588 
3.160000000002244, -1.374121268115652 
3.1700000000022652, -1.3737685598775529 
3.1800000000022863, -1.3734495754525455 
3.1900000000023074, -1.3731689666145652 
3.2000000000023285, -1.3729218097795275 
3.2100000000023496, -1.372696315623507 
3.2200000000023707, -1.3724786582997324 
3.230000000002392, -1.372256929062909 
3.240000000002413, -1.3720227734758075 
3.250000000002434, -1.3717711794605818 
3.260000000002455, -1.3714996068724665 
3.2700000000024763, -1.371207398625836 
3.2800000000024974, -1.3708959268614633 
3.2900000000025185, -1.370569506109423 
3.3000000000025396, -1.37023662735727 
3.3100000000025607, -1.36991042314363 
3.3200000000025818, -1.369606864194835 
3.330000000002603, -1.3693400051271691 
3.340000000002624, -1.3691160244151366 
3.350000000002645, -1.3689298872474422 
3.360000000002666, -1.3687672482831923 
3.3700000000026873, -1.3686102374926468 
3.3800000000027084, -1.3684432525587267 
3.3900000000027295, -1.3682560028209136 
3.4000000000027506, -1.3680436840792807 
3.4100000000027717, -1.3678056669285685 
3.420000000002793, -1.367544050560578 
3.430000000002814, -1.3672627746645287 
3.440000000002835, -1.366967386170467 
3.450000000002856, -1.3666651661467004 
3.460000000002877, -1.3663650638426994 
3.4700000000028983, -1.3660768123182072 
3.4800000000029194, -1.3658089453953177 
3.4900000000029405, -1.3655662601034486 
3.5000000000029616, -1.3653480160839309 
3.5100000000029827, -1.36514798398416 
3.520000000003004, -1.3649563167521062 
3.530000000003025, -1.3647621642322998 
3.540000000003046, -1.36455585556187 
3.550000000003067, -1.364330125474224 
3.5600000000030882, -1.3640805219225025 
3.5700000000031094, -1.363805402126837 
3.5800000000031305, -1.3635058619944207 
3.5900000000031516, -1.3631857439505484 
3.6000000000031727, -1.3628516421716046 
3.6100000000031938, -1.3625126145609212 
3.620000000003215, -1.3621792015961565 
3.630000000003236, -1.361861518960137 
3.640000000003257, -1.3615667491086512 
3.650000000003278, -1.3612970430766613 
3.6600000000032993, -1.3610489804592867 
3.6700000000033204, -1.3608149178985272 
3.6800000000033415, -1.3605853827832564 
3.6900000000033626, -1.3603512185475914 
3.7000000000033837, -1.3601047326777664 
3.710000000003405, -1.359839938194096 
3.720000000003426, -1.3595524436348803 
3.730000000003447, -1.3592395616395923 
3.740000000003468, -1.3589009916523804 
3.750000000003489, -1.3585400964428802 
3.7600000000035103, -1.3581652865715204 
3.7700000000035314, -1.3577903984578148 
3.7800000000035525, -1.3574326793770062 
3.7900000000035736, -1.3571079242892992 
3.8000000000035947, -1.3568245830695933 
3.810000000003616, -1.3565804241218269 
3.820000000003637, -1.3563641008026424 
3.830000000003658, -1.356160321038256 
3.840000000003679, -1.3559550547786332 
3.8500000000037002, -1.3557382845192776 
3.8600000000037213, -1.35550423307151 
3.8700000000037424, -1.3552503464168735 
3.8800000000037635, -1.3549762515753065 
3.8900000000037847, -1.3546833324675724 
3.9000000000038058, -1.354375072248434 
3.910000000003827, -1.354057927690379 
3.920000000003848, -1.3537420570240295 
3.930000000003869, -1.353440780194323 
3.94000000000389, -1.3531677739942989 
3.9500000000039113, -1.3529323494013297 
3.9600000000039324, -1.3527351812203345 
3.9700000000039535, -1.3525674192107584 
3.9800000000039746, -1.3524139407717715 
3.9900000000039957, -1.3522585734272354 
4.000000000004016, -1.3520883271037665 
4.010000000003993, -1.3518951977928821 
4.02000000000397, -1.351675921926095 
4.030000000003946, -1.3514308151580878 
4.040000000003923, -1.3511626388552638 
4.0500000000039, -1.350875934440736 
4.0600000000038765, -1.3505768265467972 
4.070000000003853, -1.350272987537779 
4.08000000000383, -1.349973273289412 
4.090000000003807, -1.3496865855484788 
4.100000000003783, -1.3494199421048167 
4.11000000000376, -1.3491764285222823 
4.120000000003737, -1.3489541033624095 
4.130000000003713, -1.348746513804675 
4.14000000000369, -1.3485445125984756 
4.150000000003667, -1.3483384127627394 
4.1600000000036434, -1.3481196409010072 
4.17000000000362, -1.3478816270174054 
4.180000000003597, -1.3476201417245721 
4.1900000000035735, -1.3473334306998512 
4.20000000000355, -1.3470223902829523 
4.210000000003527, -1.3466908278062035 
4.220000000003504, -1.3463456331060988 
4.23000000000348, -1.3459964949031284 
4.240000000003457, -1.345654731712476 
4.250000000003434, -1.345331062930106 
4.26000000000341, -1.3450328082529193 
4.270000000003387, -1.3447617167925254 
4.280000000003364, -1.3445136364620607 
4.2900000000033405, -1.3442802121435362 
4.300000000003317, -1.3440515453708748 
4.310000000003294, -1.3438184084779965 
4.320000000003271, -1.3435733067649969 
4.330000000003247, -1.3433105771760636 
4.340000000003224, -1.3430261398719778 
4.350000000003201, -1.3427174871291734 
4.360000000003177, -1.3423842679812004 
4.370000000003154, -1.3420295147484012 
4.380000000003131, -1.3416610833263012 
4.390000000003107, -1.341292241868451 
4.400000000003084, -1.3409399748509938 
4.410000000003061, -1.3406203495957665 
4.4200000000030375, -1.3403425251530645 
4.430000000003014, -1.3401049778334113 
4.440000000002991, -1.3398966137375468 
4.450000000002968, -1.3397018303279462 
4.460000000002944, -1.33950598809593 
4.470000000002921, -1.3392985248936726 
4.480000000002898, -1.3390733974106561 
4.490000000002874, -1.3388280701415578 
4.500000000002851, -1.3385623351101514 
4.510000000002828, -1.3382776743662386 
4.520000000002804, -1.3379773579064276 
4.530000000002781, -1.3376671098412793 
4.540000000002758, -1.33735581746473 
4.5500000000027345, -1.3370553736547315 
4.560000000002711, -1.3367786999808169 
4.570000000002688, -1.3365358791279462 
4.580000000002665, -1.3363300073198001 
4.590000000002641, -1.336155351554659 
4.600000000002618, -1.3359991836785048 
4.610000000002595, -1.3358461285178476 
4.620000000002571, -1.335682484646831 
4.630000000002548, -1.3354987180592146 
4.640000000002525, -1.3352899253887032 
4.6500000000025015, -1.3350550705547861 
4.660000000002478, -1.3347959157109055 
4.670000000002455, -1.3345162190270687 
4.6800000000024315, -1.3342213632113586 
4.690000000002408, -1.3339182574659558 
4.700000000002385, -1.3336151350692929 
4.710000000002362, -1.3333208024833072 
4.720000000002338, -1.3330431199893231 
4.730000000002315, -1.3327870414401732 
4.740000000002292, -1.3325530823587446 
4.750000000002268, -1.3323370701735497 
4.760000000002245, -1.3321313252119482 
4.770000000002222, -1.3319266130418805 
4.7800000000021985, -1.3317139739322956 
4.790000000002175, -1.3314859137854387 
4.800000000002152, -1.331236964230372 
4.810000000002129, -1.3309639044672383 
4.820000000002105, -1.3306659375836702 
4.830000000002082, -1.330344959439923 
4.840000000002059, -1.3300058581265881 
4.850000000002035, -1.3296565827723767 
4.860000000002012, -1.329307575677172 
4.870000000001989, -1.3289702079016341 
4.880000000001965, -1.3286542674548365 
4.890000000001942, -1.3283652702385975 
4.900000000001919, -1.3281028743719383 
4.9100000000018955, -1.3278613043449117 
4.920000000001872, -1.3276314968600444 
4.930000000001849, -1.3274036917404402 
4.940000000001826, -1.3271692580319716 
