t, s[1].omega / s[0].omega 
0, -0.5399977441514325 
0.009999999999999995, -0.5397688891963 
0.019999999999999934, -0.5395335861282243 
0.029999999999999874, -0.539291929865555 
0.04000000000000012, -0.5390441301878609 
0.050000000000000405, -0.5387905592958938 
0.06000000000000069, -0.5385317721017988 
0.07000000000000098, -0.5382684960549381 
0.08000000000000126, -0.5380016065104932 
0.09000000000000155, -0.5377321095687734 
0.10000000000000184, -0.5374611479217293 
0.11000000000000212, -0.5371900331409643 
0.12000000000000241, -0.5369202952790257 
0.130000000000002, -0.5366537294043108 
0.1400000000000009, -0.5363924089859723 
0.1499999999999998, -0.5361386297734044 
0.1599999999999987, -0.535894750778503 
0.1699999999999976, -0.5356629201653782 
0.1799999999999965, -0.5354447190161811 
0.1899999999999954, -0.5352408150533747 
0.1999999999999943, -0.5350507566798309 
0.2099999999999932, -0.5348730104069045 
0.2199999999999921, -0.5347052425506789 
0.229999999999991, -0.5345447290131593 
0.2399999999999899, -0.5343887343599156 
0.2499999999999888, -0.5342347597495641 
0.2599999999999877, -0.5340806540904834 
0.2699999999999866, -0.5339246363359897 
0.2799999999999855, -0.5337652739061968 
0.2899999999999844, -0.5336014377099965 
0.2999999999999833, -0.5334322391096399 
0.3099999999999822, -0.5332569533941572 
0.3199999999999811, -0.5330749393947962 
0.32999999999998, -0.5328855689265208 
0.3399999999999789, -0.5326881811660322 
0.3499999999999778, -0.5324820763928593 
0.35999999999997667, -0.5322665601969997 
0.36999999999997557, -0.532041040966848 
0.37999999999997447, -0.5318051679538758 
0.38999999999997337, -0.5315589762483977 
0.39999999999997227, -0.5313029880450213 
0.40999999999997117, -0.5310382216797416 
0.41999999999997006, -0.5307660902733534 
0.42999999999996896, -0.5304882199029072 
0.43999999999996786, -0.5302062538315819 
0.44999999999996676, -0.5299217092280438 
0.45999999999996566, -0.5296359184335435 
0.46999999999996456, -0.5293500455700417 
0.47999999999996346, -0.5290651472708683 
0.48999999999996235, -0.5287822485814505 
0.49999999999996125, -0.5285024191847928 
0.5099999999999602, -0.5282268469270346 
0.519999999999959, -0.5279569089850474 
0.529999999999958, -0.5276942368435497 
0.5399999999999568, -0.5274407626842688 
0.5499999999999557, -0.5271987244323664 
0.5599999999999546, -0.5269705970251446 
0.5699999999999535, -0.5267589129339694 
0.5799999999999524, -0.5265659438404238 
0.5899999999999513, -0.526393248482101 
0.5999999999999502, -0.5262411547904581 
0.6099999999999491, -0.5261083232553344 
0.619999999999948, -0.5259915867211131 
0.6299999999999469, -0.5258862169331155 
0.6399999999999458, -0.5257866082572542 
0.6499999999999447, -0.5256871688621917 
0.6599999999999436, -0.5255831087558505 
0.6699999999999425, -0.5254708901450651 
0.6799999999999414, -0.5253482919810366 
0.6899999999999403, -0.5252141976136231 
0.6999999999999392, -0.525068263372626 
0.7099999999999381, -0.5249105884440842 
0.719999999999937, -0.524741444653391 
0.7299999999999359, -0.5245610797762594 
0.7399999999999348, -0.5243695882388631 
0.7499999999999337, -0.5241668408086817 
0.7599999999999326, -0.5239524706696552 
0.7699999999999315, -0.5237259203607625 
0.7799999999999304, -0.5234865571997926 
0.7899999999999293, -0.5232338587926314 
0.7999999999999282, -0.5229676510334353 
0.8099999999999271, -0.5226883506880287 
0.819999999999926, -0.5223971369632583 
0.8299999999999249, -0.5220959750131844 
0.8399999999999238, -0.5217874562473729 
0.8499999999999227, -0.5214744939644068 
0.8599999999999216, -0.5211599758357442 
0.8699999999999205, -0.5208464855502059 
0.8799999999999194, -0.520536160996258 
0.8899999999999183, -0.5202306914409913 
0.8999999999999172, -0.5199314115234854 
0.9099999999999161, -0.5196394399299364 
0.919999999999915, -0.5193558239842593 
0.9299999999999139, -0.5190816695580704 
0.9399999999999128, -0.5188182472215077 
0.9499999999999117, -0.5185670679843928 
0.9599999999999106, -0.5183299175790574 
0.9699999999999095, -0.5181088303252412 
0.9799999999999084, -0.5179059758585123 
0.9899999999999073, -0.5177234297204063 
0.9999999999999062, -0.5175628103095907 
1.0099999999999052, -0.517424799909152 
1.019999999999904, -0.5173086306195185 
1.029999999999903, -0.5172116914696022 
1.039999999999902, -0.5171294545364766 
1.0499999999999008, -0.5170558640647455 
1.0599999999998997, -0.5169841621016716 
1.0699999999998986, -0.5169079125251763 
1.0799999999998975, -0.5168218771805643 
1.0899999999998964, -0.5167224806793492 
1.0999999999998953, -0.5166078109249315 
1.1099999999998942, -0.5164772885766645 
1.119999999999893, -0.5163312029759392 
1.129999999999892, -0.5161702694150807 
1.1399999999998909, -0.5159952835863557 
1.1499999999998898, -0.5158068874666017 
1.1599999999998887, -0.5156054321805805 
1.1699999999998876, -0.515390919775898 
1.1799999999998865, -0.5151630146708559 
1.1899999999998854, -0.5149211268081475 
1.1999999999998843, -0.514664574667063 
1.2099999999998832, -0.5143928302370728 
1.219999999999882, -0.5141058245459622 
1.229999999999881, -0.5138042537993458 
1.2399999999998799, -0.5134897902282114 
1.2499999999998788, -0.513165099204658 
1.2599999999998777, -0.5128336179631358 
1.2699999999998766, -0.5124991467666378 
1.2799999999998755, -0.5121653854581174 
1.2899999999998744, -0.5118355627420401 
1.2999999999998733, -0.5115122473554713 
1.3099999999998722, -0.511197345340809 
1.319999999999871, -0.5108922278075334 
1.32999999999987, -0.5105979182591567 
1.3399999999998689, -0.5103152845391107 
1.3499999999998678, -0.510045204751255 
1.3599999999998666, -0.509788694086806 
1.3699999999998655, -0.5095469862688871 
1.3799999999998644, -0.5093215614903305 
1.3899999999998633, -0.5091141062321239 
1.3999999999998622, -0.5089263835774219 
1.4099999999998611, -0.5087599912509676 
1.41999999999986, -0.5086159966965068 
1.429999999999859, -0.5084944731279013 
1.4399999999998578, -0.5083940206472717 
1.4499999999998567, -0.508311426061827 
1.4599999999998556, -0.5082416491478675 
1.4699999999998545, -0.508178264145154 
1.4799999999998534, -0.5081143159592794 
1.4899999999998523, -0.5080433464210253 
1.4999999999998512, -0.5079602468499919 
1.5099999999998501, -0.5078616816485961 
1.519999999999849, -0.5077460396842917 
1.529999999999848, -0.5076130557740651 
1.5399999999998468, -0.5074633071678334 
1.5499999999998457, -0.5072977442571805 
1.5599999999998446, -0.5071173320070829 
1.5699999999998435, -0.5069228141803092 
1.5799999999998424, -0.5067145826944874 
1.5899999999998413, -0.5064926315216413 
1.5999999999998402, -0.5062565849235363 
1.6099999999998391, -0.5060058025531777 
1.619999999999838, -0.5057395705073169 
1.629999999999837, -0.5054573798684705 
1.6399999999998358, -0.5051592668826215 
1.6499999999998347, -0.5048461451493945 
1.6599999999998336, -0.5045200210706261 
1.6699999999998325, -0.5041839846937659 
1.6799999999998314, -0.5038419332480514 
1.6899999999998303, -0.503498093972129 
1.6999999999998292, -0.5031565015672588 
1.709999999999828, -0.5028205945784882 
1.719999999999827, -0.502493023866032 
1.729999999999826, -0.5021756699273887 
1.7399999999998248, -0.5018698014024712 
1.7499999999998237, -0.5015762933193679 
1.7599999999998226, -0.5012958437709168 
1.7699999999998215, -0.5010291559501101 
1.7799999999998204, -0.5007770726404105 
1.7899999999998193, -0.5005406583123767 
1.7999999999998182, -0.5003212225545169 
1.809999999999817, -0.5001202721149468 
1.819999999999816, -0.499939372124948 
1.8299999999998149, -0.4997798960845679 
1.8399999999998138, -0.49964265711307687 
1.8499999999998127, -0.4995274485967064 
1.8599999999998116, -0.4994325826925432 
1.8699999999998105, -0.49935458229245044 
1.8799999999998094, -0.499288209932924 
1.8899999999998083, -0.4992269497301006 
1.8999999999998072, -0.49916388436136366 
1.909999999999806, -0.49909271033296765 
1.919999999999805, -0.4990085503526898 
1.9299999999998039, -0.49890832407196417 
1.9399999999998028, -0.49879065354874863 
1.9499999999998017, -0.49865545728863836 
1.9599999999998006, -0.4985034383804664 
1.9699999999997995, -0.4983356200136435 
1.9799999999997984, -0.4981529980011209 
1.9899999999997973, -0.4979563176658853 
1.9999999999997962, -0.497745955377213 
2.0099999999998173, -0.4975218840118451 
2.0199999999998384, -0.4972837129169815 
2.0299999999998595, -0.4970308055935779 
2.0399999999998806, -0.4967624836677854 
2.0499999999999017, -0.49647831586684743 
2.059999999999923, -0.49617846066746196 
2.069999999999944, -0.495863986577036 
2.079999999999965, -0.4955370583743591 
2.089999999999986, -0.4952008870435322 
2.100000000000007, -0.4948594153901202 
2.1100000000000283, -0.49451682260619334 
2.1200000000000494, -0.494177011086128 
2.1300000000000705, -0.4938432340187805 
2.1400000000000916, -0.4935179423264954 
2.1500000000001127, -0.49320283398865505 
2.160000000000134, -0.4928990315241342 
2.170000000000155, -0.49260730681418974 
2.180000000000176, -0.49232829622183755 
2.190000000000197, -0.4920626774135207 
2.2000000000002182, -0.4918112979362917 
2.2100000000002393, -0.491575251830219 
2.2200000000002604, -0.49135589763122123 
2.2300000000002815, -0.49115480365111563 
2.2400000000003026, -0.49097359931246176 
2.2500000000003237, -0.49081371091865755 
2.260000000000345, -0.4906759753530971 
2.270000000000366, -0.4905601648595191 
2.280000000000387, -0.4904645209354167 
2.290000000000408, -0.49038546369906355 
2.3000000000004293, -0.49031766373802405 
2.3100000000004504, -0.4902545798768509 
2.3200000000004715, -0.49018937707004184 
2.3300000000004926, -0.4901159414524326 
2.3400000000005137, -0.49002964797897774 
2.3500000000005348, -0.489927665601423 
2.360000000000556, -0.48980880881286837 
2.370000000000577, -0.4896731084761615 
2.380000000000598, -0.48952130630624513 
2.390000000000619, -0.4893544134870881 
2.4000000000006403, -0.4891733899874226 
2.4100000000006614, -0.48897894436023115 
2.4200000000006825, -0.4887714321784166 
2.4300000000007036, -0.4885508331971615 
2.4400000000007247, -0.48831679907141323 
2.450000000000746, -0.48806877471936944 
2.460000000000767, -0.48780619930553853 
2.470000000000788, -0.4875287805051743 
2.480000000000809, -0.4872368053076405 
2.49000000000083, -0.48693141044156896 
2.5000000000008513, -0.4866147102521091 
2.5100000000008724, -0.48628970096663765 
2.5200000000008935, -0.48595993771137413 
2.5300000000009146, -0.4856290794378566 
2.5400000000009357, -0.4853004540516335 
2.550000000000957, -0.4849767736145057 
2.560000000000978, -0.48466004898200377 
2.570000000000999, -0.48435167187784584 
2.58000000000102, -0.48405259219478003 
2.5900000000010412, -0.4837635219491464 
2.6000000000010624, -0.4834851225697411 
2.6100000000010835, -0.4832181567587175 
2.6200000000011046, -0.48296359958898416 
2.6300000000011257, -0.4827227054482683 
2.6400000000011468, -0.48249702168350356 
2.650000000001168, -0.48228833069469684 
2.660000000001189, -0.4820984945748731 
2.67000000000121, -0.4819291770648732 
2.680000000001231, -0.48178143639414533 
2.6900000000012523, -0.48165522894483975 
2.7000000000012734, -0.4815489359219508 
2.7100000000012945, -0.4814590948366109 
2.7200000000013156, -0.4813805255089405 
2.7300000000013367, -0.4813069310575157 
2.740000000001358, -0.48123184531597457 
2.750000000001379, -0.4811496117217374 
2.7600000000014, -0.48105605869412005 
2.770000000001421, -0.4809487043607955 
2.780000000001442, -0.48082654893630705 
2.7900000000014633, -0.4806896457656958 
2.8000000000014844, -0.4805386402996489 
2.8100000000015055, -0.480374389471672 
2.8200000000015266, -0.4801976960234131 
2.8300000000015477, -0.4800091478521635 
2.840000000001569, -0.47980904007315034 
2.85000000000159, -0.47959736306596146 
2.860000000001611, -0.4793738507930493 
2.870000000001632, -0.4791380918869514 
2.8800000000016532, -0.4788897053955169 
2.8900000000016743, -0.478628569131204 
2.9000000000016954, -0.47835506142955275 
2.9100000000017165, -0.478070247342196 
2.9200000000017377, -0.47777593017162534 
2.9300000000017588, -0.4774745205476731 
2.94000000000178, -0.47716874573039486 
2.950000000001801, -0.4768612942296673 
2.960000000001822, -0.4765545167396815 
2.970000000001843, -0.4762502670332867 
2.9800000000018643, -0.4759498959373564 
2.9900000000018854, -0.4756543550264408 
3.0000000000019065, -0.47536434918005555 
3.0100000000019276, -0.47508049128386476 
3.0200000000019487, -0.4748034363353096 
3.03000000000197, -0.4745339895976942 
3.040000000001991, -0.47427318923725464 
3.050000000002012, -0.474022360324478 
3.060000000002033, -0.4737831282220637 
3.070000000002054, -0.47355736893324185 
3.0800000000020753, -0.4733470663597371 
3.0900000000020964, -0.47315404882247825 
3.1000000000021175, -0.47297960003735867 
3.1100000000021386, -0.4728239916252325 
3.1200000000021597, -0.4726860587764148 
3.130000000002181, -0.472563000829423 
3.140000000002202, -0.4724505707884156 
3.150000000002223, -0.4723436809500714 
3.160000000002244, -0.4722372464797229 
3.1700000000022652, -0.47212695663292026 
3.1800000000022863, -0.47200971523985996 
3.1900000000023074, -0.47188368545544945 
3.2000000000023285, -0.4717480543526428 
3.2100000000023496, -0.47160269289376855 
3.2200000000023707, -0.47144784090928715 
3.230000000002392, -0.4712838708777161 
3.240000000002413, -0.47111113208729777 
3.250000000002434, -0.4709298577742643 
3.260000000002455, -0.4707401194071288 
3.2700000000024763, -0.4705418208449266 
3.2800000000024974, -0.47033473278909516 
3.2900000000025185, -0.47011857078824126 
3.3000000000025396, -0.4698931152939707 
3.3100000000025607, -0.46965835847122994 
3.3200000000025818, -0.4694146425750068 
3.330000000002603, -0.46916273932543867 
3.340000000002624, -0.4689038248273862 
3.350000000002645, -0.46863933947312847 
3.360000000002666, -0.4683707747729716 
3.3700000000026873, -0.468099466552298 
3.3800000000027084, -0.4678264682928249 
3.3900000000027295, -0.4675525330793593 
3.4000000000027506, -0.46727818081641737 
3.4100000000027717, -0.4670038016626978 
3.420000000002793, -0.466729753740024 
3.430000000002814, -0.46645643677320436 
3.440000000002835, -0.4661843437422172 
3.450000000002856, -0.465914100743029 
3.460000000002877, -0.46564650242242855 
3.4700000000028983, -0.4653825417620915 
3.4800000000029194, -0.46512342283354435 
3.4900000000029405, -0.4648705361276808 
3.5000000000029616, -0.4646253714459598 
3.5100000000029827, -0.46438934898875806 
3.520000000003004, -0.46416357286215504 
3.530000000003025, -0.46394855556225023 
3.540000000003046, -0.46374401252480457 
3.550000000003067, -0.4635488432966743 
3.5600000000030882, -0.4633613569364968 
3.5700000000031094, -0.4631796700226465 
3.5800000000031305, -0.46300209380056134 
3.5900000000031516, -0.46282733695171957 
3.6000000000031727, -0.4626544829837792 
3.6100000000031938, -0.46248283838079096 
3.620000000003215, -0.46231178282988533 
3.630000000003236, -0.4621406935369773 
3.640000000003257, -0.4619689407120012 
3.650000000003278, -0.4617959155973617 
3.6600000000032993, -0.46162105656860986 
3.6700000000033204, -0.46144385876029526 
3.6800000000033415, -0.4612638697477422 
3.6900000000033626, -0.46108068217132975 
3.7000000000033837, -0.4608939349839691 
3.710000000003405, -0.4607033304216472 
3.720000000003426, -0.46050866502536136 
3.730000000003447, -0.460309861559003 
3.740000000003468, -0.46010697881164725 
3.750000000003489, -0.45990017603230005 
3.7600000000035103, -0.459689625360766 
3.7700000000035314, -0.45947539640509705 
3.7800000000035525, -0.45925736410169415 
3.7900000000035736, -0.4590351906126102 
3.8000000000035947, -0.45880839709722787 
3.810000000003616, -0.4585764929812181 
3.820000000003637, -0.4583391027450558 
3.830000000003658, -0.4580960399765706 
3.840000000003679, -0.45784731278121127 
3.8500000000037002, -0.45759307736020827 
3.8600000000037213, -0.4573335707768426 
3.8700000000037424, -0.45706904990675845 
3.8800000000037635, -0.4567997510029495 
3.8900000000037847, -0.4565258722031709 
3.9000000000038058, -0.4562475739479302 
3.910000000003827, -0.4559649905861751 
3.920000000003848, -0.45567825061021716 
3.930000000003869, -0.4553875131448793 
3.94000000000389, -0.45509304197581546 
3.9500000000039113, -0.45479534506656283 
3.9600000000039324, -0.45449538748528295 
3.9700000000039535, -0.454194824866628 
3.9800000000039746, -0.453896126791942 
3.9900000000039957, -0.4536024391545627 
4.000000000004016, -0.45331713701735277 
4.010000000003993, -0.4530432030581714 
4.02000000000397, -0.45278268619575135 
4.030000000003946, -0.45253644735429654 
4.040000000003923, -0.45230423437498624 
4.0500000000039, -0.4520849807408666 
4.0600000000038765, -0.45187717465787214 
4.070000000003853, -0.4516791815323232 
4.08000000000383, -0.45148946726207856 
4.090000000003807, -0.45130672028137286 
4.100000000003783, -0.4511298949339072 
4.11000000000376, -0.4509582031142429 
4.120000000003737, -0.45079107464515233 
4.130000000003713, -0.4506280965056563 
4.14000000000369, -0.45046893106110913 
4.150000000003667, -0.4503132076001208 
4.1600000000036434, -0.4501603844255088 
4.17000000000362, -0.4500095944627576 
4.180000000003597, -0.4498595134744666 
4.1900000000035735, -0.4497083119662354 
4.20000000000355, -0.4495537464197777 
4.210000000003527, -0.44939339887929136 
4.220000000003504, -0.44922500317817315 
4.23000000000348, -0.44904674612555606 
4.240000000003457, -0.4488574401780663 
4.250000000003434, -0.4486565252449818 
4.26000000000341, -0.4484439284924103 
4.270000000003387, -0.4482198511827781 
4.280000000003364, -0.4479845507898939 
4.2900000000033405, -0.44773816193686755 
4.300000000003317, -0.44748057338249464 
4.310000000003294, -0.44721136313588294 
4.320000000003271, -0.4469297920413209 
4.330000000003247, -0.4466348643923367 
4.340000000003224, -0.4463254763885686 
4.350000000003201, -0.44600068047350894 
4.360000000003177, -0.44566008148514785 
4.370000000003154, -0.44530433271861725 
4.380000000003131, -0.44493561425854694 
4.390000000003107, -0.44455789016648567 
4.400000000003084, -0.44417673638328486 
4.410000000003061, -0.44379867165449083 
4.4200000000030375, -0.4434301629026841 
4.430000000003014, -0.44307665276880215 
4.440000000002991, -0.44274193492414887 
4.450000000002968, -0.4424280091813172 
4.460000000002944, -0.44213533502711944 
4.470000000002921, -0.44186329320106454 
4.480000000002898, -0.4416106745826984 
4.490000000002874, -0.441376085723099 
4.500000000002851, -0.4411582313643647 
4.510000000002828, -0.4409560786025223 
4.520000000002804, -0.4407689240140032 
4.530000000002781, -0.4405963837674662 
4.540000000002758, -0.4404383174057808 
4.5500000000027345, -0.4402946859818756 
4.560000000002711, -0.4401653406242271 
4.570000000002688, -0.44004974472970365 
4.580000000002665, -0.4399466574310448 
4.590000000002641, -0.43985384686756596 
4.600000000002618, -0.439767942735824 
4.610000000002595, -0.4396845440858307 
4.620000000002571, -0.4395986358466599 
4.630000000002548, -0.4395052404202026 
4.640000000002525, -0.4394001053802258 
4.6500000000025015, -0.4392801953955817 
4.660000000002478, -0.4391438478751358 
4.670000000002455, -0.43899060405991613 
4.6800000000024315, -0.4388208405648033 
4.690000000002408, -0.4386353507281009 
4.700000000002385, -0.4384349819566962 
4.710000000002362, -0.4382203748667027 
4.720000000002338, -0.4379918075858259 
4.730000000002315, -0.43774913290689677 
4.740000000002292, -0.4374918000712795 
4.750000000002268, -0.4372189655555174 
4.760000000002245, -0.43692970701366496 
4.770000000002222, -0.4366233496630311 
4.7800000000021985, -0.4362998839006177 
4.790000000002175, -0.43596039534438136 
4.800000000002152, -0.4356073662228588 
4.810000000002129, -0.4352446897650837 
4.820000000002105, -0.4348773135418605 
4.830000000002082, -0.4345105816138788 
4.840000000002059, -0.43414948944381554 
4.850000000002035, -0.43379809881585096 
4.860000000002012, -0.4334592639865251 
4.870000000001989, -0.43313467222563595 
4.880000000001965, -0.43282509616566045 
4.890000000001942, -0.4325307295230073 
