t, s[1].omega / s[0].omega 
0, -0.699997692424616 
0.009999999999999995, -0.6997602454753581 
0.019999999999999934, -0.6995098829542172 
0.029999999999999874, -0.6992475601736554 
0.04000000000000012, -0.6989747976804275 
0.050000000000000405, -0.698693600631726 
0.06000000000000069, -0.698406370466503 
0.07000000000000098, -0.6981158338587566 
0.08000000000000126, -0.6978250096813652 
0.09000000000000155, -0.6975372195302917 
0.10000000000000184, -0.6972561273455679 
0.11000000000000212, -0.6969857751832864 
0.12000000000000241, -0.6967305687919423 
0.130000000000002, -0.6964951601232154 
0.1400000000000009, -0.6962841768076221 
0.1499999999999998, -0.6961017657398825 
0.1599999999999987, -0.6959509557421658 
0.1699999999999976, -0.6958329074949468 
0.1799999999999965, -0.6957462024896576 
0.1899999999999954, -0.6956864003431271 
0.1999999999999943, -0.6956461123018509 
0.2099999999999932, -0.6956157385518961 
0.2199999999999921, -0.6955847880164213 
0.229999999999991, -0.6955434347958507 
0.2399999999999899, -0.695483832073 
0.2499999999999888, -0.6954008100145971 
0.2599999999999877, -0.6952918655684203 
0.2699999999999866, -0.6951566236876827 
0.2799999999999855, -0.6949960676454123 
0.2899999999999844, -0.6948117944349032 
0.2999999999999833, -0.6946054361009127 
0.3099999999999822, -0.6943782837573889 
0.3199999999999811, -0.6941310941301324 
0.32999999999998, -0.6938640451090964 
0.3399999999999789, -0.6935768188428094 
0.3499999999999778, -0.6932688110899302 
0.35999999999997667, -0.6929394804005505 
0.36999999999997557, -0.6925888476721395 
0.37999999999997447, -0.6922181223505975 
0.38999999999997337, -0.6918303574444008 
0.39999999999997227, -0.6914309343503466 
0.40999999999997117, -0.6910276044584354 
0.41999999999997006, -0.6906298575924319 
0.42999999999996896, -0.6902476078521167 
0.43999999999996786, -0.689889517592469 
0.44999999999996676, -0.6895615134045711 
0.45999999999996566, -0.6892659956076536 
0.46999999999996456, -0.6890019238760242 
0.47999999999996346, -0.6887655943000001 
0.48999999999996235, -0.6885517227639109 
0.49999999999996125, -0.6883544686011324 
0.5099999999999602, -0.6881681812097757 
0.519999999999959, -0.6879878135663434 
0.529999999999958, -0.6878090540087277 
0.5399999999999568, -0.6876282722130721 
0.5499999999999557, -0.6874423771541898 
0.5599999999999546, -0.6872486675556074 
0.5699999999999535, -0.6870447335995278 
0.5799999999999524, -0.6868284466236402 
0.5899999999999513, -0.6865980484351519 
0.5999999999999502, -0.6863523206209813 
0.6099999999999491, -0.686090780847439 
0.619999999999948, -0.6858138321583511 
0.6299999999999469, -0.6855228002274358 
0.6399999999999458, -0.6852198357645056 
0.6499999999999447, -0.6849077137377506 
0.6599999999999436, -0.68458959546541 
0.6699999999999425, -0.6842688176009157 
0.6799999999999414, -0.68394874442291 
0.6899999999999403, -0.6836326892954915 
0.6999999999999392, -0.6833238915455644 
0.7099999999999381, -0.6830255266004402 
0.719999999999937, -0.6827407247740002 
0.7299999999999359, -0.682472573986956 
0.7399999999999348, -0.6822240831741654 
0.7499999999999337, -0.6819980864583141 
0.7599999999999326, -0.6817970736096417 
0.7699999999999315, -0.681622940361684 
0.7799999999999304, -0.6814766644321828 
0.7899999999999293, -0.6813579327212708 
0.7999999999999282, -0.6812647751705074 
0.8099999999999271, -0.6811932992288458 
0.819999999999926, -0.681137651353223 
0.8299999999999249, -0.6810903280453691 
0.8399999999999238, -0.6810428851999413 
0.8499999999999227, -0.6809869493918572 
0.8599999999999216, -0.680915279765258 
0.8699999999999205, -0.6808225678403581 
0.8799999999999194, -0.680705755901238 
0.8899999999999183, -0.6805638531905334 
0.8999999999999172, -0.6803974084207743 
0.9099999999999161, -0.6802078649418963 
0.919999999999915, -0.6799969827963294 
0.9299999999999139, -0.6797664229691369 
0.9399999999999128, -0.679517513014448 
0.9499999999999117, -0.6792511738278543 
0.9599999999999106, -0.6789679794816013 
0.9699999999999095, -0.6786683299280529 
0.9799999999999084, -0.6783527251274165 
0.9899999999999073, -0.6780221278375935 
0.9999999999999062, -0.6776783836739141 
1.0099999999999052, -0.6773246287850768 
1.019999999999904, -0.6769655649899969 
1.029999999999903, -0.6766074433660046 
1.039999999999902, -0.6762576118177713 
1.0499999999999008, -0.6759235915427556 
1.0599999999998997, -0.6756118472244624 
1.0699999999998986, -0.6753266139232056 
1.0799999999998975, -0.6750691927133906 
1.0899999999998964, -0.6748379521926594 
1.0999999999998953, -0.674628969104692 
1.1099999999998942, -0.6744370036758645 
1.119999999999893, -0.6742564573492069 
1.129999999999892, -0.6740820740189472 
1.1399999999998909, -0.6739093087953977 
1.1499999999998898, -0.6737344102764011 
1.1599999999998887, -0.6735543159932338 
1.1699999999998876, -0.673366463237408 
1.1799999999998865, -0.6731685972311227 
1.1899999999998854, -0.6729586355803171 
1.1999999999998843, -0.672734629102578 
1.2099999999998832, -0.6724948411918642 
1.219999999999882, -0.6722379430472818 
1.229999999999881, -0.6719632858266683 
1.2399999999998799, -0.6716711706276064 
1.2499999999998788, -0.6713630155438259 
1.2599999999998777, -0.6710413404954668 
1.2699999999998766, -0.6707095569302968 
1.2799999999998755, -0.6703716273479325 
1.2899999999998744, -0.6700317020686266 
1.2999999999998733, -0.669693827145246 
1.3099999999998722, -0.6693617675623669 
1.319999999999871, -0.6690389399832113 
1.32999999999987, -0.6687284212487571 
1.3399999999998689, -0.6684329928225436 
1.3499999999998678, -0.6681551872612619 
1.3599999999998666, -0.6678973117023788 
1.3699999999998655, -0.6676614312066854 
1.3799999999998644, -0.6674493007368 
1.3899999999998633, -0.6672622391626156 
1.3999999999998622, -0.667100943454446 
1.4099999999998611, -0.6669652488929093 
1.41999999999986, -0.6668538556143041 
1.429999999999859, -0.6667640664397536 
1.4399999999998578, -0.6666916138159276 
1.4499999999998567, -0.6666306812489678 
1.4599999999998556, -0.6665742193212497 
1.4699999999998545, -0.6665145896192569 
1.4799999999998534, -0.6664444431466399 
1.4899999999998523, -0.6663576101834419 
1.4999999999998512, -0.666249735788948 
1.5099999999998501, -0.6661184862780766 
1.519999999999849, -0.6659633269902943 
1.529999999999848, -0.6657850212886636 
1.5399999999998468, -0.665585050306205 
1.5499999999998457, -0.6653651097804583 
1.5599999999998446, -0.6651267611730178 
1.5699999999998435, -0.6648712493828218 
1.5799999999998424, -0.6645994671086067 
1.5899999999998413, -0.6643120401771637 
1.5999999999998402, -0.6640095144282362 
1.6099999999998391, -0.6636926299272715 
1.619999999999838, -0.6633626632883458 
1.629999999999837, -0.6630217988499946 
1.6399999999998358, -0.6626734550023993 
1.6499999999998347, -0.6623224527654741 
1.6599999999998336, -0.6619748922699757 
1.6699999999998325, -0.6616376331257809 
1.6799999999998314, -0.6613173854805829 
1.6899999999998303, -0.6610195955913893 
1.6999999999998292, -0.6607474647335031 
1.709999999999828, -0.660501448818996 
1.719999999999827, -0.6602794019791403 
1.729999999999826, -0.6600772547783708 
1.7399999999998248, -0.6598899301741301 
1.7499999999998237, -0.6597121882695973 
1.7599999999998226, -0.659539210005049 
1.7699999999998215, -0.6593668762500119 
1.7799999999998204, -0.6591917989818307 
1.7899999999998193, -0.659011199800194 
1.7999999999998182, -0.6588227275691521 
1.809999999999817, -0.6586242869596359 
1.819999999999816, -0.6584139290969488 
1.8299999999998149, -0.658189838480412 
1.8399999999998138, -0.6579504323812314 
1.8499999999998127, -0.657694562855913 
1.8599999999998116, -0.6574217753012992 
1.8699999999998105, -0.6571325419376561 
1.8799999999998094, -0.6568283770819878 
1.8899999999998083, -0.656511773505706 
1.8999999999998072, -0.6561859686478531 
1.909999999999806, -0.6558546176008033 
1.919999999999805, -0.6555214753038804 
1.9299999999998039, -0.6551901644922216 
1.9399999999998028, -0.6548640554304025 
1.9499999999998017, -0.6545462415646741 
1.9599999999998006, -0.6542395762896721 
1.9699999999997995, -0.6539467350605954 
1.9799999999997984, -0.6536702733125457 
1.9899999999997973, -0.653412657091119 
1.9999999999997962, -0.6531762479050028 
2.0099999999998173, -0.6529632265439828 
2.0199999999998384, -0.6527754437488748 
2.0299999999998595, -0.6526141907041624 
2.0399999999998806, -0.6524798927371059 
2.0499999999999017, -0.6523717500093217 
2.059999999999923, -0.6522873828627663 
2.069999999999944, -0.6522225829816363 
2.079999999999965, -0.6521713053345868 
2.089999999999986, -0.6521260239255092 
2.100000000000007, -0.6520784834393402 
2.1100000000000283, -0.6520207190606826 
2.1200000000000494, -0.651946067314155 
2.1300000000000705, -0.6518498593664915 
2.1400000000000916, -0.6517296151537126 
2.1500000000001127, -0.6515847644663841 
2.160000000000134, -0.6514160795103688 
2.170000000000155, -0.6512250404040569 
2.180000000000176, -0.651013294245179 
2.190000000000197, -0.6507822785698929 
2.2000000000002182, -0.650533013133922 
2.2100000000002393, -0.6502660348188197 
2.2200000000002604, -0.6499814499708209 
2.2300000000002815, -0.649679091293132 
2.2400000000003026, -0.6493587796250779 
2.2500000000003237, -0.6490206945324554 
2.260000000000345, -0.6486658424106598 
2.270000000000366, -0.6482965688495452 
2.280000000000387, -0.6479169938416593 
2.290000000000408, -0.6475331777554656 
2.3000000000004293, -0.6471528105918407 
2.3100000000004504, -0.6467843260515501 
2.3200000000004715, -0.6464355828274311 
2.3300000000004926, -0.6461125088278675 
2.3400000000005137, -0.6458181799881904 
2.3500000000005348, -0.6455526199055365 
2.360000000000556, -0.6453132818115848 
2.370000000000577, -0.6450959255457354 
2.380000000000598, -0.6448955468925315 
2.390000000000619, -0.6447071170151655 
2.4000000000006403, -0.6445260375539656 
2.4100000000006614, -0.6443483309399315 
2.4200000000006825, -0.6441706413671138 
2.4300000000007036, -0.6439901326260489 
2.4400000000007247, -0.6438043569298182 
2.450000000000746, -0.6436111500765853 
2.460000000000767, -0.6434085891047928 
2.470000000000788, -0.6431950281230687 
2.480000000000809, -0.6429692034305735 
2.49000000000083, -0.6427303719804748 
2.5000000000008513, -0.6424784277184762 
2.5100000000008724, -0.6422139428885444 
2.5200000000008935, -0.6419381117278531 
2.5300000000009146, -0.6416526175080979 
2.5400000000009357, -0.6413594731030787 
2.550000000000957, -0.641060883642414 
2.560000000000978, -0.6407591562317858 
2.570000000000999, -0.640456658272375 
2.58000000000102, -0.6401558155647357 
2.5900000000010412, -0.63985914109144 
2.6000000000010624, -0.6395692859821352 
2.6100000000010835, -0.6392891006432768 
2.6200000000011046, -0.6390216869262768 
2.6300000000011257, -0.6387704141090558 
2.6400000000011468, -0.6385388645858486 
2.650000000001168, -0.6383306715828113 
2.660000000001189, -0.6381492145185836 
2.67000000000121, -0.6379971541877021 
2.680000000001231, -0.6378758282426243 
2.6900000000012523, -0.6377845928717238 
2.7000000000012734, -0.6377202797405077 
2.7100000000012945, -0.6376770003306677 
2.7200000000013156, -0.6376465083938652 
2.7300000000013367, -0.6376191750257125 
2.740000000001358, -0.6375853733845884 
2.750000000001379, -0.6375368542500472 
2.7600000000014, -0.6374676790384703 
2.770000000001421, -0.6373744881026105 
2.780000000001442, -0.6372561723750148 
2.7900000000014633, -0.6371132038695746 
2.8000000000014844, -0.6369468981786819 
2.8100000000015055, -0.6367587885511807 
2.8200000000015266, -0.6365501798225779 
2.8300000000015477, -0.636321876948591 
2.840000000001569, -0.6360740559528474 
2.85000000000159, -0.6358062504794137 
2.860000000001611, -0.6355174479263719 
2.870000000001632, -0.635206312278878 
2.8800000000016532, -0.6348715644765854 
2.8900000000016743, -0.6345125405331387 
2.9000000000016954, -0.6341298956298049 
2.9100000000017165, -0.6337263234397261 
2.9200000000017377, -0.6333070457383706 
2.9300000000017588, -0.6328797811773288 
2.94000000000178, -0.632454017140401 
2.950000000001801, -0.6320396869473095 
2.960000000001822, -0.631645646823842 
2.970000000001843, -0.6312784484394713 
2.9800000000018643, -0.6309417425254131 
2.9900000000018854, -0.6306363541269022 
3.0000000000019065, -0.6303608330731735 
3.0100000000019276, -0.6301122026306359 
3.0200000000019487, -0.629886678605436 
3.03000000000197, -0.6296802315209452 
3.040000000001991, -0.6294889545471204 
3.050000000002012, -0.6293092561776437 
3.060000000002033, -0.6291379216008713 
3.070000000002054, -0.628972091374198 
3.0800000000020753, -0.6288092002855871 
3.0900000000020964, -0.6286469090212253 
3.1000000000021175, -0.6284830492064449 
3.1100000000021386, -0.628315590566833 
3.1200000000021597, -0.628142630555268 
3.130000000002181, -0.6279624053756718 
3.140000000002202, -0.6277733264979604 
3.150000000002223, -0.6275740504062737 
3.160000000002244, -0.6273635804892213 
3.1700000000022652, -0.6271413782076861 
3.1800000000022863, -0.6269074425873766 
3.1900000000023074, -0.6266623225345367 
3.2000000000023285, -0.6264070567422334 
3.2100000000023496, -0.6261430708382959 
3.2200000000023707, -0.6258720787916371 
3.230000000002392, -0.6255960293548277 
3.240000000002413, -0.6253171175493091 
3.250000000002434, -0.6250378576896918 
3.260000000002455, -0.6247611938631403 
3.2700000000024763, -0.6244906055808845 
3.2800000000024974, -0.6242301486482801 
3.2900000000025185, -0.6239843564974562 
3.3000000000025396, -0.6237579257787738 
3.3100000000025607, -0.6235551406855759 
3.3200000000025818, -0.6233790718231492 
3.330000000002603, -0.6232307141246314 
3.340000000002624, -0.6231083527450052 
3.350000000002645, -0.6230074676596634 
3.360000000002666, -0.6229213282929027 
3.3700000000026873, -0.6228421328754824 
3.3800000000027084, -0.6227622962135104 
3.3900000000027295, -0.6226754603216966 
3.4000000000027506, -0.6225769945420004 
3.4100000000027717, -0.6224640020817348 
3.420000000002793, -0.6223350027649538 
3.430000000002814, -0.6221894829379002 
3.440000000002835, -0.6220274485537529 
3.450000000002856, -0.6218490503786949 
3.460000000002877, -0.6216543033339981 
3.4700000000028983, -0.6214429004117026 
3.4800000000029194, -0.6212141192686288 
3.4900000000029405, -0.6209668284185463 
3.5000000000029616, -0.6206996116061714 
3.5100000000029827, -0.6204110332987158 
3.520000000003004, -0.620100052505972 
3.530000000003025, -0.6197665458248547 
3.540000000003046, -0.6194118285416381 
3.550000000003067, -0.6190389990624671 
3.5600000000030882, -0.6186529338753263 
3.5700000000031094, -0.6182598639479416 
3.5800000000031305, -0.6178666327390859 
3.5900000000031516, -0.6174798688470624 
3.6000000000031727, -0.6171053174269291 
3.6100000000031938, -0.6167474704911257 
3.620000000003215, -0.6164094992581899 
3.630000000003236, -0.6160934001839315 
3.640000000003257, -0.6158002431461242 
3.650000000003278, -0.6155304329954743 
3.6600000000032993, -0.6152839319131191 
3.6700000000033204, -0.6150604195259709 
3.6800000000033415, -0.6148593848024629 
3.6900000000033626, -0.6146801507253165 
3.7000000000033837, -0.6145218343065569 
3.710000000003405, -0.614383245251693 
3.720000000003426, -0.6142627306892436 
3.730000000003447, -0.6141579847727966 
3.740000000003468, -0.6140658629669591 
3.750000000003489, -0.6139822682022082 
3.7600000000035103, -0.6139021956333711 
3.7700000000035314, -0.6138200094383541 
3.7800000000035525, -0.6137299585110311 
3.7900000000035736, -0.6136268305893182 
3.8000000000035947, -0.6135065546767772 
3.810000000003616, -0.6133665585350847 
3.820000000003637, -0.6132057865483544 
3.830000000003658, -0.6130244218341266 
3.840000000003679, -0.6128234502316245 
3.8500000000037002, -0.6126042148306383 
3.8600000000037213, -0.6123680615073044 
3.8700000000037424, -0.6121161151081238 
3.8800000000037635, -0.6118491837807816 
3.8900000000037847, -0.6115677720579219 
3.9000000000038058, -0.6112721836477878 
3.910000000003827, -0.6109627014775504 
3.920000000003848, -0.6106398367628485 
3.930000000003869, -0.6103046349540777 
3.94000000000389, -0.6099590102161785 
3.9500000000039113, -0.609606049225928 
3.9600000000039324, -0.6092501831011492 
3.9700000000039535, -0.6088970930284203 
3.9800000000039746, -0.608553233769388 
3.9900000000039957, -0.608224973770436 
4.000000000004016, -0.6079175436076036 
4.010000000003993, -0.6076341385252605 
4.02000000000397, -0.6073754975106442 
4.030000000003946, -0.6071400697291603 
4.040000000003923, -0.6069246253016454 
4.0500000000039, -0.6067250330498445 
4.0600000000038765, -0.6065369541527412 
4.070000000003853, -0.606356316594554 
4.08000000000383, -0.6061795511083592 
4.090000000003807, -0.6060036392097581 
4.100000000003783, -0.6058260470805835 
4.11000000000376, -0.6056446141064307 
4.120000000003737, -0.6054574493651016 
4.130000000003713, -0.6052628723082873 
4.14000000000369, -0.6050594164589488 
4.150000000003667, -0.6048458947899539 
4.1600000000036434, -0.6046215022699604 
4.17000000000362, -0.6043859114664967 
4.180000000003597, -0.6041393138503899 
4.1900000000035735, -0.6038823814526906 
4.20000000000355, -0.603616162607768 
4.210000000003527, -0.6033419565111249 
4.220000000003504, -0.6030612126646766 
4.23000000000348, -0.6027754763326696 
4.240000000003457, -0.6024863739371457 
4.250000000003434, -0.6021956224758339 
4.26000000000341, -0.6019050538278982 
4.270000000003387, -0.6016166547376598 
4.280000000003364, -0.6013326257971936 
4.2900000000033405, -0.6010554564490362 
4.300000000003317, -0.6007880015589914 
4.310000000003294, -0.6005335319285132 
4.320000000003271, -0.6002957181294154 
4.330000000003247, -0.6000784965964655 
4.340000000003224, -0.599885764801881 
4.350000000003201, -0.5997208697041343 
4.360000000003177, -0.5995859049410983 
4.370000000003154, -0.5994809248571297 
4.380000000003131, -0.5994032978580754 
4.390000000003107, -0.5993474938323654 
4.400000000003084, -0.599305539690271 
4.410000000003061, -0.5992681424251597 
4.4200000000030375, -0.5992261660423025 
4.430000000003014, -0.5991719642419872 
4.440000000002991, -0.5991001584530908 
4.450000000002968, -0.5990077416256073 
4.460000000002944, -0.5988936687778859 
4.470000000002921, -0.5987582116898819 
4.480000000002898, -0.598602311734629 
4.490000000002874, -0.5984270562954045 
4.500000000002851, -0.5982333113749878 
4.510000000002828, -0.5980214946181329 
4.520000000002804, -0.5977914626100047 
4.530000000002781, -0.5975424978883137 
4.540000000002758, -0.5972734010071769 
4.5500000000027345, -0.5969827104024015 
4.560000000002711, -0.5966690757952383 
4.570000000002688, -0.5963317850520617 
4.580000000002665, -0.595971380301857 
4.590000000002641, -0.5955902098847516 
4.600000000002618, -0.5951926993114482 
4.610000000002595, -0.5947851580001519 
4.620000000002571, -0.5943750971775643 
4.630000000002548, -0.5939702462193364 
4.640000000002525, -0.5935775831323059 
4.6500000000025015, -0.5932026565212198 
4.660000000002478, -0.5928493149353176 
4.670000000002455, -0.5925197921439599 
4.6800000000024315, -0.5922150082776572 
4.690000000002408, -0.5919349441783527 
4.700000000002385, -0.5916789900016235 
4.710000000002362, -0.591446218583467 
4.720000000002338, -0.5912355690182636 
4.730000000002315, -0.5910459435339964 
4.740000000002292, -0.5908762262040776 
4.750000000002268, -0.5907252315921454 
4.760000000002245, -0.5905915903335546 
4.770000000002222, -0.5904735813711308 
4.7800000000021985, -0.5903689311856395 
4.790000000002175, -0.5902746212244162 
4.800000000002152, -0.5901867718653565 
4.810000000002129, -0.5901006888054299 
4.820000000002105, -0.5900111395760221 
4.830000000002082, -0.5899128559095391 
4.840000000002059, -0.5898011509287818 
4.850000000002035, -0.589672461406274 
4.860000000002012, -0.5895246380746786 
4.870000000001989, -0.5893569130436637 
4.880000000001965, -0.5891696040925948 
4.890000000001942, -0.5889636928027796 
4.900000000001919, -0.5887404118485292 
4.9100000000018955, -0.5885009259954861 
4.920000000001872, -0.5882461354360096 
