t, s[1].omega / s[0].omega 
0, -0.5199977497194477 
0.009999999999999995, -0.5197702310683974 
0.019999999999999934, -0.5195378052748174 
0.029999999999999874, -0.519300551939333 
0.04000000000000012, -0.5190586309475361 
0.050000000000000405, -0.5188123082145906 
0.06000000000000069, -0.518561965336247 
0.07000000000000098, -0.5183080907040236 
0.08000000000000126, -0.5180512608477942 
0.09000000000000155, -0.5177921248037746 
0.10000000000000184, -0.5175314011446092 
0.11000000000000212, -0.5172698904600246 
0.12000000000000241, -0.5170084987971124 
0.130000000000002, -0.5167482613812197 
0.1400000000000009, -0.516490351385352 
0.1499999999999998, -0.5162360566463068 
0.1599999999999987, -0.5159867104600927 
0.1699999999999976, -0.5157435739130076 
0.1799999999999965, -0.5155076869780235 
0.1899999999999954, -0.5152797271079291 
0.1999999999999943, -0.5150599226996286 
0.2099999999999932, -0.5148480513657978 
0.2199999999999921, -0.5146435139833356 
0.229999999999991, -0.5144454419334924 
0.2399999999999899, -0.5142527935626577 
0.2499999999999888, -0.5140644236871059 
0.2599999999999877, -0.5138791371501921 
0.2699999999999866, -0.5136957415855381 
0.2799999999999855, -0.5135131009957267 
0.2899999999999844, -0.5133301794883518 
0.2999999999999833, -0.5131460638176902 
0.3099999999999822, -0.5129599612390991 
0.3199999999999811, -0.5127711780812843 
0.32999999999998, -0.5125790898721666 
0.3399999999999789, -0.5123831152926075 
0.3499999999999778, -0.5121827047793315 
0.35999999999997667, -0.5119773509438424 
0.36999999999997557, -0.5117666219616707 
0.37999999999997447, -0.5115502107191784 
0.38999999999997337, -0.5113279836419424 
0.39999999999997227, -0.5111000083684982 
0.40999999999997117, -0.5108665441794222 
0.41999999999997006, -0.5106279944853178 
0.42999999999996896, -0.5103848394736046 
0.43999999999996786, -0.5101375766741083 
0.44999999999996676, -0.5098866902954817 
0.45999999999996566, -0.5096326520973511 
0.46999999999996456, -0.5093759410233122 
0.47999999999996346, -0.5091170654500837 
0.48999999999996235, -0.5088565792534292 
0.49999999999996125, -0.5085950926113258 
0.5099999999999602, -0.5083332836718379 
0.519999999999959, -0.5080719163481214 
0.529999999999958, -0.5078118646561547 
0.5399999999999568, -0.5075541377715019 
0.5499999999999557, -0.5072998939778067 
0.5599999999999546, -0.5070504270675065 
0.5699999999999535, -0.5068071074595129 
0.5799999999999524, -0.5065712656812822 
0.5899999999999513, -0.5063440215394606 
0.5999999999999502, -0.5061260881923743 
0.6099999999999491, -0.5059176072741629 
0.619999999999948, -0.5057180801233799 
0.6299999999999469, -0.5055264335873522 
0.6399999999999458, -0.5053412019079545 
0.6499999999999447, -0.5051607539325152 
0.6599999999999436, -0.5049834859143738 
0.6699999999999425, -0.5048079374639223 
0.6799999999999414, -0.504632836281875 
0.6899999999999403, -0.5044571010231818 
0.6999999999999392, -0.5042798269583445 
0.7099999999999381, -0.5041002643343113 
0.719999999999937, -0.5039177902265998 
0.7299999999999359, -0.5037318740794257 
0.7399999999999348, -0.50354204060154 
0.7499999999999337, -0.5033478369706506 
0.7599999999999326, -0.5031488127459001 
0.7699999999999315, -0.50294452028507 
0.7799999999999304, -0.5027345405351533 
0.7899999999999293, -0.5025185331502042 
0.7999999999999282, -0.5022963009800225 
0.8099999999999271, -0.5020678494497706 
0.819999999999926, -0.5018334167316778 
0.8299999999999249, -0.5015934570393782 
0.8399999999999238, -0.5013485777571371 
0.8499999999999227, -0.5010994527870661 
0.8599999999999216, -0.5008467452859148 
0.8699999999999205, -0.5005910649536045 
0.8799999999999194, -0.5003329645542778 
0.8899999999999183, -0.5000729624624982 
0.8999999999999172, -0.49981157310889274 
0.9099999999999161, -0.4995493338945356 
0.919999999999915, -0.49928682693934523 
0.9299999999999139, -0.49902469979292896 
0.9399999999999128, -0.4987636891047441 
0.9499999999999117, -0.4985046470326808 
0.9599999999999106, -0.49824856432241066 
0.9699999999999095, -0.49799657821997956 
0.9799999999999084, -0.4977499490961195 
0.9899999999999073, -0.4975099891180924 
0.9999999999999062, -0.4972779330912158 
1.0099999999999052, -0.49705475911840813 
1.019999999999904, -0.4968409938929286 
1.029999999999903, -0.49663656329708444 
1.039999999999902, -0.4964407530938296 
1.0499999999999008, -0.49625231066319814 
1.0599999999998997, -0.49606965667545977 
1.0699999999998986, -0.495891125116272 
1.0799999999998975, -0.4957151493424267 
1.0899999999998964, -0.4955403577966703 
1.0999999999998953, -0.49536559447511797 
1.1099999999998942, -0.495189900829678 
1.119999999999893, -0.4950124870138838 
1.129999999999892, -0.4948327025196654 
1.1399999999998909, -0.49465000571240314 
1.1499999999998898, -0.4944639308454527 
1.1599999999998887, -0.49427405475581754 
1.1699999999998876, -0.49407996900794726 
1.1799999999998865, -0.4938812649155372 
1.1899999999998854, -0.4936775382963786 
1.1999999999998843, -0.4934684176999773 
1.2099999999998832, -0.4932536136898487 
1.219999999999882, -0.4930329779604287 
1.229999999999881, -0.49280655253565425 
1.2399999999998799, -0.4925745867481998 
1.2499999999998788, -0.49233750853983044 
1.2599999999998777, -0.49209585605151707 
1.2699999999998766, -0.49185019532872254 
1.2799999999998755, -0.4916010564896469 
1.2899999999998744, -0.4913489085392885 
1.2999999999998733, -0.49109417119018206 
1.3099999999998722, -0.4908372461461233 
1.319999999999871, -0.49057854885258073 
1.32999999999987, -0.4903185310845374 
1.3399999999998689, -0.49005769543528943 
1.3499999999998678, -0.48979660808509495 
1.3599999999998666, -0.4895359152334121 
1.3699999999998655, -0.48927636374314576 
1.3799999999998644, -0.48901882055692447 
1.3899999999998633, -0.48876427998859795 
1.3999999999998622, -0.4885138443778563 
1.4099999999998611, -0.48826866389738804 
1.41999999999986, -0.48802982864678823 
1.429999999999859, -0.4877982229407191 
1.4399999999998578, -0.4875743752593271 
1.4499999999998567, -0.48735835581229925 
1.4599999999998556, -0.48714976883928635 
1.4699999999998545, -0.48694784934383 
1.4799999999998534, -0.48675162149625056 
1.4899999999998523, -0.486560047546145 
1.4999999999998512, -0.4863721160647768 
1.5099999999998501, -0.4861868674096129 
1.519999999999849, -0.4860033893586354 
1.529999999999848, -0.485820815340415 
1.5399999999998468, -0.4856383357244304 
1.5499999999998457, -0.48545521411560505 
1.5599999999998446, -0.48527079650264204 
1.5699999999998435, -0.48508450725305474 
1.5799999999998424, -0.48489583407871734 
1.5899999999998413, -0.4847043093951041 
1.5999999999998402, -0.4845094970780475 
1.6099999999998391, -0.48431099215485346 
1.619999999999838, -0.4841084369452271 
1.629999999999837, -0.48390155080689057 
1.6399999999998358, -0.4836901630190448 
1.6499999999998347, -0.4834742326549093 
1.6599999999998336, -0.48325384045332687 
1.6699999999998325, -0.48302914880364634 
1.6799999999998314, -0.4828003434184903 
1.6899999999998303, -0.48256758309764763 
1.6999999999998292, -0.48233098137287256 
1.709999999999828, -0.48209062578079853 
1.719999999999827, -0.4818466197233703 
1.729999999999826, -0.48159912287198114 
1.7399999999998248, -0.48134837280043213 
1.7499999999998237, -0.481094685084436 
1.7599999999998226, -0.4808384407199391 
1.7699999999998215, -0.48058007313554674 
1.7799999999998204, -0.48032006359590296 
1.7899999999998193, -0.4800589473790106 
1.7999999999998182, -0.47979732690569277 
1.809999999999817, -0.47953588347200354 
1.819999999999816, -0.4792753771384102 
1.8299999999998149, -0.4790166258199485 
1.8399999999998138, -0.478760461252021 
1.8499999999998127, -0.4785076713323356 
1.8599999999998116, -0.4782589506737861 
1.8699999999998105, -0.47801488350249033 
1.8799999999998094, -0.4777759655672281 
1.8899999999998083, -0.47754263969823524 
1.8999999999998072, -0.4773152991508186 
1.909999999999806, -0.4770942301139839 
1.919999999999805, -0.4768795126417932 
1.9299999999998039, -0.47667093648744707 
1.9399999999998028, -0.47646798213658437 
1.9499999999998017, -0.4762698772250603 
1.9599999999998006, -0.4760757000737102 
1.9699999999997995, -0.4758844891327983 
1.9799999999997984, -0.47569532768362777 
1.9899999999997973, -0.475507392154278 
1.9999999999997962, -0.4753199677217344 
2.0099999999998173, -0.47513244242746716 
2.0199999999998384, -0.4749442920578474 
2.0299999999998595, -0.47475506506464715 
2.0399999999998806, -0.4745643716866629 
2.0499999999999017, -0.4743718754756953 
2.059999999999923, -0.47417728043380325 
2.069999999999944, -0.47398030591069584 
2.079999999999965, -0.47378064721794877 
2.089999999999986, -0.4735779320574133 
2.100000000000007, -0.4733716944752212 
2.1100000000000283, -0.47316138854416073 
2.1200000000000494, -0.4729464480957358 
2.1300000000000705, -0.47272637434439757 
2.1400000000000916, -0.47250081695220614 
2.1500000000001127, -0.4722696175207967 
2.160000000000134, -0.4720328040629749 
2.170000000000155, -0.47179054657189906 
2.180000000000176, -0.4715430954408963 
2.190000000000197, -0.47129072388102483 
2.2000000000002182, -0.4710336876997375 
2.2100000000002393, -0.47077220710910817 
2.2200000000002604, -0.47050646928530665 
2.2300000000002815, -0.47023664806963944 
2.2400000000003026, -0.46996293798727 
2.2500000000003237, -0.46968560277214094 
2.260000000000345, -0.4694050421727777 
2.270000000000366, -0.46912188121115606 
2.280000000000387, -0.4688370771531175 
2.290000000000408, -0.46855201717367806 
2.3000000000004293, -0.46826855192983824 
2.3100000000004504, -0.4679889021099174 
2.3200000000004715, -0.4677154127511243 
2.3300000000004926, -0.4674502069708343 
2.3400000000005137, -0.46719485585175125 
2.3500000000005348, -0.4669501814380886 
2.360000000000556, -0.4667162440126276 
2.370000000000577, -0.4664924833510475 
2.380000000000598, -0.4662779370219063 
2.390000000000619, -0.46607145949197964 
2.4000000000006403, -0.4658718944003395 
2.4100000000006614, -0.4656781841307286 
2.4200000000006825, -0.4654894221002638 
2.4300000000007036, -0.4653048620574656 
2.4400000000007247, -0.4651238988335719 
2.450000000000746, -0.46494603078054153 
2.460000000000767, -0.46477080879935945 
2.470000000000788, -0.46459777284200177 
2.480000000000809, -0.4644263764444275 
2.49000000000083, -0.4642559053339914 
2.5000000000008513, -0.46408540724826947 
2.5100000000008724, -0.463913661408114 
2.5200000000008935, -0.4637392170939302 
2.5300000000009146, -0.46356051261355147 
2.5400000000009357, -0.46337605200232757 
2.550000000000957, -0.4631845858312104 
2.560000000000978, -0.46298523616232934 
2.570000000000999, -0.4627775295631159 
2.58000000000102, -0.462561340327749 
2.5900000000010412, -0.4623367756698018 
2.6000000000010624, -0.4621040434980447 
2.6100000000010835, -0.4618633349374095 
2.6200000000011046, -0.4616147390590541 
2.6300000000011257, -0.46135819551979057 
2.6400000000011468, -0.4610934856587955 
2.650000000001168, -0.4608202634474374 
2.660000000001189, -0.4605381318191754 
2.67000000000121, -0.4602467733352179 
2.680000000001231, -0.45994614123834693 
2.6900000000012523, -0.4596367009042367 
2.7000000000012734, -0.4593196789566507 
2.7100000000012945, -0.4589972368491927 
2.7200000000013156, -0.4586724655788334 
2.7300000000013367, -0.45834913309090153 
2.740000000001358, -0.4580312117450592 
2.750000000001379, -0.4577223212647909 
2.7600000000014, -0.45742526806569767 
2.770000000001421, -0.4571418115004561 
2.780000000001442, -0.45687268093995226 
2.7900000000014633, -0.456617775844265 
2.8000000000014844, -0.456376445830774 
2.8100000000015055, -0.45614776352615605 
2.8200000000015266, -0.4559307403766339 
2.8300000000015477, -0.4557244696071268 
2.840000000001569, -0.45552820082875256 
2.85000000000159, -0.45534135804474174 
2.860000000001611, -0.4551635118618191 
2.870000000001632, -0.45499431254638445 
2.8800000000016532, -0.45483338719031385 
2.8900000000016743, -0.4546802050893796 
2.9000000000016954, -0.45453392330106546 
2.9100000000017165, -0.4543932397838394 
2.9200000000017377, -0.45425629953353586 
2.9300000000017588, -0.4541207071760149 
2.94000000000178, -0.45398368208474454 
2.950000000001801, -0.4538423443581765 
2.960000000001822, -0.45369406043651034 
2.970000000001843, -0.45353674219175993 
2.9800000000018643, -0.4533690094663626 
2.9900000000018854, -0.45319018458697113 
3.0000000000019065, -0.4530001509621032 
3.0100000000019276, -0.45279914244822644 
3.0200000000019487, -0.45258752836153204 
3.03000000000197, -0.45236563604775587 
3.040000000001991, -0.4521336282736221 
3.050000000002012, -0.4518914375337322 
3.060000000002033, -0.4516387553319758 
3.070000000002054, -0.4513750779439626 
3.0800000000020753, -0.45109981555982337 
3.0900000000020964, -0.450812472628953 
3.1000000000021175, -0.45051289672927614 
3.1100000000021386, -0.45020156657961896 
3.1200000000021597, -0.44987985104051625 
3.130000000002181, -0.44955014007528044 
3.140000000002202, -0.44921575708361383 
3.150000000002223, -0.44888062842993603 
3.160000000002244, -0.4485487875248576 
3.1700000000022652, -0.4482238667174161 
3.1800000000022863, -0.44790872940771653 
3.1900000000023074, -0.447605321721647 
3.2000000000023285, -0.44731473056198956 
3.2100000000023496, -0.44703737491672174 
3.2200000000023707, -0.4467732459499307 
3.230000000002392, -0.4465221326794636 
3.240000000002413, -0.4462837998502458 
3.250000000002434, -0.44605810736940094 
3.260000000002455, -0.4458450719727833 
3.2700000000024763, -0.44564487386135987 
3.2800000000024974, -0.4454578082064026 
3.2900000000025185, -0.4452841781322575 
3.3000000000025396, -0.44512412653203304 
3.3100000000025607, -0.4449774134485763 
3.3200000000025818, -0.44484316692817255 
3.330000000002603, -0.444719665745152 
3.340000000002624, -0.44460423878812894 
3.350000000002645, -0.44449336405237494 
3.360000000002666, -0.4443829992835667 
3.3700000000026873, -0.4442690840269412 
3.3800000000027084, -0.44414806701157106 
3.3900000000027295, -0.44401729312636934 
3.4000000000027506, -0.44387514902817643 
3.4100000000027717, -0.44372097186766746 
3.420000000002793, -0.44355480534934966 
3.430000000002814, -0.4433771075221086 
3.440000000002835, -0.4431884880809863 
3.450000000002856, -0.442989512268413 
3.460000000002877, -0.4427805776968527 
3.4700000000028983, -0.4425618565139045 
3.4800000000029194, -0.4423332943435108 
3.4900000000029405, -0.4420946622636158 
3.5000000000029616, -0.44184566212006704 
3.5100000000029827, -0.44158608324417203 
3.520000000003004, -0.44131599641243763 
3.530000000003025, -0.4410359494090416 
3.540000000003046, -0.4407471068763056 
3.550000000003067, -0.4404512724459268 
3.5600000000030882, -0.44015075865998715 
3.5700000000031094, -0.43984812638114634 
3.5800000000031305, -0.43954587150803076 
3.5900000000031516, -0.4392461571920256 
3.6000000000031727, -0.4389506620490583 
3.6100000000031938, -0.4386605603940842 
3.620000000003215, -0.4383766037932707 
3.630000000003236, -0.4380992543804056 
3.640000000003257, -0.4378288268233438 
3.650000000003278, -0.4375656130600768 
3.6600000000032993, -0.4373099791908113 
3.6700000000033204, -0.4370624317605718 
3.6800000000033415, -0.43682365139946067 
3.6900000000033626, -0.4365944881113214 
3.7000000000033837, -0.4363759076692607 
3.710000000003405, -0.4361688763352805 
3.720000000003426, -0.43597417623712137 
3.730000000003447, -0.4357921613010148 
3.740000000003468, -0.4356224953365556 
3.750000000003489, -0.43546395110445635 
3.7600000000035103, -0.43531436834771575 
3.7700000000035314, -0.43517083984261384 
3.7800000000035525, -0.4350301089431604 
3.7900000000035736, -0.4348890590583191 
3.8000000000035947, -0.43474512629472956 
3.810000000003616, -0.43459651177577563 
3.820000000003637, -0.43444217546619324 
3.830000000003658, -0.434281682144534 
3.840000000003679, -0.4341149959195172 
3.8500000000037002, -0.43394229341396046 
3.8600000000037213, -0.43376382512327183 
3.8700000000037424, -0.43357982600592065 
3.8800000000037635, -0.4333904654128446 
3.8900000000037847, -0.4331958268281418 
3.9000000000038058, -0.43299591219856753 
3.910000000003827, -0.43279066913615816 
3.920000000003848, -0.43258003952951907 
3.930000000003869, -0.43236402400942353 
3.94000000000389, -0.43214274884283804 
3.9500000000039113, -0.4319165135986428 
3.9600000000039324, -0.43168579588462486 
3.9700000000039535, -0.4314512000674459 
3.9800000000039746, -0.4312133599513315 
3.9900000000039957, -0.430972829675182 
4.000000000004016, -0.43073000575588766 
4.010000000003993, -0.43048510787150757 
4.02000000000397, -0.4302382159795952 
4.030000000003946, -0.4299893367872948 
4.040000000003923, -0.42973846728393406 
4.0500000000039, -0.429485635101204 
4.0600000000038765, -0.42923091267820446 
4.070000000003853, -0.4289744137641634 
4.08000000000383, -0.4287162834660174 
4.090000000003807, -0.4284566895702448 
4.100000000003783, -0.42819581747116564 
4.11000000000376, -0.42793386675248896 
4.120000000003737, -0.4276710459246826 
4.130000000003713, -0.427407564043871 
4.14000000000369, -0.42714362445795195 
4.150000000003667, -0.4268794352181736 
4.1600000000036434, -0.4266152565308731 
4.17000000000362, -0.42635149690518304 
4.180000000003597, -0.4260888384810128 
4.1900000000035735, -0.4258283295032239 
4.20000000000355, -0.42557136393887485 
4.210000000003527, -0.425319508535601 
4.220000000003504, -0.42507422303374554 
4.23000000000348, -0.4248365863838381 
4.240000000003457, -0.424607136799194 
4.250000000003434, -0.42438586626813707 
4.26000000000341, -0.42417233702940366 
4.270000000003387, -0.4239658525985891 
4.280000000003364, -0.42376562262512724 
4.2900000000033405, -0.42357088742671734 
4.300000000003317, -0.42338099341727886 
4.310000000003294, -0.42319542555046913 
4.320000000003271, -0.42301380750272316 
4.330000000003247, -0.4228358783523043 
4.340000000003224, -0.4226614497255059 
4.350000000003201, -0.42249034282236647 
4.360000000003177, -0.4223223033392382 
4.370000000003154, -0.4221568970809872 
4.380000000003131, -0.42199340145255276 
4.390000000003107, -0.421830724537417 
4.400000000003084, -0.4216673934732612 
4.410000000003061, -0.42150164372694465 
4.4200000000030375, -0.4213316059322546 
4.430000000003014, -0.42115554168183894 
4.440000000002991, -0.42097205227488044 
4.450000000002968, -0.42078019470491207 
4.460000000002944, -0.4205794804523193 
4.470000000002921, -0.42036977787751173 
4.480000000002898, -0.4201511641106124 
4.490000000002874, -0.41992377209729914 
4.500000000002851, -0.4196876633675627 
4.510000000002828, -0.4194427406834893 
4.520000000002804, -0.41918870499725075 
4.530000000002781, -0.41892505954567116 
4.540000000002758, -0.41865116778503114 
4.5500000000027345, -0.41836637641238433 
4.560000000002711, -0.418070213268274 
4.570000000002688, -0.41776265464352075 
4.580000000002665, -0.41744442271402404 
4.590000000002641, -0.41711722908807314 
4.600000000002618, -0.41678385198595225 
4.610000000002595, -0.4164479592218041 
4.620000000002571, -0.41611367959029666 
4.630000000002548, -0.41578504029049956 
4.640000000002525, -0.415465452288667 
4.6500000000025015, -0.4151573945197886 
4.660000000002478, -0.4148623487524256 
4.670000000002455, -0.4145809386329547 
4.6800000000024315, -0.4143131782437888 
4.690000000002408, -0.41405874039521223 
4.700000000002385, -0.4138171870051002 
4.710000000002362, -0.4135881371459412 
4.720000000002338, -0.41337136969035504 
4.730000000002315, -0.41316686570390526 
4.740000000002292, -0.41297479495324574 
4.750000000002268, -0.41279544626259446 
4.760000000002245, -0.41262909781681173 
4.770000000002222, -0.41247582575204866 
4.7800000000021985, -0.41233526227440453 
4.790000000002175, -0.41220634035532183 
4.800000000002152, -0.41208709515851727 
4.810000000002129, -0.41197461432422766 
4.820000000002105, -0.4118652128763035 
4.830000000002082, -0.41175483823560083 
4.840000000002059, -0.4116396090389881 
4.850000000002035, -0.41151631898787666 
4.860000000002012, -0.4113827484135659 
4.870000000001989, -0.4112377172388532 
