t, s[1].omega / s[0].omega 
0, -3.8499939741298057 
0.009999999999999995, -3.8493235638603442 
0.019999999999999934, -3.8485510145233954 
0.029999999999999874, -3.847842486762624 
0.04000000000000012, -3.8473346658046585 
0.050000000000000405, -3.846858043824656 
0.06000000000000069, -3.8462887367080305 
0.07000000000000098, -3.845637679365911 
0.08000000000000126, -3.8449701837763754 
0.09000000000000155, -3.844365952675294 
0.10000000000000184, -3.8438166250594237 
0.11000000000000212, -3.843236889872208 
0.12000000000000241, -3.842594110323187 
0.130000000000002, -3.8419445774771708 
0.1400000000000009, -3.841377196453707 
0.1499999999999998, -3.840860972375812 
0.1599999999999987, -3.84030135180274 
0.1699999999999976, -3.839642605254739 
0.1799999999999965, -3.838891671414404 
0.1899999999999954, -3.838214422783092 
0.1999999999999943, -3.8377562831440764 
0.2099999999999932, -3.8373262616634007 
0.2199999999999921, -3.836778051670926 
0.229999999999991, -3.8360991240210582 
0.2399999999999899, -3.835339076413652 
0.2499999999999888, -3.834665111036782 
0.2599999999999877, -3.8341611187663176 
0.2699999999999866, -3.8336614334877943 
0.2799999999999855, -3.8330751585839073 
0.2899999999999844, -3.832424554383791 
0.2999999999999833, -3.83177924517153 
0.3099999999999822, -3.8311978855175077 
0.3199999999999811, -3.830647408130845 
0.32999999999998, -3.830052000789242 
0.3399999999999789, -3.829394339584509 
0.3499999999999778, -3.828750866217711 
0.35999999999997667, -3.828211979981525 
0.36999999999997557, -3.8277135442944035 
0.37999999999997447, -3.827151757458328 
0.38999999999997337, -3.8264780353215793 
0.39999999999997227, -3.8257101512030083 
0.40999999999997117, -3.8250370376700125 
0.41999999999997006, -3.82459282491918 
0.42999999999996896, -3.8241633264890966 
0.43999999999996786, -3.8236118064959848 
0.44999999999996676, -3.822937413425211 
0.45999999999996566, -3.822198799949104 
0.46999999999996456, -3.821546971499594 
0.47999999999996346, -3.821034937359395 
0.48999999999996235, -3.8205168477526916 
0.49999999999996125, -3.8199207777123902 
0.5099999999999602, -3.819274894731741 
0.519999999999959, -3.8186499834402654 
0.529999999999958, -3.8180851107512197 
0.5399999999999568, -3.817533234519497 
0.5499999999999557, -3.816926279761635 
0.5599999999999546, -3.8162545525977514 
0.5699999999999535, -3.8156114326293062 
0.5799999999999524, -3.815096165304124 
0.5899999999999513, -3.814618353245167 
0.5999999999999502, -3.8140628822528604 
0.6099999999999491, -3.8133859581587495 
0.619999999999948, -3.8126085217532166 
0.6299999999999469, -3.8119226825427424 
0.6399999999999458, -3.81147177812649 
0.6499999999999447, -3.8110422432758098 
0.6599999999999436, -3.8104953047913477 
0.6699999999999425, -3.809834922525525 
0.6799999999999414, -3.8091212280251563 
0.6899999999999403, -3.8084820088063522 
0.6999999999999392, -3.80795755338398 
0.7099999999999381, -3.8074261277170485 
0.719999999999937, -3.806824774022733 
0.7299999999999359, -3.8061836424413458 
0.7399999999999348, -3.805575255387133 
0.7499999999999337, -3.805024593203376 
0.7599999999999326, -3.8044750713174955 
0.7699999999999315, -3.80386208741601 
0.7799999999999304, -3.8031758729438714 
0.7899999999999293, -3.8025202474921778 
0.7999999999999282, -3.8020192484780635 
0.8099999999999271, -3.801567360444454 
0.819999999999926, -3.801029781247935 
0.8299999999999249, -3.8003647181428426 
0.8399999999999238, -3.7995902136925856 
0.8499999999999227, -3.7988791133713837 
0.8599999999999216, -3.798399536746475 
0.8699999999999205, -3.797966983493609 
0.8799999999999194, -3.7974299265088356 
0.8899999999999183, -3.796788718641615 
0.8999999999999172, -3.7961001698692782 
0.9099999999999161, -3.7954687769653837 
0.919999999999915, -3.794931789619916 
0.9299999999999139, -3.7943915914383006 
0.9399999999999128, -3.7937875728503485 
0.9499999999999117, -3.7931477778988176 
0.9599999999999106, -3.792550222205617 
0.9699999999999095, -3.7920145703400685 
0.9799999999999084, -3.791474356698921 
0.9899999999999073, -3.7908635827224026 
0.9999999999999062, -3.790165234145769 
1.0099999999999052, -3.7894793220099174 
1.019999999999904, -3.7889723897981424 
1.029999999999903, -3.788549449523015 
1.039999999999902, -3.788042360150436 
1.0499999999999008, -3.787405026155107 
1.0599999999998997, -3.7866513256613863 
1.0699999999998986, -3.7859163586806615 
1.0799999999998975, -3.785388041846649 
1.0899999999998964, -3.784944730940534 
1.0999999999998953, -3.784419561625794 
1.1099999999998942, -3.783798908632902 
1.119999999999893, -3.7831335969950004 
1.129999999999892, -3.7825090739578435 
1.1399999999998909, -3.781962074856229 
1.1499999999998898, -3.781417416078169 
1.1599999999998887, -3.780812959878605 
1.1699999999998876, -3.7801688290794884 
1.1799999999998865, -3.7795724558885744 
1.1899999999998854, -3.7790531309058943 
1.1999999999998843, -3.7785321019785343 
1.2099999999998832, -3.7779357338887514 
1.219999999999882, -3.777235853389412 
1.229999999999881, -3.776507040826862 
1.2399999999998799, -3.775957074523938 
1.2499999999998788, -3.7755540834066323 
1.2599999999998777, -3.7750876570622856 
1.2699999999998766, -3.7744912903501464 
1.2799999999998755, -3.7737763781480673 
1.2899999999998744, -3.773035580522317 
1.2999999999998733, -3.772449051594517 
1.3099999999998722, -3.7719822796034235 
1.319999999999871, -3.7714675002271796 
1.32999999999987, -3.7708662707480882 
1.3399999999998689, -3.770220312733705 
1.3499999999998678, -3.769603125320768 
1.3599999999998666, -3.769050604295578 
1.3699999999998655, -3.7685063328422195 
1.3799999999998644, -3.767905351485479 
1.3899999999998633, -3.7672520042019224 
1.3999999999998622, -3.766639969394359 
1.4099999999998611, -3.7661327636943662 
1.41999999999986, -3.765642554758988 
1.429999999999859, -3.7650766511858116 
1.4399999999998578, -3.7643961571045104 
1.4499999999998567, -3.76363520934211 
1.4599999999998556, -3.762998617077886 
1.4699999999998545, -3.7625794994951365 
1.4799999999998534, -3.762154731036914 
1.4899999999998523, -3.7616074566023725 
1.4999999999998512, -3.7609427267670803 
1.5099999999998501, -3.7602213456893545 
1.519999999999849, -3.7595863174418627 
1.529999999999848, -3.7590823422311446 
1.5399999999998468, -3.7585728626148223 
1.5499999999998457, -3.757988981593827 
1.5599999999998446, -3.7573568321243207 
1.5699999999998435, -3.756745317918208 
1.5799999999998424, -3.756192702997904 
1.5899999999998413, -3.7556550957337196 
1.5999999999998402, -3.7550650938119796 
1.6099999999998391, -3.75440473062149 
1.619999999999838, -3.753754809041159 
1.629999999999837, -3.7532374859737887 
1.6399999999998358, -3.7527858538747365 
1.6499999999998347, -3.7522686494501523 
1.6599999999998336, -3.7516331182516347 
1.6699999999998325, -3.7508806215530752 
1.6799999999998314, -3.7501497007954043 
1.6899999999998303, -3.7496485030269797 
1.6999999999998292, -3.7492437749052443 
1.709999999999828, -3.7487465941889946 
1.719999999999827, -3.748134900148922 
1.729999999999826, -3.747450995154871 
1.7399999999998248, -3.7467936945276437 
1.7499999999998237, -3.7462463959827956 
1.7599999999998226, -3.745734022910291 
1.7699999999998215, -3.745165828525278 
1.7799999999998204, -3.7445423317365076 
1.7899999999998193, -3.743928940427226 
1.7999999999998182, -3.7433787471888813 
1.809999999999817, -3.7428558195847126 
1.819999999999816, -3.742288409952671 
1.8299999999998149, -3.741636415464859 
1.8399999999998138, -3.7409394103860096 
1.8499999999998127, -3.740360458759561 
1.8599999999998116, -3.739931724501637 
1.8699999999998105, -3.7394790513996354 
1.8799999999998094, -3.7389105254861787 
1.8899999999998083, -3.738213003936617 
1.8999999999998072, -3.7374469086098445 
1.909999999999806, -3.7368176413723275 
1.919999999999805, -3.7363759092871676 
1.9299999999998039, -3.7359167394803903 
1.9399999999998028, -3.7353549712880407 
1.9499999999998017, -3.734713487126082 
1.9599999999998006, -3.7340605272282845 
1.9699999999997995, -3.733478612617806 
1.9799999999997984, -3.732954927032381 
1.9899999999997973, -3.7324015975052722 
1.9999999999997962, -3.731786466863933 
2.0099999999998173, -3.7311584605531207 
2.0199999999998384, -3.73060063057117 
2.0299999999998595, -3.7300990157937806 
2.0399999999998806, -3.7295688817054673 
2.0499999999999017, -3.7289512523332307 
2.059999999999923, -3.728237656015055 
2.069999999999944, -3.727549333016546 
2.079999999999965, -3.7270680606447657 
2.089999999999986, -3.7266737774126946 
2.100000000000007, -3.726187121220952 
2.1100000000000283, -3.7255709869628695 
2.1200000000000494, -3.7248478061192385 
2.1300000000000705, -3.724134281202904 
2.1400000000000916, -3.7235913848867925 
2.1500000000001127, -3.7231340621057463 
2.160000000000134, -3.722613882441768 
2.170000000000155, -3.722011799422634 
2.180000000000176, -3.7213756064210677 
2.190000000000197, -3.720777011726059 
2.2000000000002182, -3.720239271108723 
2.2100000000002393, -3.7197003679757126 
2.2200000000002604, -3.7191017742850763 
2.2300000000002815, -3.7184546504788885 
2.2400000000003026, -3.7178571386969437 
2.2500000000003237, -3.717365924657608 
2.260000000000345, -3.716887537411811 
2.270000000000366, -3.716331081958857 
2.280000000000387, -3.7156594731604455 
2.290000000000408, -3.7149045135982015 
2.3000000000004293, -3.71426463474385 
2.3100000000004504, -3.713847173872009 
2.3200000000004715, -3.713437508972087 
2.3300000000004926, -3.7129100395146772 
2.3400000000005137, -3.7122669105974744 
2.3500000000005348, -3.711561896575019 
2.360000000000556, -3.71092357096661 
2.370000000000577, -3.7104146718503395 
2.380000000000598, -3.709916616351819 
2.390000000000619, -3.7093499041772793 
2.4000000000006403, -3.7087306525099635 
2.4100000000006614, -3.708124597105111 
2.4200000000006825, -3.7075770181125085 
2.4300000000007036, -3.7070531530719975 
2.4400000000007247, -3.7064848254771676 
2.450000000000746, -3.70584071177253 
2.460000000000767, -3.7051759193313494 
2.470000000000788, -3.704632693764623 
2.480000000000809, -3.7041989783595985 
2.49000000000083, -3.7037259388717247 
2.5000000000008513, -3.703140921469802 
2.5100000000008724, -3.7024304126491656 
2.5200000000008935, -3.7016711512252902 
2.5300000000009146, -3.70108495685391 
2.5400000000009357, -3.700676190784349 
2.550000000000957, -3.7002270446273555 
2.560000000000978, -3.6996664891108764 
2.570000000000999, -3.6990198539704706 
2.58000000000102, -3.6983585827848318 
2.5900000000010412, -3.697778897785033 
2.6000000000010624, -3.697269444402835 
2.6100000000010835, -3.696732242958908 
2.6200000000011046, -3.6961323146700686 
2.6300000000011257, -3.6955128666563333 
2.6400000000011468, -3.6949496073691583 
2.650000000001168, -3.6944417060734316 
2.660000000001189, -3.6939168064002486 
2.67000000000121, -3.6933152495548507 
2.680000000001231, -3.692625293428564 
2.6900000000012523, -3.6919518982181168 
2.7000000000012734, -3.6914645143848857 
2.7100000000012945, -3.691069390736897 
2.7200000000013156, -3.6905938671205 
2.7300000000013367, -3.6899911309225764 
2.740000000001358, -3.6892727181709253 
2.750000000001379, -3.6885443798254443 
2.7600000000014, -3.687991641545824 
2.770000000001421, -3.68755583489789 
2.780000000001442, -3.6870646270442284 
2.7900000000014633, -3.6864823377155 
2.8000000000014844, -3.685847918254759 
2.8100000000015055, -3.6852341235242947 
2.8200000000015266, -3.684689810898604 
2.8300000000015477, -3.6841680858094947 
2.840000000001569, -3.6835978918338084 
2.85000000000159, -3.682970687640618 
2.860000000001611, -3.6823599690222695 
2.870000000001632, -3.6818447135466905 
2.8800000000016532, -3.6813705496069344 
2.8900000000016743, -3.6808429100283595 
2.9000000000016954, -3.6802123815569785 
2.9100000000017165, -3.679482272489431 
2.9200000000017377, -3.678799633300129 
2.9300000000017588, -3.6783432406178447 
2.94000000000178, -3.6779616996579314 
2.950000000001801, -3.6774804541820756 
2.960000000001822, -3.676875205979637 
2.970000000001843, -3.6761783419346097 
2.9800000000018643, -3.6754976912391535 
2.9900000000018854, -3.674958700186945 
3.0000000000019065, -3.6744871875984915 
3.0100000000019276, -3.6739612158512522 
3.0200000000019487, -3.673365310514943 
3.03000000000197, -3.6727489727470504 
3.040000000001991, -3.6721771376318104 
3.050000000002012, -3.6716552169450325 
3.060000000002033, -3.6711214097796137 
3.070000000002054, -3.670522020590826 
3.0800000000020753, -3.669865007566796 
3.0900000000020964, -3.6692605247318655 
3.1000000000021175, -3.668793463076527 
3.1100000000021386, -3.6683546860134855 
3.1200000000021597, -3.6678326591276544 
3.130000000002181, -3.6671896156340127 
3.140000000002202, -3.6664410260605345 
3.150000000002223, -3.6657471714571144 
3.160000000002244, -3.665282209199188 
3.1700000000022652, -3.6648866016380524 
3.1800000000022863, -3.664395904821228 
3.1900000000023074, -3.6637975438384887 
3.2000000000023285, -3.6631352222505447 
3.2100000000023496, -3.6625011223909523 
3.2200000000023707, -3.6619674124191945 
3.230000000002392, -3.6614665983994614 
3.240000000002413, -3.660913945141605 
3.250000000002434, -3.6603062834562636 
3.260000000002455, -3.659706301050309 
3.2700000000024763, -3.6591723120768416 
3.2800000000024974, -3.6586721367122514 
3.2900000000025185, -3.6581331019308556 
3.3000000000025396, -3.657508911118959 
3.3100000000025607, -3.656814419987408 
3.3200000000025818, -3.656196119012616 
3.330000000002603, -3.65576422192077 
3.340000000002624, -3.6553627439995564 
3.350000000002645, -3.654859017486094 
3.360000000002666, -3.6542282204102974 
3.3700000000026873, -3.653496366637172 
3.3800000000027084, -3.6528037311551182 
3.3900000000027295, -3.652303837645493 
3.4000000000027506, -3.651874145047831 
3.4100000000027717, -3.651369744961844 
3.420000000002793, -3.6507788752265062 
3.430000000002814, -3.6501485866393906 
3.440000000002835, -3.649552828348148 
3.450000000002856, -3.6490251052876586 
3.460000000002877, -3.648505867984086 
3.4700000000028983, -3.6479320343117543 
3.4800000000029194, -3.6473071764692238 
3.4900000000029405, -3.6467136433393152 
3.5000000000029616, -3.646216652356331 
3.5100000000029827, -3.645748109175355 
3.520000000003004, -3.6452183632119968 
3.530000000003025, -3.6445834126850025 
3.540000000003046, -3.643854221021909 
3.550000000003067, -3.643189716523876 
3.5600000000030882, -3.642751702799714 
3.5700000000031094, -3.642374570120353 
3.5800000000031305, -3.6418949469997366 
3.5900000000031516, -3.641293705606747 
3.6000000000031727, -3.640604936511187 
3.6100000000031938, -3.6399349964951915 
3.620000000003215, -3.639402346831345 
3.630000000003236, -3.6389346175998107 
3.640000000003257, -3.6384143644870486 
3.650000000003278, -3.6378256871650843 
3.6600000000032993, -3.63721686065429 
3.6700000000033204, -3.6366521764378525 
3.6800000000033415, -3.6361374675577047 
3.6900000000033626, -3.6356126525010217 
3.7000000000033837, -3.6350230721144134 
3.710000000003405, -3.6343704093672486 
3.720000000003426, -3.6337583541111256 
3.730000000003447, -3.6332901762989662 
3.740000000003468, -3.6328682697136805 
3.750000000003489, -3.6323698284539496 
3.7600000000035103, -3.631752205008765 
3.7700000000035314, -3.631021119549017 
3.7800000000035525, -3.630305558864374 
3.7900000000035736, -3.6298050936708726 
3.8000000000035947, -3.629416080393137 
3.810000000003616, -3.6289516174846703 
3.820000000003637, -3.6283801121873878 
3.830000000003658, -3.627737233189695 
3.840000000003679, -3.6271016984037017 
3.8500000000037002, -3.6265546398442843 
3.8600000000037213, -3.6260585594345516 
3.8700000000037424, -3.625523800799878 
3.8800000000037635, -3.624929258440377 
3.8900000000037847, -3.6243257469850874 
3.9000000000038058, -3.6237857222216325 
3.910000000003827, -3.623296737097573 
3.920000000003848, -3.6227843144197087 
3.930000000003869, -3.6221922433868996 
3.94000000000389, -3.621509756693194 
3.9500000000039113, -3.6208393707617126 
3.9600000000039324, -3.6203570784485786 
3.9700000000039535, -3.61998188161307 
3.9800000000039746, -3.619533872192032 
3.9900000000039957, -3.6189613992862255 
4.000000000004016, -3.618273953034899 
4.010000000003993, -3.6175548909770376 
4.02000000000397, -3.6169786287584103 
4.030000000003946, -3.6165397716113326 
4.040000000003923, -3.616072194231659 
4.0500000000039, -3.6155190477611328 
4.0600000000038765, -3.6149082483634793 
4.070000000003853, -3.614304451254314 
4.08000000000383, -3.6137614968829097 
4.090000000003807, -3.6132537530789035 
4.100000000003783, -3.6127106259038 
4.11000000000376, -3.6121033083934164 
4.120000000003737, -3.61148044604728 
4.130000000003713, -3.610947624642022 
4.14000000000369, -3.6104986338329006 
4.150000000003667, -3.6100248675763225 
4.1600000000036434, -3.609457956907942 
4.17000000000362, -3.6087753547304544 
4.180000000003597, -3.608039066678196 
4.1900000000035735, -3.60746213751914 
4.20000000000355, -3.6070811476801588 
4.210000000003527, -3.606678033159799 
4.220000000003504, -3.606158337077202 
4.23000000000348, -3.6055326422145932 
4.240000000003457, -3.604856935427956 
4.250000000003434, -3.604247117619825 
4.26000000000341, -3.6037523769123125 
4.270000000003387, -3.6032680794736565 
4.280000000003364, -3.6027207926774807 
4.2900000000033405, -3.6021227221456513 
4.300000000003317, -3.601537082754389 
4.310000000003294, -3.6010108942359684 
4.320000000003271, -3.600512700944736 
4.330000000003247, -3.5999758615511688 
4.340000000003224, -3.599360332147177 
4.350000000003201, -3.5986928050968294 
4.360000000003177, -3.5981145658632356 
4.370000000003154, -3.597694970664874 
4.380000000003131, -3.597286493879279 
4.390000000003107, -3.5967789206211327 
4.400000000003084, -3.596147113194296 
4.410000000003061, -3.5954152809030284 
4.4200000000030375, -3.5947323681476058 
4.430000000003014, -3.5942557134605706 
4.440000000002991, -3.5938516948482806 
4.450000000002968, -3.593368650539579 
4.460000000002944, -3.592792385554856 
4.470000000002921, -3.592165695697095 
4.480000000002898, -3.5915640334728414 
4.490000000002874, -3.5910383397466967 
4.500000000002851, -3.590538034278702 
4.510000000002828, -3.5899909850343845 
4.520000000002804, -3.5893881122307754 
4.530000000002781, -3.588793568434943 
4.540000000002758, -3.588282528517225 
4.5500000000027345, -3.5878186869424047 
4.560000000002711, -3.5873154321409815 
4.570000000002688, -3.58672011819255 
4.580000000002665, -3.586024291951433 
4.590000000002641, -3.585337008295241 
4.600000000002618, -3.5848539305851235 
4.610000000002595, -3.584494836853102 
4.620000000002571, -3.5840642232969437 
4.630000000002548, -3.583510815169741 
4.640000000002525, -3.582851173667984 
4.6500000000025015, -3.5821594942689203 
4.660000000002478, -3.5815791328348645 
4.670000000002455, -3.5811197270147437 
4.6800000000024315, -3.580644708744103 
4.690000000002408, -3.5800961366821973 
4.700000000002385, -3.5794984162691654 
4.710000000002362, -3.578914627864819 
4.720000000002338, -3.5783878173088888 
4.730000000002315, -3.5778874293528333 
4.740000000002292, -3.577348215815781 
4.750000000002268, -3.5767376853058352 
4.760000000002245, -3.5760974254359326 
4.770000000002222, -3.575555860414115 
4.7800000000021985, -3.575134568451677 
4.790000000002175, -3.5747009225747624 
4.800000000002152, -3.57417006627493 
4.810000000002129, -3.573517853711838 
4.820000000002105, -3.572778363692278 
4.830000000002082, -3.572131164274405 
4.840000000002059, -3.571702770713985 
4.850000000002035, -3.5713145107518898 
4.860000000002012, -3.570830009021754 
4.870000000001989, -3.570245858724058 
4.880000000001965, -3.569607057804313 
4.890000000001942, -3.5689987340139333 
4.900000000001919, -3.5684809747333817 
4.9100000000018955, -3.5679928678522908 
4.920000000001872, -3.567456432119571 
4.930000000001849, -3.566865039668253 
4.940000000001826, -3.5662780805695165 
4.950000000001802, -3.5657607571488312 
4.960000000001779, -3.5652863017258882 
4.970000000001756, -3.5647797227602886 
