t, s[1].omega / s[0].omega 
0, -3.5749945058046726 
0.009999999999999995, -3.574405842585734 
0.019999999999999934, -3.5737600149349453 
0.029999999999999874, -3.573137671657365 
0.04000000000000012, -3.5726188818013314 
0.050000000000000405, -3.5721487708463315 
0.06000000000000069, -3.5716415606302983 
0.07000000000000098, -3.5710793692376703 
0.08000000000000126, -3.570488120828206 
0.09000000000000155, -3.569915078033855 
0.10000000000000184, -3.569386542779622 
0.11000000000000212, -3.5688719050847206 
0.12000000000000241, -3.568326748222565 
0.130000000000002, -3.567741594861734 
0.1400000000000009, -3.567155865396187 
0.1499999999999998, -3.566628009166487 
0.1599999999999987, -3.56614555328649 
0.1699999999999976, -3.5656444092956705 
0.1799999999999965, -3.5650827998568304 
0.1899999999999954, -3.5644535783682954 
0.1999999999999943, -3.563810009987937 
0.2099999999999932, -3.5632654530905974 
0.2199999999999921, -3.562819579204761 
0.229999999999991, -3.5623582574128276 
0.2399999999999899, -3.5618266777807164 
0.2499999999999888, -3.561229667707857 
0.2599999999999877, -3.5606086030934376 
0.2699999999999866, -3.5600354328153734 
0.2799999999999855, -3.5595302105843984 
0.2899999999999844, -3.559029256457859 
0.2999999999999833, -3.5584873059220263 
0.3099999999999822, -3.5579106578270787 
0.3199999999999811, -3.55734005044352 
0.32999999999998, -3.5568098451197656 
0.3399999999999789, -3.5563031762612334 
0.3499999999999778, -3.555774882605585 
0.35999999999997667, -3.555196751763254 
0.36999999999997557, -3.554582022432958 
0.37999999999997447, -3.554006309120608 
0.38999999999997337, -3.5535254771183156 
0.39999999999997227, -3.5530728926417887 
0.40999999999997117, -3.552569672963807 
0.41999999999997006, -3.5519900933762947 
0.42999999999996896, -3.551347565053066 
0.43999999999996786, -3.550717838719889 
0.44999999999996676, -3.5501951386541855 
0.45999999999996566, -3.549737113704206 
0.46999999999996456, -3.5492470883969403 
0.47999999999996346, -3.5486974248918193 
0.48999999999996235, -3.5481083143926413 
0.49999999999996125, -3.547526326775363 
0.5099999999999602, -3.5469910372865576 
0.519999999999959, -3.5464835354039748 
0.529999999999958, -3.5459545066746068 
0.5399999999999568, -3.545384811496598 
0.5499999999999557, -3.544801398907444 
0.5599999999999546, -3.5442604606239954 
0.5699999999999535, -3.5437703327880485 
0.5799999999999524, -3.5432774255425863 
0.5899999999999513, -3.542734648610587 
0.5999999999999502, -3.5421258111488205 
0.6099999999999491, -3.5414851906778955 
0.619999999999948, -3.5409190054000184 
0.6299999999999469, -3.5404657236001595 
0.6399999999999458, -3.5400216424362414 
0.6499999999999447, -3.5395127613089956 
0.6599999999999436, -3.5389316320524293 
0.6699999999999425, -3.5383082724196506 
0.6799999999999414, -3.5377141934174015 
0.6899999999999403, -3.5371999443141973 
0.6999999999999392, -3.536714397214039 
0.7099999999999381, -3.5361945153639014 
0.719999999999937, -3.535631380912187 
0.7299999999999359, -3.5350560099094297 
0.7399999999999348, -3.5345111146087667 
0.7499999999999337, -3.5340019445705635 
0.7599999999999326, -3.5334896223658157 
0.7699999999999315, -3.532936657632156 
0.7799999999999304, -3.5323385787783637 
0.7899999999999293, -3.5317466258282244 
0.7999999999999282, -3.531236381997796 
0.8099999999999271, -3.530784268190449 
0.819999999999926, -3.5303059247517234 
0.8299999999999249, -3.5297580324798075 
0.8399999999999238, -3.529137242858828 
0.8499999999999227, -3.528491404711582 
0.8599999999999216, -3.5279277550765817 
0.8699999999999205, -3.527466297653296 
0.8799999999999194, -3.5270050866648033 
0.8899999999999183, -3.5264854515959825 
0.8999999999999172, -3.525911423710317 
0.9099999999999161, -3.525319710526032 
0.919999999999915, -3.5247623713347176 
0.9299999999999139, -3.524252639353807 
0.9399999999999128, -3.5237448884948366 
0.9499999999999117, -3.5232005464529124 
0.9599999999999106, -3.522623843163037 
0.9699999999999095, -3.522060640493933 
0.9799999999999084, -3.5215507982493106 
0.9899999999999073, -3.5210672478496585 
0.9999999999999062, -3.5205559356644622 
1.0099999999999052, -3.5199849998153696 
1.019999999999904, -3.5193580052132902 
1.029999999999903, -3.5187468742709385 
1.039999999999902, -3.518248248615523 
1.0499999999999008, -3.517818073667576 
1.0599999999998997, -3.517351257656737 
1.0699999999998986, -3.5168104522248242 
1.0799999999998975, -3.516205241272398 
1.0899999999998964, -3.5155849252661873 
1.0999999999998953, -3.515029094807064 
1.1099999999998942, -3.5145441973092453 
1.119999999999893, -3.5140554539300077 
1.129999999999892, -3.513521448210157 
1.1399999999998909, -3.512952060492796 
1.1499999999998898, -3.512387242220948 
1.1599999999998887, -3.511860838501247 
1.1699999999998876, -3.5113592230345887 
1.1799999999998865, -3.5108390365858346 
1.1899999999998854, -3.5102729541416027 
1.1999999999998843, -3.509674373002082 
1.2099999999998832, -3.509111949958263 
1.219999999999882, -3.508634224105915 
1.229999999999881, -3.5081828509211137 
1.2399999999998799, -3.5076854706607703 
1.2499999999998788, -3.5071146289609496 
1.2599999999998777, -3.5064796991589504 
1.2699999999998766, -3.505853035600375 
1.2799999999998755, -3.5053348263265343 
1.2899999999998744, -3.504891088034532 
1.2999999999998733, -3.504419576375818 
1.3099999999998722, -3.503885550672097 
1.319999999999871, -3.5033043161885997 
1.32999999999987, -3.5027198043777488 
1.3399999999998689, -3.5021807474391182 
1.3499999999998678, -3.5016816917998432 
1.3599999999998666, -3.501171369795916 
1.3699999999998655, -3.500621388550872 
1.3799999999998644, -3.500047296713362 
1.3899999999998633, -3.4994994582410563 
1.3999999999998622, -3.4990035690560566 
1.4099999999998611, -3.49852103978404 
1.41999999999986, -3.4980017570618633 
1.429999999999859, -3.4974208422034403 
1.4399999999998578, -3.4967931864048003 
1.4499999999998567, -3.4962052650277613 
1.4599999999998556, -3.4957337467055254 
1.4699999999998545, -3.4953069927026164 
1.4799999999998534, -3.494830961434487 
1.4899999999998523, -3.4942804863118164 
1.4999999999998512, -3.4936710945138443 
1.5099999999998501, -3.4930598707979725 
1.519999999999849, -3.492522599084655 
1.529999999999848, -3.492046742867251 
1.5399999999998468, -3.4915567718373284 
1.5499999999998457, -3.491020406322865 
1.5599999999998446, -3.490452931375882 
1.5699999999998435, -3.4898958518941043 
1.5799999999998424, -3.4893782631190122 
1.5899999999998413, -3.4888808276278405 
1.5999999999998402, -3.4883604510070065 
1.6099999999998391, -3.4877934953075354 
1.619999999999838, -3.487198538216236 
1.629999999999837, -3.486647157400557 
1.6399999999998358, -3.486179283064409 
1.6499999999998347, -3.485730847130349 
1.6599999999998336, -3.485233115079139 
1.6699999999998325, -3.484661736563722 
1.6799999999998314, -3.484028751743435 
1.6899999999998303, -3.4834094887298193 
1.6999999999998292, -3.4828998644902356 
1.709999999999828, -3.482460014588649 
1.719999999999827, -3.481990402623559 
1.729999999999826, -3.4814590092976196 
1.7399999999998248, -3.48088187620971 
1.7499999999998237, -3.480302679971981 
1.7599999999998226, -3.479768522813276 
1.7699999999998215, -3.479273196801388 
1.7799999999998204, -3.478766486885694 
1.7899999999998193, -3.478220331956139 
1.7999999999998182, -3.4776496733772704 
1.809999999999817, -3.4771047899893155 
1.819999999999816, -3.476612961766216 
1.8299999999998149, -3.476136337841358 
1.8399999999998138, -3.47562408911489 
1.8499999999998127, -3.475050236918668 
1.8599999999998116, -3.4744263093330225 
1.8699999999998105, -3.4738338865533898 
1.8799999999998094, -3.473357445819314 
1.8899999999998083, -3.4729358065326688 
1.8999999999998072, -3.4724706600461523 
1.909999999999806, -3.471932155517853 
1.919999999999805, -3.471332941445154 
1.9299999999998039, -3.470724039750062 
1.9399999999998028, -3.470180732294062 
1.9499999999998017, -3.4697035780594048 
1.9599999999998006, -3.469220480118742 
1.9699999999997995, -3.4686931290487606 
1.9799999999997984, -3.468131840752622 
1.9899999999997973, -3.4675760590128952 
1.9999999999997962, -3.467058668480005 
2.0099999999998173, -3.4665659900687658 
2.0199999999998384, -3.466055458450864 
2.0299999999998595, -3.4654989540582504 
2.0399999999998806, -3.464906090704371 
2.0499999999999017, -3.464342455716944 
2.059999999999923, -3.463866593723215 
2.069999999999944, -3.463428530762078 
2.079999999999965, -3.4629506344367798 
2.089999999999986, -3.4624008744836248 
2.100000000000007, -3.4617830992596113 
2.1100000000000283, -3.461154676967581 
2.1200000000000494, -3.460617880632262 
2.1300000000000705, -3.460171744545111 
2.1400000000000916, -3.459716831266442 
2.1500000000001127, -3.4592043179952037 
2.160000000000134, -3.4586414091252573 
2.170000000000155, -3.458064902082441 
2.180000000000176, -3.4575230015596623 
2.190000000000197, -3.4570252690607424 
2.2000000000002182, -3.4565283773124476 
2.2100000000002393, -3.455995564738314 
2.2200000000002604, -3.455429533070763 
2.2300000000002815, -3.4548747307816887 
2.2400000000003026, -3.4543753013844416 
2.2500000000003237, -3.4539083699406405 
2.260000000000345, -3.4534180997120814 
2.270000000000366, -3.452869561969692 
2.280000000000387, -3.452259017974182 
2.290000000000408, -3.451641476203149 
2.3000000000004293, -3.4511224347309915 
2.3100000000004504, -3.4506979199012107 
2.3200000000004715, -3.4502604523292058 
2.3300000000004926, -3.4497551840191676 
2.3400000000005137, -3.4491830307884705 
2.3500000000005348, -3.4485783245995223 
2.360000000000556, -3.4480097685749946 
2.370000000000577, -3.4475148228674977 
2.380000000000598, -3.447041398455931 
2.390000000000619, -3.446533945641537 
2.4000000000006403, -3.4459858199255797 
2.4100000000006614, -3.4454275379353247 
2.4200000000006825, -3.444900564473584 
2.4300000000007036, -3.4444094719785583 
2.4400000000007247, -3.4439165459274017 
2.450000000000746, -3.443384096487379 
2.460000000000767, -3.4428023729327486 
2.470000000000788, -3.442212046288038 
2.480000000000809, -3.4416966354567493 
2.49000000000083, -3.441260796517728 
2.5000000000008513, -3.440818466808197 
2.5100000000008724, -3.440313121647347 
2.5200000000008935, -3.439733542735355 
2.5300000000009146, -3.4391057319537746 
2.5400000000009357, -3.4385146572860705 
2.550000000000957, -3.438029206662731 
2.560000000000978, -3.43758745516024 
2.570000000000999, -3.437107939890717 
2.58000000000102, -3.436573349653237 
2.5900000000010412, -3.4360061695300166 
2.6000000000010624, -3.4354503867795727 
2.6100000000010835, -3.434938204335649 
2.6200000000011046, -3.4344496857648976 
2.6300000000011257, -3.4339399290795596 
2.6400000000011468, -3.4333894203780213 
2.650000000001168, -3.432820723340124 
2.660000000001189, -3.432291765779513 
2.67000000000121, -3.4318231168212963 
2.680000000001231, -3.4313634638753734 
2.6900000000012523, -3.4308596964429405 
2.7000000000012734, -3.4302889255247395 
2.7100000000012945, -3.429664585273821 
2.7200000000013156, -3.4290689725434023 
2.7300000000013367, -3.4285911461330327 
2.740000000001358, -3.4281750872922436 
2.750000000001379, -3.4277207748168323 
2.7600000000014, -3.427197706855183 
2.770000000001421, -3.4266194988534435 
2.780000000001442, -3.4260309137331233 
2.7900000000014633, -3.4254935595732277 
2.8000000000014844, -3.4250125496048787 
2.8100000000015055, -3.4245297955736205 
2.8200000000015266, -3.4240080787591474 
2.8300000000015477, -3.4234545304545607 
2.840000000001569, -3.4229088227958213 
2.85000000000159, -3.4224051342371404 
2.860000000001611, -3.421927396970274 
2.870000000001632, -3.421431179184212 
2.8800000000016532, -3.420885350205592 
2.8900000000016743, -3.4202906421378456 
2.9000000000016954, -3.4197061313420924 
2.9100000000017165, -3.419217368934133 
2.9200000000017377, -3.4187985413825763 
2.9300000000017588, -3.4183552081190007 
2.94000000000178, -3.4178422729479805 
2.950000000001801, -3.4172584238629695 
2.960000000001822, -3.4166399637170364 
2.970000000001843, -3.416071806854854 
2.9800000000018643, -3.4155974272009026 
2.9900000000018854, -3.4151474608545014 
3.0000000000019065, -3.4146568305165523 
3.0100000000019276, -3.4141180574749788 
3.0200000000019487, -3.413558715518505 
3.03000000000197, -3.41302132144697 
3.040000000001991, -3.4125239625371053 
3.050000000002012, -3.4120371581619096 
3.060000000002033, -3.411520695283218 
3.070000000002054, -3.4109618162811293 
3.0800000000020753, -3.4103918465765197 
3.0900000000020964, -3.409876657655354 
3.1000000000021175, -3.4094269345239696 
3.1100000000021386, -3.4089779375614926 
3.1200000000021597, -3.408476345689034 
3.130000000002181, -3.407903900540851 
3.140000000002202, -3.4072789148950497 
3.150000000002223, -3.4066862542772633 
3.160000000002244, -3.4062096646882147 
3.1700000000022652, -3.405790696715944 
3.1800000000022863, -3.4053343840220585 
3.1900000000023074, -3.4048142027730526 
3.2000000000023285, -3.404246393572341 
3.2100000000023496, -3.403674303284668 
3.2200000000023707, -3.40314851368547 
3.230000000002392, -3.402667510705676 
3.240000000002413, -3.4021803643811332 
3.250000000002434, -3.4016552658292802 
3.260000000002455, -3.401101350956651 
3.2700000000024763, -3.400562320999893 
3.2800000000024974, -3.4000723510462194 
3.2900000000025185, -3.399607324467948 
3.3000000000025396, -3.399118362268446 
3.3100000000025607, -3.3985744290593267 
3.3200000000025818, -3.3979750373226003 
3.330000000002603, -3.3973785944523547 
3.340000000002624, -3.3968817366599398 
3.350000000002645, -3.3964692424572585 
3.360000000002666, -3.396039247411912 
3.3700000000026873, -3.395541217918369 
3.3800000000027084, -3.3949746856446423 
3.3900000000027295, -3.3943721246682323 
3.4000000000027506, -3.3938050933696458 
3.4100000000027717, -3.3933188428709675 
3.420000000002793, -3.3928619634693318 
3.430000000002814, -3.3923728617845805 
3.440000000002835, -3.3918400258887105 
3.450000000002856, -3.3912889052957857 
3.460000000002877, -3.3907608158986826 
3.4700000000028983, -3.3902711679020747 
3.4800000000029194, -3.3897904574521354 
3.4900000000029405, -3.3892789573705726 
3.5000000000029616, -3.3887200016135473 
3.5100000000029827, -3.3881393230970525 
3.520000000003004, -3.3876116581191824 
3.530000000003025, -3.3871688230130497 
3.540000000003046, -3.3867420368715515 
3.550000000003067, -3.386264821770857 
3.5600000000030882, -3.385715168768116 
3.5700000000031094, -3.3851040721482866 
3.5800000000031305, -3.3844966448872578 
3.5900000000031516, -3.3839858769268654 
3.6000000000031727, -3.3835537352116014 
3.6100000000031938, -3.3831065419031683 
3.620000000003215, -3.382603707282793 
3.630000000003236, -3.3820545019749204 
3.640000000003257, -3.3814949713618048 
3.650000000003278, -3.380969195550255 
3.6600000000032993, -3.380484370566228 
3.6700000000033204, -3.3800003084440817 
3.6800000000033415, -3.3794814149267287 
3.6900000000033626, -3.3789274534559164 
3.7000000000033837, -3.378379886602518 
3.710000000003405, -3.377889024148005 
3.720000000003426, -3.3774403089476146 
3.730000000003447, -3.3769758202165727 
3.740000000003468, -3.376456006555203 
3.750000000003489, -3.3758700438629186 
3.7600000000035103, -3.375252592896409 
3.7700000000035314, -3.3747036531747177 
3.7800000000035525, -3.374269226517633 
3.7900000000035736, -3.3738586449708414 
3.8000000000035947, -3.3733938476984804 
3.810000000003616, -3.3728621196974435 
3.820000000003637, -3.372284998944381 
3.830000000003658, -3.371713869468407 
3.840000000003679, -3.3712022877883725 
3.8500000000037002, -3.3707354476831646 
3.8600000000037213, -3.3702553085590607 
3.8700000000037424, -3.3697350060764846 
3.8800000000037635, -3.3691886470914154 
3.8900000000037847, -3.3686581253685874 
3.9000000000038058, -3.3681709325219105 
3.910000000003827, -3.36770396152207 
3.920000000003848, -3.3672133538478612 
3.930000000003869, -3.366671322980603 
3.94000000000389, -3.3660819723857385 
3.9500000000039113, -3.3655076483353383 
3.9600000000039324, -3.365031675191503 
3.9700000000039535, -3.364624311796355 
3.9800000000039746, -3.36419198014163 
3.9900000000039957, -3.3636910045962316 
4.000000000004016, -3.363120607109259 
4.010000000003993, -3.3625144982125357 
4.02000000000397, -3.3619511708211256 
4.030000000003946, -3.3614776684721868 
4.040000000003923, -3.361034807137103 
4.0500000000039, -3.3605568840527447 
4.0600000000038765, -3.360031999054217 
4.070000000003853, -3.3594840679049534 
4.08000000000383, -3.3589539500201226 
4.090000000003807, -3.358463073000693 
4.100000000003783, -3.3579875051896138 
4.11000000000376, -3.3574869131857574 
4.120000000003737, -3.3569423132550194 
4.130000000003713, -3.356374067149825 
4.14000000000369, -3.355847692621367 
4.150000000003667, -3.355399065355317 
4.1600000000036434, -3.354972718866415 
4.17000000000362, -3.3545039003943034 
4.180000000003597, -3.3539659946916403 
4.1900000000035735, -3.3533636345359765 
4.20000000000355, -3.3527539252297283 
4.210000000003527, -3.3522360491115855 
4.220000000003504, -3.3518109573596684 
4.23000000000348, -3.3513820012194975 
4.240000000003457, -3.3508969442073884 
4.250000000003434, -3.3503583916216635 
4.26000000000341, -3.349797473629029 
4.270000000003387, -3.34926181431615 
4.280000000003364, -3.348774434328417 
4.2900000000033405, -3.3483023532336333 
4.300000000003317, -3.3478026572248125 
4.310000000003294, -3.347264863112902 
4.320000000003271, -3.346717809730707 
4.330000000003247, -3.346212647271577 
4.340000000003224, -3.3457572768411517 
4.350000000003201, -3.3453039308681687 
4.360000000003177, -3.344807220658809 
4.370000000003154, -3.344247331656664 
4.380000000003131, -3.3436401364359005 
4.390000000003107, -3.3430671526621465 
4.400000000003084, -3.342609247021689 
4.410000000003061, -3.3422104166991424 
4.4200000000030375, -3.341774854129111 
4.430000000003014, -3.341270904171791 
4.440000000002991, -3.3407086184722523 
4.450000000002968, -3.3401279145015095 
4.460000000002944, -3.339592325468536 
4.470000000002921, -3.3391213588562705 
4.480000000002898, -3.338661542659338 
4.490000000002874, -3.3381670064015894 
4.500000000002851, -3.3376350855882904 
4.510000000002828, -3.33709682275173 
4.520000000002804, -3.3365922368161116 
4.530000000002781, -3.3361237208916017 
4.540000000002758, -3.3356536643190275 
4.5500000000027345, -3.33514474320234 
4.560000000002711, -3.3345832989144433 
4.570000000002688, -3.3339986134793493 
4.580000000002665, -3.3334743630390187 
4.590000000002641, -3.3330476446057675 
4.600000000002618, -3.332641777674715 
4.610000000002595, -3.332184194612222 
4.620000000002571, -3.331654538753944 
4.630000000002548, -3.331064788443995 
4.640000000002525, -3.3304693501110108 
4.6500000000025015, -3.329950327326126 
4.660000000002478, -3.3295079605563194 
4.670000000002455, -3.3290635501691006 
4.6800000000024315, -3.3285729701789366 
4.690000000002408, -3.328040638061522 
4.700000000002385, -3.3274988614569763 
4.710000000002362, -3.326986522558682 
4.720000000002338, -3.3265102731338034 
4.730000000002315, -3.3260359143255114 
4.740000000002292, -3.325527725124302 
4.750000000002268, -3.3249777096803 
4.760000000002245, -3.324420983422228 
4.770000000002222, -3.323924093264728 
4.7800000000021985, -3.3234944451962547 
4.790000000002175, -3.3230655180459707 
4.800000000002152, -3.3225842367882175 
4.810000000002129, -3.3220328290288714 
4.820000000002105, -3.3214256662428547 
4.830000000002082, -3.3208354782297365 
4.840000000002059, -3.3203510783384167 
4.850000000002035, -3.319939552986252 
4.860000000002012, -3.319506428567474 
4.870000000001989, -3.3190147829666685 
4.880000000001965, -3.318474140691277 
4.890000000001942, -3.317919531262754 
4.900000000001919, -3.3173975570084666 
4.9100000000018955, -3.316921546857754 
4.920000000001872, -3.3164528688188333 
4.930000000001849, -3.3159528011314756 
4.940000000001826, -3.3154164600211367 
4.950000000001802, -3.3148772480262068 
4.960000000001779, -3.3143845455419316 
