t, s[1].omega / s[0].omega 
0, -0.479997760128789 
0.009999999999999995, -0.4797717766694715 
0.019999999999999934, -0.47954181906017235 
0.029999999999999874, -0.4793078384512864 
0.04000000000000012, -0.47906980326813053 
0.050000000000000405, -0.47882774887686325 
0.06000000000000069, -0.47858180755410623 
0.07000000000000098, -0.47833221083385713 
0.08000000000000126, -0.4780792713087032 
0.09000000000000155, -0.4778233580624721 
0.10000000000000184, -0.4775648783656063 
0.11000000000000212, -0.4773042720158971 
0.12000000000000241, -0.47704201788636597 
0.130000000000002, -0.47677864707047457 
0.1400000000000009, -0.4765147542416102 
0.1499999999999998, -0.47625099901737744 
0.1599999999999987, -0.47598809316519297 
0.1699999999999976, -0.4757267777003519 
0.1799999999999965, -0.4754678034363051 
0.1899999999999954, -0.47521193146653945 
0.1999999999999943, -0.4749599572350844 
0.2099999999999932, -0.4747127345017349 
0.2199999999999921, -0.4744711545200226 
0.229999999999991, -0.4742360490457506 
0.2399999999999899, -0.4740080352065138 
0.2499999999999888, -0.4737873680179529 
0.2599999999999877, -0.4735738700113853 
0.2699999999999866, -0.47336696510905785 
0.2799999999999855, -0.47316579226934996 
0.2899999999999844, -0.4729693482529943 
0.2999999999999833, -0.4727766141375068 
0.3099999999999822, -0.472586641675381 
0.3199999999999811, -0.47239859651620025 
0.32999999999998, -0.4722117677839134 
0.3399999999999789, -0.4720255574103568 
0.3499999999999778, -0.4718394609064459 
0.35999999999997667, -0.47165304664398244 
0.36999999999997557, -0.4714659350434346 
0.37999999999997447, -0.4712777739987907 
0.38999999999997337, -0.4710882048758383 
0.39999999999997227, -0.4708968173119694 
0.40999999999997117, -0.4707031014191701 
0.41999999999997006, -0.47050641794142267 
0.42999999999996896, -0.47030601042168046 
0.43999999999996786, -0.470101070579741 
0.44999999999996676, -0.46989084257671043 
0.45999999999996566, -0.4696747296428233 
0.46999999999996456, -0.46945236361600207 
0.47999999999996346, -0.4692236160504679 
0.48999999999996235, -0.4689885555192988 
0.49999999999996125, -0.4687473738558044 
0.5099999999999602, -0.4685003078206674 
0.519999999999959, -0.46824757573659603 
0.529999999999958, -0.46798933851629504 
0.5399999999999568, -0.467725686746275 
0.5499999999999557, -0.46745665201476533 
0.5599999999999546, -0.4671822410537783 
0.5699999999999535, -0.4669024941193326 
0.5799999999999524, -0.46661757222797684 
0.5899999999999513, -0.46632787759631766 
0.5999999999999502, -0.4660342020329469 
0.6099999999999491, -0.4657378745723362 
0.619999999999948, -0.4654408480044478 
0.6299999999999469, -0.4651456475766819 
0.6399999999999458, -0.46485513470542905 
0.6499999999999447, -0.464572118570931 
0.6599999999999436, -0.4642989341575971 
0.6699999999999425, -0.4640371318965221 
0.6799999999999414, -0.46378736946654514 
0.6899999999999403, -0.4635495027688668 
0.6999999999999392, -0.46332280291034345 
0.7099999999999381, -0.4631062085915099 
0.719999999999937, -0.4628985464501881 
0.7299999999999359, -0.46269868772082673 
0.7399999999999348, -0.46250563796639066 
0.7499999999999337, -0.46231857138649 
0.7599999999999326, -0.4621368247350083 
0.7699999999999315, -0.4619598630438257 
0.7799999999999304, -0.4617872242727731 
0.7899999999999293, -0.46161844570435956 
0.7999999999999282, -0.4614529739610698 
0.8099999999999271, -0.4612900652518263 
0.819999999999926, -0.46112869338566204 
0.8299999999999249, -0.46096749610663 
0.8399999999999238, -0.46080479532569596 
0.8499999999999227, -0.4606387125589427 
0.8599999999999216, -0.46046736581663905 
0.8699999999999205, -0.46028909440292043 
0.8799999999999194, -0.4601026394685205 
0.8899999999999183, -0.4599072252385591 
0.8999999999999172, -0.4597025279720242 
0.9099999999999161, -0.4594885604074156 
0.919999999999915, -0.45926551851963787 
0.9299999999999139, -0.45903363314084256 
0.9399999999999128, -0.45879305276093996 
0.9499999999999117, -0.45854376806604213 
0.9599999999999106, -0.4582855800371385 
0.9699999999999095, -0.4580181123192185 
0.9799999999999084, -0.45774087241110023 
0.9899999999999073, -0.45745337080144405 
0.9999999999999062, -0.4571553068052109 
1.0099999999999052, -0.4568468174975588 
1.019999999999904, -0.4565287565708293 
1.029999999999903, -0.4562029279083797 
1.039999999999902, -0.45587216736056246 
1.0499999999999008, -0.4555401815966178 
1.0599999999998997, -0.4552111337628725 
1.0699999999998986, -0.45488908010903134 
1.0799999999998975, -0.4545774365618803 
1.0899999999998964, -0.4542786359986257 
1.0999999999998953, -0.4539940421841462 
1.1099999999998942, -0.4537240821720002 
1.119999999999893, -0.4534685015641807 
1.129999999999892, -0.45322664615634345 
1.1399999999998909, -0.45299770519180765 
1.1499999999998898, -0.45278088761426416 
1.1599999999998887, -0.4525755278616665 
1.1699999999998876, -0.4523811292053546 
1.1799999999998865, -0.4521973541801271 
1.1899999999998854, -0.4520239683756923 
1.1999999999998843, -0.45186074025222905 
1.2099999999998832, -0.4517072995906323 
1.219999999999882, -0.4515629641481744 
1.229999999999881, -0.4514265598357555 
1.2399999999998799, -0.4512962810821996 
1.2499999999998788, -0.45116965349861465 
1.2599999999998777, -0.4510436526082218 
1.2699999999998766, -0.450914988224891 
1.2799999999998755, -0.4507804952233105 
1.2899999999998744, -0.4506375157072597 
1.2999999999998733, -0.4504841544120972 
1.3099999999998722, -0.450319344174922 
1.319999999999871, -0.4501427357593231 
1.32999999999987, -0.44995448048349623 
1.3399999999998689, -0.4497549848031709 
1.3499999999998678, -0.44954469454868484 
1.3599999999998666, -0.4493239364029181 
1.3699999999998655, -0.4490928222313844 
1.3799999999998644, -0.44885121291525226 
1.3899999999998633, -0.44859873944994116 
1.3999999999998622, -0.44833488447806386 
1.4099999999998611, -0.44805913070675396 
1.41999999999986, -0.4477711771602036 
1.429999999999859, -0.4474712045597621 
1.4399999999998578, -0.4471601381184939 
1.4499999999998567, -0.4468398233461408 
1.4599999999998556, -0.4465130245877235 
1.4699999999998545, -0.4461831998911938 
1.4799999999998534, -0.4458540918630657 
1.4899999999998523, -0.4455292559973862 
1.4999999999998512, -0.44521167205884177 
1.5099999999998501, -0.4449035366480147 
1.519999999999849, -0.4446062525332805 
1.529999999999848, -0.44432056379543666 
1.5399999999998468, -0.4440467613871168 
1.5499999999998457, -0.4437848948098594 
1.5599999999998446, -0.44353495112821956 
1.5699999999998435, -0.4432969852524491 
1.5799999999998424, -0.4430711982969955 
1.5899999999998413, -0.44285796434387265 
1.5999999999998402, -0.4426578036798904 
1.6099999999998391, -0.44247129673122465 
1.619999999999838, -0.4422989319238124 
1.629999999999837, -0.4421408874858049 
1.6399999999998358, -0.441996766262949 
1.6499999999998347, -0.4418653342297401 
1.6599999999998336, -0.44174434749023817 
1.6699999999998325, -0.4416305655479606 
1.6799999999998314, -0.4415200129658234 
1.6899999999998303, -0.4414084618557226 
1.6999999999998292, -0.4412920033585174 
1.709999999999828, -0.4411675258053842 
1.719999999999827, -0.44103296098350986 
1.729999999999826, -0.4408872685045934 
1.7399999999998248, -0.4407302285434338 
1.7499999999998237, -0.44056215337438676 
1.7599999999998226, -0.4403836098926252 
1.7699999999998215, -0.4401952025525066 
1.7799999999998204, -0.4399974293297711 
1.7899999999998193, -0.43979060407323506 
1.7999999999998182, -0.4395748344619531 
1.809999999999817, -0.4393500484534643 
1.819999999999816, -0.43911606681293963 
1.8299999999998149, -0.43887271986451803 
1.8399999999998138, -0.4386199994676331 
1.8499999999998127, -0.43835822191236795 
1.8599999999998116, -0.4380881593690794 
1.8699999999998105, -0.4378110891127118 
1.8799999999998094, -0.437528724645592 
1.8899999999998083, -0.4372430333325532 
1.8999999999998072, -0.43695599316343714 
1.909999999999806, -0.43666936722649946 
1.919999999999805, -0.43638456127581 
1.9299999999998039, -0.43610258800553703 
1.9399999999998028, -0.43582411938677834 
1.9499999999998017, -0.43554958734735927 
1.9599999999998006, -0.43527929547315897 
1.9699999999997995, -0.43501351889159584 
1.9799999999997984, -0.43475258366052305 
1.9899999999997973, -0.4344969246255352 
1.9999999999997962, -0.43424712155081246 
2.0099999999998173, -0.43400390979812026 
2.0199999999998384, -0.4337681568082866 
2.0299999999998595, -0.4335407921521763 
2.0399999999998806, -0.43332268076350217 
2.0499999999999017, -0.43311444067499566 
2.059999999999923, -0.4329162309062811 
2.069999999999944, -0.43272756735817375 
2.079999999999965, -0.4325472468662065 
2.089999999999986, -0.43237344528627836 
2.100000000000007, -0.432203991080015 
2.1100000000000283, -0.43203672792549297 
2.1200000000000494, -0.431869829925225 
2.1300000000000705, -0.43170196435899255 
2.1400000000000916, -0.43153228596450405 
2.1500000000001127, -0.43136032404177216 
2.160000000000134, -0.4311858432497976 
2.170000000000155, -0.43100873088714636 
2.180000000000176, -0.4308289252629044 
2.190000000000197, -0.4306463768253507 
2.2000000000002182, -0.43046102874502684 
2.2100000000002393, -0.43027280819511454 
2.2200000000002604, -0.43008162564582825 
2.2300000000002815, -0.42988738318380604 
2.2400000000003026, -0.42968999310736367 
2.2500000000003237, -0.429489404879821 
2.260000000000345, -0.4292856327729361 
2.270000000000366, -0.4290787706166331 
2.280000000000387, -0.42886897850141203 
2.290000000000408, -0.4286564338850584 
2.3000000000004293, -0.4284412568134222 
2.3100000000004504, -0.4282234378316808 
2.3200000000004715, -0.4280028036949659 
2.3300000000004926, -0.4277790414003981 
2.3400000000005137, -0.42755177198268496 
2.3500000000005348, -0.4273206409547413 
2.360000000000556, -0.4270853879439729 
2.370000000000577, -0.426845873752647 
2.380000000000598, -0.42660206535384926 
2.390000000000619, -0.4263539945618516 
2.4000000000006403, -0.42610170952578424 
2.4100000000006614, -0.42584523329017987 
2.4200000000006825, -0.42558453649650707 
2.4300000000007036, -0.4253195261804733 
2.4400000000007247, -0.42505005125730955 
2.450000000000746, -0.42477592768202743 
2.460000000000767, -0.42449699125883766 
2.470000000000788, -0.4242131905177124 
2.480000000000809, -0.42392472947394255 
2.49000000000083, -0.42363225171288654 
2.5000000000008513, -0.42333702011270635 
2.5100000000008724, -0.4230410066018574 
2.5200000000008935, -0.42274680098758183 
2.5300000000009146, -0.422457307822079 
2.5400000000009357, -0.4221753059690211 
2.550000000000957, -0.4219030248402957 
2.560000000000978, -0.42164188256477264 
2.570000000000999, -0.42139244495133593 
2.58000000000102, -0.42115456694389125 
2.5900000000010412, -0.4209276271954104 
2.6000000000010624, -0.4207107698905929 
2.6100000000010835, -0.4205031006527438 
2.6200000000011046, -0.4203038175962848 
2.6300000000011257, -0.42011228051400956 
2.6400000000011468, -0.4199280296363711 
2.650000000001168, -0.4197507647725985 
2.660000000001189, -0.4195802909449333 
2.67000000000121, -0.41941643193620665 
2.680000000001231, -0.41925891200924265 
2.6900000000012523, -0.4191072116977489 
2.7000000000012734, -0.418960417721295 
2.7100000000012945, -0.4188171065418003 
2.7200000000013156, -0.41867531471871855 
2.7300000000013367, -0.4185326407027171 
2.740000000001358, -0.4183864827419157 
2.750000000001379, -0.41823435871017284 
2.7600000000014, -0.4180742099566929 
2.770000000001421, -0.41790459399875346 
2.780000000001442, -0.4177247200748312 
2.7900000000014633, -0.41753434486584534 
2.8000000000014844, -0.4173335867682992 
2.8100000000015055, -0.4171227227140607 
2.8200000000015266, -0.41690201289204404 
2.8300000000015477, -0.41667157492223394 
2.840000000001569, -0.41643131280814727 
2.85000000000159, -0.41618090055237367 
2.860000000001611, -0.4159198227268638 
2.870000000001632, -0.41564747903490895 
2.8800000000016532, -0.41536336028993154 
2.8900000000016743, -0.41506729209565474 
2.9000000000016954, -0.41475971525392624 
2.9100000000017165, -0.4144419335027466 
2.9200000000017377, -0.4141162305446205 
2.9300000000017588, -0.41378577060955923 
2.94000000000178, -0.4134542660216896 
2.950000000001801, -0.41312549503840545 
2.960000000001822, -0.4128028223572754 
2.970000000001843, -0.4124888663316897 
2.9800000000018643, -0.41218538107193636 
2.9900000000018854, -0.411893332443028 
3.0000000000019065, -0.4116130933800452 
3.0100000000019276, -0.4113446777535505 
3.0200000000019487, -0.41108795530727277 
3.03000000000197, -0.41084281926519034 
3.040000000001991, -0.41060929886286857 
3.050000000002012, -0.4103876180154559 
3.060000000002033, -0.41017820133950345 
3.070000000002054, -0.40998162428013096 
3.0800000000020753, -0.40979849979294125 
3.0900000000020964, -0.40962929489647515 
3.1000000000021175, -0.40947408194540413 
3.1100000000021386, -0.40933225560726233 
3.1200000000021597, -0.40920228404814585 
3.130000000002181, -0.40908159457047805 
3.140000000002202, -0.4089666894955727 
3.150000000002223, -0.4088535230150697 
3.160000000002244, -0.4087380580408221 
3.1700000000022652, -0.4086168273481855 
3.1800000000022863, -0.408487316006072 
3.1900000000023074, -0.4083480721471687 
3.2000000000023285, -0.408198575826298 
3.2100000000023496, -0.40803897295827884 
3.2200000000023707, -0.4078697862400734 
3.230000000002392, -0.4076916744545076 
3.240000000002413, -0.40750526566768686 
3.250000000002434, -0.40731106087232305 
3.260000000002455, -0.40710939455864975 
3.2700000000024763, -0.406900440095961 
3.2800000000024974, -0.4066842527073028 
3.2900000000025185, -0.4064608456049378 
3.3000000000025396, -0.4062302922073866 
3.3100000000025607, -0.4059928384151964 
3.3200000000025818, -0.4057489967120075 
3.330000000002603, -0.40549958642400236 
3.340000000002624, -0.4052456921359468 
3.350000000002645, -0.4049885393411284 
3.360000000002666, -0.40472932282984064 
3.3700000000026873, -0.4044690471119644 
3.3800000000027084, -0.40420843187895183 
3.3900000000027295, -0.40394790249737644 
3.4000000000027506, -0.4036876479570927 
3.4100000000027717, -0.4034277085786081 
3.420000000002793, -0.40316805885069984 
3.430000000002814, -0.4029086671629513 
3.440000000002835, -0.40264953042604884 
3.450000000002856, -0.402390690151084 
3.460000000002877, -0.4021322373209353 
3.4700000000028983, -0.4018743097846536 
3.4800000000029194, -0.4016170815493946 
3.4900000000029405, -0.40136074087065454 
3.5000000000029616, -0.40110545551035315 
3.5100000000029827, -0.4008513306098774 
3.520000000003004, -0.4005983770868209 
3.530000000003025, -0.4003465208255356 
3.540000000003046, -0.40009568224740655 
3.550000000003067, -0.39984592771627786 
3.5600000000030882, -0.39959764088443184 
3.5700000000031094, -0.3993516179652683 
3.5800000000031305, -0.39910900493444834 
3.5900000000031516, -0.3988710769857872 
3.6000000000031727, -0.39863895442035546 
3.6100000000031938, -0.398413380017551 
3.620000000003215, -0.3981946342231232 
3.630000000003236, -0.3979825856192388 
3.640000000003257, -0.3977768218931895 
3.650000000003278, -0.39757679878123425 
3.6600000000032993, -0.3973819648631207 
3.6700000000033204, -0.39719184548127234 
3.6800000000033415, -0.3970060863712167 
3.6900000000033626, -0.39682446451701925 
3.7000000000033837, -0.39664687318755915 
3.710000000003405, -0.3964732838670425 
3.720000000003426, -0.3963036832431285 
3.730000000003447, -0.39613798188843535 
3.740000000003468, -0.395975896254663 
3.750000000003489, -0.39581681917620876 
3.7600000000035103, -0.3956597133079835 
3.7700000000035314, -0.3955030758752478 
3.7800000000035525, -0.3953450161558413 
3.7900000000035736, -0.3951834511638379 
3.8000000000035947, -0.3950163727066978 
3.810000000003616, -0.39484210141669446 
3.820000000003637, -0.3946594469449037 
3.830000000003658, -0.3944677363058712 
3.840000000003679, -0.39426672567004317 
3.8500000000037002, -0.39405644460817213 
3.8600000000037213, -0.39383702596846343 
3.8700000000037424, -0.3936085592036543 
3.8800000000037635, -0.39337098588894626 
3.8900000000037847, -0.39312404372060733 
3.9000000000038058, -0.3928672619339631 
3.910000000003827, -0.39260001409540957 
3.920000000003848, -0.3923216382327484 
3.930000000003869, -0.3920316322001176 
3.94000000000389, -0.3917299163983915 
3.9500000000039113, -0.3914171227774733 
3.9600000000039324, -0.3910948271795814 
3.9700000000039535, -0.39076561834497486 
3.9800000000039746, -0.3904329247637065 
3.9900000000039957, -0.39010060825704396 
4.000000000004016, -0.3897724391558861 
4.010000000003993, -0.3894516229024323 
4.02000000000397, -0.38914051464082605 
4.030000000003946, -0.3888405653503806 
4.040000000003923, -0.38855245388107307 
4.0500000000039, -0.3882763173131965 
4.0600000000038765, -0.38801199829197175 
4.070000000003853, -0.38775925802990224 
4.08000000000383, -0.3875179336865973 
4.090000000003807, -0.387288037342326 
4.100000000003783, -0.38706979995175866 
4.11000000000376, -0.38686366150329754 
4.120000000003737, -0.3866702030709834 
4.130000000003713, -0.38649001248850035 
4.14000000000369, -0.38632347845678117 
4.150000000003667, -0.3861705237407389 
4.1600000000036434, -0.38603031953047484 
4.17000000000362, -0.38590106306200345 
4.180000000003597, -0.38577992610487394 
4.1900000000035735, -0.38566325933018036 
4.20000000000355, -0.385547049800342 
4.210000000003527, -0.3854275085645007 
4.220000000003504, -0.38530159067514946 
4.23000000000348, -0.3851672816482392 
4.240000000003457, -0.38502360250577417 
4.250000000003434, -0.3848704051194631 
4.26000000000341, -0.38470808105619747 
4.270000000003387, -0.38453728694083505 
4.280000000003364, -0.3843587384581612 
4.2900000000033405, -0.3841730819143304 
4.300000000003317, -0.38398083078991097 
4.310000000003294, -0.3837823507545932 
4.320000000003271, -0.38357788078131616 
4.330000000003247, -0.3833675828186604 
4.340000000003224, -0.38315161364481753 
4.350000000003201, -0.3829302083199848 
4.360000000003177, -0.3827037561855479 
4.370000000003154, -0.38247284255693803 
4.380000000003131, -0.3822382303268607 
4.390000000003107, -0.382000772343898 
4.400000000003084, -0.38176127500089857 
4.410000000003061, -0.38152036051023885 
4.4200000000030375, -0.381278380386204 
4.430000000003014, -0.38103540898141924 
4.440000000002991, -0.38079130776329834 
4.450000000002968, -0.38054582262932357 
4.460000000002944, -0.3802986725180809 
4.470000000002921, -0.3800496037716737 
4.480000000002898, -0.37979840618051475 
4.490000000002874, -0.37954490099506694 
4.500000000002851, -0.37928891508706036 
4.510000000002828, -0.37903025238684357 
4.520000000002804, -0.37876866892030525 
4.530000000002781, -0.37850385500096506 
4.540000000002758, -0.37823542927350573 
4.5500000000027345, -0.3779629546683751 
4.560000000002711, -0.3776859940629383 
4.570000000002688, -0.3774042276082386 
4.580000000002665, -0.377117643297449 
4.590000000002641, -0.3768267769210617 
4.600000000002618, -0.37653292243035563 
4.610000000002595, -0.3762381942506762 
4.620000000002571, -0.37594534959727394 
4.630000000002548, -0.3756573842555407 
4.640000000002525, -0.3753770380127147 
4.6500000000025015, -0.375106393472857 
4.660000000002478, -0.3748466916722054 
4.670000000002455, -0.3745983749537781 
4.6800000000024315, -0.3743612817897162 
4.690000000002408, -0.37413489522857485 
4.700000000002385, -0.37391857057472294 
4.710000000002362, -0.3737117057113595 
4.720000000002338, -0.3735138466931388 
4.730000000002315, -0.3733247354568213 
4.740000000002292, -0.37314430873633925 
4.750000000002268, -0.3729726530727653 
4.760000000002245, -0.37280991528198004 
4.770000000002222, -0.3726561654266177 
4.7800000000021985, -0.37251121470987225 
4.790000000002175, -0.37237440717302517 
4.800000000002152, -0.37224443027493315 
4.810000000002129, -0.37211921427271666 
4.820000000002105, -0.3719959926948923 
4.830000000002082, -0.3718715568219172 
4.840000000002059, -0.3717426603753392 
4.850000000002035, -0.3716064557506983 
4.860000000002012, -0.37146082143186543 
