t, s[1].omega / s[0].omega 
0, -2.049996728238978 
0.009999999999999995, -2.0496364278617127 
0.019999999999999934, -2.0492149310463557 
0.029999999999999874, -2.0487484317282996 
0.04000000000000012, -2.048270744659232 
0.050000000000000405, -2.047830126755377 
0.06000000000000069, -2.047464929350723 
0.07000000000000098, -2.047173668733651 
0.08000000000000126, -2.0469180692885915 
0.09000000000000155, -2.046655577859142 
0.10000000000000184, -2.0463606771701137 
0.11000000000000212, -2.0460248130346796 
0.12000000000000241, -2.0456517914293304 
0.130000000000002, -2.045259174560167 
0.1400000000000009, -2.0448814130244832 
0.1499999999999998, -2.0445593106062407 
0.1599999999999987, -2.0443112036978333 
0.1699999999999976, -2.0441155506296687 
0.1799999999999965, -2.0439282650831574 
0.1899999999999954, -2.0437103056045833 
0.1999999999999943, -2.04343858454601 
0.2099999999999932, -2.0431030841492155 
0.2199999999999921, -2.0427026413292717 
0.229999999999991, -2.0422460456181106 
0.2399999999999899, -2.0417584994159186 
0.2499999999999888, -2.0412854273688175 
0.2599999999999877, -2.0408776516779508 
0.2699999999999866, -2.04055644992116 
0.2799999999999855, -2.040295907683608 
0.2899999999999844, -2.0400483317026916 
0.2999999999999833, -2.039777491184311 
0.3099999999999822, -2.0394674188764674 
0.3199999999999811, -2.039116817028817 
0.32999999999998, -2.0387361843836778 
0.3399999999999789, -2.0383506179070086 
0.3499999999999778, -2.037997937336794 
0.35999999999997667, -2.0377093705554215 
0.36999999999997557, -2.037484148968037 
0.37999999999997447, -2.037289185949194 
0.38999999999997337, -2.03708316235946 
0.39999999999997227, -2.0368355871220407 
0.40999999999997117, -2.036529798060977 
0.41999999999997006, -2.0361590200197432 
0.42999999999996896, -2.035724946640458 
0.43999999999996786, -2.0352424452241884 
0.44999999999996676, -2.034747295846074 
0.45999999999996566, -2.034293593439047 
0.46999999999996456, -2.033925626657763 
0.47999999999996346, -2.0336422360436353 
0.48999999999996235, -2.0334001145571396 
0.49999999999996125, -2.0331517697644914 
0.5099999999999602, -2.032869802417636 
0.519999999999959, -2.0325459803714234 
0.529999999999958, -2.0321846210765107 
0.5399999999999568, -2.031801986007209 
0.5499999999999557, -2.031428362924019 
0.5599999999999546, -2.0311000020365677 
0.5699999999999535, -2.030835882132817 
0.5799999999999524, -2.0306213287769297 
0.5899999999999513, -2.030419329624962 
0.5999999999999502, -2.030193507381275 
0.6099999999999491, -2.0299196188491946 
0.619999999999948, -2.029584817603462 
0.6299999999999469, -2.029184536200949 
0.6399999999999458, -2.028723912082052 
0.6499999999999447, -2.028225197904729 
0.6599999999999436, -2.027734277434679 
0.6699999999999425, -2.027308536610136 
0.6799999999999414, -2.026978802174185 
0.6899999999999403, -2.0267230631533626 
0.6999999999999392, -2.026489489473993 
0.7099999999999381, -2.026235834428393 
0.719999999999937, -2.025942777576398 
0.7299999999999359, -2.0256077597461988 
0.7399999999999348, -2.025239480334945 
0.7499999999999337, -2.0248588099772515 
0.7599999999999326, -2.024498652163658 
0.7699999999999315, -2.0241906808394843 
0.7799999999999304, -2.023942637829231 
0.7899999999999293, -2.023731357228651 
0.7999999999999282, -2.0235197555673725 
0.8099999999999271, -2.023276061605217 
0.819999999999926, -2.022980215802522 
0.8299999999999249, -2.0226217202456533 
0.8399999999999238, -2.022197933547833 
0.8499999999999227, -2.0217179848251816 
0.8599999999999216, -2.0212117370805496 
0.8699999999999205, -2.020732873929406 
0.8799999999999194, -2.0203367466550475 
0.8899999999999183, -2.02003837860254 
0.8999999999999172, -2.0198004497121 
0.9099999999999161, -2.0195691931055113 
0.919999999999915, -2.0193088288087653 
0.9299999999999139, -2.019006245974772 
0.9399999999999128, -2.0186628735048293 
0.9499999999999117, -2.018290778398802 
0.9599999999999106, -2.017914156591594 
0.9699999999999095, -2.0175665087320924 
0.9799999999999084, -2.0172740612178606 
0.9899999999999073, -2.017035923155919 
0.9999999999999062, -2.01682434010359 
1.0099999999999052, -2.0166035547218057 
1.019999999999904, -2.0163453410776517 
1.029999999999903, -2.0160323475433275 
1.039999999999902, -2.0156556363691758 
1.0499999999999008, -2.015214398679641 
1.0599999999998997, -2.0147217846766745 
1.0699999999998986, -2.0142142969720123 
1.0799999999998975, -2.013750366949483 
1.0899999999998964, -2.013380092696673 
1.0999999999998953, -2.013104435177211 
1.1099999999998942, -2.012876768828016 
1.119999999999893, -2.0126447517456993 
1.129999999999892, -2.012378224247951 
1.1399999999998909, -2.0120683704509412 
1.1499999999998898, -2.0117193121450234 
1.1599999999998887, -2.0113455535356577 
1.1699999999998876, -2.0109734251625904 
1.1799999999998865, -2.010635913606097 
1.1899999999998854, -2.0103544403035944 
1.1999999999998843, -2.010122254358773 
1.2099999999998832, -2.0099093505410477 
1.219999999999882, -2.0096814501831064 
1.229999999999881, -2.009412773461393 
1.2399999999998799, -2.0090876787985237 
1.2499999999998788, -2.0086983186352922 
1.2599999999998777, -2.0082454901820803 
1.2699999999998766, -2.00774571793379 
1.2799999999998755, -2.0072403175291287 
1.2899999999998744, -2.006789798273398 
1.2999999999998733, -2.006438486345041 
1.3099999999998722, -2.0061772526843953 
1.319999999999871, -2.0059548030477337 
1.32999999999987, -2.005721127255745 
1.3399999999998689, -2.0054500506745665 
1.3499999999998678, -2.0051354105348684 
1.3599999999998666, -2.0047829806873754 
1.3699999999998655, -2.0044088155624786 
1.3799999999998644, -2.0040404326291834 
1.3899999999998633, -2.0037100389931437 
1.3999999999998622, -2.0034357018362408 
1.4099999999998611, -2.0032072000518926 
1.41999999999986, -2.0029935231561864 
1.429999999999859, -2.0027614797228663 
1.4399999999998578, -2.0024867705813643 
1.4499999999998567, -2.00215476470944 
1.4599999999998556, -2.0017583392285516 
1.4699999999998545, -2.0012994273782967 
1.4799999999998534, -2.000796707807261 
1.4899999999998523, -2.000294098499532 
1.4999999999998512, -1.999852442659948 
1.5099999999998501, -1.9995118986049225 
1.519999999999849, -1.99925788786035 
1.529999999999848, -1.9990374882247437 
1.5399999999998468, -1.998802536638149 
1.5499999999998457, -1.9985290416641217 
1.5599999999998446, -1.9982121162016568 
1.5699999999998435, -1.9978582819561796 
1.5799999999998424, -1.997484293487831 
1.5899999999998413, -1.9971181564725105 
1.5999999999998402, -1.9967916156163827 
1.6099999999998391, -1.9965211780029617 
1.619999999999838, -1.9962951383178549 
1.629999999999837, -1.9960821083076756 
1.6399999999998358, -1.995849376240733 
1.6499999999998347, -1.9955732748522945 
1.6599999999998336, -1.9952396377511434 
1.6699999999998325, -1.9948417147794602 
1.6799999999998314, -1.9943819122158828 
1.6899999999998303, -1.9938795153291662 
1.6999999999998292, -1.9933787828257592 
1.709999999999828, -1.9929399391027 
1.719999999999827, -1.9926016924820467 
1.729999999999826, -1.9923485883096643 
1.7399999999998248, -1.9921280927868619 
1.7499999999998237, -1.9918928294890752 
1.7599999999998226, -1.9916192323111503 
1.7699999999998215, -1.9913024739044995 
1.7799999999998204, -1.9909489802857503 
1.7899999999998193, -1.9905753769800174 
1.7999999999998182, -1.9902095977916876 
1.809999999999817, -1.9898835146262503 
1.819999999999816, -1.9896139888549516 
1.8299999999998149, -1.989389620517232 
1.8399999999998138, -1.9891790218150025 
1.8499999999998127, -1.9889492732164544 
1.8599999999998116, -1.988676531518839 
1.8699999999998105, -1.9883465982884783 
1.8799999999998094, -1.9879527454035493 
1.8899999999998083, -1.9874971402664177 
1.8999999999998072, -1.9869980854868707 
1.909999999999806, -1.9864980083749522 
1.919999999999805, -1.9860558118370453 
1.9299999999998039, -1.9857115910615781 
1.9399999999998028, -1.9854533717193088 
1.9499999999998017, -1.9852307965113245 
1.9599999999998006, -1.9849962084717514 
1.9699999999997995, -1.984724790579121 
1.9799999999997984, -1.984410609170185 
1.9899999999997973, -1.9840591630455706 
1.9999999999997962, -1.983686110677001 
2.0099999999998173, -1.9833187240562875 
2.0199999999998384, -1.9829895536207687 
2.0299999999998595, -1.9827177446007351 
2.0399999999998806, -1.9824940788528278 
2.0499999999999017, -1.9822876137225465 
2.059999999999923, -1.9820645232194933 
2.069999999999944, -1.9817999282861531 
2.079999999999965, -1.9814790613308002 
2.089999999999986, -1.9810948783998978 
2.100000000000007, -1.9806487101998766 
2.1100000000000283, -1.9801565192743773 
2.1200000000000494, -1.979656891226242 
2.1300000000000705, -1.9792063628232408 
2.1400000000000916, -1.9788484703901283 
2.1500000000001127, -1.978578817905511 
2.160000000000134, -1.9783515370222269 
2.170000000000155, -1.9781181153457676 
2.180000000000176, -1.9778509188390245 
2.190000000000197, -1.9775416943752506 
2.2000000000002182, -1.977194156064808 
2.2100000000002393, -1.9768221249453788 
2.2200000000002604, -1.9764514251757046 
2.2300000000002815, -1.9761154711427082 
2.2400000000003026, -1.9758374970113184 
2.2500000000003237, -1.9756127124841574 
2.260000000000345, -1.9754114887251955 
2.270000000000366, -1.9751984815733117 
2.280000000000387, -1.9749467689736349 
2.290000000000408, -1.9746403275293143 
2.3000000000004293, -1.9742714515418438 
2.3100000000004504, -1.973840263394525 
2.3200000000004715, -1.9733594931597422 
2.3300000000004926, -1.9728621982376506 
2.3400000000005137, -1.9724008438192602 
2.3500000000005348, -1.9720228672019633 
2.360000000000556, -1.9717349112674565 
2.370000000000577, -1.9714989468419222 
2.380000000000598, -1.9712661156420708 
2.390000000000619, -1.9710046669317696 
2.4000000000006403, -1.9707027044841066 
2.4100000000006614, -1.9703612332131706 
2.4200000000006825, -1.9699913397025814 
2.4300000000007036, -1.9696163223887588 
2.4400000000007247, -1.969269932216185 
2.450000000000746, -1.9689808359910572 
2.460000000000767, -1.96875145588441 
2.470000000000788, -1.9685552590491582 
2.480000000000809, -1.9683551086693147 
2.49000000000083, -1.9681208200123474 
2.5000000000008513, -1.9678341203026322 
2.5100000000008724, -1.967486185775274 
2.5200000000008935, -1.9670757861946366 
2.5300000000009146, -1.9666121325994752 
2.5400000000009357, -1.9661216883240127 
2.550000000000957, -1.9656506742581648 
2.560000000000978, -1.9652487768454552 
2.570000000000999, -1.9649355497544203 
2.58000000000102, -1.9646851205040214 
2.5900000000010412, -1.964450578150195 
2.6000000000010624, -1.964195458103872 
2.6100000000010835, -1.9639028165154648 
2.6200000000011046, -1.9635699047365907 
2.6300000000011257, -1.9632041885636078 
2.6400000000011468, -1.9628251212896888 
2.650000000001168, -1.9624652771726947 
2.660000000001189, -1.9621589814085652 
2.67000000000121, -1.961918980719399 
2.680000000001231, -1.9617251522467458 
2.6900000000012523, -1.96153922971065 
2.7000000000012734, -1.9613264082659492 
2.7100000000012945, -1.961064654946077 
2.7200000000013156, -1.9607432388490775 
2.7300000000013367, -1.9603595074222553 
2.740000000001358, -1.9599194420961705 
2.750000000001379, -1.9594427611579222 
2.7600000000014, -1.9589675189650204 
2.770000000001421, -1.9585421198398787 
2.780000000001442, -1.9581980605714482 
2.7900000000014633, -1.957925783424835 
2.8000000000014844, -1.9576848666720745 
2.8100000000015055, -1.9574350716539421 
2.8200000000015266, -1.9571531900795947 
2.8300000000015477, -1.956831511258899 
2.840000000001569, -1.9564730369191285 
2.85000000000159, -1.9560920487618874 
2.860000000001611, -1.955717478548861 
2.870000000001632, -1.9553875421182305 
2.8800000000016532, -1.9551277083398524 
2.8900000000016743, -1.9549295135894578 
2.9000000000016954, -1.9547563522808296 
2.9100000000017165, -1.9545678218765477 
2.9200000000017377, -1.9543359165397838 
2.9300000000017588, -1.9540465068140573 
2.94000000000178, -1.9536951901351771 
2.950000000001801, -1.9532853266006902 
2.960000000001822, -1.9528307028307879 
2.970000000001843, -1.9523604077223553 
2.9800000000018643, -1.9519174296990165 
2.9900000000018854, -1.9515408465554216 
3.0000000000019065, -1.9512391690313364 
3.0100000000019276, -1.9509846416630936 
3.0200000000019487, -1.950736786925156 
3.03000000000197, -1.9504658425994474 
3.040000000001991, -1.9501578397776371 
3.050000000002012, -1.9498104850703566 
3.060000000002033, -1.949431885730641 
3.070000000002054, -1.9490445045072655 
3.0800000000020753, -1.9486861920760714 
3.0900000000020964, -1.9483946846125737 
3.1000000000021175, -1.9481794882314758 
3.1100000000021386, -1.9480122408496663 
3.1200000000021597, -1.9478479268297064 
3.130000000002181, -1.9476498415416212 
3.140000000002202, -1.9473977678000955 
3.150000000002223, -1.9470844207951834 
3.160000000002244, -1.9467109784840386 
3.1700000000022652, -1.9462867295158546 
3.1800000000022863, -1.9458325427114638 
3.1900000000023074, -1.9453830835917365 
3.2000000000023285, -1.944978521705903 
3.2100000000023496, -1.9446426585423022 
3.2200000000023707, -1.944365687454841 
3.230000000002392, -1.9441133882230297 
3.240000000002413, -1.9438513913459985 
3.250000000002434, -1.9435585575398164 
3.260000000002455, -1.9432264025053918 
3.2700000000024763, -1.9428563645479517 
3.2800000000024974, -1.9424623147847164 
3.2900000000025185, -1.942075879872401 
3.3000000000025396, -1.9417414908660304 
3.3100000000025607, -1.9414903105836039 
3.3200000000025818, -1.9413131322343105 
3.330000000002603, -1.9411665379316556 
3.340000000002624, -1.9410034695482117 
3.350000000002645, -1.9407934168336602 
3.360000000002666, -1.9405234619872567 
3.3700000000026873, -1.940192136925767 
3.3800000000027084, -1.9398056013804463 
3.3900000000027295, -1.9393784172312034 
3.4000000000027506, -1.9389364095949542 
3.4100000000027717, -1.938515067044189 
3.420000000002793, -1.9381464650193791 
3.430000000002814, -1.9378394841316946 
3.440000000002835, -1.9375737239401842 
3.450000000002856, -1.9373155980457912 
3.460000000002877, -1.937037461453744 
3.4700000000028983, -1.9367238075789053 
3.4800000000029194, -1.936369252801565 
3.4900000000029405, -1.9359785076687168 
3.5000000000029616, -1.935572061077489 
3.5100000000029827, -1.9351907872478016 
3.520000000003004, -1.9348826382251485 
3.530000000003025, -1.9346681931477332 
3.540000000003046, -1.9345204733476464 
3.550000000003067, -1.9343862822394187 
3.5600000000030882, -1.934220302055342 
3.5700000000031094, -1.9339987055108203 
3.5800000000031305, -1.9337148964403053 
3.5900000000031516, -1.9333722620719525 
3.6000000000031727, -1.9329811662439547 
3.6100000000031938, -1.9325601589384327 
3.620000000003215, -1.9321373165390447 
3.630000000003236, -1.9317451609256042 
3.640000000003257, -1.9314059997336908 
3.650000000003278, -1.9311175049967855 
3.6600000000032993, -1.930854902167399 
3.6700000000033204, -1.9305879102582684 
3.6800000000033415, -1.9302940650171478 
3.6900000000033626, -1.9299610290514475 
3.7000000000033837, -1.929585162854067 
3.710000000003405, -1.9291743519683824 
3.720000000003426, -1.9287560826264634 
3.730000000003447, -1.9283797661453093 
3.740000000003468, -1.92809440258184 
3.750000000003489, -1.9279088413660737 
3.7600000000035103, -1.9277813532644434 
3.7700000000035314, -1.927653119071012 
3.7800000000035525, -1.9274821966393763 
3.7900000000035736, -1.9272508477917853 
3.8000000000035947, -1.9269576180205 
3.810000000003616, -1.9266097310100494 
3.820000000003637, -1.9262207521686476 
3.830000000003658, -1.9258116952383788 
3.840000000003679, -1.9254105830197665 
3.8500000000037002, -1.925045031660579 
3.8600000000037213, -1.9247284858042442 
3.8700000000037424, -1.9244514924136145 
3.8800000000037635, -1.9241884252182644 
3.8900000000037847, -1.923912470292425 
3.9000000000038058, -1.9236044791761533 
3.910000000003827, -1.9232535794117172 
3.920000000003848, -1.9228570172244317 
3.930000000003869, -1.9224255241899868 
3.94000000000389, -1.9219931074258878 
3.9500000000039113, -1.9216165057083472 
3.9600000000039324, -1.921344757172524 
3.9700000000039535, -1.921176608004178 
3.9800000000039746, -1.921059499730824 
3.9900000000039957, -1.92093170534378 
4.000000000004016, -1.9207547477124631 
4.010000000003993, -1.9205157140495768 
4.02000000000397, -1.9202169337993706 
4.030000000003946, -1.9198683538590242 
4.040000000003923, -1.919485675655198 
4.0500000000039, -1.9190910822156801 
4.0600000000038765, -1.9187111981885732 
4.070000000003853, -1.918368462520289 
4.08000000000383, -1.9180693881046778 
4.090000000003807, -1.9178003950198441 
4.100000000003783, -1.9175363977334494 
4.11000000000376, -1.9172532260500255 
4.120000000003737, -1.9169335314867813 
4.130000000003713, -1.9165668174902752 
4.14000000000369, -1.9161505277899717 
4.150000000003667, -1.9156973677129714 
4.1600000000036434, -1.9152463056118023 
4.17000000000362, -1.9148597751044985 
4.180000000003597, -1.91458746554298 
4.1900000000035735, -1.9144220296957042 
4.20000000000355, -1.9143044931249384 
4.210000000003527, -1.914171768645034 
4.220000000003504, -1.9139878219789683 
4.23000000000348, -1.9137427842073191 
4.240000000003457, -1.9134412316315346 
4.250000000003434, -1.913094673858123 
4.26000000000341, -1.9127200053612576 
4.270000000003387, -1.9123397994909948 
4.280000000003364, -1.9119789803627156 
4.2900000000033405, -1.9116556038662356 
4.300000000003317, -1.9113711632680803 
4.310000000003294, -1.9111096270411951 
4.320000000003271, -1.9108465821593241 
4.330000000003247, -1.9105594933011276 
4.340000000003224, -1.910231808253993 
4.350000000003201, -1.9098528346630002 
4.360000000003177, -1.9094196571057793 
4.370000000003154, -1.9089455614466098 
4.380000000003131, -1.9084717787098568 
4.390000000003107, -1.908064057717299 
4.400000000003084, -1.907774273696931 
4.410000000003061, -1.9075947540430942 
4.4200000000030375, -1.9074651345385223 
4.430000000003014, -1.9073219320642605 
4.440000000002991, -1.9071298236760932 
4.450000000002968, -1.9068798184086035 
4.460000000002944, -1.906577066043565 
4.470000000002921, -1.906233485389286 
4.480000000002898, -1.9058664240492722 
4.490000000002874, -1.9054986316842932 
4.500000000002851, -1.9051539173550769 
4.510000000002828, -1.904847349578802 
4.520000000002804, -1.904576923515695 
4.530000000002781, -1.9043247705375077 
4.540000000002758, -1.9040666122000836 
4.5500000000027345, -1.9037806450533972 
4.560000000002711, -1.9034506119118226 
4.570000000002688, -1.9030655746256617 
4.580000000002665, -1.9026220319993243 
4.590000000002641, -1.9021323404682353 
4.600000000002618, -1.9016364895661628 
4.610000000002595, -1.9011999480217636 
4.620000000002571, -1.9008776775034477 
4.630000000002548, -1.900667930126857 
4.640000000002525, -1.900514772130247 
4.6500000000025015, -1.9003555798206306 
4.660000000002478, -1.9001539171762805 
4.670000000002455, -1.8998993833282458 
4.6800000000024315, -1.8995959811871905 
4.690000000002408, -1.8992548977250583 
4.700000000002385, -1.8988933274737412 
4.710000000002362, -1.898534405350976 
4.720000000002338, -1.8982021242226392 
4.730000000002315, -1.897910460902316 
4.740000000002292, -1.8976551729335465 
4.750000000002268, -1.8974164417452297 
4.760000000002245, -1.8971691396183819 
4.770000000002222, -1.8968913582783327 
4.7800000000021985, -1.8965669979933413 
4.790000000002175, -1.8961853037290273 
4.800000000002152, -1.8957424967332421 
4.810000000002129, -1.895249003202626 
4.820000000002105, -1.8947401842178107 
4.830000000002082, -1.8942765731197393 
4.840000000002059, -1.893914789228831 
4.850000000002035, -1.8936635663935892 
4.860000000002012, -1.8934775878180958 
4.870000000001989, -1.8932975800399816 
4.880000000001965, -1.893084975146532 
4.890000000001942, -1.8928259845998407 
4.900000000001919, -1.8925218245277429 
4.9100000000018955, -1.8921817726172159 
4.920000000001872, -1.8918221825382218 
4.930000000001849, -1.8914668742438832 
4.940000000001826, -1.8911418521696342 
4.950000000001802, -1.8908626518392524 
