t, s[1].omega / s[0].omega 
0, -0.6199977200282878 
0.009999999999999995, -0.6197655756926477 
0.019999999999999934, -0.6195253728135948 
0.029999999999999874, -0.6192775576809548 
0.04000000000000012, -0.6190228523544417 
0.050000000000000405, -0.6187622279575777 
0.06000000000000069, -0.6184968673943023 
0.07000000000000098, -0.6182281280969233 
0.08000000000000126, -0.6179575192238735 
0.09000000000000155, -0.6176867039889455 
0.10000000000000184, -0.6174175285964265 
0.11000000000000212, -0.6171520682405337 
0.12000000000000241, -0.6168926701036278 
0.130000000000002, -0.6166419640474674 
0.1400000000000009, -0.6164028047915164 
0.1499999999999998, -0.6161781081530099 
0.1599999999999987, -0.6159705549043845 
0.1699999999999976, -0.615782166901736 
0.1799999999999965, -0.6156138144229227 
0.1899999999999954, -0.6154647790270825 
0.1999999999999943, -0.6153325383827025 
0.2099999999999932, -0.6152129129482684 
0.2199999999999921, -0.6151005993641399 
0.229999999999991, -0.6149899556412782 
0.2399999999999899, -0.6148757938918779 
0.2499999999999888, -0.6147539499528232 
0.2599999999999877, -0.6146215194717833 
0.2699999999999866, -0.6144767902101547 
0.2799999999999855, -0.6143189832232465 
0.2899999999999844, -0.6141479244614422 
0.2999999999999833, -0.6139637330094347 
0.3099999999999822, -0.6137665691689658 
0.3199999999999811, -0.6135564552712693 
0.32999999999998, -0.613333168532961 
0.3399999999999789, -0.6130962044063514 
0.3499999999999778, -0.6128448146366512 
0.35999999999997667, -0.6125781302791719 
0.36999999999997557, -0.612295379226774 
0.37999999999997447, -0.6119961929544064 
0.38999999999997337, -0.6116809641541735 
0.39999999999997227, -0.6113511725955717 
0.40999999999997117, -0.6110095645310046 
0.41999999999997006, -0.6106600839671874 
0.42999999999996896, -0.6103075276007872 
0.43999999999996786, -0.6099570017763126 
0.44999999999996676, -0.6096133382798736 
0.45999999999996566, -0.6092806285215379 
0.46999999999996456, -0.6089619683644114 
0.47999999999996346, -0.6086594173145647 
0.48999999999996235, -0.6083741137189745 
0.49999999999996125, -0.6081064684501639 
0.5099999999999602, -0.6078563717960518 
0.519999999999959, -0.6076233721359702 
0.529999999999958, -0.6074068065407506 
0.5399999999999568, -0.6072058775705016 
0.5499999999999557, -0.6070196778701404 
0.5599999999999546, -0.6068471674465806 
0.5699999999999535, -0.6066871107189762 
0.5799999999999524, -0.6065379841239575 
0.5899999999999513, -0.6063978721158942 
0.5999999999999502, -0.6062643801386955 
0.6099999999999491, -0.6061346043898733 
0.619999999999948, -0.6060052016305697 
0.6299999999999469, -0.6058725865463507 
0.6399999999999458, -0.6057332437664019 
0.6499999999999447, -0.6055840886586845 
0.6599999999999436, -0.6054227754641069 
0.6699999999999425, -0.6052478611096244 
0.6799999999999414, -0.6050587876827705 
0.6899999999999403, -0.604855713991039 
0.6999999999999392, -0.6046392694832134 
0.7099999999999381, -0.6044103074939904 
0.719999999999937, -0.6041697109945139 
0.7299999999999359, -0.603918273922999 
0.7399999999999348, -0.6036566591602741 
0.7499999999999337, -0.6033854237410036 
0.7599999999999326, -0.603105099425607 
0.7699999999999315, -0.6028163169590784 
0.7799999999999304, -0.6025199609356209 
0.7899999999999293, -0.6022173367862487 
0.7999999999999282, -0.6019103215189684 
0.8099999999999271, -0.6016014570780012 
0.819999999999926, -0.6012939344804331 
0.8299999999999249, -0.6009914185361758 
0.8399999999999238, -0.6006976915402452 
0.8499999999999227, -0.6004161571379462 
0.8599999999999216, -0.60014932281906 
0.8699999999999205, -0.599898421394037 
0.8799999999999194, -0.5996632952465828 
0.8899999999999183, -0.5994425634749525 
0.8999999999999172, -0.5992339851306625 
0.9099999999999161, -0.5990348821590439 
0.919999999999915, -0.5988425044684706 
0.9299999999999139, -0.5986542753533892 
0.9399999999999128, -0.5984679103924149 
0.9499999999999117, -0.598281437016466 
0.9599999999999106, -0.5980931542574098 
0.9699999999999095, -0.5979015706379052 
0.9799999999999084, -0.5977053506071084 
0.9899999999999073, -0.5975032904848131 
0.9999999999999062, -0.5972943341163648 
1.0099999999999052, -0.5970776255875583 
1.019999999999904, -0.5968525822623106 
1.029999999999903, -0.596618960676176 
1.039999999999902, -0.5963768874401134 
1.0499999999999008, -0.5961268408862869 
1.0599999999998997, -0.5958695909574251 
1.0699999999998986, -0.5956061214114753 
1.0799999999998975, -0.5953375596640528 
1.0899999999998964, -0.5950651279674202 
1.0999999999998953, -0.5947901167490894 
1.1099999999998942, -0.5945138756586699 
1.119999999999893, -0.5942378196710086 
1.129999999999892, -0.5939634504410269 
1.1399999999998909, -0.5936923924607871 
1.1499999999998898, -0.593426438917638 
1.1599999999998887, -0.5931675951934657 
1.1699999999998876, -0.5929181003747497 
1.1799999999998865, -0.592680400263543 
1.1899999999998854, -0.5924570412145708 
1.1999999999998843, -0.592250456791951 
1.2099999999998832, -0.5920626352279219 
1.219999999999882, -0.5918946913151953 
1.229999999999881, -0.5917464210086278 
1.2399999999998799, -0.591615973348818 
1.2499999999998788, -0.5914997950686909 
1.2599999999998777, -0.5913929485003876 
1.2699999999998766, -0.5912897700464737 
1.2799999999998755, -0.5911846863131227 
1.2899999999998744, -0.5910729341205149 
1.2999999999998733, -0.5909509884469422 
1.3099999999998722, -0.5908166440723611 
1.319999999999871, -0.5906688269264194 
1.32999999999987, -0.5905072671671283 
1.3399999999998689, -0.5903321509175228 
1.3499999999998678, -0.590143820871867 
1.3599999999998666, -0.5899425527249569 
1.3699999999998655, -0.5897284092058592 
1.3799999999998644, -0.5895011657600744 
1.3899999999998633, -0.5892603052706569 
1.3999999999998622, -0.5890050868010432 
1.4099999999998611, -0.5887346985996138 
1.41999999999986, -0.5884485014667142 
1.429999999999859, -0.5881463484813472 
1.4399999999998578, -0.587828929935491 
1.4499999999998567, -0.5874980503320153 
1.4599999999998556, -0.5871567254280211 
1.4699999999998545, -0.5868090210043504 
1.4799999999998534, -0.5864596431958798 
1.4899999999998523, -0.5861133907284442 
1.4999999999998512, -0.5857746310384526 
1.5099999999998501, -0.5854469352671192 
1.519999999999849, -0.585132926859571 
1.529999999999848, -0.58483431799248 
1.5399999999998468, -0.584552064222476 
1.5499999999998457, -0.5842865640673826 
1.5599999999998446, -0.5840378494576921 
1.5699999999998435, -0.5838057366116347 
1.5799999999998424, -0.5835899247340139 
1.5899999999998413, -0.5833900398780889 
1.5999999999998402, -0.5832056253853646 
1.6099999999998391, -0.583036081786377 
1.619999999999838, -0.5828805611719379 
1.629999999999837, -0.5827378268332957 
1.6399999999998358, -0.5826061006043027 
1.6499999999998347, -0.5824829373272099 
1.6599999999998336, -0.5823651820075373 
1.6699999999998325, -0.58224906713919 
1.6799999999998314, -0.5821304801538 
1.6899999999998303, -0.5820053713333888 
1.6999999999998292, -0.5818702042458945 
1.709999999999828, -0.5817223162721167 
1.719999999999827, -0.5815600851294348 
1.729999999999826, -0.5813828749134383 
1.7399999999998248, -0.5811908146537831 
1.7499999999998237, -0.5809845021263155 
1.7599999999998226, -0.5807647184139022 
1.7699999999998215, -0.5805322054437215 
1.7799999999998204, -0.5802875247613548 
1.7899999999998193, -0.5800309948625284 
1.7999999999998182, -0.5797626977523443 
1.809999999999817, -0.5794825480097456 
1.819999999999816, -0.5791904233136689 
1.8299999999998149, -0.578886358467926 
1.8399999999998138, -0.5785707998762547 
1.8499999999998127, -0.5782448987451964 
1.8599999999998116, -0.577910787066958 
1.8699999999998105, -0.5775717399643272 
1.8799999999998094, -0.5772321087982287 
1.8899999999998083, -0.5768969486172081 
1.8999999999998072, -0.5765713735871996 
1.909999999999806, -0.5762598080855199 
1.919999999999805, -0.575965369747063 
1.9299999999998039, -0.5756895678663893 
1.9399999999998028, -0.5754323604109917 
1.9499999999998017, -0.5751924779770657 
1.9599999999998006, -0.5749678623062084 
1.9699999999997995, -0.5747560843523367 
1.9799999999997984, -0.5745546635603495 
1.9899999999997973, -0.5743612663171758 
1.9999999999997962, -0.574173798081154 
2.0099999999998173, -0.5739904193456715 
2.0199999999998384, -0.5738095171809882 
2.0299999999998595, -0.5736296587045426 
2.0399999999998806, -0.5734495448776561 
2.0499999999999017, -0.5732679745870934 
2.059999999999923, -0.5730838213611843 
2.069999999999944, -0.5728960202316442 
2.079999999999965, -0.5727035624672323 
2.089999999999986, -0.5725055012505307 
2.100000000000007, -0.5723009770123333 
2.1100000000000283, -0.5720892691249627 
2.1200000000000494, -0.571869867651527 
2.1300000000000705, -0.5716425425358763 
2.1400000000000916, -0.5714073819816669 
2.1500000000001127, -0.5711647836711473 
2.160000000000134, -0.570915404457328 
2.170000000000155, -0.5706600917548764 
2.180000000000176, -0.5703998241677884 
2.190000000000197, -0.5701356812775151 
2.2000000000002182, -0.5698688497518374 
2.2100000000002393, -0.5696006606375066 
2.2200000000002604, -0.5693326427341084 
2.2300000000002815, -0.5690665687893114 
2.2400000000003026, -0.5688044647583788 
2.2500000000003237, -0.5685485500173673 
2.260000000000345, -0.5683010838878008 
2.270000000000366, -0.5680641173876514 
2.280000000000387, -0.5678391887837573 
2.290000000000408, -0.5676270429456829 
2.3000000000004293, -0.5674274697026374 
2.3100000000004504, -0.5672393229918176 
2.3200000000004715, -0.5670607111652296 
2.3300000000004926, -0.5668892846081296 
2.3400000000005137, -0.5667225303947692 
2.3500000000005348, -0.5665580124877903 
2.360000000000556, -0.5663935350975423 
2.370000000000577, -0.5662272303572629 
2.380000000000598, -0.5660575796129318 
2.390000000000619, -0.5658833810343061 
2.4000000000006403, -0.5657036799049748 
2.4100000000006614, -0.5655176806258626 
2.4200000000006825, -0.5653246596555882 
2.4300000000007036, -0.5651238969248161 
2.4400000000007247, -0.5649146410502678 
2.450000000000746, -0.564696121069736 
2.460000000000767, -0.5644676125857855 
2.470000000000788, -0.5642285561839304 
2.480000000000809, -0.563978709279143 
2.49000000000083, -0.5637182927881219 
2.5000000000008513, -0.5634480818748104 
2.5100000000008724, -0.5631693985288616 
2.5200000000008935, -0.5628839967812389 
2.5300000000009146, -0.5625938746290151 
2.5400000000009357, -0.5623010745167472 
2.550000000000957, -0.5620075301308961 
2.560000000000978, -0.5617149881882118 
2.570000000000999, -0.5614250017524751 
2.58000000000102, -0.5611389734938286 
2.5900000000010412, -0.5608582252347927 
2.6000000000010624, -0.5605840761115063 
2.6100000000010835, -0.5603179174792692 
2.6200000000011046, -0.5600612745849445 
2.6300000000011257, -0.5598158430537403 
2.6400000000011468, -0.5595834839791356 
2.650000000001168, -0.5593661569975852 
2.660000000001189, -0.5591657692673663 
2.67000000000121, -0.5589839245802533 
2.680000000001231, -0.5588215771162571 
2.6900000000012523, -0.5586786328336676 
2.7000000000012734, -0.55855359302869 
2.7100000000012945, -0.5584433764955081 
2.7200000000013156, -0.5583434506026587 
2.7300000000013367, -0.5582483178296153 
2.740000000001358, -0.5581522610209319 
2.750000000001379, -0.558050125975355 
2.7600000000014, -0.5579379008227524 
2.770000000001421, -0.5578129539296737 
2.780000000001442, -0.5576739427439503 
2.7900000000014633, -0.5575205114340379 
2.8000000000014844, -0.5573529166593285 
2.8100000000015055, -0.5571716825847063 
2.8200000000015266, -0.5569773331374613 
2.8300000000015477, -0.5567702107615012 
2.840000000001569, -0.5565503736587127 
2.85000000000159, -0.5563175625083313 
2.860000000001611, -0.5560712348943292 
2.870000000001632, -0.5558106738967178 
2.8800000000016532, -0.5555351797094648 
2.8900000000016743, -0.5552443428405145 
2.9000000000016954, -0.5549383699061072 
2.9100000000017165, -0.5546183927044674 
2.9200000000017377, -0.5542866580493586 
2.9300000000017588, -0.5539465006127714 
2.94000000000178, -0.5536020626541355 
2.950000000001801, -0.5532578230424829 
2.960000000001822, -0.5529180771098422 
2.970000000001843, -0.5525865186636036 
2.9800000000018643, -0.5522660153167496 
2.9900000000018854, -0.5519585832976153 
3.0000000000019065, -0.5516655065955691 
3.0100000000019276, -0.5513875261929326 
3.0200000000019487, -0.5511250374552283 
3.03000000000197, -0.5508782572307908 
3.040000000001991, -0.5506473424306562 
3.050000000002012, -0.5504324537218281 
3.060000000002033, -0.5502337624383278 
3.070000000002054, -0.5500513991727112 
3.0800000000020753, -0.5498853425028196 
3.0900000000020964, -0.5497352498293404 
3.1000000000021175, -0.549600243220432 
3.1100000000021386, -0.5494786838113421 
3.1200000000021597, -0.5493679957206811 
3.130000000002181, -0.549264621827107 
3.140000000002202, -0.5491641869959627 
3.150000000002223, -0.5490618910339355 
3.160000000002244, -0.548953062115578 
3.1700000000022652, -0.5488337177796726 
3.1800000000022863, -0.5487009627228406 
3.1900000000023074, -0.5485531195917192 
3.2000000000023285, -0.5483895988715279 
3.2100000000023496, -0.5482105996557163 
3.2200000000023707, -0.5480167572039365 
3.230000000002392, -0.5478088260188035 
3.240000000002413, -0.5475874423560099 
3.250000000002434, -0.5473529746235407 
3.260000000002455, -0.5471054534846099 
3.2700000000024763, -0.5468445727305677 
3.2800000000024974, -0.5465697599739795 
3.2900000000025185, -0.5462803255991083 
3.3000000000025396, -0.5459757017309268 
3.3100000000025607, -0.5456557718013866 
3.3200000000025818, -0.5453212584287255 
3.330000000002603, -0.544974085117 
3.340000000002624, -0.5446175786655724 
3.350000000002645, -0.5442563772152218 
3.360000000002666, -0.543895988232083 
3.3700000000026873, -0.5435420829553326 
3.3800000000027084, -0.5431997376837535 
3.3900000000027295, -0.542872853131523 
3.4000000000027506, -0.5425638897398061 
3.4100000000027717, -0.5422739186353233 
3.420000000002793, -0.5420028876806993 
3.430000000002814, -0.5417499741283457 
3.440000000002835, -0.5415139221624017 
3.450000000002856, -0.541293309284701 
3.460000000002877, -0.5410867242524244 
3.4700000000028983, -0.5408928621376112 
3.4800000000029194, -0.5407105509794237 
3.4900000000029405, -0.5405387249350412 
3.5000000000029616, -0.5403763559167463 
3.5100000000029827, -0.5402223532802769 
3.520000000003004, -0.540075442193588 
3.530000000003025, -0.5399340380196714 
3.540000000003046, -0.5397961461907259 
3.550000000003067, -0.5396593292197503 
3.5600000000030882, -0.5395207828951106 
3.5700000000031094, -0.5393775397970104 
3.5800000000031305, -0.5392267699831395 
3.5900000000031516, -0.5390660980601772 
3.6000000000031727, -0.5388938368875926 
3.6100000000031938, -0.5387090684870899 
3.620000000003215, -0.5385115650735488 
3.630000000003236, -0.5383015992071354 
3.640000000003257, -0.5380797145250633 
3.650000000003278, -0.53784651741486 
3.6600000000032993, -0.5376025234449388 
3.6700000000033204, -0.5373480683293447 
3.6800000000033415, -0.5370832799453005 
3.6900000000033626, -0.536808105100303 
3.7000000000033837, -0.5365223882107732 
3.710000000003405, -0.5362260040606757 
3.720000000003426, -0.535919048506172 
3.730000000003447, -0.535602083639575 
3.740000000003468, -0.5352764115369543 
3.750000000003489, -0.5349443124273294 
3.7600000000035103, -0.5346091434797925 
3.7700000000035314, -0.5342751883634914 
3.7800000000035525, -0.5339472114268385 
3.7900000000035736, -0.5336297972463971 
3.8000000000035947, -0.5333266746494421 
3.810000000003616, -0.5330402456340935 
3.820000000003637, -0.5327714435322455 
3.830000000003658, -0.532519900529192 
3.840000000003679, -0.5322843030557611 
3.8500000000037002, -0.5320627932136397 
3.8600000000037213, -0.5318533136436966 
3.8700000000037424, -0.5316538495379023 
3.8800000000037635, -0.5314625654330005 
3.8900000000037847, -0.5312778574823859 
3.9000000000038058, -0.5310983482116084 
3.910000000003827, -0.5309228476423996 
3.920000000003848, -0.5307502978175396 
3.930000000003869, -0.5305797105221328 
3.94000000000389, -0.5304101025309633 
3.9500000000039113, -0.5302404311574593 
3.9600000000039324, -0.5300695370798751 
3.9700000000039535, -0.5298961104745741 
3.9800000000039746, -0.5297187039087221 
3.9900000000039957, -0.5295358106610722 
4.000000000004016, -0.529346004339256 
4.010000000003993, -0.529148103743789 
4.02000000000397, -0.5289413073127213 
4.030000000003946, -0.5287252506069116 
4.040000000003923, -0.5284999736104946 
4.0500000000039, -0.5282658204330939 
4.0600000000038765, -0.5280233126624351 
4.070000000003853, -0.5277730350610701 
4.08000000000383, -0.5275155574309575 
4.090000000003807, -0.5272514004317785 
4.100000000003783, -0.5269810421155257 
4.11000000000376, -0.5267049566540872 
4.120000000003737, -0.5264236753240128 
4.130000000003713, -0.5261378604262984 
4.14000000000369, -0.5258483844850363 
4.150000000003667, -0.5255564087367269 
4.1600000000036434, -0.5252634536090357 
4.17000000000362, -0.5249714446767392 
4.180000000003597, -0.5246826995006619 
4.1900000000035735, -0.5243998070106383 
4.20000000000355, -0.5241253685560379 
4.210000000003527, -0.5238616322096432 
4.220000000003504, -0.5236101277664174 
4.23000000000348, -0.5233714361376679 
4.240000000003457, -0.5231451725979968 
4.250000000003434, -0.5229301664812105 
4.26000000000341, -0.5227247478769119 
4.270000000003387, -0.5225270391818804 
4.280000000003364, -0.5223351820881544 
4.2900000000033405, -0.5221474753412683 
4.300000000003317, -0.5219624318663861 
4.310000000003294, -0.5217787795032663 
4.320000000003271, -0.5215954318619331 
4.330000000003247, -0.5214114509975857 
4.340000000003224, -0.5212260159302486 
4.350000000003201, -0.5210384023882886 
4.360000000003177, -0.5208479707161422 
4.370000000003154, -0.5206541529629851 
4.380000000003131, -0.5204564304655594 
4.390000000003107, -0.5202543021126823 
4.400000000003084, -0.5200472573328547 
4.410000000003061, -0.519834775996392 
4.4200000000030375, -0.5196163694736227 
4.430000000003014, -0.5193916544972335 
4.440000000002991, -0.5191604299256981 
4.450000000002968, -0.5189227229023761 
4.460000000002944, -0.5186787876691419 
4.470000000002921, -0.5184290642804259 
4.480000000002898, -0.5181741202058966 
4.490000000002874, -0.5179145993875847 
4.500000000002851, -0.5176511947897714 
4.510000000002828, -0.5173846490140186 
4.520000000002804, -0.5171157778170364 
4.530000000002781, -0.5168455045690619 
4.540000000002758, -0.5165748895110652 
4.5500000000027345, -0.516305136518804 
4.560000000002711, -0.516037564007964 
4.570000000002688, -0.5157735379041621 
4.580000000002665, -0.5155143817517824 
4.590000000002641, -0.515261292624267 
4.600000000002618, -0.5150152870200426 
4.610000000002595, -0.5147771738077733 
4.620000000002571, -0.5145475221762236 
4.630000000002548, -0.5143265954002896 
4.640000000002525, -0.5141142626901403 
4.6500000000025015, -0.5139099424828637 
4.660000000002478, -0.5137126275770221 
4.670000000002455, -0.5135209977116201 
4.6800000000024315, -0.5133335795116836 
4.690000000002408, -0.5131488994193512 
4.700000000002385, -0.5129655914296478 
4.710000000002362, -0.512782448287912 
4.720000000002338, -0.5125984256896213 
4.730000000002315, -0.5124126187633953 
4.740000000002292, -0.5122242310732729 
4.750000000002268, -0.5120325524404359 
4.760000000002245, -0.5118369553434955 
4.770000000002222, -0.5116369111250653 
4.7800000000021985, -0.5114320173995659 
4.790000000002175, -0.5112220197740782 
4.800000000002152, -0.5110068096488531 
4.810000000002129, -0.5107863899941781 
4.820000000002105, -0.5105608201597482 
4.830000000002082, -0.5103301670180708 
4.840000000002059, -0.5100944892258388 
4.850000000002035, -0.5098538619019192 
4.860000000002012, -0.509608424632576 
4.870000000001989, -0.5093584247147465 
4.880000000001965, -0.5091042359423132 
4.890000000001942, -0.5088463515544299 
4.900000000001919, -0.5085853643695892 
4.9100000000018955, -0.5083219507673411 
4.920000000001872, -0.5080568698431482 
