t, s[1].omega / s[0].omega 
0, -2.7249958921258703 
0.009999999999999995, -2.724538846129596 
0.019999999999999934, -2.7239993748741176 
0.029999999999999874, -2.7234206441882076 
0.04000000000000012, -2.7228958106123096 
0.050000000000000405, -2.7224988119510347 
0.06000000000000069, -2.722187139652948 
0.07000000000000098, -2.7218675499001668 
0.08000000000000126, -2.72149356062043 
0.09000000000000155, -2.7210646075613125 
0.10000000000000184, -2.7206062676819465 
0.11000000000000212, -2.7201617213670195 
0.12000000000000241, -2.719765314487721 
0.130000000000002, -2.7194109185501536 
0.1400000000000009, -2.7190592009636783 
0.1499999999999998, -2.7186687359925235 
0.1599999999999987, -2.7182124876151397 
0.1699999999999976, -2.717683590102249 
0.1799999999999965, -2.717121929197863 
0.1899999999999954, -2.716639970481894 
0.1999999999999943, -2.7163253106679353 
0.2099999999999932, -2.7161090269404524 
0.2199999999999921, -2.715866222258734 
0.229999999999991, -2.7155388277091084 
0.2399999999999899, -2.715122077293349 
0.2499999999999888, -2.7146317526812362 
0.2599999999999877, -2.7141035372017095 
0.2699999999999866, -2.713600829781054 
0.2799999999999855, -2.7131808592000732 
0.2899999999999844, -2.7128303413430666 
0.2999999999999833, -2.7124843856757175 
0.3099999999999822, -2.71209736562719 
0.3199999999999811, -2.7116605020487023 
0.32999999999998, -2.711195853586923 
0.3399999999999789, -2.71075402017751 
0.3499999999999778, -2.7103792632188695 
0.35999999999997667, -2.710058907406823 
0.36999999999997557, -2.709739193967901 
0.37999999999997447, -2.7093724304968108 
0.38999999999997337, -2.708930394121185 
0.39999999999997227, -2.708400876981151 
0.40999999999997117, -2.7078054796034574 
0.41999999999997006, -2.707240681861154 
0.42999999999996896, -2.706834315166254 
0.43999999999996786, -2.706577483998327 
0.44999999999996676, -2.7063398145546 
0.45999999999996566, -2.7060353927746754 
0.46999999999996456, -2.7056498494606465 
0.47999999999996346, -2.7051994315631713 
0.48999999999996235, -2.7047161326304603 
0.49999999999996125, -2.704246269908773 
0.5099999999999602, -2.7038297296468636 
0.519999999999959, -2.703463410687278 
0.529999999999958, -2.7031032900740963 
0.5399999999999568, -2.7027074534142552 
0.5499999999999557, -2.702258686089184 
0.5599999999999546, -2.701770291481197 
0.5699999999999535, -2.7012995924754244 
0.5799999999999524, -2.700921396716577 
0.5899999999999513, -2.7006378295581572 
0.5999999999999502, -2.7003726154204037 
0.6099999999999491, -2.700056914105356 
0.619999999999948, -2.6996595666672314 
0.6299999999999469, -2.6991713748019195 
0.6399999999999458, -2.6986033237101887 
0.6499999999999447, -2.6980142702894785 
0.6599999999999436, -2.6975162283480496 
0.6699999999999425, -2.697165686932104 
0.6799999999999414, -2.6968851279472856 
0.6899999999999403, -2.696576749041534 
0.6999999999999392, -2.696204764259585 
0.7099999999999381, -2.6957757344066517 
0.719999999999937, -2.6953176616812837 
0.7299999999999359, -2.6948722684071593 
0.7399999999999348, -2.6944720670963087 
0.7499999999999337, -2.6941127655244648 
0.7599999999999326, -2.6937574310672585 
0.7699999999999315, -2.69336592895076 
0.7799999999999304, -2.6929132433413723 
0.7899999999999293, -2.6923969426509813 
0.7999999999999282, -2.6918623234469226 
0.8099999999999271, -2.691415441284478 
0.819999999999926, -2.691121091855992 
0.8299999999999249, -2.6909043631647647 
0.8399999999999238, -2.690654320444596 
0.8499999999999227, -2.6903204164776797 
0.8599999999999216, -2.6898966609201755 
0.8699999999999205, -2.6893956513630632 
0.8799999999999194, -2.6888526548932363 
0.8899999999999183, -2.6883375378520933 
0.8999999999999172, -2.687917029487445 
0.9099999999999161, -2.687577778818518 
0.919999999999915, -2.6872470660756385 
0.9299999999999139, -2.68687467560551 
0.9399999999999128, -2.686451002347376 
0.9499999999999117, -2.685995729526579 
0.9599999999999106, -2.6855533891468473 
0.9699999999999095, -2.6851667970220356 
0.9799999999999084, -2.6848330984556075 
0.9899999999999073, -2.684508210338987 
0.9999999999999062, -2.6841459711888396 
1.0099999999999052, -2.6837159564622706 
1.019999999999904, -2.6832030857042954 
1.029999999999903, -2.682622528011266 
1.039999999999902, -2.682060002232329 
1.0499999999999008, -2.681645323443774 
1.0599999999998997, -2.6813903648753175 
1.0699999999998986, -2.6811703749546996 
1.0799999999998975, -2.6808883323043697 
1.0899999999998964, -2.6805216202113207 
1.0999999999998953, -2.6800823199071058 
1.1099999999998942, -2.67959811165494 
1.119999999999893, -2.6791135661532395 
1.129999999999892, -2.678677661771771 
1.1399999999998909, -2.67830364689578 
1.1499999999998898, -2.6779531060582107 
1.1599999999998887, -2.677577766128893 
1.1699999999998876, -2.67715326366036 
1.1799999999998865, -2.6766837229460387 
1.1899999999998854, -2.6762103970619497 
1.1999999999998843, -2.6758036441289494 
1.2099999999998832, -2.675492093717261 
1.219999999999882, -2.675222409157153 
1.229999999999881, -2.6749231234330706 
1.2399999999998799, -2.6745531203179254 
1.2499999999998788, -2.6740957211870855 
1.2599999999998777, -2.673551016445281 
1.2699999999998766, -2.6729564397164376 
1.2799999999998755, -2.6724134569126967 
1.2899999999998744, -2.6720194972320175 
1.2999999999998733, -2.671739394001931 
1.3099999999998722, -2.6714619105641253 
1.319999999999871, -2.6711253535784234 
1.32999999999987, -2.670723654263023 
1.3399999999998689, -2.6702766436507677 
1.3499999999998678, -2.6698204665228418 
1.3599999999998666, -2.6693957194201405 
1.3699999999998655, -2.6690192605704053 
1.3799999999998644, -2.668668831237804 
1.3899999999998633, -2.668302779552071 
1.3999999999998622, -2.66788790569273 
1.4099999999998611, -2.667409561960474 
1.41999999999986, -2.666884409363301 
1.429999999999859, -2.6663877462744328 
1.4399999999998578, -2.6660197937713193 
1.4499999999998567, -2.6657781265301734 
1.4599999999998556, -2.6655569970406825 
1.4699999999998545, -2.665273381730351 
1.4799999999998534, -2.6649013115449813 
1.4899999999998523, -2.66444301171672 
1.4999999999998512, -2.6639174863488466 
1.5099999999998501, -2.6633739748862273 
1.519999999999849, -2.6628916037836787 
1.529999999999848, -2.6625134380446474 
1.5399999999998468, -2.6621925291427058 
1.5499999999998457, -2.661856390717669 
1.5599999999998446, -2.6614708546087806 
1.5699999999998435, -2.66103766191926 
1.5799999999998424, -2.6605849614331256 
1.5899999999998413, -2.6601600463144845 
1.5999999999998402, -2.659794196664133 
1.6099999999998391, -2.6594697974341703 
1.619999999999838, -2.6591401553757157 
1.629999999999837, -2.658764075943048 
1.6399999999998358, -2.658315758371824 
1.6499999999998347, -2.65778553189147 
1.6599999999998336, -2.6572025755065125 
1.6699999999998325, -2.656670786620987 
1.6799999999998314, -2.6563049783207306 
1.6899999999998303, -2.656074819152034 
1.6999999999998292, -2.655850663044723 
1.709999999999828, -2.6555549407210757 
1.719999999999827, -2.6551759287440087 
1.729999999999826, -2.6547290205002176 
1.7399999999998248, -2.6542443730473666 
1.7499999999998237, -2.6537683977212483 
1.7599999999998226, -2.653346438991108 
1.7699999999998215, -2.6529827040928313 
1.7799999999998204, -2.652634561422763 
1.7899999999998193, -2.6522568349030102 
1.7999999999998182, -2.651829110934853 
1.809999999999817, -2.65135899843115 
1.819999999999816, -2.650891652502653 
1.8299999999998149, -2.6504970616998844 
1.8399999999998138, -2.6501966718824366 
1.8499999999998127, -2.6499327301509616 
1.8599999999998116, -2.64963539572462 
1.8699999999998105, -2.6492660698755506 
1.8799999999998094, -2.6488096264016265 
1.8899999999998083, -2.6482674407880533 
1.8999999999998072, -2.64767763088416 
1.909999999999806, -2.64713928935517 
1.919999999999805, -2.6467460718906746 
1.9299999999998039, -2.646464697959776 
1.9399999999998028, -2.6461879187177595 
1.9499999999998017, -2.645854598494247 
1.9599999999998006, -2.6454576226716915 
1.9699999999997995, -2.6450157704121238 
1.9799999999997984, -2.644564260117186 
1.9899999999997973, -2.644143269408253 
1.9999999999997962, -2.6437702450838025 
2.0099999999998173, -2.643424413407985 
2.0199999999998384, -2.6430650508680684 
2.0299999999998595, -2.642658339550658 
2.0399999999998806, -2.6421873740743176 
2.0499999999999017, -2.641662924761081 
2.059999999999923, -2.6411519819322833 
2.069999999999944, -2.6407608058303866 
2.079999999999965, -2.640510231025044 
2.089999999999986, -2.640300926268092 
2.100000000000007, -2.640038770336587 
2.1100000000000283, -2.6396901589013804 
2.1200000000000494, -2.639255420038764 
2.1300000000000705, -2.6387508904805306 
2.1400000000000916, -2.638217053345255 
2.1500000000001127, -2.6377242256560325 
2.160000000000134, -2.637326016659692 
2.170000000000155, -2.6369965826507045 
2.180000000000176, -2.6366667314616206 
2.190000000000197, -2.636293778335357 
2.2000000000002182, -2.6358714125399416 
2.2100000000002393, -2.6354207170549038 
2.2200000000002604, -2.634987123883315 
2.2300000000002815, -2.634612622413301 
2.2400000000003026, -2.634292097840443 
2.2500000000003237, -2.633979977496887 
2.260000000000345, -2.6336301301008134 
2.270000000000366, -2.6332127334345565 
2.280000000000387, -2.6327124032794065 
2.290000000000408, -2.632139203781005 
2.3000000000004293, -2.6315657344726984 
2.3100000000004504, -2.6311195832115954 
2.3200000000004715, -2.6308413031449094 
2.3300000000004926, -2.630624409314987 
2.3400000000005137, -2.630361766249054 
2.3500000000005348, -2.630019430792428 
2.360000000000556, -2.629604869418036 
2.370000000000577, -2.629142133406573 
2.380000000000598, -2.628669745821356 
2.390000000000619, -2.6282329283171615 
2.4000000000006403, -2.627853263469709 
2.4100000000006614, -2.6275061272639326 
2.4200000000006825, -2.627145700931135 
2.4300000000007036, -2.62674061588562 
2.4400000000007247, -2.6262835131017583 
2.450000000000746, -2.625799189735967 
2.460000000000767, -2.625355261678205 
2.470000000000788, -2.6250161341670952 
2.480000000000809, -2.624760508124508 
2.49000000000083, -2.624507270522173 
2.5000000000008513, -2.6241958990360628 
2.5100000000008724, -2.6238019042249756 
2.5200000000008935, -2.623320149007631 
2.5300000000009146, -2.622764896354425 
2.5400000000009357, -2.622193482761284 
2.550000000000957, -2.621706428644143 
2.560000000000978, -2.6213542395648006 
2.570000000000999, -2.6210711483595794 
2.58000000000102, -2.620767974793861 
2.5900000000010412, -2.620407584951214 
2.6000000000010624, -2.619992819596083 
2.6100000000010835, -2.619548295140047 
2.6200000000011046, -2.6191138698368084 
2.6300000000011257, -2.6187235909814848 
2.6400000000011468, -2.6183770561320596 
2.650000000001168, -2.6180406615416034 
2.660000000001189, -2.6176742656592378 
2.67000000000121, -2.617249357203211 
2.680000000001231, -2.6167535523365166 
2.6900000000012523, -2.616207165049683 
2.7000000000012734, -2.6156952296231712 
2.7100000000012945, -2.615327880439203 
2.7200000000013156, -2.6151003153496353 
2.7300000000013367, -2.6148966989724096 
2.740000000001358, -2.6146295039919334 
2.750000000001379, -2.6142752566380407 
2.7600000000014, -2.6138412097608192 
2.770000000001421, -2.613349407135136 
2.780000000001442, -2.612842597939392 
2.7900000000014633, -2.6123811086380098 
2.8000000000014844, -2.611999047264056 
2.8100000000015055, -2.611665339721278 
2.8200000000015266, -2.611322192446768 
2.8300000000015477, -2.6109356759022937 
2.840000000001569, -2.610501995754782 
2.85000000000159, -2.6100456873129376 
2.860000000001611, -2.609619485316568 
2.870000000001632, -2.6092675895433137 
2.8800000000016532, -2.6089746562568257 
2.8900000000016743, -2.608683870164159 
2.9000000000016954, -2.6083465042678347 
2.9100000000017165, -2.6079352993054044 
2.9200000000017377, -2.6074379064601443 
2.9300000000017588, -2.606865003005553 
2.94000000000178, -2.6062833710797517 
2.950000000001801, -2.6058132975540436 
2.960000000001822, -2.605504613948269 
2.970000000001843, -2.6052671373197027 
2.9800000000018643, -2.604996807444359 
2.9900000000018854, -2.604656095341043 
3.0000000000019065, -2.6042502092615476 
3.0100000000019276, -2.603802654910738 
3.0200000000019487, -2.6033503394451865 
3.03000000000197, -2.6029323532417257 
3.040000000001991, -2.6025634145476806 
3.050000000002012, -2.6022198395662453 
3.060000000002033, -2.6018604897026543 
3.070000000002054, -2.601454396826556 
3.0800000000020753, -2.6009897673373077 
3.0900000000020964, -2.600484966524809 
3.1000000000021175, -2.600009914885709 
3.1100000000021386, -2.5996528322390415 
3.1200000000021597, -2.5994121493454587 
3.130000000002181, -2.599194741568831 
3.140000000002202, -2.5989221656327746 
3.150000000002223, -2.5985656128451984 
3.160000000002244, -2.598123327233167 
3.1700000000022652, -2.5976091241211092 
3.1800000000022863, -2.5970644106063707 
3.1900000000023074, -2.5965656627650224 
3.2000000000023285, -2.596172469084022 
3.2100000000023496, -2.5958570902391096 
3.2200000000023707, -2.595544233122017 
3.230000000002392, -2.5951877539396055 
3.240000000002413, -2.5947802050406743 
3.250000000002434, -2.5943398581486945 
3.260000000002455, -2.5939066160416417 
3.2700000000024763, -2.5935220865005233 
3.2800000000024974, -2.593191242489083 
3.2900000000025185, -2.5928782507666157 
3.3000000000025396, -2.5925386269673907 
3.3100000000025607, -2.5921402243989013 
3.3200000000025818, -2.591664587948708 
3.330000000002603, -2.5911137237890687 
3.340000000002624, -2.5905420370700774 
3.350000000002645, -2.5900690649592 
3.360000000002666, -2.589767800598738 
3.3700000000026873, -2.5895602023856767 
3.3800000000027084, -2.5893277799525594 
3.3900000000027295, -2.5890184944542143 
3.4000000000027506, -2.588631232346697 
3.4100000000027717, -2.58818454551841 
3.420000000002793, -2.587710727525597 
3.430000000002814, -2.58725503566654 
3.440000000002835, -2.586854448854685 
3.450000000002856, -2.5865041774877477 
3.460000000002877, -2.5861618643665736 
3.4700000000028983, -2.585787222612679 
3.4800000000029194, -2.5853622091102038 
3.4900000000029405, -2.584894383265955 
3.5000000000029616, -2.5844285971017826 
3.5100000000029827, -2.5840375056622813 
3.520000000003004, -2.583748769644058 
3.530000000003025, -2.5835061836799325 
3.540000000003046, -2.5832354339890644 
3.550000000003067, -2.582894869814001 
3.5600000000030882, -2.5824696657258763 
3.5700000000031094, -2.5819602773639585 
3.5800000000031305, -2.5813932351472735 
3.5900000000031516, -2.5808444178172105 
3.6000000000031727, -2.5804092019398843 
3.6100000000031938, -2.580096736906174 
3.620000000003215, -2.5798211231506185 
3.630000000003236, -2.579508633093256 
3.640000000003257, -2.5791375404574124 
3.650000000003278, -2.5787174770404784 
3.6600000000032993, -2.57827701468791 
3.6700000000033204, -2.5778564768997545 
3.6800000000033415, -2.577483365452168 
3.6900000000033626, -2.5771487244047018 
3.7000000000033837, -2.576816028810497 
3.710000000003405, -2.5764474396125134 
3.720000000003426, -2.5760174535877347 
3.730000000003447, -2.5755165867999 
3.740000000003468, -2.574970280110904 
3.750000000003489, -2.57446843721421 
3.7600000000035103, -2.574115943455615 
3.7700000000035314, -2.5738980883351026 
3.7800000000035525, -2.573699150337898 
3.7900000000035736, -2.573436086450379 
3.8000000000035947, -2.5730877261251806 
3.810000000003616, -2.5726621895139554 
3.820000000003637, -2.5721815648603488 
3.830000000003658, -2.5716864048602504 
3.840000000003679, -2.5712322839053843 
3.8500000000037002, -2.5708518439163184 
3.8600000000037213, -2.5705191946229564 
3.8700000000037424, -2.570180552567782 
3.8800000000037635, -2.569801131796675 
3.8900000000037847, -2.569373904071227 
3.9000000000038058, -2.5689189655661497 
3.910000000003827, -2.568487243179574 
3.920000000003848, -2.568131042631777 
3.930000000003869, -2.5678458823587507 
3.94000000000389, -2.5675750294873207 
3.9500000000039113, -2.567264078323738 
3.9600000000039324, -2.5668825984528807 
3.9700000000039535, -2.5664168436978683 
3.9800000000039746, -2.5658699535313128 
3.9900000000039957, -2.5652862888934265 
4.000000000004016, -2.5647692634214203 
4.010000000003993, -2.5644035202311506 
4.02000000000397, -2.5641456018265534 
4.030000000003946, -2.563888877964211 
4.040000000003923, -2.5635744700295446 
4.0500000000039, -2.5631951996225175 
4.0600000000038765, -2.5627678558812423 
4.070000000003853, -2.5623239982849944 
4.08000000000383, -2.5619027051058856 
4.090000000003807, -2.5615278741224 
4.100000000003783, -2.561188408134451 
4.11000000000376, -2.560847682842785 
4.120000000003737, -2.5604698804760426 
4.130000000003713, -2.5600334722326537 
4.14000000000369, -2.559536893079772 
4.150000000003667, -2.559019672088589 
4.1600000000036434, -2.5585761148204247 
4.17000000000362, -2.5582778366110652 
4.180000000003597, -2.558074863799014 
4.1900000000035735, -2.557861017421694 
4.20000000000355, -2.5575749798574394 
4.210000000003527, -2.557203268817219 
4.220000000003504, -2.5567534464349406 
4.23000000000348, -2.556248153137006 
4.240000000003457, -2.555735133687258 
4.250000000003434, -2.555280273395799 
4.26000000000341, -2.5549142260554367 
4.270000000003387, -2.554596958194414 
4.280000000003364, -2.554267526338383 
4.2900000000033405, -2.553893702894541 
4.300000000003317, -2.553473415954263 
4.310000000003294, -2.553029820838421 
4.320000000003271, -2.55260984858574 
4.330000000003247, -2.5522545842065787 
4.340000000003224, -2.551955901315252 
4.350000000003201, -2.5516658387799493 
4.360000000003177, -2.551337871818709 
4.370000000003154, -2.550943066399321 
4.380000000003131, -2.5504663169008044 
4.390000000003107, -2.5499116175834766 
4.400000000003084, -2.5493313248278477 
4.410000000003061, -2.548838674275967 
4.4200000000030375, -2.548509781262805 
4.430000000003014, -2.5482810418445423 
4.440000000002991, -2.5480402524405155 
4.450000000002968, -2.547733077544253 
4.460000000002944, -2.547356001869095 
4.470000000002921, -2.5469268619272762 
4.480000000002898, -2.5464767203890553 
4.490000000002874, -2.5460453155643306 
4.500000000002851, -2.5456609948337126 
4.510000000002828, -2.5453173584395996 
4.520000000002804, -2.54497827918074 
4.530000000002781, -2.544606725907673 
4.540000000002758, -2.5441814810175805 
4.5500000000027345, -2.5437022744297275 
4.560000000002711, -2.54320675589802 
4.570000000002688, -2.542779307741039 
4.580000000002665, -2.5424817538072997 
4.590000000002641, -2.542269732998721 
4.600000000002618, -2.542048358029165 
4.610000000002595, -2.541759255002016 
4.620000000002571, -2.541385840552588 
4.630000000002548, -2.540931288119848 
4.640000000002525, -2.5404145830788374 
4.6500000000025015, -2.539883825609825 
4.660000000002478, -2.5394134845878344 
4.670000000002455, -2.539045249672688 
4.6800000000024315, -2.53873909249659 
4.690000000002408, -2.538425874001946 
4.700000000002385, -2.5380680103040487 
4.710000000002362, -2.5376614949954357 
4.720000000002338, -2.5372259730440994 
4.730000000002315, -2.5368022230294214 
4.740000000002292, -2.5364310024891266 
4.750000000002268, -2.5361148211713727 
4.760000000002245, -2.5358160624509254 
4.770000000002222, -2.535490153333768 
4.7800000000021985, -2.5351056194324526 
4.790000000002175, -2.534644190070522 
4.800000000002152, -2.534104638880776 
4.810000000002129, -2.533529586228417 
4.820000000002105, -2.5330269017349187 
4.830000000002082, -2.5326883381916807 
4.840000000002059, -2.532468254609462 
4.850000000002035, -2.5322493844514935 
4.860000000002012, -2.531965067910906 
4.870000000001989, -2.531605497704664 
4.880000000001965, -2.5311852923114007 
4.890000000001942, -2.5307319566445408 
4.900000000001919, -2.530284739224303 
4.9100000000018955, -2.529880669921452 
4.920000000001872, -2.529526908155191 
4.930000000001849, -2.529192900509039 
4.940000000001826, -2.528837930402768 
4.950000000001802, -2.52843589280256 
4.960000000001779, -2.527980876385325 
4.970000000001756, -2.5274973356244783 
