t, s[1].omega / s[0].omega 
0, -1.519997219332434 
0.009999999999999995, -1.5196963883143457 
0.019999999999999934, -1.5193528537564505 
0.029999999999999874, -1.5189740644193406 
0.04000000000000012, -1.5185733053174248 
0.050000000000000405, -1.5181696108293297 
0.06000000000000069, -1.517785082157935 
0.07000000000000098, -1.5174388065843287 
0.08000000000000126, -1.5171395398942633 
0.09000000000000155, -1.5168820252257986 
0.10000000000000184, -1.5166500657200301 
0.11000000000000212, -1.516423822438625 
0.12000000000000241, -1.5161859054023916 
0.130000000000002, -1.5159235215200053 
0.1400000000000009, -1.515627813161016 
0.1499999999999998, -1.5152928612785765 
0.1599999999999987, -1.5149162791839088 
0.1699999999999976, -1.5145023602240302 
0.1799999999999965, -1.514067191656459 
0.1899999999999954, -1.5136420388667888 
0.1999999999999943, -1.513268121778749 
0.2099999999999932, -1.5129791803485717 
0.2199999999999921, -1.5127814926690868 
0.229999999999991, -1.5126495490272098 
0.2399999999999899, -1.5125418923064855 
0.2499999999999888, -1.5124216381295241 
0.2599999999999877, -1.512266706568258 
0.2699999999999866, -1.5120689610614213 
0.2799999999999855, -1.5118290374622743 
0.2899999999999844, -1.5115520814454417 
0.2999999999999833, -1.5112460238557657 
0.3099999999999822, -1.5109219240256886 
0.3199999999999811, -1.5105948874735962 
0.32999999999998, -1.5102833764387031 
0.3399999999999789, -1.510005098522083 
0.3499999999999778, -1.5097703202062518 
0.35999999999997667, -1.509576857936087 
0.36999999999997557, -1.509410715881843 
0.37999999999997447, -1.509251729419031 
0.38999999999997337, -1.509080020452079 
0.39999999999997227, -1.5088799732408829 
0.40999999999997117, -1.5086413575733657 
0.41999999999997006, -1.5083589586969748 
0.42999999999996896, -1.5080321306418971 
0.43999999999996786, -1.5076650195880572 
0.44999999999996676, -1.5072674407095297 
0.45999999999996566, -1.5068555888725237 
0.46999999999996456, -1.5064509875369494 
0.47999999999996346, -1.5060760718071176 
0.48999999999996235, -1.5057467595283014 
0.49999999999996125, -1.505465849328018 
0.5099999999999602, -1.505222241144575 
0.519999999999959, -1.5049967324347504 
0.529999999999958, -1.504769664916684 
0.5399999999999568, -1.5045254915150148 
0.5499999999999557, -1.5042534011182052 
0.5599999999999546, -1.5039461186479606 
0.5699999999999535, -1.503599248969627 
0.5799999999999524, -1.5032126691925898 
0.5899999999999513, -1.5027944248724214 
0.5999999999999502, -1.5023656367137823 
0.6099999999999491, -1.501961544797457 
0.619999999999948, -1.5016221390411035 
0.6299999999999469, -1.5013726434955879 
0.6399999999999458, -1.501207665799215 
0.6499999999999447, -1.5010943277169093 
0.6599999999999436, -1.5009912601283395 
0.6699999999999425, -1.5008662411387896 
0.6799999999999414, -1.5007022329851711 
0.6899999999999403, -1.5004945051672123 
0.6999999999999392, -1.5002454883446499 
0.7099999999999381, -1.4999612680063994 
0.719999999999937, -1.4996505299009057 
0.7299999999999359, -1.499325182793944 
0.7399999999999348, -1.4990010410730874 
0.7499999999999337, -1.4986964522823247 
0.7599999999999326, -1.4984275779150265 
0.7699999999999315, -1.498201968210655 
0.7799999999999304, -1.4980147878203764 
0.7899999999999293, -1.4978506679487358 
0.7999999999999282, -1.497689594021846 
0.8099999999999271, -1.497512754270915 
0.819999999999926, -1.4973057820852484 
0.8299999999999249, -1.4970594842820575 
0.8399999999999238, -1.4967694341927422 
0.8499999999999227, -1.4964356710435918 
0.8599999999999216, -1.4960630808538482 
0.8699999999999205, -1.4956623119277874 
0.8799999999999194, -1.4952503044289311 
0.8899999999999183, -1.4948488256192758 
0.8999999999999172, -1.4944796222368857 
0.9099999999999161, -1.4941569922339804 
0.919999999999915, -1.4938818705272332 
0.9299999999999139, -1.4936419752749548 
0.9399999999999128, -1.493417971432376 
0.9499999999999117, -1.4931907518440775 
0.9599999999999106, -1.4929454352002436 
0.9699999999999095, -1.4926716795337582 
0.9799999999999084, -1.4923624668478537 
0.9899999999999073, -1.4920135693122722 
0.9999999999999062, -1.4916250648390241 
1.0099999999999052, -1.4912052619796063 
1.019999999999904, -1.490775468073702 
1.029999999999903, -1.4903707757396119 
1.039999999999902, -1.4900306167444939 
1.0499999999999008, -1.4897796506595795 
1.0599999999998997, -1.489612491906706 
1.0699999999998986, -1.4894968844734413 
1.0799999999998975, -1.4893921780161332 
1.0899999999998964, -1.4892665270414374 
1.0999999999998953, -1.4891028903444177 
1.1099999999998942, -1.488896324306729 
1.119999999999893, -1.4886489759893689 
1.129999999999892, -1.4883666172510697 
1.1399999999998909, -1.4880575716408764 
1.1499999999998898, -1.4877333385705465 
1.1599999999998887, -1.4874093910974406 
1.1699999999998876, -1.4871040705528271 
1.1799999999998865, -1.486834130566327 
1.1899999999998854, -1.4866082455211218 
1.1999999999998843, -1.4864227309085523 
1.2099999999998832, -1.4862628283771353 
1.219999999999882, -1.4861084256958343 
1.229999999999881, -1.4859401676735455 
1.2399999999998799, -1.4857430824708213 
1.2499999999998788, -1.4855075471198336 
1.2599999999998777, -1.4852288929010016 
1.2699999999998766, -1.4849069346797297 
1.2799999999998755, -1.4845460827907657 
1.2899999999998744, -1.4841560115635748 
1.2999999999998733, -1.4837521606918158 
1.3099999999998722, -1.4833546981068566 
1.319999999999871, -1.482984587965386 
1.32999999999987, -1.482657041462834 
1.3399999999998689, -1.4823755322642502 
1.3499999999998678, -1.4821306770338676 
1.3599999999998666, -1.481904975298291 
1.3699999999998655, -1.4816796610329144 
1.3799999999998644, -1.4814392245274453 
1.3899999999998633, -1.4811723994301549 
1.3999999999998622, -1.4808712255146852 
1.4099999999998611, -1.480530319191034 
1.41999999999986, -1.480147845164062 
1.429999999999859, -1.4797288412696084 
1.4399999999998578, -1.4792900577659214 
1.4499999999998567, -1.4788626071500324 
1.4599999999998556, -1.4784862428094778 
1.4699999999998545, -1.4781927644793946 
1.4799999999998534, -1.4779879213458926 
1.4899999999998523, -1.4778478432049758 
1.4999999999998512, -1.4777335414316999 
1.5099999999998501, -1.4776097330925304 
1.519999999999849, -1.4774546039435086 
1.529999999999848, -1.4772594247497592 
1.5399999999998468, -1.4770239242238539 
1.5499999999998457, -1.47675225273525 
1.5599999999998446, -1.4764512283762297 
1.5699999999998435, -1.476130625560054 
1.5799999999998424, -1.4758043143825177 
1.5899999999998413, -1.4754903006351912 
1.5999999999998402, -1.4752075887765543 
1.6099999999998391, -1.474969725685825 
1.619999999999838, -1.4747785010467513 
1.629999999999837, -1.474622558275813 
1.6399999999998358, -1.4744819873302735 
1.6499999999998347, -1.4743353254461582 
1.6599999999998336, -1.474164824941819 
1.6699999999998325, -1.473958562643594 
1.6799999999998314, -1.473710326826247 
1.6899999999998303, -1.4734187911086158 
1.6999999999998292, -1.473086991357471 
1.709999999999828, -1.4727224251183988 
1.719999999999827, -1.4723374462418695 
1.729999999999826, -1.4719490085890963 
1.7399999999998248, -1.4715764773666415 
1.7499999999998237, -1.471236894848987 
1.7599999999998226, -1.470939150877188 
1.7699999999998215, -1.4706805284542814 
1.7799999999998204, -1.4704482729126853 
1.7899999999998193, -1.470225012712309 
1.7999999999998182, -1.4699941287331666 
1.809999999999817, -1.4697423506506178 
1.819999999999816, -1.4694597660780313 
1.8299999999998149, -1.4691389956765661 
1.8399999999998138, -1.4687752339081765 
1.8499999999998127, -1.468368241679879 
1.8599999999998116, -1.4679264635209845 
1.8699999999998105, -1.4674715427644736 
1.8799999999998094, -1.4670385762799503 
1.8899999999998083, -1.4666666308754035 
1.8999999999998072, -1.4663806694810957 
1.909999999999806, -1.4661774021220626 
1.919999999999805, -1.466028041766376 
1.9299999999998039, -1.4658950804835091 
1.9399999999998028, -1.4657482172536762 
1.9499999999998017, -1.4655702714022891 
1.9599999999998006, -1.4653550602409282 
1.9699999999997995, -1.4651029961002504 
1.9799999999997984, -1.4648180117212317 
1.9899999999997973, -1.464506756201799 
1.9999999999997962, -1.464179581009645 
2.0099999999998173, -1.463851946222047 
2.0199999999998384, -1.4635439779760402 
2.0299999999998595, -1.4632759908549886 
2.0399999999998806, -1.46306056912216 
2.0499999999999017, -1.4628960224109586 
2.059999999999923, -1.4627664244491694 
2.069999999999944, -1.4626481724065619 
2.079999999999965, -1.4625181079105958 
2.089999999999986, -1.4623587590181868 
2.100000000000007, -1.46215981428774 
2.1100000000000283, -1.4619173062806718 
2.1200000000000494, -1.4616322355492612 
2.1300000000000705, -1.461309652821412 
2.1400000000000916, -1.4609584420913933 
2.1500000000001127, -1.4605913997300628 
2.160000000000134, -1.4602246687217055 
2.170000000000155, -1.4598754455651508 
2.180000000000176, -1.4595577053844757 
2.190000000000197, -1.4592775050303355 
2.2000000000002182, -1.4590307273000833 
2.2100000000002393, -1.45880496662331 
2.2200000000002604, -1.4585841888881248 
2.2300000000002815, -1.458353045795361 
2.2400000000003026, -1.4580989043962433 
2.2500000000003237, -1.4578118920421452 
2.260000000000345, -1.4574844166019711 
2.270000000000366, -1.457111574297709 
2.280000000000387, -1.4566933288750252 
2.290000000000408, -1.4562384474868189 
2.3000000000004293, -1.4557684132833457 
2.3100000000004504, -1.4553171149598394 
2.3200000000004715, -1.4549218249229114 
2.3300000000004926, -1.4546069124631271 
2.3400000000005137, -1.4543711766593348 
2.3500000000005348, -1.4541898893530036 
2.360000000000556, -1.4540293139682277 
2.370000000000577, -1.4538610342819802 
2.380000000000598, -1.4536677884277585 
2.390000000000619, -1.453442079173856 
2.4000000000006403, -1.4531824937040922 
2.4100000000006614, -1.4528910737314473 
2.4200000000006825, -1.4525728004102965 
2.4300000000007036, -1.4522369552747016 
2.4400000000007247, -1.4518991444631635 
2.450000000000746, -1.4515815181800928 
2.460000000000767, -1.4513082406048257 
2.470000000000788, -1.451096025846202 
2.480000000000809, -1.4509451186290097 
2.49000000000083, -1.4508379923562569 
2.5000000000008513, -1.4507469768964214 
2.5100000000008724, -1.4506447545676877 
2.5200000000008935, -1.4505113455031915 
2.5300000000009146, -1.4503359164324672 
2.5400000000009357, -1.4501153204076884 
2.550000000000957, -1.4498518021837268 
2.560000000000978, -1.4495513194440748 
2.570000000000999, -1.4492228700577978 
2.58000000000102, -1.4488784502657122 
2.5900000000010412, -1.448532728353755 
2.6000000000010624, -1.448201350401217 
2.6100000000010835, -1.4478974613255957 
2.6200000000011046, -1.4476275794005073 
2.6300000000011257, -1.4473892049064738 
2.6400000000011468, -1.4471718425149245 
2.650000000001168, -1.4469607183718032 
2.660000000001189, -1.4467407600149937 
2.67000000000121, -1.4464989461356001 
2.680000000001231, -1.4462248832017566 
2.6900000000012523, -1.4459106544929092 
2.7000000000012734, -1.4455511401127699 
2.7100000000012945, -1.445145588388573 
2.7200000000013156, -1.4447005012565814 
2.7300000000013367, -1.4442327043083885 
2.740000000001358, -1.4437698567516317 
2.750000000001379, -1.443345006252462 
2.7600000000014, -1.4429847606455297 
2.770000000001421, -1.4426972102683282 
2.780000000001442, -1.4424689072335175 
2.7900000000014633, -1.442273372686439 
2.8000000000014844, -1.4420835735386848 
2.8100000000015055, -1.4418797221791584 
2.8200000000015266, -1.4416504642605985 
2.8300000000015477, -1.441390571912391 
2.840000000001569, -1.4410985210688376 
2.85000000000159, -1.4407756766440512 
2.860000000001611, -1.4404275181501922 
2.870000000001632, -1.440066384177619 
2.8800000000016532, -1.4397137488946141 
2.8900000000016743, -1.4393983073250491 
2.9000000000016954, -1.4391468832047738 
2.9100000000017165, -1.438971143556329 
2.9200000000017377, -1.438859837127907 
2.9300000000017588, -1.4387836433076506 
2.94000000000178, -1.4387085333539247 
2.950000000001801, -1.4386075283004285 
2.960000000001822, -1.4384652767470834 
2.970000000001843, -1.4382767330824089 
2.9800000000018643, -1.4380436986262457 
2.9900000000018854, -1.4377719079883255 
3.0000000000019065, -1.4374695993516728 
3.0100000000019276, -1.4371473499763119 
3.0200000000019487, -1.4368182989043954 
3.03000000000197, -1.4364975151703667 
3.040000000001991, -1.4361995093088036 
3.050000000002012, -1.4359341788013178 
3.060000000002033, -1.4357032198354522 
3.070000000002054, -1.4354993850230586 
3.0800000000020753, -1.4353090883565514 
3.0900000000020964, -1.4351165542393982 
3.1000000000021175, -1.4349072189954737 
3.1100000000021386, -1.4346693857653974 
3.1200000000021597, -1.4343945756031098 
3.130000000002181, -1.4340775748371573 
3.140000000002202, -1.4337169750559062 
3.150000000002223, -1.4333164896334714 
3.160000000002244, -1.4328866792668704 
3.1700000000022652, -1.4324459046510891 
3.1800000000022863, -1.4320186268476118 
3.1900000000023074, -1.431629615028346 
3.2000000000023285, -1.431295287666376 
3.2100000000023496, -1.4310170342186814 
3.2200000000023707, -1.4307815094630354 
3.230000000002392, -1.4305676176505506 
3.240000000002413, -1.4303547067289017 
3.250000000002434, -1.4301271439224885 
3.260000000002455, -1.4298747396676528 
3.2700000000024763, -1.42959121209484 
3.2800000000024974, -1.4292729086896019 
3.2900000000025185, -1.4289190727891559 
3.3000000000025396, -1.4285341445717243 
3.3100000000025607, -1.428131567840928 
3.3200000000025818, -1.4277365864693592 
3.330000000002603, -1.4273833192119072 
3.340000000002624, -1.4271028299758879 
3.350000000002645, -1.426907008631066 
3.360000000002666, -1.426780847080481 
3.3700000000026873, -1.4266904387790136 
3.3800000000027084, -1.4265994897730025 
3.3900000000027295, -1.4264816812065684 
3.4000000000027506, -1.4263238062681454 
3.4100000000027717, -1.426122808282797 
3.420000000002793, -1.42588152595908 
3.430000000002814, -1.4256058186557967 
3.440000000002835, -1.4253036303355353 
3.450000000002856, -1.4249854573292615 
3.460000000002877, -1.4246650885551677 
3.4700000000028983, -1.4243590505620014 
3.4800000000029194, -1.4240834613396347 
3.4900000000029405, -1.4238487712766987 
3.5000000000029616, -1.4236552871873278 
3.5100000000029827, -1.423492659357883 
3.520000000003004, -1.423343664848129 
3.530000000003025, -1.4231896228441905 
3.540000000003046, -1.4230145572024187 
3.550000000003067, -1.4228070724179296 
3.5600000000030882, -1.42256054653537 
3.5700000000031094, -1.4222727113057534 
3.5800000000031305, -1.421945389593088 
3.5900000000031516, -1.421584666375122 
3.6000000000031727, -1.4212012841867083 
3.6100000000031938, -1.4208105658187242 
3.620000000003215, -1.4204308278047248 
3.630000000003236, -1.4200795766088208 
3.640000000003257, -1.419768239972322 
3.650000000003278, -1.4194980661091712 
3.6600000000032993, -1.419259982090471 
3.6700000000033204, -1.4190385674336974 
3.6800000000033415, -1.4188172964507426 
3.6900000000033626, -1.4185820118114159 
3.7000000000033837, -1.418321803253318 
3.710000000003405, -1.4180283845914805 
3.720000000003426, -1.4176955131084832 
3.730000000003447, -1.4173196232834842 
3.740000000003468, -1.4169022956717114 
3.750000000003489, -1.4164542605683006 
3.7600000000035103, -1.4159988042270348 
3.7700000000035314, -1.415570253459794 
3.7800000000035525, -1.4152037918643376 
3.7900000000035736, -1.4149195204887748 
3.8000000000035947, -1.4147119610471235 
3.810000000003616, -1.4145541541381423 
3.820000000003637, -1.414412343909237 
3.830000000003658, -1.4142591783973502 
3.840000000003679, -1.4140785888672038 
3.8500000000037002, -1.4138640805418985 
3.8600000000037213, -1.4136150362364222 
3.8700000000037424, -1.4133340263331107 
3.8800000000037635, -1.4130260445915683 
3.8900000000037847, -1.4126994555959351 
3.9000000000038058, -1.412367718391815 
3.910000000003827, -1.4120500378412801 
3.920000000003848, -1.4117685240571929 
3.930000000003869, -1.4115409787758642 
3.94000000000389, -1.4113725405657809 
3.9500000000039113, -1.4112521867526917 
3.9600000000039324, -1.4111570004652574 
3.9700000000039535, -1.4110609027923535 
3.9800000000039746, -1.4109421964602418 
3.9900000000039957, -1.4107869910117818 
4.000000000004016, -1.4105890721477423 
4.010000000003993, -1.410348159771353 
4.02000000000397, -1.4100681437280322 
4.030000000003946, -1.4097560418750432 
4.040000000003923, -1.4094217037248171 
4.0500000000039, -1.4090777363600069 
4.0600000000038765, -1.4087387638034938 
4.070000000003853, -1.4084192228717176 
4.08000000000383, -1.4081297981453793 
4.090000000003807, -1.4078739881859037 
4.100000000003783, -1.4076468756418024 
4.11000000000376, -1.4074369539603124 
4.120000000003737, -1.4072297762882544 
4.130000000003713, -1.4070112769023793 
4.14000000000369, -1.406769506321453 
4.150000000003667, -1.406494975046618 
4.1600000000036434, -1.4061805772345046 
4.17000000000362, -1.405822042861779 
4.180000000003597, -1.4054194513731328 
4.1900000000035735, -1.404979703072653 
4.20000000000355, -1.4045188801780766 
4.210000000003527, -1.4040622737560067 
4.220000000003504, -1.40363957236372 
4.23000000000348, -1.403275073802524 
4.240000000003457, -1.4029776100856004 
4.250000000003434, -1.4027373437235284 
4.26000000000341, -1.4025319179385403 
4.270000000003387, -1.402336745020091 
4.280000000003364, -1.402132371811631 
4.2900000000033405, -1.401906451666329 
4.300000000003317, -1.4016522617242324 
4.310000000003294, -1.4013665786659513 
4.320000000003271, -1.4010486474834383 
4.330000000003247, -1.400700921097831 
4.340000000003224, -1.4003315251861495 
4.350000000003201, -1.3999573308375048 
4.360000000003177, -1.3996047370981277 
4.370000000003154, -1.3993042860925962 
4.380000000003131, -1.3990784240669252 
4.390000000003107, -1.3989291426436246 
4.400000000003084, -1.3988356015260803 
4.410000000003061, -1.3987641294679376 
4.4200000000030375, -1.3986823609079515 
4.430000000003014, -1.3985682132809523 
4.440000000002991, -1.3984113524750241 
4.450000000002968, -1.3982102531956189 
4.460000000002944, -1.3979685484307223 
4.470000000002921, -1.3976926159157428 
4.480000000002898, -1.3973907692623635 
4.490000000002874, -1.397073564798491 
4.500000000002851, -1.3967542438223277 
4.510000000002828, -1.3964480358968057 
4.520000000002804, -1.3961693847795074 
4.530000000002781, -1.3959276045451539 
4.540000000002758, -1.3957232584978014 
4.5500000000027345, -1.3955476890879484 
4.560000000002711, -1.3953859918826113 
4.570000000002688, -1.395221441381807 
4.580000000002665, -1.395039082181405 
4.590000000002641, -1.3948275412579805 
4.600000000002618, -1.3945794463523353 
4.610000000002595, -1.3942913019544847 
4.620000000002571, -1.3939634823172296 
4.630000000002548, -1.3936005967040557 
4.640000000002525, -1.3932120614960242 
4.6500000000025015, -1.3928122757380463 
4.660000000002478, -1.3924194364398006 
4.670000000002455, -1.392052174326318 
4.6800000000024315, -1.391724370257175 
4.690000000002408, -1.3914403971189768 
4.700000000002385, -1.3911937791515736 
4.710000000002362, -1.3909702692562274 
4.720000000002338, -1.3907531292618882 
4.730000000002315, -1.3905273322349883 
4.740000000002292, -1.3902811593530426 
4.750000000002268, -1.390005835304685 
4.760000000002245, -1.3896946789136515 
4.770000000002222, -1.3893430215712843 
4.7800000000021985, -1.3889496697343493 
4.790000000002175, -1.3885200878351074 
4.800000000002152, -1.3880702737575175 
4.810000000002129, -1.3876282979001322 
4.820000000002105, -1.3872292478273218 
4.830000000002082, -1.3869023424394142 
4.840000000002059, -1.386656780326374 
4.850000000002035, -1.3864773439461617 
4.860000000002012, -1.3863335003041573 
4.870000000001989, -1.3861938917580992 
4.880000000001965, -1.3860359710370196 
4.890000000001942, -1.385847844730473 
4.900000000001919, -1.3856255472596284 
4.9100000000018955, -1.3853696582683441 
4.920000000001872, -1.385083282537766 
4.930000000001849, -1.384771825009915 
4.940000000001826, -1.3844442028868544 
