t, s[1].omega / s[0].omega 
0, -3.5749945044127225 
0.009999999999999995, -3.5743915601849388 
0.019999999999999934, -3.5737060257246993 
0.029999999999999874, -3.5730467205507224 
0.04000000000000012, -3.5725373159311973 
0.050000000000000405, -3.5720988942478202 
0.06000000000000069, -3.5716082859663913 
0.07000000000000098, -3.571044177281844 
0.08000000000000126, -3.5704408033187613 
0.09000000000000155, -3.5698585535830967 
0.10000000000000184, -3.5693336535715696 
0.11000000000000212, -3.568827826159823 
0.12000000000000241, -3.568282606196379 
0.130000000000002, -3.567685107235006 
0.1400000000000009, -3.5670885331231816 
0.1499999999999998, -3.5665725788743905 
0.1599999999999987, -3.5661144691966804 
0.1699999999999976, -3.565627105342093 
0.1799999999999965, -3.565058042965307 
0.1899999999999954, -3.564394828110436 
0.1999999999999943, -3.5637065970778075 
0.2099999999999932, -3.5631640237461317 
0.2199999999999921, -3.56276567010473 
0.229999999999991, -3.5623396792918256 
0.2399999999999899, -3.561815546255061 
0.2499999999999888, -3.5612026427384507 
0.2599999999999877, -3.560552440934546 
0.2699999999999866, -3.5599636695266765 
0.2799999999999855, -3.5594708434604505 
0.2899999999999844, -3.5589856332347574 
0.2999999999999833, -3.5584463510780537 
0.3099999999999822, -3.5578619797080364 
0.3199999999999811, -3.557285650231395 
0.32999999999998, -3.556760867182155 
0.3399999999999789, -3.556264786045658 
0.3499999999999778, -3.555739662982525 
0.35999999999997667, -3.555148493376734 
0.36999999999997557, -3.5545069557203868 
0.37999999999997447, -3.553922326908142 
0.38999999999997337, -3.553473776642435 
0.39999999999997227, -3.553058298192429 
0.40999999999997117, -3.552569375705333 
0.41999999999997006, -3.5519766680073266 
0.42999999999996896, -3.551293771995931 
0.43999999999996786, -3.5506218975654753 
0.44999999999996676, -3.5501056357272978 
0.45999999999996566, -3.549684007565393 
0.46999999999996456, -3.549215921938638 
0.47999999999996346, -3.5486671904705114 
0.48999999999996235, -3.5480653077449285 
0.49999999999996125, -3.5474695166347274 
0.5099999999999602, -3.546933825561701 
0.519999999999959, -3.5464361825244337 
0.529999999999958, -3.545911147237436 
0.5399999999999568, -3.545333223031445 
0.5499999999999557, -3.5447382784913826 
0.5599999999999546, -3.5442023865252468 
0.5699999999999535, -3.5437325024241 
0.5799999999999524, -3.5432547734320705 
0.5899999999999513, -3.54270953068904 
0.5999999999999502, -3.5420738744950278 
0.6099999999999491, -3.5413898523404512 
0.619999999999948, -3.540814026761511 
0.6299999999999469, -3.54040452429527 
0.6399999999999458, -3.5400020929615117 
0.6499999999999447, -3.539507075154083 
0.6599999999999436, -3.538914078573241 
0.6699999999999425, -3.538259937516062 
0.6799999999999414, -3.5376402166260448 
0.6899999999999403, -3.537132733687897 
0.6999999999999392, -3.5366674064871026 
0.7099999999999381, -3.536156245791139 
0.719999999999937, -3.535588404663784 
0.7299999999999359, -3.5350044781091823 
0.7399999999999348, -3.534459211094872 
0.7499999999999337, -3.5339587882427326 
0.7599999999999326, -3.5334534689484274 
0.7699999999999315, -3.532894822775597 
0.7799999999999304, -3.5322754916206085 
0.7899999999999293, -3.531665699270531 
0.7999999999999282, -3.5311738115154023 
0.8099999999999271, -3.530759122282947 
0.819999999999926, -3.5303027411159666 
0.8299999999999249, -3.5297512762705487 
0.8399999999999238, -3.529098652093021 
0.8499999999999227, -3.528404013947479 
0.8599999999999216, -3.5278255373068275 
0.8699999999999205, -3.5273984759461987 
0.8799999999999194, -3.5269698169446366 
0.8899999999999183, -3.5264599634999207 
0.8999999999999172, -3.5258772853511005 
0.9099999999999161, -3.5252684147572113 
0.919999999999915, -3.524701810791862 
0.9299999999999139, -3.5241992310288084 
0.9399999999999128, -3.5237008205179956 
0.9499999999999117, -3.5231549922382945 
0.9599999999999106, -3.522567211586373 
0.9699999999999095, -3.521999115449856 
0.9799999999999084, -3.5215025467780743 
0.9899999999999073, -3.521037201848442 
0.9999999999999062, -3.5205326510741437 
1.0099999999999052, -3.5199480655279913 
1.019999999999904, -3.51928418449706 
1.029999999999903, -3.518640521731567 
1.039999999999902, -3.5181638122246754 
1.0499999999999008, -3.5177828722057805 
1.0599999999998997, -3.5173447151518493 
1.0699999999998986, -3.516804721003563 
1.0799999999998975, -3.516176231658334 
1.0899999999998964, -3.515520883905144 
1.0999999999998953, -3.51495202934885 
1.1099999999998942, -3.5144854784589343 
1.119999999999893, -3.514014865310513 
1.129999999999892, -3.5134840054550964 
1.1399999999998909, -3.512906834591411 
1.1499999999998898, -3.5123349279769847 
1.1599999999998887, -3.511811465865285 
1.1699999999998876, -3.5113191164398287 
1.1799999999998865, -3.510802338038715 
1.1899999999998854, -3.5102251318564357 
1.1999999999998843, -3.509603921603323 
1.2099999999998832, -3.509035318160726 
1.219999999999882, -3.5085865315128877 
1.229999999999881, -3.508168307021605 
1.2399999999998799, -3.5076837267633394 
1.2499999999998788, -3.5070994648812346 
1.2599999999998777, -3.5064234940360293 
1.2699999999998766, -3.5057523143871934 
1.2799999999998755, -3.505239627028216 
1.2899999999998744, -3.504836194420991 
1.2999999999998733, -3.5043911023826433 
1.3099999999998722, -3.5038606104086414 
1.319999999999871, -3.50326650866948 
1.32999999999987, -3.5026643932878514 
1.3399999999998689, -3.502120342212359 
1.3499999999998678, -3.5016311679374477 
1.3599999999998666, -3.5011284158184557 
1.3699999999998655, -3.50057416215949 
1.3799999999998644, -3.4999889045088155 
1.3899999999998633, -3.4994402993299283 
1.3999999999998622, -3.4989600634297675 
1.4099999999998611, -3.4984937842431876 
1.41999999999986, -3.497977201069778 
1.429999999999859, -3.497377503862959 
1.4399999999998578, -3.4967102772508483 
1.4499999999998567, -3.4960988684798933 
1.4599999999998556, -3.495659959213183 
1.4699999999998545, -3.4952806243640175 
1.4799999999998534, -3.494827744563429 
1.4899999999998523, -3.494273256937935 
1.4999999999998512, -3.49363678272636 
1.5099999999998501, -3.4929911583287114 
1.519999999999849, -3.4924468905352457 
1.529999999999848, -3.4919917078845595 
1.5399999999998468, -3.4915180739625233 
1.5499999999998457, -3.490982895904793 
1.5599999999998446, -3.49040695650422 
1.5699999999998435, -3.489843703482257 
1.5799999999998424, -3.489330259193616 
1.5899999999998413, -3.488842063116065 
1.5999999999998402, -3.488323822910292 
1.6099999999998391, -3.4877441008985777 
1.619999999999838, -3.4871263588166337 
1.629999999999837, -3.4865718357491327 
1.6399999999998358, -3.4861349084246926 
1.6499999999998347, -3.4857188122458664 
1.6599999999998336, -3.4852323586810527 
1.6699999999998325, -3.4846459568084436 
1.6799999999998314, -3.4839707976240333 
1.6899999999998303, -3.4833082083785327 
1.6999999999998292, -3.482806099046976 
1.709999999999828, -3.482406253326114 
1.719999999999827, -3.4819621885408596 
1.729999999999826, -3.4814338947151704 
1.7399999999998248, -3.48084395785406 
1.7499999999998237, -3.480247667418022 
1.7599999999998226, -3.4797088649340338 
1.7699999999998215, -3.4792232482327576 
1.7799999999998204, -3.4787239029574253 
1.7899999999998193, -3.478173340718277 
1.7999999999998182, -3.477591191348167 
1.809999999999817, -3.4770451575949557 
1.819999999999816, -3.4765693173402474 
1.8299999999998149, -3.4761098574898632 
1.8399999999998138, -3.4756013872995455 
1.8499999999998127, -3.4750099191885453 
1.8599999999998116, -3.4743463796156084 
1.8699999999998105, -3.4737259503632365 
1.8799999999998094, -3.4732777399130774 
1.8899999999998083, -3.472904763347599 
1.8999999999998072, -3.4724657595150132 
1.909999999999806, -3.471926258421008 
1.919999999999805, -3.4713030263897844 
1.9299999999998039, -3.4706602614939 
1.9399999999998028, -3.4701057077337643 
1.9499999999998017, -3.4696465307065716 
1.9599999999998006, -3.4691805318236795 
1.9699999999997995, -3.4686558200656803 
1.9799999999997984, -3.4680867362934613 
1.9899999999997973, -3.4675243043947526 
1.9999999999997962, -3.4670104238089 
2.0099999999998173, -3.466527381379548 
2.0199999999998384, -3.4660207048874767 
2.0299999999998595, -3.465453444549825 
2.0399999999998806, -3.4648366154158503 
2.0499999999999017, -3.464262230381757 
2.059999999999923, -3.4638135041391087 
2.069999999999944, -3.4634121577752546 
2.079999999999965, -3.462951822955973 
2.089999999999986, -3.462393817639819 
2.100000000000007, -3.4617401753923227 
2.1100000000000283, -3.4610641568994764 
2.1200000000000494, -3.4605189826499774 
2.1300000000000705, -3.460108021484749 
2.1400000000000916, -3.459683021792654 
2.1500000000001127, -3.4591786372197517 
2.160000000000134, -3.458606866944802 
2.170000000000155, -3.458014419423475 
2.180000000000176, -3.4574646193884773 
2.190000000000197, -3.456973888559164 
2.2000000000002182, -3.4564857153577044 
2.2100000000002393, -3.455951045801041 
2.2200000000002604, -3.455373100996436 
2.2300000000002815, -3.454811823646051 
2.2400000000003026, -3.4543258522874396 
2.2500000000003237, -3.4538797807567407 
2.260000000000345, -3.4533996823305317 
2.270000000000366, -3.4528413122996 
2.280000000000387, -3.45219614808551 
2.290000000000408, -3.4515367759118787 
2.3000000000004293, -3.451022532482841 
2.3100000000004504, -3.450646130273993 
2.3200000000004715, -3.4502456682944938 
2.3300000000004926, -3.4497500809466195 
2.3400000000005137, -3.449163814463038 
2.3500000000005348, -3.4485290837368425 
2.360000000000556, -3.44793855472831 
2.370000000000577, -3.447451368771445 
2.380000000000598, -3.4469962549920203 
2.390000000000619, -3.446496128065424 
2.4000000000006403, -3.445942835492583 
2.4100000000006614, -3.445376345506329 
2.4200000000006825, -3.4448500769005577 
2.4300000000007036, -3.444368808838573 
2.4400000000007247, -3.4438839600115836 
2.450000000000746, -3.443347093552604 
2.460000000000767, -3.442743707869819 
2.470000000000788, -3.4421280371733394 
2.480000000000809, -3.441621545215388 
2.49000000000083, -3.4412262988481963 
2.5000000000008513, -3.440815594093609 
2.5100000000008724, -3.440316931504048 
2.5200000000008935, -3.4397170796673087 
2.5300000000009146, -3.439045323856278 
2.5400000000009357, -3.4384191002553193 
2.550000000000957, -3.4379472588519575 
2.560000000000978, -3.437539307692602 
2.570000000000999, -3.4370779904418804 
2.58000000000102, -3.436542774613136 
2.5900000000010412, -3.4359635649135365 
2.6000000000010624, -3.435396383367582 
2.6100000000010835, -3.4348849735696803 
2.6200000000011046, -3.4344056343568425 
2.6300000000011257, -3.4338992882225448 
2.6400000000011468, -3.433339782485887 
2.650000000001168, -3.4327567723746752 
2.660000000001189, -3.4322299471085174 
2.67000000000121, -3.431784155005034 
2.680000000001231, -3.4313458269133115 
2.6900000000012523, -3.430846531577533 
2.7000000000012734, -3.4302564552647006 
2.7100000000012945, -3.429588187467406 
2.7200000000013156, -3.428956733543938 
2.7300000000013367, -3.4285005114859963 
2.740000000001358, -3.428132369821186 
2.750000000001379, -3.4277061084701144 
2.7600000000014, -3.4271854916457705 
2.770000000001421, -3.4265897075502716 
2.780000000001442, -3.4259749061118034 
2.7900000000014633, -3.42542649589583 
2.8000000000014844, -3.424957404580416 
2.8100000000015055, -3.4244878345904404 
2.8200000000015266, -3.4239672886618457 
2.8300000000015477, -3.423405415797717 
2.840000000001569, -3.4228543740629442 
2.85000000000159, -3.4223578561766046 
2.860000000001611, -3.4218929621453986 
2.870000000001632, -3.4214025083995616 
2.8800000000016532, -3.42084619132958 
2.8900000000016743, -3.4202221275374463 
2.9000000000016954, -3.4196115756585526 
2.9100000000017165, -3.4191416808073365 
2.9200000000017377, -3.418768847773447 
2.9300000000017588, -3.4183557035724186 
2.94000000000178, -3.417846294747419 
2.950000000001801, -3.417239820802056 
2.960000000001822, -3.416579627348173 
2.970000000001843, -3.4159846845109976 
2.9800000000018643, -3.415526064267982 
2.9900000000018854, -3.4151035018650555 
3.0000000000019065, -3.4146251756306434 
3.0100000000019276, -3.414083008321711 
3.0200000000019487, -3.413512934084989 
3.03000000000197, -3.412969342035752 
3.040000000001991, -3.4124768116713815 
3.050000000002012, -3.4119983798859836 
3.060000000002033, -3.4114816088699507 
3.070000000002054, -3.4109088986357348 
3.0800000000020753, -3.410321848751688 
3.0900000000020964, -3.409813006972589 
3.1000000000021175, -3.4093930623072617 
3.1100000000021386, -3.4089687895246774 
3.1200000000021597, -3.408471749268564 
3.130000000002181, -3.407878302011846 
3.140000000002202, -3.407207141492352 
3.150000000002223, -3.406576545531314 
3.160000000002244, -3.4061180112252125 
3.1700000000022652, -3.4057428399074348 
3.1800000000022863, -3.4053122277836074 
3.1900000000023074, -3.4047944533678445 
3.2000000000023285, -3.4042120963202 
3.2100000000023496, -3.403619841713067 
3.2200000000023707, -3.4030868614999052 
3.230000000002392, -3.402615824186366 
3.240000000002413, -3.402138277662572 
3.250000000002434, -3.401611436973945 
3.260000000002455, -3.4010472317561913 
3.2700000000024763, -3.400503998218131 
3.2800000000024974, -3.4000258292508043 
3.2900000000025185, -3.3995775501008962 
3.3000000000025396, -3.399095658858095 
3.3100000000025607, -3.3985402691718862 
3.3200000000025818, -3.3979071085438504 
3.330000000002603, -3.397275146476916 
3.340000000002624, -3.396790279508898 
3.350000000002645, -3.3964265669575395 
3.360000000002666, -3.396032164374572 
3.3700000000026873, -3.3955426453314184 
3.3800000000027084, -3.3949600385949914 
3.3900000000027295, -3.394323600962237 
3.4000000000027506, -3.393730324242987 
3.4100000000027717, -3.393251503299235 
3.420000000002793, -3.392816171090208 
3.430000000002814, -3.3923377440466496 
3.440000000002835, -3.391801787426689 
3.450000000002856, -3.391241691275051 
3.460000000002877, -3.390710603772317 
3.4700000000028983, -3.3902280345945135 
3.4800000000029194, -3.3897562742892697 
3.4900000000029405, -3.3892442330236685 
3.5000000000029616, -3.388669012072495 
3.5100000000029827, -3.388063643213484 
3.520000000003004, -3.3875350241797895 
3.530000000003025, -3.38712648712558 
3.540000000003046, -3.3867343853503464 
3.550000000003067, -3.3862702621256893 
3.5600000000030882, -3.3857078727508414 
3.5700000000031094, -3.3850576404685113 
3.5800000000031305, -3.384404914806435 
3.5900000000031516, -3.3838910574956502 
3.6000000000031727, -3.3834935591687283 
3.6100000000031938, -3.383073724336954 
3.620000000003215, -3.3825777645603425 
3.630000000003236, -3.3820198983611744 
3.640000000003257, -3.381445906896004 
3.650000000003278, -3.3809134825258824 
3.6600000000032993, -3.3804353452242033 
3.6700000000033204, -3.379959511953436 
3.6800000000033415, -3.379438643516328 
3.6900000000033626, -3.378871808550876 
3.7000000000033837, -3.3783149621119706 
3.710000000003405, -3.3778365915587103 
3.720000000003426, -3.377412094636219 
3.730000000003447, -3.3769627551486048 
3.740000000003468, -3.376438723629377 
3.750000000003489, -3.375823455625418 
3.7600000000035103, -3.3751586453963967 
3.7700000000035314, -3.3745911901620085 
3.7800000000035525, -3.3741943211174013 
3.7900000000035736, -3.3738282390044034 
3.8000000000035947, -3.3733835857206373 
3.810000000003616, -3.372848142247444 
3.820000000003637, -3.3722496468934713 
3.830000000003658, -3.3716537287922703 
3.840000000003679, -3.3711371675219746 
3.8500000000037002, -3.3706843799268933 
3.8600000000037213, -3.370215256958975 
3.8700000000037424, -3.3696936751796818 
3.8800000000037635, -3.369138304248925 
3.8900000000037847, -3.3686042701973475 
3.9000000000038058, -3.368126284182812 
3.910000000003827, -3.367672421767137 
3.920000000003848, -3.3671863955964 
3.930000000003869, -3.3666319166802507 
3.94000000000389, -3.3660112097207664 
3.9500000000039113, -3.3654105379147294 
3.9600000000039324, -3.3649546018020215 
3.9700000000039535, -3.364594308976688 
3.9800000000039746, -3.364193218583651 
3.9900000000039957, -3.3636970677206377 
4.000000000004016, -3.363106121807211 
4.010000000003993, -3.3624605093320534 
4.02000000000397, -3.361868712242122 
4.030000000003946, -3.3614063737285536 
4.040000000003923, -3.3609894540211642 
4.0500000000039, -3.36052475432959 
4.0600000000038765, -3.359997832432972 
4.070000000003853, -3.3594401127976967 
4.08000000000383, -3.3589038939557745 
4.090000000003807, -3.3584173259379755 
4.100000000003783, -3.3579505551768554 
4.11000000000376, -3.357451412739085 
4.120000000003737, -3.3568942496973997 
4.130000000003713, -3.356305024250935 
4.14000000000369, -3.3557760427317036 
4.150000000003667, -3.3553561753310297 
4.1600000000036434, -3.3549618306700295 
4.17000000000362, -3.354506512128148 
4.180000000003597, -3.353957639658242 
4.1900000000035735, -3.353317438684608 
4.20000000000355, -3.3526593807505933 
4.210000000003527, -3.3521329872471135 
4.220000000003504, -3.3517444766586673 
4.23000000000348, -3.351348762011297 
4.240000000003457, -3.350875014432053 
4.250000000003434, -3.3503295884416198 
4.26000000000341, -3.3497521062307065 
4.270000000003387, -3.349204340936155 
4.280000000003364, -3.3487204922480367 
4.2900000000033405, -3.348258735621242 
4.300000000003317, -3.347761587536636 
4.310000000003294, -3.347214777104334 
4.320000000003271, -3.3466565200948972 
4.330000000003247, -3.346156197266654 
4.340000000003224, -3.3457211051262092 
4.350000000003201, -3.3452849961192905 
4.360000000003177, -3.344789938822788 
4.370000000003154, -3.344209233458168 
4.380000000003131, -3.343558986161532 
4.390000000003107, -3.3429543572497487 
4.400000000003084, -3.3425209975691503 
4.410000000003061, -3.342171283163136 
4.4200000000030375, -3.3417653427763634 
4.430000000003014, -3.341265262990575 
4.440000000002991, -3.3406857307283113 
4.450000000002968, -3.340076252788516 
4.460000000002944, -3.339524008050185 
4.470000000002921, -3.339062630256079 
4.480000000002898, -3.3386188490058792 
4.490000000002874, -3.33812951344247 
4.500000000002851, -3.3375914115866268 
4.510000000002828, -3.3370452385143556 
4.520000000002804, -3.336542952815093 
4.530000000002781, -3.336086040323265 
4.540000000002758, -3.335625513734397 
4.5500000000027345, -3.3351136036542273 
4.560000000002711, -3.334530665726293 
4.570000000002688, -3.3339136558755316 
4.580000000002665, -3.333384274655136 
4.590000000002641, -3.3329963409460097 
4.600000000002618, -3.3326322285386816 
4.610000000002595, -3.3321930807899585 
4.620000000002571, -3.3316559903764125 
4.630000000002548, -3.3310344266243623 
4.640000000002525, -3.330397488807536 
4.6500000000025015, -3.3298660548085373 
4.660000000002478, -3.3294471489117248 
4.670000000002455, -3.329026308412618 
4.6800000000024315, -3.328543054072577 
4.690000000002408, -3.3280046288690928 
4.700000000002385, -3.3274526117343917 
4.710000000002362, -3.32693696440809 
4.720000000002338, -3.326467488638708 
4.730000000002315, -3.3260007697376124 
4.740000000002292, -3.325490154954244 
4.750000000002268, -3.3249239420596504 
4.760000000002245, -3.3243489615367627 
4.770000000002222, -3.3238596651484884 
4.7800000000021985, -3.3234625248762297 
4.790000000002175, -3.323061092011342 
4.800000000002152, -3.322586855536167 
4.810000000002129, -3.32201741491435 
4.820000000002105, -3.3213665627657236 
4.830000000002082, -3.320732654530007 
4.840000000002059, -3.320253441412361 
4.850000000002035, -3.3198819307292142 
4.860000000002012, -3.319477893895807 
4.870000000001989, -3.3189934505414707 
4.880000000001965, -3.318443281191109 
4.890000000001942, -3.3178716327836506 
4.900000000001919, -3.3173398121248967 
4.9100000000018955, -3.3168695124825085 
4.920000000001872, -3.3164106954571744 
4.930000000001849, -3.3159114504788567 
4.940000000001826, -3.3153648397390945 
4.950000000001802, -3.314815360450498 
4.960000000001779, -3.3143299618157513 
4.970000000001756, -3.3139048474135024 
