t, s[1].omega / s[0].omega 
0, -1.1599974701270659 
0.009999999999999995, -1.159730829722715 
0.019999999999999934, -1.1594383766788074 
0.029999999999999874, -1.1591237114323305 
0.04000000000000012, -1.1587926931820047 
0.050000000000000405, -1.1584531711328805 
0.06000000000000069, -1.1581144208866418 
0.07000000000000098, -1.1577861491545176 
0.08000000000000126, -1.1574770565374135 
0.09000000000000155, -1.1571932136389989 
0.10000000000000184, -1.1569367700704878 
0.11000000000000212, -1.1567055347783266 
0.12000000000000241, -1.1564936217971604 
0.130000000000002, -1.156292847358684 
0.1400000000000009, -1.156094267343653 
0.1499999999999998, -1.1558893438627822 
0.1599999999999987, -1.15567057448129 
0.1699999999999976, -1.1554317291013265 
0.1799999999999965, -1.155167967451182 
0.1899999999999954, -1.1548760710043866 
0.1999999999999943, -1.154554895763919 
0.2099999999999932, -1.1542059969781595 
0.2199999999999921, -1.153834226329139 
0.229999999999991, -1.153447984672897 
0.2399999999999899, -1.1530587725286061 
0.2499999999999888, -1.1526797820959318 
0.2599999999999877, -1.1523235811232286 
0.2699999999999866, -1.1519994181816222 
0.2799999999999855, -1.1517110929378833 
0.2899999999999844, -1.1514563038869556 
0.2999999999999833, -1.151227745310647 
0.3099999999999822, -1.1510153457001453 
0.3199999999999811, -1.1508085770835357 
0.32999999999998, -1.1505980024487923 
0.3399999999999789, -1.1503758435741234 
0.3499999999999778, -1.150135849270931 
0.35999999999997667, -1.1498729177084814 
0.36999999999997557, -1.1495828699409367 
0.37999999999997447, -1.1492626417316685 
0.38999999999997337, -1.1489110199146735 
0.39999999999997227, -1.1485298624569844 
0.40999999999997117, -1.1481254535646153 
0.41999999999997006, -1.1477092927180905 
0.42999999999996896, -1.1472974181146482 
0.43999999999996786, -1.1469076767394113 
0.44999999999996676, -1.1465553552327676 
0.45999999999996566, -1.1462488377336002 
0.46999999999996456, -1.1459874191760846 
0.47999999999996346, -1.1457623661389782 
0.48999999999996235, -1.1455604225174678 
0.49999999999996125, -1.1453677580348842 
0.5099999999999602, -1.1451726694866906 
0.519999999999959, -1.1449665323638523 
0.529999999999958, -1.1447434685647466 
0.5399999999999568, -1.1444994889794282 
0.5499999999999557, -1.1442317078614577 
0.5599999999999546, -1.143937971431605 
0.5699999999999535, -1.1436170721261378 
0.5799999999999524, -1.1432696111048668 
0.5899999999999513, -1.1428994041716192 
0.5999999999999502, -1.142514983893976 
0.6099999999999491, -1.1421302688216368 
0.619999999999948, -1.141763210037352 
0.6299999999999469, -1.1414318064649276 
0.6399999999999458, -1.1411485271052524 
0.6499999999999447, -1.1409158699371835 
0.6599999999999436, -1.1407257077480037 
0.6699999999999425, -1.1405627523579462 
0.6799999999999414, -1.140409882754623 
0.6899999999999403, -1.1402524973410806 
0.6999999999999392, -1.1400804708934826 
0.7099999999999381, -1.1398880075575961 
0.719999999999937, -1.1396724530701616 
0.7299999999999359, -1.1394330075663768 
0.7399999999999348, -1.1391698531559078 
0.7499999999999337, -1.1388838785813555 
0.7599999999999326, -1.138577020796804 
0.7699999999999315, -1.1382531471240092 
0.7799999999999304, -1.1379192316213742 
0.7899999999999293, -1.1375862598213187 
0.7999999999999282, -1.137268946717351 
0.8099999999999271, -1.1369833879101434 
0.819999999999926, -1.136742666111852 
0.8299999999999249, -1.1365520411868466 
0.8399999999999238, -1.1364063819244699 
0.8499999999999227, -1.136291574490699 
0.8599999999999216, -1.1361891692490214 
0.8699999999999205, -1.1360816588203888 
0.8799999999999194, -1.1359559997632531 
0.8899999999999183, -1.1358046215163131 
0.8999999999999172, -1.1356246020768643 
0.9099999999999161, -1.1354161406455978 
0.919999999999915, -1.1351811800613743 
0.9299999999999139, -1.1349225772208533 
0.9399999999999128, -1.1346438975163888 
0.9499999999999117, -1.1343497460549055 
0.9599999999999106, -1.134046441359755 
0.9699999999999095, -1.1337426877473233 
0.9799999999999084, -1.1334497084788486 
0.9899999999999073, -1.1331802248183296 
0.9999999999999062, -1.1329459856766906 
1.0099999999999052, -1.1327543773997917 
1.019999999999904, -1.1326055446967396 
1.029999999999903, -1.1324916007973822 
1.039999999999902, -1.1323985125073313 
1.0499999999999008, -1.1323097847264085 
1.0599999999998997, -1.1322102643980874 
1.0699999999998986, -1.1320886871829576 
1.0799999999998975, -1.1319385200607608 
1.0899999999998964, -1.1317574705130073 
1.0999999999998953, -1.1315463682239562 
1.1099999999998942, -1.1313080429316467 
1.119999999999893, -1.13104656091225 
1.129999999999892, -1.1307669281907462 
1.1399999999998909, -1.1304751830362592 
1.1499999999998898, -1.130178663034712 
1.1599999999998887, -1.1298861181033346 
1.1699999999998876, -1.1296072883106087 
1.1799999999998865, -1.1293516844120712 
1.1899999999998854, -1.1291266793917016 
1.1999999999998843, -1.1289355157683654 
1.2099999999998832, -1.1287760985670383 
1.219999999999882, -1.1286411840398054 
1.229999999999881, -1.1285199153031389 
1.2399999999998799, -1.1284000702750743 
1.2499999999998788, -1.1282702325896106 
1.2599999999998777, -1.1281213380765711 
1.2699999999998766, -1.1279474208666274 
1.2799999999998755, -1.1277456699950956 
1.2899999999998744, -1.127516048183695 
1.2999999999998733, -1.127260746695372 
1.3099999999998722, -1.1269836944204967 
1.319999999999871, -1.1266902354601218 
1.32999999999987, -1.1263869610255328 
1.3399999999998689, -1.1260815549069867 
1.3499999999998678, -1.1257824282320104 
1.3599999999998666, -1.125497940569041 
1.3699999999998655, -1.1252351814971941 
1.3799999999998644, -1.1249985802126232 
1.3899999999998633, -1.1247888436087692 
1.3999999999998622, -1.1246026857196312 
1.4099999999998611, -1.1244334761020647 
1.41999999999986, -1.1242725292783942 
1.429999999999859, -1.1241105597769425 
1.4399999999998578, -1.123938913464014 
1.4499999999998567, -1.123750413286837 
1.4599999999998556, -1.1235398463120456 
1.4699999999998545, -1.1233041943155222 
1.4799999999998534, -1.1230427016701863 
1.4899999999998523, -1.1227568405500397 
1.4999999999998512, -1.1224502053491856 
1.5099999999998501, -1.1221283403669986 
1.519999999999849, -1.1217984611944258 
1.529999999999848, -1.1214689766609924 
1.5399999999998468, -1.1211486981908458 
1.5499999999998457, -1.1208456987598878 
1.5599999999998446, -1.1205659740696399 
1.5699999999998435, -1.1203122765543894 
1.5799999999998424, -1.1200835612710947 
1.5899999999998413, -1.1198752825839515 
1.5999999999998402, -1.1196804056497236 
1.6099999999998391, -1.119490707339452 
1.619999999999838, -1.119297925577065 
1.629999999999837, -1.1190945300457569 
1.6399999999998358, -1.1188741403193891 
1.6499999999998347, -1.118631760046481 
1.6599999999998336, -1.1183640002900737 
1.6699999999998325, -1.1180693828165915 
1.6799999999998314, -1.117748707751431 
1.6899999999998303, -1.117405381322095 
1.6999999999998292, -1.1170455456950392 
1.709999999999828, -1.1166778363309704 
1.719999999999827, -1.1163126186326515 
1.729999999999826, -1.115960651363369 
1.7399999999998248, -1.115631319779553 
1.7499999999998237, -1.1153308446702042 
1.7599999999998226, -1.1150610535198981 
1.7699999999998215, -1.1148191974068349 
1.7799999999998204, -1.1145988732929806 
1.7899999999998193, -1.1143916126882372 
1.7999999999998182, -1.1141884726221094 
1.809999999999817, -1.1139811329983762 
1.819999999999816, -1.1137623753716714 
1.8299999999998149, -1.1135261237602099 
1.8399999999998138, -1.1132673479376904 
1.8499999999998127, -1.112982099369354 
1.8599999999998116, -1.1126678462974748 
1.8699999999998105, -1.1123241375918465 
1.8799999999998094, -1.1119534609950408 
1.8899999999998083, -1.111561984668184 
1.8999999999998072, -1.1111597388954075 
1.909999999999806, -1.1107598074309752 
1.919999999999805, -1.110376351145348 
1.9299999999998039, -1.1100217818979454 
1.9399999999998028, -1.1097039522469587 
1.9499999999998017, -1.1094244572922287 
1.9599999999998006, -1.1091787588395785 
1.9699999999997995, -1.1089579707707 
1.9799999999997984, -1.10875137347723 
1.9899999999997973, -1.1085485835265596 
1.9999999999997962, -1.1083407688978522 
2.0099999999998173, -1.108120911539367 
2.0199999999998384, -1.1078834867787932 
2.0299999999998595, -1.10762399202681 
2.0399999999998806, -1.107338660195438 
2.0499999999999017, -1.1070245730908392 
2.059999999999923, -1.1066802825775528 
2.069999999999944, -1.1063069072245344 
2.079999999999965, -1.1059094391322186 
2.089999999999986, -1.105497681728921 
2.100000000000007, -1.105086011877358 
2.1100000000000283, -1.1046913258460334 
2.1200000000000494, -1.1043293007348363 
2.1300000000000705, -1.10401021861325 
2.1400000000000916, -1.1037362426842132 
2.1500000000001127, -1.103501466477156 
2.160000000000134, -1.1032945199006134 
2.170000000000155, -1.1031021983777651 
2.180000000000176, -1.1029124360661453 
2.190000000000197, -1.1027157901461488 
2.2000000000002182, -1.102505563650884 
2.2100000000002393, -1.1022771683926993 
2.2200000000002604, -1.1020273206845905 
2.2300000000002815, -1.1017534577625292 
2.2400000000003026, -1.1014535822492766 
2.2500000000003237, -1.1011266400710176 
2.260000000000345, -1.1007734541134215 
2.270000000000366, -1.100398069308157 
2.280000000000387, -1.1000090469844417 
2.290000000000408, -1.0996198605802734 
2.3000000000004293, -1.0992474298285724 
2.3100000000004504, -1.098908446644688 
2.3200000000004715, -1.098614528280196 
2.3300000000004926, -1.0983684773515914 
2.3400000000005137, -1.0981637175973427 
2.3500000000005348, -1.0979871185246244 
2.360000000000556, -1.0978234338221033 
2.370000000000577, -1.0976590885161508 
2.380000000000598, -1.0974840821433376 
2.390000000000619, -1.0972921097397987 
2.4000000000006403, -1.097079689139703 
2.4100000000006614, -1.0968450713347275 
2.4200000000006825, -1.096587407011412 
2.4300000000007036, -1.0963063732810778 
2.4400000000007247, -1.0960023244527872 
2.450000000000746, -1.0956769639779034 
2.460000000000767, -1.0953344342920521 
2.470000000000788, -1.0949824948753373 
2.480000000000809, -1.094633114887398 
2.49000000000083, -1.0943015722120202 
2.5000000000008513, -1.0940034675306485 
2.5100000000008724, -1.093750200417388 
2.5200000000008935, -1.0935448706746038 
2.5300000000009146, -1.0933809337250666 
2.5400000000009357, -1.0932444871023412 
2.550000000000957, -1.0931188352600625 
2.560000000000978, -1.0929888930786475 
2.570000000000999, -1.092843709477358 
2.58000000000102, -1.0926768843954755 
2.5900000000010412, -1.092485652669985 
2.6000000000010624, -1.092269567543172 
2.6100000000010835, -1.0920294034228815 
2.6200000000011046, -1.0917665423668625 
2.6300000000011257, -1.0914828950559616 
2.6400000000011468, -1.0911813149769922 
2.650000000001168, -1.0908663959176323 
2.660000000001189, -1.090545403322038 
2.67000000000121, -1.0902288522549664 
2.680000000001231, -1.0899300296367198 
2.6900000000012523, -1.0896628694873223 
2.7000000000012734, -1.0894383177760656 
2.7100000000012945, -1.0892604827020989 
2.7200000000013156, -1.0891245668203613 
2.7300000000013367, -1.0890179163424918 
2.740000000001358, -1.0889237465829287 
2.750000000001379, -1.0888256296235619 
2.7600000000014, -1.0887107849186508 
2.770000000001421, -1.0885713293571544 
2.780000000001442, -1.0884038303898005 
2.7900000000014633, -1.0882080376833978 
2.8000000000014844, -1.0879855719054388 
2.8100000000015055, -1.087739004460568 
2.8200000000015266, -1.0874714644948855 
2.8300000000015477, -1.0871867432302698 
2.840000000001569, -1.0868897797928967 
2.85000000000159, -1.08658732263631 
2.860000000001611, -1.086288419220674 
2.870000000001632, -1.0860042411351327 
2.8800000000016532, -1.0857467730646535 
2.8900000000016743, -1.085526287559861 
2.9000000000016954, -1.0853482771361596 
2.9100000000017165, -1.0852111716382138 
2.9200000000017377, -1.0851060947072515 
2.9300000000017588, -1.0850189511965584 
2.94000000000178, -1.0849339283040618 
2.950000000001801, -1.0848369124136303 
2.960000000001822, -1.084717663019935 
2.970000000001843, -1.084570417122895 
2.9800000000018643, -1.0843933060360205 
2.9900000000018854, -1.084187242572798 
3.0000000000019065, -1.0839548428707364 
3.0100000000019276, -1.0836997027400241 
3.0200000000019487, -1.0834261238166818 
3.03000000000197, -1.0831392341641801 
3.040000000001991, -1.0828453443452926 
3.050000000002012, -1.0825522817831694 
3.060000000002033, -1.0822693569161583 
3.070000000002054, -1.0820066143401905 
3.0800000000020753, -1.0817732302439844 
3.0900000000020964, -1.0815753579738763 
3.1000000000021175, -1.0814141873357344 
3.1100000000021386, -1.0812851031546569 
3.1200000000021597, -1.08117841408086 
3.130000000002181, -1.0810814070023653 
3.140000000002202, -1.08098093871576 
3.150000000002223, -1.080865696833048 
3.160000000002244, -1.0807275770511808 
3.1700000000022652, -1.0805620678200527 
3.1800000000022863, -1.0803678771277274 
3.1900000000023074, -1.080146185636332 
3.2000000000023285, -1.0798998856847155 
3.2100000000023496, -1.07963304115986 
3.2200000000023707, -1.0793506527067933 
3.230000000002392, -1.0790586769657726 
3.240000000002413, -1.0787641364114262 
3.250000000002434, -1.078475074252469 
3.260000000002455, -1.0782000928356443 
3.2700000000024763, -1.077947326900147 
3.2800000000024974, -1.0777229689956738 
3.2900000000025185, -1.077529781358487 
3.3000000000025396, -1.077366179887419 
3.3100000000025607, -1.0772263044288606 
3.3200000000025818, -1.0771010766873526 
3.330000000002603, -1.076979862607868 
3.340000000002624, -1.0768522146100126 
3.350000000002645, -1.0767092740108513 
3.360000000002666, -1.0765446274287853 
3.3700000000026873, -1.0763546066089853 
3.3800000000027084, -1.0761381506262757 
3.3900000000027295, -1.0758964137053642 
3.4000000000027506, -1.0756323091345905 
3.4100000000027717, -1.0753501355256097 
3.420000000002793, -1.0750553473333297 
3.430000000002814, -1.0747544276312937 
3.440000000002835, -1.074454725820037 
3.450000000002856, -1.0741640744833265 
3.460000000002877, -1.0738900441292103 
3.4700000000028983, -1.073638856402635 
3.4800000000029194, -1.0734142049199304 
3.4900000000029405, -1.0732163889034758 
3.5000000000029616, -1.0730421109572048 
3.5100000000029827, -1.072885029939249 
3.520000000003004, -1.0727368606729384 
3.530000000003025, -1.0725886605767374 
3.540000000003046, -1.0724319878581583 
3.550000000003067, -1.0722597645192526 
3.5600000000030882, -1.0720668127665722 
3.5700000000031094, -1.0718501042963848 
3.5800000000031305, -1.0716087840252566 
3.5900000000031516, -1.0713440364782398 
3.6000000000031727, -1.0710588668946044 
3.6100000000031938, -1.0707578590482776 
3.620000000003215, -1.0704469333626077 
3.630000000003236, -1.0701330655744319 
3.640000000003257, -1.0698238674064953 
3.650000000003278, -1.0695269238527305 
3.6600000000032993, -1.0692488658769173 
3.6700000000033204, -1.0689943213340087 
3.6800000000033415, -1.068765042102488 
3.6900000000033626, -1.0685595264965737 
3.7000000000033837, -1.0683732899744798 
3.710000000003405, -1.0681996761149193 
3.720000000003426, -1.0680309151854144 
3.730000000003447, -1.0678591302987945 
3.740000000003468, -1.0676771202113104 
3.750000000003489, -1.0674788964982485 
3.7600000000035103, -1.0672600353039599 
3.7700000000035314, -1.0670179090417864 
3.7800000000035525, -1.0667518295392193 
3.7900000000035736, -1.0664631032648866 
3.8000000000035947, -1.0661549887855677 
3.810000000003616, -1.0658325465377039 
3.820000000003637, -1.0655023617544974 
3.830000000003658, -1.0651720980053265 
3.840000000003679, -1.0648498247953435 
3.8500000000037002, -1.0645430995950564 
3.8600000000037213, -1.0642578951490433 
3.8700000000037424, -1.0639976076675546 
3.8800000000037635, -1.0637624571949322 
3.8900000000037847, -1.0635495040389096 
3.9000000000038058, -1.0633532719359302 
3.910000000003827, -1.0631667323899185 
3.920000000003848, -1.062982317022707 
3.930000000003869, -1.0627927166129818 
3.94000000000389, -1.062591401385873 
3.9500000000039113, -1.0623729372956086 
3.9600000000039324, -1.062133219827139 
3.9700000000039535, -1.061869712556848 
3.9800000000039746, -1.0615817072006148 
3.9900000000039957, -1.0612705580295814 
4.000000000004016, -1.0609398100429468 
4.010000000003993, -1.0605951374316427 
4.02000000000397, -1.0602440220479994 
4.030000000003946, -1.0598951214567633 
4.040000000003923, -1.0595573155357916 
4.0500000000039, -1.0592385061154885 
4.0600000000038765, -1.0589443766404052 
4.070000000003853, -1.058677435036341 
4.08000000000383, -1.0584366554501492 
4.090000000003807, -1.0582178470143022 
4.100000000003783, -1.0580145918909143 
4.11000000000376, -1.0578193898963788 
4.120000000003737, -1.0576246470223722 
4.130000000003713, -1.0574233172519882 
4.14000000000369, -1.0572092154119315 
4.150000000003667, -1.0569771497513667 
4.1600000000036434, -1.0567230463089907 
4.17000000000362, -1.0564441816005725 
4.180000000003597, -1.0561395475093178 
4.1900000000035735, -1.0558102767769997 
4.20000000000355, -1.0554599859437421 
4.210000000003527, -1.0550948638883269 
4.220000000003504, -1.0547233548005075 
4.23000000000348, -1.054355351382497 
4.240000000003457, -1.0540009257652039 
4.250000000003434, -1.0536687799819837 
4.26000000000341, -1.0533647621220354 
4.270000000003387, -1.0530908788607047 
4.280000000003364, -1.0528451346200938 
4.2900000000033405, -1.0526222320176188 
4.300000000003317, -1.0524148270421505 
4.310000000003294, -1.0522148580751574 
4.320000000003271, -1.0520145519130617 
4.330000000003247, -1.0518069558906775 
4.340000000003224, -1.051586081292286 
4.350000000003201, -1.0513468653911482 
4.360000000003177, -1.0510851660069467 
4.370000000003154, -1.0507979388026727 
4.380000000003131, -1.050483650586183 
4.390000000003107, -1.0501428687336276 
4.400000000003084, -1.0497788533318444 
4.410000000003061, -1.0493978956579175 
4.4200000000030375, -1.04900913538781 
4.430000000003014, -1.0486236801563185 
4.440000000002991, -1.0482530463064863 
4.450000000002968, -1.047907199916497 
4.460000000002944, -1.0475927113441725 
4.470000000002921, -1.0473116083032503 
4.480000000002898, -1.047061314404188 
4.490000000002874, -1.0468356368829326 
4.500000000002851, -1.0466263486424707 
4.510000000002828, -1.0464247501711283 
4.520000000002804, -1.0462227585084594 
4.530000000002781, -1.046013391941883 
4.540000000002758, -1.0457907885081117 
4.5500000000027345, -1.0455500143070289 
4.560000000002711, -1.0452869094712365 
4.570000000002688, -1.0449981516023297 
4.580000000002665, -1.0446816277077147 
4.590000000002641, -1.0443370977376143 
4.600000000002618, -1.0439669981913253 
4.610000000002595, -1.043577092255441 
4.620000000002571, -1.0431765861739066 
4.630000000002548, -1.0427773841611738 
4.640000000002525, -1.0423923956186087 
4.6500000000025015, -1.0420331940694985 
4.660000000002478, -1.0417076963390857 
4.670000000002455, -1.041418657834911 
4.6800000000024315, -1.0411635163848996 
4.690000000002408, -1.0409355500349904 
4.700000000002385, -1.040725770183907 
4.710000000002362, -1.0405247788236536 
4.720000000002338, -1.040324035542306 
4.730000000002315, -1.040116383333613 
4.740000000002292, -1.0398960043580068 
4.750000000002268, -1.0396581054820158 
4.760000000002245, -1.0393986137996267 
4.770000000002222, -1.039114085687235 
4.7800000000021985, -1.038801951759092 
4.790000000002175, -1.038461132254364 
4.800000000002152, -1.0380929342086866 
4.810000000002129, -1.0377019721261194 
4.820000000002105, -1.0372966854533092 
4.830000000002082, -1.036888974520926 
4.840000000002059, -1.0364926684867792 
4.850000000002035, -1.036120996146233 
4.860000000002012, -1.035783775681232 
4.870000000001989, -1.0354853376320414 
4.880000000001965, -1.0352239756666053 
4.890000000001942, -1.0349930378426309 
4.900000000001919, -1.0347830414899637 
4.9100000000018955, -1.034583875768445 
4.920000000001872, -1.0343863684496282 
4.930000000001849, -1.0341829768247854 
4.940000000001826, -1.0339677699772492 
