t, s[1].omega / s[0].omega 
0, -0.1199978165168684 
0.009999999999999995, -0.11978192274528507 
0.019999999999999934, -0.11957048588969646 
0.029999999999999874, -0.1193623931153414 
0.04000000000000012, -0.11915606400227685 
0.050000000000000405, -0.11894975081618733 
0.06000000000000069, -0.11874180016857579 
0.07000000000000098, -0.1185308125244865 
0.08000000000000126, -0.11831568699616968 
0.09000000000000155, -0.11809557931367795 
0.10000000000000184, -0.11786981799197153 
0.11000000000000212, -0.11763782144911228 
0.12000000000000241, -0.11739904826674778 
0.130000000000002, -0.11715300225057526 
0.1400000000000009, -0.11689930485489783 
0.1499999999999998, -0.11663783543130854 
0.1599999999999987, -0.1163689185807745 
0.1699999999999976, -0.11609350677705772 
0.1799999999999965, -0.11581327720871051 
0.1899999999999954, -0.11553055943948705 
0.1999999999999943, -0.11524805716508371 
0.2099999999999932, -0.11496841507414284 
0.2199999999999921, -0.11469376286500618 
0.229999999999991, -0.11442538704015086 
0.2399999999999899, -0.11416362250607978 
0.2499999999999888, -0.11390795983853033 
0.2599999999999877, -0.11365728798563343 
0.2699999999999866, -0.11341016825037335 
0.2799999999999855, -0.11316505805969286 
0.2899999999999844, -0.11292044611383485 
0.2999999999999833, -0.11267489936238298 
0.3099999999999822, -0.11242704526333616 
0.3199999999999811, -0.11217552098048181 
0.32999999999998, -0.11191892181509808 
0.3399999999999789, -0.11165578116986383 
0.3499999999999778, -0.11138461607101921 
0.35999999999997667, -0.11110407132087081 
0.36999999999997557, -0.11081318037450705 
0.37999999999997447, -0.1105117188911541 
0.38999999999997337, -0.11020055743821174 
0.39999999999997227, -0.10988185493265898 
0.40999999999997117, -0.10955893594615188 
0.41999999999997006, -0.10923580573318015 
0.42999999999996896, -0.10891643451903879 
0.43999999999996786, -0.1086040663191874 
0.44999999999996676, -0.10830078417440323 
0.45999999999996566, -0.10800741954159329 
0.46999999999996456, -0.1077237396895929 
0.47999999999996346, -0.10744877049526505 
0.48999999999996235, -0.1071811215173347 
0.49999999999996125, -0.10691923351605322 
0.5099999999999602, -0.10666152264217803 
0.519999999999959, -0.10640642995935808 
0.529999999999958, -0.10615239944390656 
0.5399999999999568, -0.10589781092088549 
0.5499999999999557, -0.10564089640588012 
0.5599999999999546, -0.10537967608439698 
0.5699999999999535, -0.1051119652672066 
0.5799999999999524, -0.10483551796753565 
0.5899999999999513, -0.10454836404914232 
0.5999999999999502, -0.10424933465773485 
0.6099999999999491, -0.10393864603235974 
0.619999999999948, -0.10361828288504851 
0.6299999999999469, -0.1032919129513461 
0.6399999999999458, -0.10296425472921622 
0.6499999999999447, -0.10264011590445984 
0.6599999999999436, -0.10232349392684059 
0.6699999999999425, -0.10201705185792434 
0.6799999999999414, -0.10172204609059898 
0.6899999999999403, -0.10143857985510815 
0.6999999999999392, -0.1011659890038116 
0.7099999999999381, -0.10090320760035891 
0.719999999999937, -0.10064903630070979 
0.7299999999999359, -0.10040229570446826 
0.7399999999999348, -0.10016187620336545 
0.7499999999999337, -0.09992670296777653 
0.7599999999999326, -0.09969563271009793 
0.7699999999999315, -0.09946729976200126 
0.7799999999999304, -0.0992399424629887 
0.7899999999999293, -0.09901127190090644 
0.7999999999999282, -0.09877848581212648 
0.8099999999999271, -0.0985385479045521 
0.819999999999926, -0.09828879065670029 
0.8299999999999249, -0.09802772470963182 
0.8399999999999238, -0.09775572385303086 
0.8499999999999227, -0.09747519278555747 
0.8599999999999216, -0.09719005253025337 
0.8699999999999205, -0.09690476711581505 
0.8799999999999194, -0.09662336835631719 
0.8899999999999183, -0.09634884728599925 
0.8999999999999172, -0.09608300756861946 
0.9099999999999161, -0.09582665445741603 
0.919999999999915, -0.09557992646745292 
0.9299999999999139, -0.09534262200104568 
0.9399999999999128, -0.0951144469425442 
0.9499999999999117, -0.09489516270781663 
0.9599999999999106, -0.09468463762165782 
0.9699999999999095, -0.09448280702864949 
0.9799999999999084, -0.09428954249161589 
0.9899999999999073, -0.09410443069735992 
0.9999999999999062, -0.09392648101402909 
1.0099999999999052, -0.09375382671903146 
1.019999999999904, -0.09358355287453887 
1.029999999999903, -0.09341183229639863 
1.039999999999902, -0.09323450144451996 
1.0499999999999008, -0.09304800490387605 
1.0599999999998997, -0.09285035972246848 
1.0699999999998986, -0.09264167081604549 
1.0799999999998975, -0.09242393857167922 
1.0899999999998964, -0.09220030811778819 
1.0999999999998953, -0.0919741791786612 
1.1099999999998942, -0.09174854928992603 
1.119999999999893, -0.09152572775676829 
1.129999999999892, -0.09130735319575227 
1.1399999999998909, -0.09109457190704993 
1.1499999999998898, -0.09088825546611032 
1.1599999999998887, -0.0906891867557593 
1.1699999999998876, -0.0904981830345489 
1.1799999999998865, -0.09031614235559435 
1.1899999999998854, -0.09014400141734795 
1.1999999999998843, -0.08998258946184677 
1.2099999999998832, -0.08983236681771743 
1.219999999999882, -0.08969306229444907 
1.229999999999881, -0.08956328131229209 
1.2399999999998799, -0.08944023730359532 
1.2499999999998788, -0.08931981326981492 
1.2599999999998777, -0.08919710453380583 
1.2699999999998766, -0.08906738073482882 
1.2799999999998755, -0.08892712994112037 
1.2899999999998744, -0.08877473447995607 
1.2999999999998733, -0.08861051576768254 
1.3099999999998722, -0.08843623926223478 
1.319999999999871, -0.08825440762520807 
1.32999999999987, -0.08806765612602631 
1.3399999999998689, -0.08787839722511569 
1.3499999999998678, -0.08768870354902905 
1.3599999999998666, -0.08750034588285502 
1.3699999999998655, -0.0873149002928004 
1.3799999999998644, -0.08713386331215955 
1.3899999999998633, -0.08695873699515841 
1.3999999999998622, -0.08679105688753938 
1.4099999999998611, -0.08663233802600337 
1.41999999999986, -0.08648391531725219 
1.429999999999859, -0.08634666675974606 
1.4399999999998578, -0.08622064317465795 
1.4499999999998567, -0.08610469073883532 
1.4599999999998556, -0.08599622361343952 
1.4699999999998545, -0.08589133009487757 
1.4799999999998534, -0.0857853119833319 
1.4899999999998523, -0.0856735567187307 
1.4999999999998512, -0.08555243640213023 
1.5099999999998501, -0.08541988492462223 
1.519999999999849, -0.08527547902588609 
1.529999999999848, -0.0851201064908031 
1.5399999999998468, -0.08495545714354998 
1.5499999999998457, -0.08478355719883285 
1.5599999999998446, -0.08460645929736077 
1.5699999999998435, -0.08442609793069486 
1.5799999999998424, -0.0842442669132867 
1.5899999999998413, -0.0840626647291358 
1.5999999999998402, -0.08388296138523713 
1.6099999999998391, -0.0837068496064404 
1.619999999999838, -0.08353604771658048 
1.629999999999837, -0.08337222378901885 
1.6399999999998358, -0.0832168182957769 
1.6499999999998347, -0.08307076514875389 
1.6599999999998336, -0.08293415450484329 
1.6699999999998325, -0.08280593762280417 
1.6799999999998314, -0.0826838154522671 
1.6899999999998303, -0.0825644338867311 
1.6999999999998292, -0.08244390285949241 
1.709999999999828, -0.08231850007781935 
1.719999999999827, -0.08218531377413082 
1.729999999999826, -0.08204260833988272 
1.7399999999998248, -0.08188984402975671 
1.7499999999998237, -0.08172743798645911 
1.7599999999998226, -0.08155642407529591 
1.7699999999998215, -0.0813781448685407 
1.7799999999998204, -0.08119404269106013 
1.7899999999998193, -0.08100555833339265 
1.7999999999998182, -0.08081411449214738 
1.809999999999817, -0.08062115060837614 
1.819999999999816, -0.08042817434943078 
1.8299999999998149, -0.0802367944746595 
1.8399999999998138, -0.08004869930086764 
1.8499999999998127, -0.07986554956572858 
1.8599999999998116, -0.07968877196726894 
1.8699999999998105, -0.0795192746319075 
1.8799999999998094, -0.07935715251807937 
1.8899999999998083, -0.07920148915919308 
1.8999999999998072, -0.07905036177940356 
1.909999999999806, -0.07890109936733089 
1.919999999999805, -0.0787507411276885 
1.9299999999998039, -0.0785965497437625 
1.9399999999998028, -0.07843641157638696 
1.9499999999998017, -0.07826902009127663 
1.9599999999998006, -0.07809384288551965 
1.9699999999997995, -0.07791095055873612 
1.9799999999997984, -0.07772080556630338 
1.9899999999997973, -0.0775240845014361 
1.9999999999997962, -0.07732156898385797 
2.0099999999998173, -0.07711410980004936 
2.0199999999998384, -0.07690265085242155 
2.0299999999998595, -0.07668828890126614 
2.0399999999998806, -0.07647233633263802 
2.0499999999999017, -0.07625634635937904 
2.059999999999923, -0.07604205866928228 
2.069999999999944, -0.0758312376437027 
2.079999999999965, -0.07562541000499272 
2.089999999999986, -0.07542555676531792 
2.100000000000007, -0.0752318540294199 
2.1100000000000283, -0.07504356261347926 
2.1200000000000494, -0.07485912453114954 
2.1300000000000705, -0.07467644801418694 
2.1400000000000916, -0.07449328874174861 
2.1500000000001127, -0.07430760376272001 
2.160000000000134, -0.07411778182498521 
2.170000000000155, -0.07392271827321237 
2.180000000000176, -0.07372176441888637 
2.190000000000197, -0.0735146124305219 
2.2000000000002182, -0.07330117560351644 
2.2100000000002393, -0.07308150535609441 
2.2200000000002604, -0.07285576551014222 
2.2300000000002815, -0.0726242675955027 
2.2400000000003026, -0.07238755637505055 
2.2500000000003237, -0.07214651848514664 
2.260000000000345, -0.07190246883406064 
2.270000000000366, -0.07165715706009396 
2.280000000000387, -0.07141264424285962 
2.290000000000408, -0.07117103850479167 
2.3000000000004293, -0.070934139046122 
2.3100000000004504, -0.07070309157470707 
2.3200000000004715, -0.07047816976263287 
2.3300000000004926, -0.07025875515038572 
2.3400000000005137, -0.07004351236855413 
2.3500000000005348, -0.06983068668646696 
2.360000000000556, -0.06961841935286174 
2.370000000000577, -0.06940499168228038 
2.380000000000598, -0.06918895495233689 
2.390000000000619, -0.06896915222912435 
2.4000000000006403, -0.06874466951050533 
2.4100000000006614, -0.06851476248176643 
2.4200000000006825, -0.06827879925638994 
2.4300000000007036, -0.06803624843295972 
2.4400000000007247, -0.06778673030217416 
2.450000000000746, -0.06753013526677962 
2.460000000000767, -0.06726679243586162 
2.470000000000788, -0.06699764121887991 
2.480000000000809, -0.0667243289619465 
2.49000000000083, -0.0664491508564501 
2.5000000000008513, -0.06617478747606985 
2.5100000000008724, -0.06590387791158467 
2.5200000000008935, -0.06563855109666446 
2.5300000000009146, -0.06538006857981857 
2.5400000000009357, -0.0651286856265568 
2.550000000000957, -0.06488374429898751 
2.560000000000978, -0.0646439276465218 
2.570000000000999, -0.06440756684812445 
2.58000000000102, -0.06417290650027113 
2.5900000000010412, -0.06393827582834033 
2.6000000000010624, -0.06370215897056572 
2.6100000000010835, -0.06346318858449661 
2.6200000000011046, -0.06322010027961175 
2.6300000000011257, -0.06297168642856026 
2.6400000000011468, -0.06271678425889113 
2.650000000001168, -0.06245432834187081 
2.660000000001189, -0.06218348882254635 
2.67000000000121, -0.061903895944292485 
2.680000000001231, -0.06161591173103692 
2.6900000000012523, -0.061320857405988784 
2.7000000000012734, -0.06102107004100873 
2.7100000000012945, -0.06071968744045227 
2.7200000000013156, -0.06042016352748748 
2.7300000000013367, -0.06012565042354008 
2.740000000001358, -0.05983845757323284 
2.750000000001379, -0.05955975800730408 
2.7600000000014, -0.059289589959937584 
2.770000000001421, -0.059027082759084616 
2.780000000001442, -0.05877077990414904 
2.7900000000014633, -0.0585189437994761 
2.8000000000014844, -0.05826977418493663 
2.8100000000015055, -0.05802152226015115 
2.8200000000015266, -0.05777251667210279 
2.8300000000015477, -0.05752113365321939 
2.840000000001569, -0.05726574819896911 
2.85000000000159, -0.057004704215243784 
2.860000000001611, -0.05673634322537495 
2.870000000001632, -0.056459130742534946 
2.8800000000016532, -0.056171905999936 
2.8900000000016743, -0.05587423974088714 
2.9000000000016954, -0.055566812292116 
2.9100000000017165, -0.0552516488478646 
2.9200000000017377, -0.054932035836515014 
2.9300000000017588, -0.05461204621371444 
2.94000000000178, -0.05429579120709951 
2.950000000001801, -0.05398666508861795 
2.960000000001822, -0.0536868445157632 
2.970000000001843, -0.05339715727470314 
2.9800000000018643, -0.053117263604900836 
2.9900000000018854, -0.052845999405125445 
3.0000000000019065, -0.05258173258368261 
3.0100000000019276, -0.05232263917596715 
3.0200000000019487, -0.05206686665389517 
3.03000000000197, -0.051812593330634996 
3.040000000001991, -0.051558012447394067 
3.050000000002012, -0.05130127587939186 
3.060000000002033, -0.05104043546087818 
3.070000000002054, -0.05077342610367071 
3.0800000000020753, -0.05049814348293372 
3.0900000000020964, -0.05021266901084992 
3.1000000000021175, -0.049915664584179814 
3.1100000000021386, -0.04960687980596225 
3.1200000000021597, -0.04928759920222318 
3.130000000002181, -0.048960781460457806 
3.140000000002202, -0.04863070899555377 
3.150000000002223, -0.04830219170842499 
3.160000000002244, -0.04797961404677038 
3.1700000000022652, -0.04766618841608468 
3.1800000000022863, -0.04736363324498534 
3.1900000000023074, -0.04707226462463254 
3.2000000000023285, -0.046791337652542564 
3.2100000000023496, -0.04651945020430493 
3.2200000000023707, -0.046254880973151356 
3.230000000002392, -0.04599580831157128 
3.240000000002413, -0.045740409225181605 
3.250000000002434, -0.04548686314528834 
3.260000000002455, -0.04523329288579313 
3.2700000000024763, -0.044977678243620825 
3.2800000000024974, -0.04471778550327807 
3.2900000000025185, -0.04445117158342035 
3.3000000000025396, -0.0441753365120175 
3.3100000000025607, -0.04388808817317015 
3.3200000000025818, -0.04358811464956312 
3.330000000002603, -0.04327562097836804 
3.340000000002624, -0.0429527426390569 
3.350000000002645, -0.04262343703882472 
3.360000000002666, -0.04229276916299869 
3.3700000000026873, -0.041965840378520775 
3.3800000000027084, -0.041646801092782175 
3.3900000000027295, -0.04133829201680288 
3.4000000000027506, -0.04104138809588489 
3.4100000000027717, -0.04075589414482321 
3.420000000002793, -0.040480772524902876 
3.430000000002814, -0.0402145349427113 
3.440000000002835, -0.03995551735209147 
3.450000000002856, -0.039702023543186235 
3.460000000002877, -0.039452356358823285 
3.4700000000028983, -0.03920476566060676 
3.4800000000029194, -0.03895734443160436 
3.4900000000029405, -0.03870791134911028 
3.5000000000029616, -0.038453936795140815 
3.5100000000029827, -0.038192596353258404 
3.520000000003004, -0.03792104952024007 
3.530000000003025, -0.037636998499540456 
3.540000000003046, -0.03733944458004489 
3.550000000003067, -0.03702936164659561 
3.5600000000030882, -0.03670989864585545 
3.5700000000031094, -0.036385874720319365 
3.5800000000031305, -0.036062710343267634 
3.5900000000031516, -0.035745258494546725 
3.6000000000031727, -0.03543700062841101 
3.6100000000031938, -0.035139796872524456 
3.620000000003215, -0.03485408597935793 
3.630000000003236, -0.03457930056706343 
3.640000000003257, -0.034314292508770376 
3.650000000003278, -0.03405765587833538 
3.6600000000032993, -0.03380791489692664 
3.6700000000033204, -0.03356358755893254 
3.6800000000033415, -0.03332314977733208 
3.6900000000033626, -0.03308492679917978 
3.7000000000033837, -0.03284694354090124 
3.710000000003405, -0.03260678404739847 
3.720000000003426, -0.03236154465701172 
3.730000000003447, -0.032107999325988276 
3.740000000003468, -0.031843083826400526 
3.750000000003489, -0.031564689267944646 
3.7600000000035103, -0.031272530968954514 
3.7700000000035314, -0.030968661623609693 
3.7800000000035525, -0.030657253128455665 
3.7900000000035736, -0.030343645112732614 
3.8000000000035947, -0.03003308638694522 
3.810000000003616, -0.02972972003227259 
3.820000000003637, -0.02943612469028565 
3.830000000003658, -0.029153381721190853 
3.840000000003679, -0.02888144173621466 
3.8500000000037002, -0.028619557851342937 
3.8600000000037213, -0.02836664208050338 
3.8700000000037424, -0.02812149156093615 
3.8800000000037635, -0.02788288465625492 
3.8900000000037847, -0.027649566398195692 
3.9000000000038058, -0.027420145309269894 
3.910000000003827, -0.027192926531993906 
3.920000000003848, -0.026965722906202954 
3.930000000003869, -0.02673572307377351 
3.94000000000389, -0.026499543933171943 
3.9500000000039113, -0.02625361160695349 
3.9600000000039324, -0.02599492913129539 
3.9700000000039535, -0.02572206227609362 
3.9800000000039746, -0.025435911834124924 
3.9900000000039957, -0.025139793899186313 
4.000000000004016, -0.02483867702296689 
4.010000000003993, -0.024537921684489896 
4.02000000000397, -0.024242114576952075 
4.030000000003946, -0.023954418590096088 
4.040000000003923, -0.023676494272649198 
4.0500000000039, -0.023408793353141187 
4.0600000000038765, -0.023150977082954147 
4.070000000003853, -0.022902289710490614 
4.08000000000383, -0.022661813237159045 
4.090000000003807, -0.02242859171437795 
4.100000000003783, -0.022201638392637436 
4.11000000000376, -0.021979843202107677 
4.120000000003737, -0.02176179958570524 
4.130000000003713, -0.021545584197419594 
4.14000000000369, -0.021328560935226917 
4.150000000003667, -0.02110733802166806 
4.1600000000036434, -0.020878046015894713 
4.17000000000362, -0.02063704863478844 
4.180000000003597, -0.020381982812738682 
4.1900000000035735, -0.020112720331996563 
4.20000000000355, -0.01983170879672706 
4.210000000003527, -0.019543414019797648 
4.220000000003504, -0.019253114215784788 
4.23000000000348, -0.018965644541190436 
4.240000000003457, -0.018684594272713885 
4.250000000003434, -0.018412093669491196 
4.26000000000341, -0.018149027545674826 
4.270000000003387, -0.017895424976805394 
4.280000000003364, -0.017650836411217907 
4.2900000000033405, -0.017414606603090126 
4.300000000003317, -0.017186020354075134 
4.310000000003294, -0.016964328171428344 
4.320000000003271, -0.01674866511883717 
4.330000000003247, -0.01653787709707866 
4.340000000003224, -0.01633028150107454 
4.350000000003201, -0.01612342674327535 
4.360000000003177, -0.015913977723585243 
4.370000000003154, -0.015697909211955303 
4.380000000003131, -0.015471157174969646 
4.390000000003107, -0.015230677280916469 
4.400000000003084, -0.014975532778797512 
4.410000000003061, -0.014707434420836283 
4.4200000000030375, -0.014430360805106252 
4.430000000003014, -0.01414942512372796 
4.440000000002991, -0.013869574895020784 
4.450000000002968, -0.013594680917724634 
4.460000000002944, -0.013327217162029392 
4.470000000002921, -0.013068403579493779 
4.480000000002898, -0.0128185643333567 
4.490000000002874, -0.012577500606683233 
4.500000000002851, -0.012344773062495661 
4.510000000002828, -0.01211986167813758 
4.520000000002804, -0.011902204650313563 
4.530000000002781, -0.01169112609246675 
4.540000000002758, -0.011485663187856161 
4.5500000000027345, -0.011284315179185028 
4.560000000002711, -0.011084773873994997 
4.570000000002688, -0.010883761345036293 
4.580000000002665, -0.010677165586030468 
4.590000000002641, -0.010460648950679868 
4.600000000002618, -0.01023071402688301 
4.610000000002595, -0.00998587114076949 
4.620000000002571, -0.009727310203543412 
4.630000000002548, -0.009458644864144305 
4.640000000002525, -0.00918483692307359 
4.6500000000025015, -0.00891087513754941 
4.660000000002478, -0.008640796963685483 
4.670000000002455, -0.008377297358059532 
4.6800000000024315, -0.008121821500069265 
4.690000000002408, -0.007874898047038375 
4.700000000002385, -0.0076365053838711675 
4.710000000002362, -0.007406357551501529 
4.720000000002338, -0.007184071325370184 
4.730000000002315, -0.006969212239803515 
4.740000000002292, -0.006761226683826839 
4.750000000002268, -0.006559268431814978 
4.760000000002245, -0.006361939586163592 
4.770000000002222, -0.006167003764048057 
