t, s[1].omega / s[0].omega 
0, -0.7399976775873056 
0.009999999999999995, -0.7397595659998444 
0.019999999999999934, -0.7395101628406596 
0.029999999999999874, -0.7392504243603314 
0.04000000000000012, -0.7389818538866257 
0.050000000000000405, -0.7387064026638172 
0.06000000000000069, -0.7384263678185712 
0.07000000000000098, -0.7381443090697175 
0.08000000000000126, -0.7378629954684899 
0.09000000000000155, -0.7375853786090403 
0.10000000000000184, -0.7373145743932712 
0.11000000000000212, -0.7370538255484116 
0.12000000000000241, -0.7368064138261521 
0.130000000000002, -0.7365754951166077 
0.1400000000000009, -0.7363638431163334 
0.1499999999999998, -0.7361735078859634 
0.1599999999999987, -0.7360054238582795 
0.1699999999999976, -0.7358590345603677 
0.1799999999999965, -0.7357320309224606 
0.1899999999999954, -0.7356203123346086 
0.1999999999999943, -0.735518255557003 
0.2099999999999932, -0.7354193035158257 
0.2199999999999921, -0.735316776493603 
0.229999999999991, -0.7352047098022546 
0.2399999999999899, -0.735078495652003 
0.2499999999999888, -0.7349351790569219 
0.2599999999999877, -0.7347733907143208 
0.2699999999999866, -0.7345930186218849 
0.2799999999999855, -0.7343947704703369 
0.2899999999999844, -0.7341797593998644 
0.2999999999999833, -0.7339491919986634 
0.3099999999999822, -0.7337041861169787 
0.3199999999999811, -0.7334457147894818 
0.32999999999998, -0.7331746607078335 
0.3399999999999789, -0.7328919639370037 
0.3499999999999778, -0.7325988434888094 
0.35999999999997667, -0.7322970630570923 
0.36999999999997557, -0.7319891894544568 
0.37999999999997447, -0.7316787634398383 
0.38999999999997337, -0.7313702817243635 
0.39999999999997227, -0.7310689003272126 
0.40999999999997117, -0.7307798348267315 
0.41999999999997006, -0.7305075491278916 
0.42999999999996896, -0.7302549454067964 
0.43999999999996786, -0.7300228187585135 
0.44999999999996676, -0.7298097677378106 
0.45999999999996566, -0.7296125789150631 
0.46999999999996456, -0.729426924731538 
0.47999999999996346, -0.7292481270966135 
0.48999999999996235, -0.7290717729257961 
0.49999999999996125, -0.7288940748670601 
0.5099999999999602, -0.7287119793476312 
0.519999999999959, -0.7285230901933747 
0.529999999999958, -0.7283254944298329 
0.5399999999999568, -0.7281175655033547 
0.5499999999999557, -0.7278977986709553 
0.5599999999999546, -0.7276647161551846 
0.5699999999999535, -0.7274168685922215 
0.5799999999999524, -0.7271529498331308 
0.5899999999999513, -0.7268720261964209 
0.5999999999999502, -0.7265738521700481 
0.6099999999999491, -0.7262592042353309 
0.619999999999948, -0.725930129210294 
0.6299999999999469, -0.7255900000103038 
0.6399999999999458, -0.7252433183819027 
0.6499999999999447, -0.724895288950951 
0.6599999999999436, -0.7245512690599821 
0.6699999999999425, -0.7242162308924824 
0.6799999999999414, -0.7238943457084672 
0.6899999999999403, -0.7235887403026885 
0.6999999999999392, -0.7233014190569766 
0.7099999999999381, -0.7230333120824232 
0.719999999999937, -0.7227844014745425 
0.7299999999999359, -0.7225538836574744 
0.7399999999999348, -0.7223403364151975 
0.7499999999999337, -0.7221418694837565 
0.7599999999999326, -0.7219562465441389 
0.7699999999999315, -0.7217809747637121 
0.7799999999999304, -0.7216133660829178 
0.7899999999999293, -0.721450581698138 
0.7999999999999282, -0.7212896763895624 
0.8099999999999271, -0.721127661020056 
0.819999999999926, -0.720961598419616 
0.8299999999999249, -0.7207887391053533 
0.8399999999999238, -0.7206066889572337 
0.8499999999999227, -0.720413583708294 
0.8599999999999216, -0.720208231788175 
0.8699999999999205, -0.7199901871095724 
0.8799999999999194, -0.7197597318031349 
0.8899999999999183, -0.7195177793744852 
0.8999999999999172, -0.7192657358126454 
0.9099999999999161, -0.7190053663679956 
0.919999999999915, -0.7187387067381061 
0.9299999999999139, -0.7184680368605172 
0.9399999999999128, -0.718195912893967 
0.9499999999999117, -0.7179252335315142 
0.9599999999999106, -0.7176593012621983 
0.9699999999999095, -0.717401827203438 
0.9799999999999084, -0.7171568218614879 
0.9899999999999073, -0.716928320250686 
0.9999999999999062, -0.7167199179777499 
1.0099999999999052, -0.7165341524900162 
1.019999999999904, -0.7163718453541242 
1.029999999999903, -0.716231598638419 
1.039999999999902, -0.7161096605464405 
1.0499999999999008, -0.7160002959912938 
1.0599999999998997, -0.7158966212432819 
1.0699999999998986, -0.7157916691569998 
1.0799999999998975, -0.7156793585602157 
1.0899999999998964, -0.7155551065963044 
1.0999999999998953, -0.7154159956040069 
1.1099999999998942, -0.7152605745786829 
1.119999999999893, -0.7150884588740972 
1.129999999999892, -0.7148998849619647 
1.1399999999998909, -0.7146953226265514 
1.1499999999998898, -0.7144751896975793 
1.1599999999998887, -0.7142396772312093 
1.1699999999998876, -0.713988678638385 
1.1799999999998865, -0.7137218175865768 
1.1899999999998854, -0.7134385772934868 
1.1999999999998843, -0.7131385389195694 
1.2099999999998832, -0.7128217298163 
1.219999999999882, -0.712489054801808 
1.229999999999881, -0.7121427329674057 
1.2399999999998799, -0.7117866026487331 
1.2499999999998788, -0.7114261254007312 
1.2599999999998777, -0.7110679642006473 
1.2699999999998766, -0.7107191501230077 
1.2799999999998755, -0.7103860334964922 
1.2899999999998744, -0.7100733320732193 
1.2999999999998733, -0.7097835575659966 
1.3099999999998722, -0.7095169404662469 
1.319999999999871, -0.7092717831832208 
1.32999999999987, -0.7090450530825156 
1.3399999999998689, -0.7088330123940326 
1.3499999999998678, -0.7086317402473992 
1.3599999999998666, -0.7084374822511268 
1.3699999999998655, -0.7082468286426538 
1.3799999999998644, -0.7080567602094766 
1.3899999999998633, -0.7078646151176836 
1.3999999999998622, -0.7076680283228719 
1.4099999999998611, -0.7074648859282641 
1.41999999999986, -0.7072533233934469 
1.429999999999859, -0.7070317794763781 
1.4399999999998578, -0.7067990975756077 
1.4499999999998567, -0.706554646220379 
1.4599999999998556, -0.7062984184123673 
1.4699999999998545, -0.7060310730333466 
1.4799999999998534, -0.7057539012292205 
1.4899999999998523, -0.7054687270044868 
1.4999999999998512, -0.7051777705331814 
1.5099999999998501, -0.7048835073167923 
1.519999999999849, -0.70458854861633 
1.529999999999848, -0.7042955557537578 
1.5399999999998468, -0.7040071885212438 
1.5499999999998457, -0.7037260782763544 
1.5599999999998446, -0.7034548098332367 
1.5699999999998435, -0.7031958931960276 
1.5799999999998424, -0.7029517066168391 
1.5899999999998413, -0.7027243961917718 
1.5999999999998402, -0.7025157238722961 
1.6099999999998391, -0.7023268652514604 
1.619999999999838, -0.7021581712091296 
1.629999999999837, -0.7020089240954155 
1.6399999999998358, -0.701877138864212 
1.6499999999998347, -0.7017594774699788 
1.6599999999998336, -0.7016513492795088 
1.6699999999998325, -0.701547245373289 
1.6799999999998314, -0.7014412918249059 
1.6899999999998303, -0.701327921445033 
1.6999999999998292, -0.7012024979551517 
1.709999999999828, -0.7010617274072585 
1.719999999999827, -0.7009037684282586 
1.729999999999826, -0.7007280635850899 
1.7399999999998248, -0.7005349974272581 
1.7499999999998237, -0.7003255088914286 
1.7599999999998226, -0.700100756751117 
1.7699999999998215, -0.6998618892125112 
1.7799999999998204, -0.6996099295610353 
1.7899999999998193, -0.69934576864993 
1.7999999999998182, -0.6990702483616663 
1.809999999999817, -0.698784319251819 
1.819999999999816, -0.698489252163488 
1.8299999999998149, -0.6981868724237562 
1.8399999999998138, -0.6978797657152207 
1.8499999999998127, -0.6975713830392603 
1.8599999999998116, -0.6972659625143415 
1.8699999999998105, -0.6969682068626974 
1.8799999999998094, -0.6966827196266789 
1.8899999999998083, -0.6964133001117432 
1.8999999999998072, -0.6961622852380384 
1.909999999999806, -0.6959301485398204 
1.919999999999805, -0.6957154902067195 
1.9299999999998039, -0.6955154062761836 
1.9399999999998028, -0.6953260892308918 
1.9499999999998017, -0.6951434575956442 
1.9599999999998006, -0.694963650730359 
1.9699999999997995, -0.6947833135541339 
1.9799999999997984, -0.6945996795554927 
1.9899999999997973, -0.694410508829655 
1.9999999999997962, -0.6942139504006488 
2.0099999999998173, -0.6940083893664235 
2.0199999999998384, -0.6937923244387776 
2.0299999999998595, -0.6935643084727441 
2.0399999999998806, -0.6933229743890559 
2.0499999999999017, -0.6930671570880922 
2.059999999999923, -0.6927961026225395 
2.069999999999944, -0.6925097269107653 
2.079999999999965, -0.6922088549969219 
2.089999999999986, -0.6918953561521024 
2.100000000000007, -0.6915721085166919 
2.1100000000000283, -0.6912427810401418 
2.1200000000000494, -0.6909114857210402 
2.1300000000000705, -0.6905823936392631 
2.1400000000000916, -0.6902594044867917 
2.1500000000001127, -0.6899459214602988 
2.160000000000134, -0.6896447383833632 
2.170000000000155, -0.6893580151884937 
2.180000000000176, -0.689087307079322 
2.190000000000197, -0.6888336160747422 
2.2000000000002182, -0.6885974427791804 
2.2100000000002393, -0.6883788252656936 
2.2200000000002604, -0.6881773585935276 
2.2300000000002815, -0.6879921929271565 
2.2400000000003026, -0.6878220119414984 
2.2500000000003237, -0.6876649979026238 
2.260000000000345, -0.6875187966792394 
2.270000000000366, -0.6873805047440542 
2.280000000000387, -0.6872467082925385 
2.290000000000408, -0.6871136060970877 
2.3000000000004293, -0.6869772349504965 
2.3100000000004504, -0.6868337854217533 
2.3200000000004715, -0.6866799536086974 
2.3300000000004926, -0.6865132431663314 
2.3400000000005137, -0.6863321350075597 
2.3500000000005348, -0.6861360851627742 
2.360000000000556, -0.6859253724457456 
2.370000000000577, -0.6857008634002286 
2.380000000000598, -0.685463773214778 
2.390000000000619, -0.6852154827656488 
2.4000000000006403, -0.6849574418745747 
2.4100000000006614, -0.6846911626644345 
2.4200000000006825, -0.6844182897931291 
2.4300000000007036, -0.6841407234730612 
2.4400000000007247, -0.683860761112814 
2.450000000000746, -0.6835812109382491 
2.460000000000767, -0.6833054182741157 
2.470000000000788, -0.6830371414961564 
2.480000000000809, -0.682780234300829 
2.49000000000083, -0.6825381448433159 
2.5000000000008513, -0.682313323518402 
2.5100000000008724, -0.6821067047181008 
2.5200000000008935, -0.6819174428933088 
2.5300000000009146, -0.6817430109655429 
2.5400000000009357, -0.6815796368302954 
2.550000000000957, -0.6814229329906798 
2.560000000000978, -0.6812685276217725 
2.570000000000999, -0.6811125425509007 
2.58000000000102, -0.6809518472310796 
2.5900000000010412, -0.6807840991233737 
2.6000000000010624, -0.6806076301985697 
2.6100000000010835, -0.6804212524830069 
2.6200000000011046, -0.6802240449210961 
2.6300000000011257, -0.6800151649836815 
2.6400000000011468, -0.6797937125229084 
2.650000000001168, -0.6795586647317562 
2.660000000001189, -0.6793088984003445 
2.67000000000121, -0.6790433136220532 
2.680000000001231, -0.6787610639130911 
2.6900000000012523, -0.6784618741576921 
2.7000000000012734, -0.6781463892285602 
2.7100000000012945, -0.6778164556621646 
2.7200000000013156, -0.677475223570605 
2.7300000000013367, -0.6771269917228712 
2.740000000001358, -0.6767768034393465 
2.750000000001379, -0.676429894200609 
2.7600000000014, -0.6760911401953438 
2.770000000001421, -0.6757646365462225 
2.780000000001442, -0.6754534667121505 
2.7900000000014633, -0.6751596543301375 
2.8000000000014844, -0.674884246325014 
2.8100000000015055, -0.6746274661615109 
2.8200000000015266, -0.6743888866979254 
2.8300000000015477, -0.6741675892306024 
2.840000000001569, -0.6739622905867175 
2.85000000000159, -0.6737714310326048 
2.860000000001611, -0.6735932230999327 
2.870000000001632, -0.6734256668618133 
2.8800000000016532, -0.6732665420399424 
2.8900000000016743, -0.6731133922076782 
2.9000000000016954, -0.6729635210722631 
2.9100000000017165, -0.672814024014488 
2.9200000000017377, -0.6726618766823821 
2.9300000000017588, -0.6725040921084101 
2.94000000000178, -0.6723379359768338 
2.950000000001801, -0.6721611610715884 
2.960000000001822, -0.6719722010905202 
2.970000000001843, -0.6717702674971843 
2.9800000000018643, -0.6715553247262147 
2.9900000000018854, -0.6713279631631612 
3.0000000000019065, -0.6710892218189703 
3.0100000000019276, -0.6708404196056619 
3.0200000000019487, -0.6705830391588099 
3.03000000000197, -0.6703186834076974 
3.040000000001991, -0.670049103588155 
3.050000000002012, -0.6697762816821836 
3.060000000002033, -0.6695025382302522 
3.070000000002054, -0.6692306248583864 
3.0800000000020753, -0.6689637494464635 
3.0900000000020964, -0.6687054760005618 
3.1000000000021175, -0.6684594521385866 
3.1100000000021386, -0.6682289570088076 
3.1200000000021597, -0.6680163336323784 
3.130000000002181, -0.6678224502010462 
3.140000000002202, -0.6676463771868071 
3.150000000002223, -0.6674854247202076 
3.160000000002244, -0.6673355574925092 
3.1700000000022652, -0.6671920571047061 
3.1800000000022863, -0.6670502205047775 
3.1900000000023074, -0.6669059059043466 
3.2000000000023285, -0.6667558309641252 
3.2100000000023496, -0.6665976277217238 
3.2200000000023707, -0.6664297205781702 
3.230000000002392, -0.6662511103141148 
3.240000000002413, -0.6660611340974913 
3.250000000002434, -0.6658592482268705 
3.260000000002455, -0.6656448602254237 
3.2700000000024763, -0.6654172253803576 
3.2800000000024974, -0.6651754196559313 
3.2900000000025185, -0.6649184021605304 
3.3000000000025396, -0.6646451795178094 
3.3100000000025607, -0.6643550735544921 
3.3200000000025818, -0.66404806626648 
3.330000000002603, -0.6637251539316783 
3.340000000002624, -0.66338860273517 
3.350000000002645, -0.6630419917823609 
3.360000000002666, -0.6626899796679204 
3.3700000000026873, -0.6623378274113719 
3.3800000000027084, -0.6619908039034985 
3.3900000000027295, -0.6616536353093881 
3.4000000000027506, -0.6613301218262004 
3.4100000000027717, -0.661022966372152 
3.420000000002793, -0.6607337880475372 
3.430000000002814, -0.6604632562882196 
3.440000000002835, -0.6602112788831195 
3.450000000002856, -0.6599771930728855 
3.460000000002877, -0.6597599289971039 
3.4700000000028983, -0.6595581310340808 
3.4800000000029194, -0.6593702334309335 
3.4900000000029405, -0.6591944934014118 
3.5000000000029616, -0.6590289895457536 
3.5100000000029827, -0.6588715975586046 
3.520000000003004, -0.6587199595828162 
3.530000000003025, -0.6585714682235436 
3.540000000003046, -0.6584232897189425 
3.550000000003067, -0.6582724494633065 
3.5600000000030882, -0.6581159918080288 
3.5700000000031094, -0.657951202025118 
3.5800000000031305, -0.6577758474644954 
3.5900000000031516, -0.6575883738287546 
3.6000000000031727, -0.6573879985114744 
3.6100000000031938, -0.6571746781697868 
3.620000000003215, -0.6569489736459306 
3.630000000003236, -0.6567118669088089 
3.640000000003257, -0.6564645893229438 
3.650000000003278, -0.6562085038456782 
3.6600000000032993, -0.6559450597833266 
3.6700000000033204, -0.6556758182293065 
3.6800000000033415, -0.6554025321300466 
3.6900000000033626, -0.6551272544691855 
3.7000000000033837, -0.6548524378298303 
3.710000000003405, -0.6545809780433515 
3.720000000003426, -0.6543161485297093 
3.730000000003447, -0.6540613804534989 
3.740000000003468, -0.6538198781839017 
3.750000000003489, -0.6535941215865417 
3.7600000000035103, -0.6533853767557316 
3.7700000000035314, -0.6531933739164659 
3.7800000000035525, -0.6530162777484811 
3.7900000000035736, -0.6528509739524868 
3.8000000000035947, -0.6526935792229633 
3.810000000003616, -0.6525400146336476 
3.820000000003637, -0.6523864912301013 
3.830000000003658, -0.6522298185467137 
3.840000000003679, -0.6520675193094974 
3.8500000000037002, -0.6518977859268433 
3.8600000000037213, -0.6517193371494172 
3.8700000000037424, -0.6515312324342932 
3.8800000000037635, -0.6513326886988192 
3.8900000000037847, -0.6511229296889471 
3.9000000000038058, -0.650901088135993 
3.910000000003827, -0.6506661765144707 
3.920000000003848, -0.650417140883188 
3.930000000003869, -0.6501530083958243 
3.94000000000389, -0.6498731257190837 
3.9500000000039113, -0.6495774584072558 
3.9600000000039324, -0.649266884647387 
3.9700000000039535, -0.6489433885247398 
3.9800000000039746, -0.6486100636134712 
3.9900000000039957, -0.648270890790484 
4.000000000004016, -0.6479303363786886 
4.010000000003993, -0.6475928830063464 
4.02000000000397, -0.6472626179398902 
4.030000000003946, -0.6469429616391738 
4.040000000003923, -0.6466365556229677 
4.0500000000039, -0.6463452789496447 
4.0600000000038765, -0.6460703418611374 
4.070000000003853, -0.6458124081410471 
4.08000000000383, -0.645571711580362 
4.090000000003807, -0.6453481464237611 
4.100000000003783, -0.6451413222953735 
4.11000000000376, -0.6449505806061567 
4.120000000003737, -0.6447749735087297 
4.130000000003713, -0.6446132102675346 
4.14000000000369, -0.6444635814399235 
4.150000000003667, -0.6443238797704877 
4.1600000000036434, -0.6441913476670732 
4.17000000000362, -0.6440626906137562 
4.180000000003597, -0.6439341955821848 
4.1900000000035735, -0.6438019735971122 
4.20000000000355, -0.6436623034489004 
4.210000000003527, -0.6435120034459425 
4.220000000003504, -0.6433487294884583 
4.23000000000348, -0.643171114791147 
4.240000000003457, -0.6429787247545347 
4.250000000003434, -0.6427718665571831 
4.26000000000341, -0.6425513317441001 
4.270000000003387, -0.6423181498161926 
4.280000000003364, -0.6420734048471525 
4.2900000000033405, -0.6418181363887422 
4.300000000003317, -0.6415533237152083 
4.310000000003294, -0.6412799411137607 
4.320000000003271, -0.6409990671089154 
4.330000000003247, -0.640712026555924 
4.340000000003224, -0.6404205378131037 
4.350000000003201, -0.6401268277267742 
4.360000000003177, -0.6398336692360556 
4.370000000003154, -0.6395442976790642 
4.380000000003131, -0.6392621798555097 
4.390000000003107, -0.6389906465186385 
4.400000000003084, -0.6387324466914204 
4.410000000003061, -0.6384893245224994 
4.4200000000030375, -0.6382617353637572 
4.430000000003014, -0.6380487903802602 
4.440000000002991, -0.637848449095641 
4.450000000002968, -0.6376578953015745 
4.460000000002944, -0.6374739769624975 
4.470000000002921, -0.6372935909804418 
4.480000000002898, -0.6371139388597838 
4.490000000002874, -0.6369326371180837 
4.500000000002851, -0.6367477091479481 
4.510000000002828, -0.6365575040861329 
4.520000000002804, -0.6363605886808709 
4.530000000002781, -0.6361556501470049 
4.540000000002758, -0.6359414387155119 
4.5500000000027345, -0.6357167700813655 
4.560000000002711, -0.6354805980860169 
4.570000000002688, -0.6352321529952228 
4.580000000002665, -0.6349711193031834 
4.590000000002641, -0.6346978044257404 
4.600000000002618, -0.634413238691144 
4.610000000002595, -0.6341191607709531 
4.620000000002571, -0.6338178816387783 
4.630000000002548, -0.6335120659553051 
4.640000000002525, -0.6332044963997068 
4.6500000000025015, -0.632897880975782 
4.660000000002478, -0.6325947349564476 
4.670000000002455, -0.6322973380971885 
4.6800000000024315, -0.632007748210107 
4.690000000002408, -0.6317278460074155 
4.700000000002385, -0.6314593879123676 
4.710000000002362, -0.6312040476412971 
4.720000000002338, -0.6309634308675458 
4.730000000002315, -0.6307390496738076 
4.740000000002292, -0.630532245586192 
4.750000000002268, -0.630344053365709 
4.760000000002245, -0.6301750047918784 
4.770000000002222, -0.6300248852999774 
4.7800000000021985, -0.6298924784675111 
4.790000000002175, -0.6297753616108552 
4.800000000002152, -0.6296698391295744 
4.810000000002129, -0.6295710982615617 
4.820000000002105, -0.6294736244367068 
4.830000000002082, -0.629371821808812 
4.840000000002059, -0.6292606877915722 
4.850000000002035, -0.6291363495388738 
4.860000000002012, -0.628996320192625 
4.870000000001989, -0.6288394462099898 
4.880000000001965, -0.6286656250697072 
4.890000000001942, -0.6284754214052372 
4.900000000001919, -0.6282696949724276 
4.9100000000018955, -0.6280493073297768 
4.920000000001872, -0.6278149293093981 
