t, s[1].omega / s[0].omega 
0, -0.23999780531865636 
0.009999999999999995, -0.23978068320891738 
0.019999999999999934, -0.2395676464940336 
0.029999999999999874, -0.23935716584436878 
0.04000000000000012, -0.23914711344640666 
0.050000000000000405, -0.2389352041836937 
0.06000000000000069, -0.2387193488826075 
0.07000000000000098, -0.23849782946594172 
0.08000000000000126, -0.23826929360017385 
0.09000000000000155, -0.23803262476001547 
0.10000000000000184, -0.23778675836578875 
0.11000000000000212, -0.23753050148186655 
0.12000000000000241, -0.2372623960777013 
0.130000000000002, -0.23698065937175855 
0.1400000000000009, -0.2366832420230907 
0.1499999999999998, -0.23636805636188427 
0.1599999999999987, -0.2360334202373766 
0.1699999999999976, -0.2356787063540211 
0.1799999999999965, -0.23530506451745148 
0.1899999999999954, -0.23491593499893298 
0.1999999999999943, -0.23451701634000885 
0.2099999999999932, -0.23411551654434923 
0.2199999999999921, -0.23371887112267178 
0.229999999999991, -0.2333334135315177 
0.2399999999999899, -0.23296349062556249 
0.2499999999999888, -0.2326112388657055 
0.2599999999999877, -0.23227691168191908 
0.2699999999999866, -0.23195948130648011 
0.2799999999999855, -0.23165725655641295 
0.2899999999999844, -0.231368367672731 
0.2999999999999833, -0.2310910755647282 
0.3099999999999822, -0.23082392398791263 
0.3199999999999811, -0.23056577068051612 
0.32999999999998, -0.2303157248400943 
0.3399999999999789, -0.2300730008357963 
0.3499999999999778, -0.22983668549474565 
0.35999999999997667, -0.22960542230734754 
0.36999999999997557, -0.22937705612321505 
0.37999999999997447, -0.22914836537706 
0.38999999999997337, -0.22891510986243432 
0.39999999999997227, -0.2286726452102276 
0.40999999999997117, -0.22841715968234855 
0.41999999999997006, -0.22814715102159341 
0.42999999999996896, -0.22786437151520103 
0.43999999999996786, -0.2275735914321806 
0.44999999999996676, -0.22728123237161063 
0.45999999999996566, -0.22699362014396196 
0.46999999999996456, -0.22671569391269877 
0.47999999999996346, -0.22645053959647035 
0.48999999999996235, -0.22619960533504785 
0.49999999999996125, -0.22596324594348444 
0.5099999999999602, -0.22574130080826146 
0.519999999999959, -0.22553355631936198 
0.529999999999958, -0.2253400581498357 
0.5399999999999568, -0.2251612907976351 
0.5499999999999557, -0.22499824759215667 
0.5599999999999546, -0.22485239622724432 
0.5699999999999535, -0.22472551927335163 
0.5799999999999524, -0.2246193895215561 
0.5899999999999513, -0.2245352437455753 
0.5999999999999502, -0.2244730688528742 
0.6099999999999491, -0.22443082842389267 
0.619999999999948, -0.2244039119893814 
0.6299999999999469, -0.2243851827260815 
0.6399999999999458, -0.22436587742496203 
0.6499999999999447, -0.22433721910484827 
0.6599999999999436, -0.2242921489903562 
0.6699999999999425, -0.2242264550733802 
0.6799999999999414, -0.22413892566820293 
0.6899999999999403, -0.2240306980516007 
0.6999999999999392, -0.22390428156195546 
0.7099999999999381, -0.2237626838425415 
0.719999999999937, -0.22360883856521258 
0.7299999999999359, -0.2234453354217088 
0.7399999999999348, -0.2232743661013378 
0.7499999999999337, -0.22309779511979272 
0.7599999999999326, -0.22291729003777178 
0.7699999999999315, -0.22273446848251616 
0.7799999999999304, -0.22255102751621153 
0.7899999999999293, -0.22236881587255614 
0.7999999999999282, -0.22218980172236794 
0.8099999999999271, -0.2220158944542352 
0.819999999999926, -0.22184861466286057 
0.8299999999999249, -0.22168867445508278 
0.8399999999999238, -0.2215356054890166 
0.8499999999999227, -0.22138760565534046 
0.8599999999999216, -0.22124172244505683 
0.8699999999999205, -0.2210943548323323 
0.8799999999999194, -0.22094190558519627 
0.8899999999999183, -0.22078134879571976 
0.8999999999999172, -0.22061053687639798 
0.9099999999999161, -0.2204282081972539 
0.919999999999915, -0.22023377679913367 
0.9299999999999139, -0.22002703151534023 
0.9399999999999128, -0.21980785159636543 
0.9499999999999117, -0.21957600151471296 
0.9599999999999106, -0.21933103305720283 
0.9699999999999095, -0.21907230845047593 
0.9799999999999084, -0.21879915594336485 
0.9899999999999073, -0.2185111616389797 
0.9999999999999062, -0.2182085700198637 
1.0099999999999052, -0.21789270319633963 
1.019999999999904, -0.21756623732945485 
1.029999999999903, -0.21723315245081304 
1.039999999999902, -0.21689826000212245 
1.0499999999999008, -0.21656640198453267 
1.0599999999998997, -0.21624159491419678 
1.0699999999998986, -0.2159264267734465 
1.0799999999998975, -0.2156218785624544 
1.0899999999998964, -0.21532753833149548 
1.0999999999998953, -0.21504203580191855 
1.1099999999998942, -0.2147635032221192 
1.119999999999893, -0.21448993017333762 
1.129999999999892, -0.21421936356989946 
1.1399999999998909, -0.21394996473740294 
1.1499999999998898, -0.21367996119931942 
1.1599999999998887, -0.2134075315269417 
1.1699999999998876, -0.21313065405345713 
1.1799999999998865, -0.21284694922162392 
1.1899999999998854, -0.21255356107188264 
1.1999999999998843, -0.2122471590711859 
1.2099999999998832, -0.21192418413840616 
1.219999999999882, -0.21158146813105055 
1.229999999999881, -0.2112172498436387 
1.2399999999998799, -0.2108323494544717 
1.2499999999998788, -0.21043095817323088 
1.2599999999998777, -0.2100204484741866 
1.2699999999998766, -0.2096100364669903 
1.2799999999998755, -0.2092088080931381 
1.2899999999998744, -0.20882398572166125 
1.2999999999998733, -0.20846006639696327 
1.3099999999998722, -0.2081188972829849 
1.319999999999871, -0.20780034231465255 
1.32999999999987, -0.20750312002239685 
1.3399999999998689, -0.20722553359738421 
1.3499999999998678, -0.20696598722051024 
1.3599999999998666, -0.20672329308555293 
1.3699999999998655, -0.2064968131386641 
1.3799999999998644, -0.20628647379084913 
1.3899999999998633, -0.20609266596847825 
1.3999999999998622, -0.20591601400643253 
1.4099999999998611, -0.20575697978694674 
1.41999999999986, -0.20561528368582166 
1.429999999999859, -0.20548919853000086 
1.4399999999998578, -0.20537492025391652 
1.4499999999998567, -0.20526638709672426 
1.4599999999998556, -0.20515594453271319 
1.4699999999998545, -0.2050359387171135 
1.4799999999998534, -0.20490070821653833 
1.4899999999998523, -0.20474800066182502 
1.4999999999998512, -0.20457909012464168 
1.5099999999998501, -0.2043976935072737 
1.519999999999849, -0.20420844290249854 
1.529999999999848, -0.20401567117268798 
1.5399999999998468, -0.20382282409708102 
1.5499999999998457, -0.20363240452783965 
1.5599999999998446, -0.2034462032930399 
1.5699999999998435, -0.20326561164273022 
1.5799999999998424, -0.20309190434410582 
1.5899999999998413, -0.20292645318381614 
1.5999999999998402, -0.20277086127902524 
1.6099999999998391, -0.20262700950653686 
1.619999999999838, -0.20249699224497691 
1.629999999999837, -0.20238290479795676 
1.6399999999998358, -0.20228644612243402 
1.6499999999998347, -0.20220833825935297 
1.6599999999998336, -0.20214765314198763 
1.6699999999998325, -0.20210126351499355 
1.6799999999998314, -0.20206372555836186 
1.6899999999998303, -0.20202784002289526 
1.6999999999998292, -0.20198586395997636 
1.709999999999828, -0.20193097792945486 
1.719999999999827, -0.201858431756523 
1.729999999999826, -0.20176597025374168 
1.7399999999998248, -0.20165353968116523 
1.7499999999998237, -0.20152258448439692 
1.7599999999998226, -0.20137529464003437 
1.7699999999998215, -0.20121402974727215 
1.7799999999998204, -0.20104098463930584 
1.7899999999998193, -0.20085806375318618 
1.7999999999998182, -0.20066690221359024 
1.809999999999817, -0.20046897787555285 
1.819999999999816, -0.200265770199361 
1.8299999999998149, -0.20005892323539082 
1.8399999999998138, -0.19985035978582405 
1.8499999999998127, -0.19964228299518405 
1.8599999999998116, -0.1994370101492692 
1.8699999999998105, -0.1992366290181213 
1.8799999999998094, -0.19904254658136372 
1.8899999999998083, -0.19885507828816162 
1.8999999999998072, -0.19867324994152452 
1.909999999999806, -0.19849492025446389 
1.919999999999805, -0.198317199816317 
1.9299999999998039, -0.19813701277032503 
1.9399999999998028, -0.19795159783224592 
1.9499999999998017, -0.19775879954424794 
1.9599999999998006, -0.19755711281438235 
1.9699999999997995, -0.19734554066061955 
1.9799999999997984, -0.19712336459818094 
1.9899999999997973, -0.1968899161735311 
1.9999999999997962, -0.19664440818788467 
2.0099999999998173, -0.19638586100911656 
2.0199999999998384, -0.19611315090644127 
2.0299999999998595, -0.19582520536957945 
2.0399999999998806, -0.19552135643819218 
2.0499999999999017, -0.19520181671497633 
2.059999999999923, -0.19486815879048447 
2.069999999999944, -0.19452359220284793 
2.079999999999965, -0.194172822154317 
2.089999999999986, -0.19382140906563355 
2.100000000000007, -0.1934747902596575 
2.1100000000000283, -0.19313731566654596 
2.1200000000000494, -0.19281164025614422 
2.1300000000000705, -0.19249861853947442 
2.1400000000000916, -0.19219761355898662 
2.1500000000001127, -0.19190700526231755 
2.160000000000134, -0.1916246899328036 
2.170000000000155, -0.19134844552443783 
2.180000000000176, -0.19107612697971393 
2.190000000000197, -0.1908057124104348 
2.2000000000002182, -0.19053524124215598 
2.2100000000002393, -0.1902626831916603 
2.2200000000002604, -0.18998577004714656 
2.2300000000002815, -0.18970182539382524 
2.2400000000003026, -0.18940765049520375 
2.2500000000003237, -0.1890995680643544 
2.260000000000345, -0.18877376806065507 
2.270000000000366, -0.1884270814326498 
2.280000000000387, -0.18805814595511286 
2.290000000000408, -0.18766860895785292 
2.3000000000004293, -0.1872637228628233 
2.3100000000004504, -0.18685177725606217 
2.3200000000004715, -0.18644240428551762 
2.3300000000004926, -0.18604448588689643 
2.3400000000005137, -0.185664579394528 
2.3500000000005348, -0.18530634885612401 
2.360000000000556, -0.18497089220795268 
2.370000000000577, -0.18465753421944284 
2.380000000000598, -0.18436467696229725 
2.390000000000619, -0.1840904796286199 
2.4000000000006403, -0.1838333055378827 
2.4100000000006614, -0.183591962807807 
2.4200000000006825, -0.18336578668936646 
2.4300000000007036, -0.18315459588317456 
2.4400000000007247, -0.18295852638535698 
2.450000000000746, -0.18277772141590515 
2.460000000000767, -0.18261185240850691 
2.470000000000788, -0.1824594888686059 
2.480000000000809, -0.1823174488805014 
2.49000000000083, -0.18218043398023323 
2.5000000000008513, -0.18204136910720303 
2.5100000000008724, -0.18189271557175973 
2.5200000000008935, -0.18172848249602064 
2.5300000000009146, -0.1815460253243664 
2.5400000000009357, -0.18134663229383594 
2.550000000000957, -0.18113462567173938 
2.560000000000978, -0.1809156341081561 
2.570000000000999, -0.18069500417323628 
2.58000000000102, -0.18047692347920546 
2.5900000000010412, -0.18026426533521384 
2.6000000000010624, -0.1800588684423092 
2.6100000000010835, -0.17986196041701238 
2.6200000000011046, -0.17967455160174634 
2.6300000000011257, -0.17949773347822603 
2.6400000000011468, -0.1793328718669531 
2.650000000001168, -0.17918169672611303 
2.660000000001189, -0.1790462768685836 
2.67000000000121, -0.17892884622177063 
2.680000000001231, -0.1788314351508185 
2.6900000000012523, -0.1787552779966089 
2.7000000000012734, -0.1787000422276847 
2.7100000000012945, -0.17866306497800663 
2.7200000000013156, -0.1786389408958853 
2.7300000000013367, -0.17861984676876233 
2.740000000001358, -0.178596760780673 
2.750000000001379, -0.17856125971602016 
2.7600000000014, -0.17850717356082949 
2.770000000001421, -0.17843141976727409 
2.780000000001442, -0.17833382903030015 
2.7900000000014633, -0.17821629643760925 
2.8000000000014844, -0.17808177591066132 
2.8100000000015055, -0.17793348650799232 
2.8200000000015266, -0.17777445173604245 
2.8300000000015477, -0.1776073265864277 
2.840000000001569, -0.1774344127357304 
2.85000000000159, -0.17725777308887972 
2.860000000001611, -0.17707938331980255 
2.870000000001632, -0.17690127479020729 
2.8800000000016532, -0.17672562497759992 
2.8900000000016743, -0.1765547455461445 
2.9000000000016954, -0.17639091963539694 
2.9100000000017165, -0.1762360668216245 
2.9200000000017377, -0.17609127656624618 
2.9300000000017588, -0.17595633622186851 
2.94000000000178, -0.17582944506012985 
2.950000000001801, -0.17570729288851047 
2.960000000001822, -0.17558555885760888 
2.970000000001843, -0.17545969554788193 
2.9800000000018643, -0.1753257201231227 
2.9900000000018854, -0.1751807411309408 
3.0000000000019065, -0.17502309937713634 
3.0100000000019276, -0.17485218175106979 
3.0200000000019487, -0.17466806767339144 
3.03000000000197, -0.17447116517541147 
3.040000000001991, -0.17426193505327983 
3.050000000002012, -0.1740407424216502 
3.060000000002033, -0.17380784051916043 
3.070000000002054, -0.17356347802635164 
3.0800000000020753, -0.1733081116931371 
3.0900000000020964, -0.17304268456943378 
3.1000000000021175, -0.17276889161597522 
3.1100000000021386, -0.1724893149832362 
3.1200000000021597, -0.17220730849356952 
3.130000000002181, -0.17192658055962431 
3.140000000002202, -0.17165055772505722 
3.150000000002223, -0.17138173504796664 
3.160000000002244, -0.1711212466115876 
3.1700000000022652, -0.170868793648371 
3.1800000000022863, -0.1706229098675835 
3.1900000000023074, -0.17038141752996422 
3.2000000000023285, -0.1701418909408724 
3.2100000000023496, -0.1699019910414809 
3.2200000000023707, -0.16965961900639584 
3.230000000002392, -0.1694129090826045 
3.240000000002413, -0.16916011725483956 
3.250000000002434, -0.16889946693372088 
3.260000000002455, -0.168629004279574 
3.2700000000024763, -0.1683465112748232 
3.2800000000024974, -0.16804953163657205 
3.2900000000025185, -0.16773557682474924 
3.3000000000025396, -0.16740257382082616 
3.3100000000025607, -0.16704955637434696 
3.3200000000025818, -0.16667746191590582 
3.330000000002603, -0.16628971818430105 
3.340000000002624, -0.1658922281997938 
3.350000000002645, -0.1654925455168702 
3.360000000002666, -0.16509844367607113 
3.3700000000026873, -0.16471643728827912 
3.3800000000027084, -0.16435081642166202 
3.3900000000027295, -0.16400342884508617 
3.4000000000027506, -0.16367407045692056 
3.4100000000027717, -0.16336116182864302 
3.420000000002793, -0.16306241940217686 
3.430000000002814, -0.1627753591175877 
3.440000000002835, -0.16249759046842896 
3.450000000002856, -0.16222692653609624 
3.460000000002877, -0.16196135493863045 
3.4700000000028983, -0.16169890751285043 
3.4800000000029194, -0.16143745416884286 
3.4900000000029405, -0.1611744458483185 
3.5000000000029616, -0.16090665748867305 
3.5100000000029827, -0.16063004307127 
3.520000000003004, -0.16033989607013935 
3.530000000003025, -0.1600315399230594 
3.540000000003046, -0.1597016271011628 
3.550000000003067, -0.15934972677276665 
3.5600000000030882, -0.15897942217620387 
3.5700000000031094, -0.15859810207166783 
3.5800000000031305, -0.15821529985654215 
3.5900000000031516, -0.15784035528110427 
3.6000000000031727, -0.15748051849744737 
3.6100000000031938, -0.15714015180626723 
3.620000000003215, -0.1568209595966162 
3.630000000003236, -0.15652277285368266 
3.640000000003257, -0.1562444263159029 
3.650000000003278, -0.1559844693134888 
3.6600000000032993, -0.15574163784321182 
3.6700000000033204, -0.15551511289772008 
3.6800000000033415, -0.15530461241185614 
3.6900000000033626, -0.1551103459865748 
3.7000000000033837, -0.15493282953115184 
3.710000000003405, -0.15477252987465634 
3.720000000003426, -0.15462930804571742 
3.730000000003447, -0.15450168438322828 
3.740000000003468, -0.15438608739181636 
3.750000000003489, -0.15427645044862537 
3.7600000000035103, -0.15416464340179747 
3.7700000000035314, -0.15404201706767232 
3.7800000000035525, -0.15390168966693624 
3.7900000000035736, -0.15374050981041695 
3.8000000000035947, -0.15355962242044127 
3.810000000003616, -0.15336343582345974 
3.820000000003637, -0.15315777097008568 
3.830000000003658, -0.15294821760254965 
3.840000000003679, -0.15273924803341893 
3.8500000000037002, -0.1525340602015813 
3.8600000000037213, -0.1523348477349757 
3.8700000000037424, -0.15214320926576805 
3.8800000000037635, -0.151960530460304 
3.8900000000037847, -0.1517882751240753 
3.9000000000038058, -0.1516281716798042 
3.910000000003827, -0.15148228865336597 
3.920000000003848, -0.15135297692050623 
3.930000000003869, -0.15124263532719814 
3.94000000000389, -0.15115325001511176 
3.9500000000039113, -0.1510856934701014 
3.9600000000039324, -0.1510388745990894 
3.9700000000039535, -0.15100900328432684 
3.9800000000039746, -0.15098938781939686 
3.9900000000039957, -0.1509711451670323 
4.000000000004016, -0.1509448340687414 
4.010000000003993, -0.15090245918937506 
4.02000000000397, -0.15083898540271512 
4.030000000003946, -0.15075277376861787 
4.040000000003923, -0.15064499209699278 
4.0500000000039, -0.15051852453270814 
4.0600000000038765, -0.1503769307716353 
4.070000000003853, -0.15022374616891446 
4.08000000000383, -0.15006215231195053 
4.090000000003807, -0.14989491768240726 
4.100000000003783, -0.14972449043816832 
4.11000000000376, -0.14955315436137456 
4.120000000003737, -0.14938318856061308 
4.130000000003713, -0.14921698471880968 
4.14000000000369, -0.14905707436394927 
4.150000000003667, -0.1489060148224563 
4.1600000000036434, -0.1487660940370429 
4.17000000000362, -0.14863885890717143 
4.180000000003597, -0.14852455438217477 
4.1900000000035735, -0.14842165772785093 
4.20000000000355, -0.14832674475299637 
4.210000000003527, -0.1482348603413351 
4.220000000003504, -0.14814036473688666 
4.23000000000348, -0.1480379838267748 
4.240000000003457, -0.14792367660738676 
4.250000000003434, -0.14779504164508112 
4.26000000000341, -0.1476512317197851 
4.270000000003387, -0.1474925506469177 
4.280000000003364, -0.14731996294077748 
4.2900000000033405, -0.14713468436559934 
4.300000000003317, -0.14693792647010676 
4.310000000003294, -0.14673080026045654 
4.320000000003271, -0.14651435383843286 
4.330000000003247, -0.14628970945534925 
4.340000000003224, -0.1460582569251798 
4.350000000003201, -0.14582184216329794 
4.360000000003177, -0.14558286685502114 
4.370000000003154, -0.14534420926852087 
4.380000000003131, -0.1451089135735501 
4.390000000003107, -0.14487968268936297 
4.400000000003084, -0.1446583142968768 
4.410000000003061, -0.14444527878695904 
4.4200000000030375, -0.1442396044213862 
4.430000000003014, -0.1440391161846118 
4.440000000002991, -0.14384093143312354 
4.450000000002968, -0.1436420234964343 
4.460000000002944, -0.14343966747953235 
4.470000000002921, -0.14323166543288043 
4.480000000002898, -0.14301635243889047 
4.490000000002874, -0.1427924557335053 
4.500000000002851, -0.14255889814178657 
4.510000000002828, -0.14231462209055154 
4.520000000002804, -0.14205848795207598 
4.530000000002781, -0.1417892861277788 
4.540000000002758, -0.14150589479923592 
4.5500000000027345, -0.14120759949792883 
4.560000000002711, -0.1408945458927424 
4.570000000002688, -0.14056821471033093 
4.580000000002665, -0.1402317167455872 
4.590000000002641, -0.1398896832589192 
4.600000000002618, -0.13954764802654668 
4.610000000002595, -0.1392110591952163 
4.620000000002571, -0.1388842690129432 
4.630000000002548, -0.13856986560239445 
4.640000000002525, -0.1382685238953763 
4.6500000000025015, -0.1379793085682878 
4.660000000002478, -0.13770021234601898 
4.670000000002455, -0.1374287028287462 
4.6800000000024315, -0.13716213032467006 
4.690000000002408, -0.13689794617427192 
4.700000000002385, -0.13663375023665028 
4.710000000002362, -0.13636721695601825 
4.720000000002338, -0.13609595349335973 
4.730000000002315, -0.1358173396471281 
4.740000000002292, -0.13552840362553992 
4.750000000002268, -0.13522580778853996 
4.760000000002245, -0.13490604745345453 
4.770000000002222, -0.13456597283515348 
4.7800000000021985, -0.13420367170364314 
4.790000000002175, -0.13381955018845032 
4.800000000002152, -0.13341717462054425 
4.810000000002129, -0.13300330975722374 
4.820000000002105, -0.13258685689818742 
4.830000000002082, -0.132176999569446 
