t, s[1].omega / s[0].omega 
0, -3.6749943179064934 
0.009999999999999995, -3.6743857299955685 
0.019999999999999934, -3.673719863435648 
0.029999999999999874, -3.673084833441213 
0.04000000000000012, -3.6725576001542515 
0.050000000000000405, -3.672068535344536 
0.06000000000000069, -3.6715342834283904 
0.07000000000000098, -3.670944892596186 
0.08000000000000126, -3.6703332224226286 
0.09000000000000155, -3.669749933749513 
0.10000000000000184, -3.669210830450093 
0.11000000000000212, -3.6686729715641335 
0.12000000000000241, -3.6680968335844235 
0.130000000000002, -3.6674882723258584 
0.1400000000000009, -3.6669018901671713 
0.1499999999999998, -3.666376911953037 
0.1599999999999987, -3.6658704688177104 
0.1699999999999976, -3.6653231766935583 
0.1799999999999965, -3.664707859675578 
0.1899999999999954, -3.664043697065652 
0.1999999999999943, -3.663431885387414 
0.2099999999999932, -3.662942865720929 
0.2199999999999921, -3.662480119238414 
0.229999999999991, -3.6619544593388214 
0.2399999999999899, -3.661353108433727 
0.2499999999999888, -3.6607061950302096 
0.2599999999999877, -3.660090358556425 
0.2699999999999866, -3.659558092066419 
0.2799999999999855, -3.6590501074983726 
0.2899999999999844, -3.658502612899992 
0.2999999999999833, -3.65791218181849 
0.3099999999999822, -3.6573158526694804 
0.3199999999999811, -3.656755357618897 
0.32999999999998, -3.656225524951664 
0.3399999999999789, -3.655681412292105 
0.3499999999999778, -3.65509134696332 
0.35999999999997667, -3.654468397825597 
0.36999999999997557, -3.653884565101135 
0.37999999999997447, -3.653383383947612 
0.38999999999997337, -3.6528981913530933 
0.39999999999997227, -3.6523592714375477 
0.40999999999997117, -3.6517435984543596 
0.41999999999997006, -3.651073350602375 
0.42999999999996896, -3.650449351527662 
0.43999999999996786, -3.6499484101621094 
0.44999999999996676, -3.6494806058089893 
0.45999999999996566, -3.648956890800238 
0.46999999999996456, -3.648367386813086 
0.47999999999996346, -3.6477440147846187 
0.48999999999996235, -3.6471477334850406 
0.49999999999996125, -3.6466116031193314 
0.5099999999999602, -3.64608914253118 
0.519999999999959, -3.645531012889731 
0.529999999999958, -3.644937344240536 
0.5399999999999568, -3.6443509258636495 
0.5499999999999557, -3.643810569309609 
0.5599999999999546, -3.643294242782576 
0.5699999999999535, -3.642751426902693 
0.5799999999999524, -3.642152136660735 
0.5899999999999513, -3.6415101600893487 
0.5999999999999502, -3.6409122062747317 
0.6099999999999491, -3.6404224881347806 
0.619999999999948, -3.639959861513975 
0.6299999999999469, -3.639438767793731 
0.6399999999999458, -3.6388384508445073 
0.6499999999999447, -3.638181112298264 
0.6599999999999436, -3.637550875021641 
0.6699999999999425, -3.6370251037835915 
0.6799999999999414, -3.6365412400233823 
0.6899999999999403, -3.6360158931974396 
0.6999999999999392, -3.635436284253836 
0.7099999999999381, -3.6348328350223 
0.719999999999937, -3.6342545058967985 
0.7299999999999359, -3.6337198527216814 
0.7399999999999348, -3.633190058421934 
0.7499999999999337, -3.6326239394258764 
0.7599999999999326, -3.6320218508694198 
0.7699999999999315, -3.631434712690056 
0.7799999999999304, -3.6309111904585074 
0.7899999999999293, -3.6304163879589155 
0.7999999999999282, -3.6298869007659436 
0.8099999999999271, -3.6292903206263922 
0.819999999999926, -3.628634668904302 
0.8299999999999249, -3.6280051419191004 
0.8399999999999238, -3.627498507938294 
0.8499999999999227, -3.627047190720803 
0.8599999999999216, -3.626546334025819 
0.8699999999999205, -3.6259703775291414 
0.8799999999999194, -3.625340067046743 
0.8899999999999183, -3.62471822401481 
0.8999999999999172, -3.6241713161136793 
0.9099999999999161, -3.623668081421586 
0.919999999999915, -3.6231380681564582 
0.9299999999999139, -3.6225630879504833 
0.9399999999999128, -3.6219711583241194 
0.9499999999999117, -3.62140763810904 
0.9599999999999106, -3.620881701754135 
0.9699999999999095, -3.6203541623711857 
0.9799999999999084, -3.619785363355932 
0.9899999999999073, -3.619170514271153 
0.9999999999999062, -3.618564528106522 
1.0099999999999052, -3.6180438812614035 
1.019999999999904, -3.6175759648241006 
1.029999999999903, -3.6170743158799454 
1.039999999999902, -3.6164991889587568 
1.0499999999999008, -3.6158525756622595 
1.0599999999998997, -3.615198053795095 
1.0699999999998986, -3.6146464737642594 
1.0799999999998975, -3.6141805650000536 
1.0899999999998964, -3.613691150523524 
1.0999999999998953, -3.613137476584331 
1.1099999999998942, -3.6125350116995016 
1.119999999999893, -3.611930867601153 
1.129999999999892, -3.6113758432716816 
1.1399999999998909, -3.6108586028671197 
1.1499999999998898, -3.6103241496704817 
1.1599999999998887, -3.6097486730014965 
1.1699999999998876, -3.609156431774386 
1.1799999999998865, -3.608600127780336 
1.1899999999998854, -3.6080900333639656 
1.1999999999998843, -3.607578076100972 
1.2099999999998832, -3.607018804504272 
1.219999999999882, -3.6063977641200844 
1.229999999999881, -3.6057575095391465 
1.2399999999998799, -3.6052042574081824 
1.2499999999998788, -3.604748390705587 
1.2599999999998777, -3.604281261710649 
1.2699999999998766, -3.6037422984564804 
1.2799999999998755, -3.6031292436257423 
1.2899999999998744, -3.6024822741376594 
1.2999999999998733, -3.6018911015004327 
1.3099999999998722, -3.601389054735037 
1.319999999999871, -3.6008963365300497 
1.32999999999987, -3.600356317172978 
1.3399999999998689, -3.599772995860539 
1.3499999999998678, -3.599184937495726 
1.3599999999998666, -3.5986332110706805 
1.3699999999998655, -3.598112941185319 
1.3799999999998644, -3.5975794587010066 
1.3899999999998633, -3.5970028447478852 
1.3999999999998622, -3.5963974664027845 
1.4099999999998611, -3.5958286152402343 
1.41999999999986, -3.595332613842067 
1.429999999999859, -3.59485127764952 
1.4399999999998578, -3.594321139922954 
1.4499999999998567, -3.593717987714858 
1.4599999999998556, -3.5930602806597802 
1.4699999999998545, -3.592444068956187 
1.4799999999998534, -3.591951837061746 
1.4899999999998523, -3.591501320297774 
1.4999999999998512, -3.5909978117614814 
1.5099999999998501, -3.5904249640462944 
1.519999999999849, -3.5898088316332837 
1.529999999999848, -3.5892090639004843 
1.5399999999998468, -3.58867418181489 
1.5499999999998457, -3.588168766408036 
1.5599999999998446, -3.5876344910651716 
1.5699999999998435, -3.587059699384235 
1.5799999999998424, -3.5864767796459587 
1.5899999999998413, -3.5859308188934356 
1.5999999999998402, -3.5854202561416892 
1.6099999999998391, -3.584899957966182 
1.619999999999838, -3.584332068007747 
1.629999999999837, -3.5837127936423103 
1.6399999999998358, -3.5831012107323894 
1.6499999999998347, -3.5825861967108943 
1.6599999999998336, -3.582135649042246 
1.6699999999998325, -3.581652078812162 
1.6799999999998314, -3.5810936360345758 
1.6899999999998303, -3.5804635065827894 
1.6999999999998292, -3.5798159944268995 
1.709999999999828, -3.5792523884942176 
1.719999999999827, -3.5787759278812876 
1.729999999999826, -3.5782896221159497 
1.7399999999998248, -3.577747551638437 
1.7499999999998237, -3.5771613101965114 
1.7599999999998226, -3.576572788809332 
1.7699999999998215, -3.576024821061022 
1.7799999999998204, -3.5755097176971935 
1.7899999999998193, -3.5749797821703204 
1.7999999999998182, -3.574408451921527 
1.809999999999817, -3.573815094126234 
1.819999999999816, -3.573259298335175 
1.8299999999998149, -3.572763326772114 
1.8399999999998138, -3.572273646867985 
1.8499999999998127, -3.5717363126607315 
1.8599999999998116, -3.5711301530874686 
1.8699999999998105, -3.570479909770367 
1.8799999999998094, -3.569887919308723 
1.8899999999998083, -3.569417039378821 
1.8999999999998072, -3.5689717761719066 
1.909999999999806, -3.5684664395649826 
1.919999999999805, -3.5678887479805423 
1.9299999999998039, -3.56726596678759 
1.9399999999998028, -3.5666647839380374 
1.9499999999998017, -3.566138810462977 
1.9599999999998006, -3.565644837438936 
1.9699999999997995, -3.5651194847152303 
1.9799999999997984, -3.5645514215158487 
1.9899999999997973, -3.5639714124070787 
1.9999999999997962, -3.5634230273424357 
2.0099999999998173, -3.5629103794625707 
2.0199999999998384, -3.5623930967757333 
2.0299999999998595, -3.5618333201812704 
2.0399999999998806, -3.5612267127194444 
2.0499999999999017, -3.560627270718501 
2.059999999999923, -3.560114268667161 
2.069999999999944, -3.559660185410737 
2.079999999999965, -3.5591766188948606 
2.089999999999986, -3.5586211564053527 
2.100000000000007, -3.557992979412185 
2.1100000000000283, -3.557344325957513 
2.1200000000000494, -3.556782452515442 
2.1300000000000705, -3.5563168189046293 
2.1400000000000916, -3.555844427648848 
2.1500000000001127, -3.5553129669062455 
2.160000000000134, -3.554730542044416 
2.170000000000155, -3.554137084696665 
2.180000000000176, -3.5535826294295134 
2.190000000000197, -3.5530707741683267 
2.2000000000002182, -3.5525528623720755 
2.2100000000002393, -3.5519958015625344 
2.2200000000002604, -3.551411166653948 
2.2300000000002815, -3.5508505640271744 
2.2400000000003026, -3.5503452658251478 
2.2500000000003237, -3.5498562841873444 
2.260000000000345, -3.5493301888688507 
2.270000000000366, -3.5487405417315414 
2.280000000000387, -3.548101791418982 
2.290000000000408, -3.5475030571170194 
2.3000000000004293, -3.547023437476061 
2.3100000000004504, -3.546586900665546 
2.3200000000004715, -3.54609818656609 
2.3300000000004926, -3.545534295143395 
2.3400000000005137, -3.5449139453396312 
2.3500000000005348, -3.544299131273339 
2.360000000000556, -3.543762226642362 
2.370000000000577, -3.5432781328042204 
2.380000000000598, -3.5427720688343625 
2.390000000000619, -3.542219228875146 
2.4000000000006403, -3.5416410483664906 
2.4100000000006614, -3.541081459464486 
2.4200000000006825, -3.5405618792464524 
2.4300000000007036, -3.5400535133297373 
2.4400000000007247, -3.5395137595803505 
2.450000000000746, -3.538926770912088 
2.460000000000767, -3.5383262592205624 
2.470000000000788, -3.5377899708826375 
2.480000000000809, -3.5373269838662553 
2.49000000000083, -3.536858104925284 
2.5000000000008513, -3.5363274368704056 
2.5100000000008724, -3.5357215959271584 
2.5200000000008935, -3.5350714300564454 
2.5300000000009146, -3.5344781121636246 
2.5400000000009357, -3.534000690155131 
2.550000000000957, -3.5335496603312277 
2.560000000000978, -3.5330457116136755 
2.570000000000999, -3.5324809407964004 
2.58000000000102, -3.5318850278550835 
2.5900000000010412, -3.5313113577879145 
2.6000000000010624, -3.5307911956262847 
2.6100000000010835, -3.530288306256529 
2.6200000000011046, -3.5297549335533605 
2.6300000000011257, -3.5291838320038558 
2.6400000000011468, -3.528611440808492 
2.650000000001168, -3.528085410799766 
2.660000000001189, -3.5275965164751972 
2.67000000000121, -3.5270928526275656 
2.680000000001231, -3.5265360330379187 
2.6900000000012523, -3.5259195036535225 
2.7000000000012734, -3.525297066048906 
2.7100000000012945, -3.524772430435218 
2.7200000000013156, -3.524336194711542 
2.7300000000013367, -3.5238807671631553 
2.740000000001358, -3.5233537145616225 
2.750000000001379, -3.522756081173081 
2.7600000000014, -3.5221276425076575 
2.770000000001421, -3.5215510258887677 
2.780000000001442, -3.5210581761332316 
2.7900000000014633, -3.520577776616194 
2.8000000000014844, -3.520054374272912 
2.8100000000015055, -3.51948878188776 
2.8200000000015266, -3.5189163374787524 
2.8300000000015477, -3.5183774168902935 
2.840000000001569, -3.517871449999273 
2.85000000000159, -3.5173574688783455 
2.860000000001611, -3.5168018595232886 
2.870000000001632, -3.5162080248469865 
2.8800000000016532, -3.515633438806474 
2.8900000000016743, -3.515138345061957 
2.9000000000016954, -3.5146836615699732 
2.9100000000017165, -3.5141942189653337 
2.9200000000017377, -3.5136347283771068 
2.9300000000017588, -3.513006312872298 
2.94000000000178, -3.5123688527935832 
2.950000000001801, -3.5118310426499226 
2.960000000001822, -3.5113853270266246 
2.970000000001843, -3.5109242435189207 
2.9800000000018643, -3.5103998365286424 
2.9900000000018854, -3.50982109318902 
3.0000000000019065, -3.5092281758705894 
3.0100000000019276, -3.508676004606645 
3.0200000000019487, -3.508173226792229 
3.03000000000197, -3.5076690705047566 
3.040000000001991, -3.507126958695438 
3.050000000002012, -3.506554633269565 
3.060000000002033, -3.5059974872359048 
3.070000000002054, -3.505489930618237 
3.0800000000020753, -3.5050045561023184 
3.0900000000020964, -3.504491004437221 
3.1000000000021175, -3.50391974037957 
3.1100000000021386, -3.5032977092481956 
3.1200000000021597, -3.502700173642031 
3.130000000002181, -3.502214053438146 
3.140000000002202, -3.501786054692583 
3.150000000002223, -3.501317010987531 
3.160000000002244, -3.5007733442295312 
3.1700000000022652, -3.5001648960701184 
3.1800000000022863, -3.4995437299376397 
3.1900000000023074, -3.4989934414509554 
3.2000000000023285, -3.498516740579711 
3.2100000000023496, -3.498034188313563 
3.2200000000023707, -3.497504387514143 
3.230000000002392, -3.4969375091446735 
3.240000000002413, -3.4963728799235008 
3.250000000002434, -3.49584584335913 
3.260000000002455, -3.4953458592906856 
3.2700000000024763, -3.494830016180763 
3.2800000000024974, -3.494270315070655 
3.2900000000025185, -3.4936788048427188 
3.3000000000025396, -3.4931197174394724 
3.3100000000025607, -3.4926402211966083 
3.3200000000025818, -3.492187924898043 
3.330000000002603, -3.4916930862858124 
3.340000000002624, -3.491126739196319 
3.350000000002645, -3.4904956893021044 
3.360000000002666, -3.4898695597973153 
3.3700000000026873, -3.4893515376288056 
3.3800000000027084, -3.4889134469224743 
3.3900000000027295, -3.4884503622230687 
3.4000000000027506, -3.4879233688519085 
3.4100000000027717, -3.4873451582292256 
3.420000000002793, -3.4867580594487877 
3.430000000002814, -3.4862150524728874 
3.440000000002835, -3.485718253640023 
3.450000000002856, -3.4852159163645204 
3.460000000002877, -3.4846749105312282 
3.4700000000028983, -3.4841057733155125 
3.4800000000029194, -3.483554960951051 
3.4900000000029405, -3.4830541074720833 
3.5000000000029616, -3.4825731926291743 
3.5100000000029827, -3.4820623699434576 
3.520000000003004, -3.481493314903917 
3.530000000003025, -3.480873986814422 
3.540000000003046, -3.4802802382990263 
3.550000000003067, -3.479798254892851 
3.5600000000030882, -3.4793747113099043 
3.5700000000031094, -3.4789108097921257 
3.5800000000031305, -3.4783729731746456 
3.5900000000031516, -3.4777707593274663 
3.6000000000031727, -3.4771541207241228 
3.6100000000031938, -3.476604593248465 
3.620000000003215, -3.476128993058187 
3.630000000003236, -3.4756508287006285 
3.640000000003257, -3.4751269609776636 
3.650000000003278, -3.474565484723688 
3.6600000000032993, -3.474004416223079 
3.6700000000033204, -3.473479881364162 
3.6800000000033415, -3.4729839067554793 
3.6900000000033626, -3.4724745927172465 
3.7000000000033837, -3.4719219783256223 
3.710000000003405, -3.4713335303526365 
3.720000000003426, -3.4707699674502264 
3.730000000003447, -3.4702878678168667 
3.740000000003468, -3.469843300585925 
3.750000000003489, -3.469362049184677 
3.7600000000035103, -3.4688106979222555 
3.7700000000035314, -3.4681910188236094 
3.7800000000035525, -3.46756041277577 
3.7900000000035736, -3.4670246357602132 
3.8000000000035947, -3.4665826518963643 
3.810000000003616, -3.4661309337449326 
3.820000000003637, -3.465618862053695 
3.830000000003658, -3.4650529807277395 
3.840000000003679, -3.4644701461011636 
3.8500000000037002, -3.463922400042591 
3.8600000000037213, -3.463423552332275 
3.8700000000037424, -3.4629285952887043 
3.8800000000037635, -3.4623983163159444 
3.8900000000037847, -3.461834485721655 
3.9000000000038058, -3.46127898974294 
3.910000000003827, -3.4607740181902074 
3.920000000003848, -3.46030048976525 
3.930000000003869, -3.459806147868472 
3.94000000000389, -3.4592562973413203 
3.9500000000039113, -3.458647363925956 
3.9600000000039324, -3.45803532435463 
3.9700000000039535, -3.4575223606987913 
3.9800000000039746, -3.457098487228426 
3.9900000000039957, -3.4566577996010706 
4.000000000004016, -3.456147780827705 
4.010000000003993, -3.4555689658613025 
4.02000000000397, -3.454956746454953 
4.030000000003946, -3.4543855305071567 
4.040000000003923, -3.4538943316900905 
4.0500000000039, -3.453424623829073 
4.0600000000038765, -3.4529183033742266 
4.070000000003853, -3.45236954980859 
4.08000000000383, -3.4518088515007377 
4.090000000003807, -3.451277480257386 
4.100000000003783, -3.450782146009137 
4.11000000000376, -3.4502866023965537 
4.120000000003737, -3.4497533370026323 
4.130000000003713, -3.449173988424692 
4.14000000000369, -3.4485903828400573 
4.150000000003667, -3.4480797392463636 
4.1600000000036434, -3.4476394307745792 
4.17000000000362, -3.4471882272984926 
4.180000000003597, -3.4466742077127863 
4.1900000000035735, -3.4460864134813383 
4.20000000000355, -3.445453665389942 
4.210000000003527, -3.4448682688678582 
4.220000000003504, -3.4443940777188913 
4.23000000000348, -3.4439567775190647 
4.240000000003457, -3.4434753797837296 
4.250000000003434, -3.442936053257084 
4.26000000000341, -3.442363020864021 
4.270000000003387, -3.4418027550500967 
4.280000000003364, -3.441289731301212 
4.2900000000033405, -3.4408015994626076 
4.300000000003317, -3.4402913878314747 
4.310000000003294, -3.439741302387376 
4.320000000003271, -3.4391758879272993 
4.330000000003247, -3.4386493502781383 
4.340000000003224, -3.4381761647228863 
4.350000000003201, -3.4377077040080715 
4.360000000003177, -3.4371953131602324 
4.370000000003154, -3.4366180883202704 
4.380000000003131, -3.435994453223222 
4.390000000003107, -3.4354134085816463 
4.400000000003084, -3.4349509277475483 
4.410000000003061, -3.434535324722829 
4.4200000000030375, -3.4340728901672257 
4.430000000003014, -3.433539279088857 
4.440000000002991, -3.4329502733539288 
4.450000000002968, -3.4323561837336727 
4.460000000002944, -3.431823471673912 
4.470000000002921, -3.4313486884593667 
4.480000000002898, -3.4308665965184786 
4.490000000002874, -3.430342672796848 
4.500000000002851, -3.429787760058969 
4.510000000002828, -3.4292418470410566 
4.520000000002804, -3.428736033467949 
4.530000000002781, -3.4282534039704116 
4.540000000002758, -3.4277510644431812 
4.5500000000027345, -3.4272005075126573 
4.560000000002711, -3.426608056146976 
4.570000000002688, -3.4260381483687303 
4.580000000002665, -3.4255624029990286 
4.590000000002641, -3.425138974285395 
4.600000000002618, -3.4246816796665223 
4.610000000002595, -3.424153398276232 
4.620000000002571, -3.423555274984758 
4.630000000002548, -3.42293196200132 
4.640000000002525, -3.4223776119655405 
4.6500000000025015, -3.4219190084665834 
4.660000000002478, -3.421471200109333 
4.670000000002455, -3.4209748513627787 
4.6800000000024315, -3.4204290300298554 
4.690000000002408, -3.419864758456659 
4.700000000002385, -3.419326283489718 
4.710000000002362, -3.418829631436748 
4.720000000002338, -3.4183409058542304 
4.730000000002315, -3.4178204987518503 
4.740000000002292, -3.4172609382123524 
4.750000000002268, -3.4166989234703875 
4.760000000002245, -3.416193020171506 
4.770000000002222, -3.4157395172389555 
4.7800000000021985, -3.4152768572773686 
4.790000000002175, -3.4147596619543696 
4.800000000002152, -3.414173664460318 
4.810000000002129, -3.413547065150815 
4.820000000002105, -3.4129772819139306 
4.830000000002082, -3.4125258004031145 
4.840000000002059, -3.4121086721187317 
4.850000000002035, -3.4116408862391774 
4.860000000002012, -3.4111064415078345 
4.870000000001989, -3.410526351953917 
4.880000000001965, -3.409950957792571 
4.890000000001942, -3.4094327099517185 
4.900000000001919, -3.4089574175520907 
4.9100000000018955, -3.4084681151197422 
4.920000000001872, -3.407938683570259 
4.930000000001849, -3.407384823534388 
4.940000000001826, -3.406850492884972 
4.950000000001802, -3.4063609401149373 
4.960000000001779, -3.405888242838978 
4.970000000001756, -3.405387438678834 
