t, s[1].omega / s[0].omega 
0, -0.6999976926210147 
0.009999999999999995, -0.6997622411611653 
0.019999999999999934, -0.6995177002995548 
0.029999999999999874, -0.6992647722939787 
0.04000000000000012, -0.6990045629733703 
0.050000000000000405, -0.6987385105078976 
0.06000000000000069, -0.6984683106699952 
0.07000000000000098, -0.6981958553403469 
0.08000000000000126, -0.6979231953693648 
0.09000000000000155, -0.697652529022449 
0.10000000000000184, -0.6973862062660048 
0.11000000000000212, -0.6971267298677243 
0.12000000000000241, -0.6968767282754516 
0.130000000000002, -0.6966388734789241 
0.1400000000000009, -0.6964157208994535 
0.1499999999999998, -0.6962094599430801 
0.1599999999999987, -0.696021585453761 
0.1699999999999976, -0.6958525321646776 
0.1799999999999965, -0.6957013510736796 
0.1899999999999954, -0.6955655342316946 
0.1999999999999943, -0.6954410907243878 
0.2099999999999932, -0.6953229231090107 
0.2199999999999921, -0.6952054551587936 
0.229999999999991, -0.6950833592282264 
0.2399999999999899, -0.6949521842143709 
0.2499999999999888, -0.6948087265031413 
0.2599999999999877, -0.6946510927655641 
0.2699999999999866, -0.6944785118018284 
0.2799999999999855, -0.6942910104389728 
0.2899999999999844, -0.6940890664049568 
0.2999999999999833, -0.6938733138950272 
0.3099999999999822, -0.6936443358287123 
0.3199999999999811, -0.6934025483103754 
0.32999999999998, -0.6931481706797609 
0.3399999999999789, -0.6928812738010027 
0.3499999999999778, -0.6926019027426602 
0.35999999999997667, -0.6923102709865014 
0.36999999999997557, -0.6920070159266037 
0.37999999999997447, -0.6916934856564572 
0.38999999999997337, -0.6913719957521614 
0.39999999999997227, -0.6910459626912451 
0.40999999999997117, -0.690719810801327 
0.41999999999997006, -0.6903985891597093 
0.42999999999996896, -0.6900873310790896 
0.43999999999996786, -0.6897903064739549 
0.44999999999996676, -0.6895103871415899 
0.45999999999996566, -0.6892487135699435 
0.46999999999996456, -0.6890047317424719 
0.47999999999996346, -0.6887765311037348 
0.48999999999996235, -0.6885613327375029 
0.49999999999996125, -0.6883559736828476 
0.5099999999999602, -0.6881572844124128 
0.519999999999959, -0.6879623211547249 
0.529999999999958, -0.6877684645407659 
0.5399999999999568, -0.6875734222839387 
0.5499999999999557, -0.6873751806081462 
0.5599999999999546, -0.6871719451224269 
0.5699999999999535, -0.6869621030763484 
0.5799999999999524, -0.6867442279831819 
0.5899999999999513, -0.6865171342745116 
0.5999999999999502, -0.6862799735318641 
0.6099999999999491, -0.6860323471951144 
0.619999999999948, -0.6857743996188815 
0.6299999999999469, -0.685506857155405 
0.6399999999999458, -0.6852309957118574 
0.6499999999999447, -0.6849485439064663 
0.6599999999999436, -0.684661548904943 
0.6699999999999425, -0.6843722382713882 
0.6799999999999414, -0.6840829041226424 
0.6899999999999403, -0.6837958225390376 
0.6999999999999392, -0.6835132084554953 
0.7099999999999381, -0.683237197291717 
0.719999999999937, -0.6829698395282008 
0.7299999999999359, -0.6827130924674031 
0.7399999999999348, -0.6824687938187315 
0.7499999999999337, -0.6822386040854125 
0.7599999999999326, -0.682023908876477 
0.7699999999999315, -0.6818256784900988 
0.7799999999999304, -0.6816442911624497 
0.7899999999999293, -0.6814793391355795 
0.7999999999999282, -0.681329453024286 
0.8099999999999271, -0.6811921965602772 
0.819999999999926, -0.6810640922034689 
0.8299999999999249, -0.6809408257722602 
0.8399999999999238, -0.6808176360018815 
0.8499999999999227, -0.6806898295040327 
0.8599999999999216, -0.680553301856957 
0.8699999999999205, -0.6804049291194082 
0.8799999999999194, -0.6802427377816256 
0.8899999999999183, -0.6800658429181305 
0.8999999999999172, -0.679874218470984 
0.9099999999999161, -0.6796683963104757 
0.919999999999915, -0.679449179989771 
0.9299999999999139, -0.6792174258774512 
0.9399999999999128, -0.6789739113968452 
0.9499999999999117, -0.6787192891598031 
0.9599999999999106, -0.6784541173128945 
0.9699999999999095, -0.6781789550988473 
0.9799999999999084, -0.6778945121529797 
0.9899999999999073, -0.6776018353904532 
0.9999999999999062, -0.6773025058427564 
1.0099999999999052, -0.6769988004295817 
1.019999999999904, -0.6766937567258102 
1.029999999999903, -0.6763910747356087 
1.039999999999902, -0.6760948136351979 
1.0499999999999008, -0.675808900896938 
1.0599999999998997, -0.6755365520390019 
1.0699999999998986, -0.6752797614242515 
1.0799999999998975, -0.6750390226421199 
1.0899999999998964, -0.6748133584414169 
1.0999999999998953, -0.6746006243467548 
1.1099999999998942, -0.6743979615196818 
1.119999999999893, -0.6742022533218684 
1.129999999999892, -0.6740104792117367 
1.1399999999998909, -0.6738199226765118 
1.1499999999998898, -0.673628243162837 
1.1599999999998887, -0.6734334510768112 
1.1699999999998876, -0.6732338324165528 
1.1799999999998865, -0.6730278647662455 
1.1899999999998854, -0.6728141572973476 
1.1999999999998843, -0.6725914377881599 
1.2099999999998832, -0.6723585990900947 
1.219999999999882, -0.6721148036182687 
1.229999999999881, -0.6718596263761094 
1.2399999999998799, -0.671593198470304 
1.2499999999998788, -0.6713163031007077 
1.2599999999998777, -0.6710303841597265 
1.2699999999998766, -0.670737455019553 
1.2799999999998755, -0.6704399299045323 
1.2899999999998744, -0.6701404241057705 
1.2999999999998733, -0.6698415711436765 
1.3099999999998722, -0.6695458883330972 
1.319999999999871, -0.6692556996047442 
1.32999999999987, -0.6689731067929815 
1.3399999999998689, -0.6686999917481768 
1.3499999999998678, -0.6684380299369999 
1.3599999999998666, -0.6681886984352384 
1.3699999999998655, -0.667953264953245 
1.3799999999998644, -0.6677327485960053 
1.3899999999998633, -0.6675278472967069 
1.3999999999998622, -0.6673388318797981 
1.4099999999998611, -0.6671654136576483 
1.41999999999986, -0.667006602546913 
1.429999999999859, -0.6668605859785334 
1.4399999999998578, -0.6667246723787246 
1.4499999999998567, -0.6665953490262484 
1.4599999999998556, -0.6664684915859216 
1.4699999999998545, -0.6663397242581639 
1.4799999999998534, -0.6662048726354136 
1.4899999999998523, -0.6660604025220984 
1.4999999999998512, -0.6659037293707384 
1.5099999999998501, -0.6657333264131335 
1.519999999999849, -0.665548632620015 
1.529999999999848, -0.665349823865219 
1.5399999999998468, -0.665137534680728 
1.5499999999998457, -0.6649126047563435 
1.5599999999998446, -0.6646758934881112 
1.5699999999998435, -0.6644281770080459 
1.5799999999998424, -0.664170124466472 
1.5899999999998413, -0.6639023433767928 
1.5999999999998402, -0.6636254824237859 
1.6099999999998391, -0.6633403786662125 
1.619999999999838, -0.6630482304786567 
1.629999999999837, -0.6627507663718025 
1.6399999999998358, -0.6624503650999214 
1.6499999999998347, -0.6621500709839307 
1.6599999999998336, -0.6618534513000371 
1.6699999999998325, -0.6615642714106106 
1.6799999999998314, -0.6612860207620339 
1.6899999999998303, -0.6610213922460078 
1.6999999999998292, -0.6607718620116674 
1.709999999999828, -0.6605375005284518 
1.719999999999827, -0.660317065434553 
1.729999999999826, -0.6601083236223945 
1.7399999999998248, -0.6599084805565822 
1.7499999999998237, -0.6597145879378641 
1.7599999999998226, -0.6595238434926266 
1.7699999999998215, -0.6593337544539712 
1.7799999999998204, -0.6591421812260062 
1.7899999999998193, -0.6589473000892666 
1.7999999999998182, -0.6587475278176437 
1.809999999999817, -0.6585414454405772 
1.819999999999816, -0.6583277497853538 
1.8299999999998149, -0.6581052523739752 
1.8399999999998138, -0.6578729347649037 
1.8499999999998127, -0.6576300554163896 
1.8599999999998116, -0.6573762855870319 
1.8699999999998105, -0.6571118355336945 
1.8799999999998094, -0.6568375265545091 
1.8899999999998083, -0.6565547769893627 
1.8999999999998072, -0.6562654991353369 
1.909999999999806, -0.6559719353543214 
1.919999999999805, -0.6556764787885676 
1.9299999999998039, -0.6553815202216002 
1.9399999999998028, -0.6550893443784196 
1.9499999999998017, -0.6548020786777013 
1.9599999999998006, -0.654521683506997 
1.9699999999997995, -0.654249966970953 
1.9799999999997984, -0.6539886062731757 
1.9899999999997973, -0.6537391595824356 
1.9999999999997962, -0.6535030547447737 
2.0099999999998173, -0.6532815440564909 
2.0199999999998384, -0.6530756178542331 
2.0299999999998595, -0.6528858749005597 
2.0399999999998806, -0.6527123559414305 
2.0499999999999017, -0.6525543597983066 
2.059999999999923, -0.6524102787362105 
2.069999999999944, -0.6522775073525142 
2.079999999999965, -0.6521524866494077 
2.089999999999986, -0.6520309284450451 
2.100000000000007, -0.6519082170336095 
2.1100000000000283, -0.6517799165531032 
2.1200000000000494, -0.6516422577949837 
2.1300000000000705, -0.651492474112972 
2.1400000000000916, -0.6513289113676859 
2.1500000000001127, -0.6511509205617834 
2.160000000000134, -0.6509586074041407 
2.170000000000155, -0.6507525337183755 
2.180000000000176, -0.6505334470659594 
2.190000000000197, -0.6503020805877838 
2.2000000000002182, -0.6500590354009891 
2.2100000000002393, -0.6498047413672328 
2.2200000000002604, -0.6495394872676361 
2.2300000000002815, -0.6492635128106821 
2.2400000000003026, -0.6489771565772571 
2.2500000000003237, -0.6486810511064165 
2.260000000000345, -0.6483763454121265 
2.270000000000366, -0.6480649154930174 
2.280000000000387, -0.6477494994745946 
2.290000000000408, -0.6474336790042663 
2.3000000000004293, -0.6471216425124027 
2.3100000000004504, -0.6468177239505677 
2.3200000000004715, -0.6465258019313695 
2.3300000000004926, -0.6462487232557617 
2.3400000000005137, -0.6459879261744254 
2.3500000000005348, -0.6457433648675804 
2.360000000000556, -0.6455137193099622 
2.370000000000577, -0.6452967817185953 
2.380000000000598, -0.6450898828370312 
2.390000000000619, -0.6448902516365799 
2.4000000000006403, -0.6446952569222988 
2.4100000000006614, -0.6445025281700556 
2.4200000000006825, -0.6443099821589915 
2.4300000000007036, -0.6441157925368832 
2.4400000000007247, -0.6439183382461477 
2.450000000000746, -0.6437161601002356 
2.460000000000767, -0.6435079460058934 
2.470000000000788, -0.6432925548716091 
2.480000000000809, -0.6430690767356311 
2.49000000000083, -0.6428369132539709 
2.5000000000008513, -0.642595852604096 
2.5100000000008724, -0.6423461118466622 
2.5200000000008935, -0.6420883305337346 
2.5300000000009146, -0.6418235174020973 
2.5400000000009357, -0.641552967562604 
2.550000000000957, -0.6412781730879016 
2.560000000000978, -0.6410007455404082 
2.570000000000999, -0.6407223607017947 
2.58000000000102, -0.6404447287362752 
2.5900000000010412, -0.6401695883226594 
2.6000000000010624, -0.6398987195340443 
2.6100000000010835, -0.6396339663179492 
2.6200000000011046, -0.6393772553844392 
2.6300000000011257, -0.6391305947984331 
2.6400000000011468, -0.6388960333811842 
2.650000000001168, -0.6386755622650667 
2.660000000001189, -0.6384709445211161 
2.67000000000121, -0.6382834704827337 
2.680000000001231, -0.6381136578797827 
2.6900000000012523, -0.6379609468803334 
2.7000000000012734, -0.6378234730106109 
2.7100000000012945, -0.6376980179112397 
2.7200000000013156, -0.6375802159707434 
2.7300000000013367, -0.6374650228258424 
2.740000000001358, -0.6373473505272498 
2.750000000001379, -0.6372226971848114 
2.7600000000014, -0.6370875971631607 
2.770000000001421, -0.6369397957146086 
2.780000000001442, -0.6367781603035635 
2.7900000000014633, -0.6366024188258458 
2.8000000000014844, -0.6364128347853206 
2.8100000000015055, -0.6362099044591389 
2.8200000000015266, -0.6359941211702125 
2.8300000000015477, -0.635765819661449 
2.840000000001569, -0.6355250971215116 
2.85000000000159, -0.6352718043710628 
2.860000000001611, -0.6350056051333413 
2.870000000001632, -0.6347261069414513 
2.8800000000016532, -0.6344330680166237 
2.8900000000016743, -0.6341266743516033 
2.9000000000016954, -0.6338078559714612 
2.9100000000017165, -0.6334785735493423 
2.9200000000017377, -0.6331419722579414 
2.9300000000017588, -0.6328022979357926 
2.94000000000178, -0.6324645262301412 
2.950000000001801, -0.6321337604313738 
2.960000000001822, -0.6318145561594611 
2.970000000001843, -0.6315103663587822 
2.9800000000018643, -0.6312232449319123 
2.9900000000018854, -0.6309538396543906 
3.0000000000019065, -0.6307016087127704 
3.0100000000019276, -0.6304651509129904 
3.0200000000019487, -0.6302425471884916 
3.03000000000197, -0.6300316463498998 
3.040000000001991, -0.6298302665700864 
3.050000000002012, -0.6296363126497135 
3.060000000002033, -0.6294478250220402 
3.070000000002054, -0.629262982480969 
3.0800000000020753, -0.6290800805515177 
3.0900000000020964, -0.628897504100886 
3.1000000000021175, -0.6287137078371516 
3.1100000000021386, -0.6285272128080395 
3.1200000000021597, -0.6283366220040392 
3.130000000002181, -0.628140654727668 
3.140000000002202, -0.6279381974214538 
3.150000000002223, -0.627728366266738 
3.160000000002244, -0.6275105720902794 
3.1700000000022652, -0.6272845722748189 
3.1800000000022863, -0.6270504928281138 
3.1900000000023074, -0.6268088111390637 
3.2000000000023285, -0.6265603043247101 
3.2100000000023496, -0.6263059814782641 
3.2200000000023707, -0.6260470231850428 
3.230000000002392, -0.6257847469703793 
3.240000000002413, -0.6255206067213754 
3.250000000002434, -0.6252562223325666 
3.260000000002455, -0.6249934254099992 
3.2700000000024763, -0.6247342981285399 
3.2800000000024974, -0.6244811752024587 
3.2900000000025185, -0.624236575050055 
3.3000000000025396, -0.6240030301335835 
3.3100000000025607, -0.6237828046649765 
3.3200000000025818, -0.6235775247211531 
3.330000000002603, -0.6233877959060112 
3.340000000002624, -0.6232129255681048 
3.350000000002645, -0.6230508676622234 
3.360000000002666, -0.6228984477064741 
3.3700000000026873, -0.6227518209298176 
3.3800000000027084, -0.6226070254003659 
3.3900000000027295, -0.6224604682928738 
3.4000000000027506, -0.6223092344223287 
3.4100000000027717, -0.6221511899144068 
3.420000000002793, -0.6219849206734321 
3.430000000002814, -0.6218095728802463 
3.440000000002835, -0.6216246580570755 
3.450000000002856, -0.621429866267319 
3.460000000002877, -0.6212249120273072 
3.4700000000028983, -0.6210094249966331 
3.4800000000029194, -0.620782892294683 
3.4900000000029405, -0.620544659227504 
3.5000000000029616, -0.6202939966350366 
3.5100000000029827, -0.6200302412121187 
3.520000000003004, -0.6197530048841656 
3.530000000003025, -0.6194624276881452 
3.540000000003046, -0.619159419496452 
3.550000000003067, -0.61884581353739 
3.5600000000030882, -0.6185243593598423 
3.5700000000031094, -0.6181985260074907 
3.5800000000031305, -0.6178721540398023 
3.5900000000031516, -0.6175490515375924 
3.6000000000031727, -0.617232641803069 
3.6100000000031938, -0.6169257361520739 
3.620000000003215, -0.6166304499873592 
3.630000000003236, -0.616348235203623 
3.640000000003257, -0.6160799818910753 
3.650000000003278, -0.615826144088248 
3.6600000000032993, -0.615586856831434 
3.6700000000033204, -0.6153620253994198 
3.6800000000033415, -0.61515137788807 
3.6900000000033626, -0.614954478511249 
3.7000000000033837, -0.614770702739597 
3.710000000003405, -0.6145991785755676 
3.720000000003426, -0.6144387028714371 
3.730000000003447, -0.614287649008914 
3.740000000003468, -0.6141438923401804 
3.750000000003489, -0.6140047893624964 
3.7600000000035103, -0.6138672484522039 
3.7700000000035314, -0.6137279150606132 
3.7800000000035525, -0.6135834589549624 
3.7900000000035736, -0.6134309059541759 
3.8000000000035947, -0.6132679262574157 
3.810000000003616, -0.6130929986389124 
3.820000000003637, -0.612905414789359 
3.830000000003658, -0.612705145559623 
3.840000000003679, -0.6124926297756021 
3.8500000000037002, -0.6122685528301026 
3.8600000000037213, -0.6120336643050747 
3.8700000000037424, -0.6117886585519023 
3.8800000000037635, -0.6115341223368678 
3.8900000000037847, -0.6112705433807702 
3.9000000000038058, -0.6109983706471673 
3.910000000003827, -0.6107181171752347 
3.920000000003848, -0.6104304951501845 
3.930000000003869, -0.6101365681481911 
3.94000000000389, -0.6098378961449552 
3.9500000000039113, -0.6095366363041874 
3.9600000000039324, -0.6092355517685263 
3.9700000000039535, -0.6089378814495741 
3.9800000000039746, -0.608647048383595 
3.9900000000039957, -0.608366237326214 
4.000000000004016, -0.6080979371980029 
4.010000000003993, -0.6078435819928691 
4.02000000000397, -0.607603400702349 
4.030000000003946, -0.6073765078633473 
4.040000000003923, -0.6071611775931213 
4.0500000000039, -0.6069551943580072 
4.0600000000038765, -0.6067561784577501 
4.070000000003853, -0.6065618239518146 
4.08000000000383, -0.6063700320668053 
4.090000000003807, -0.6061789551477478 
4.100000000003783, -0.605986980903932 
4.11000000000376, -0.6057926886547502 
4.120000000003737, -0.6055948046761175 
4.130000000003713, -0.6053921765701468 
4.14000000000369, -0.6051837780527121 
4.150000000003667, -0.6049687454384607 
4.1600000000036434, -0.6047464358284209 
4.17000000000362, -0.6045164874218925 
4.180000000003597, -0.6042788593980329 
4.1900000000035735, -0.604033835915269 
4.20000000000355, -0.6037819935446833 
4.210000000003527, -0.6035241454276467 
4.220000000003504, -0.6032612804760478 
4.23000000000348, -0.6029945112604393 
4.240000000003457, -0.6027250362515101 
4.250000000003434, -0.6024541172343811 
4.26000000000341, -0.6021830720460082 
4.270000000003387, -0.601913283153263 
4.280000000003364, -0.6016462210350098 
4.2900000000033405, -0.601383477291358 
4.300000000003317, -0.6011267969232643 
4.310000000003294, -0.6008780935257164 
4.320000000003271, -0.6006394262493118 
4.330000000003247, -0.6004129148455621 
4.340000000003224, -0.6002005718652413 
4.350000000003201, -0.6000040435959413 
4.360000000003177, -0.5998242778037207 
4.370000000003154, -0.5996611760878878 
4.380000000003131, -0.599513329741421 
4.390000000003107, -0.5993779550045728 
4.400000000003084, -0.5992511084844362 
4.410000000003061, -0.5991281712403091 
4.4200000000030375, -0.5990044789724405 
4.430000000003014, -0.5988759121151559 
4.440000000002991, -0.5987392857255477 
4.450000000002968, -0.5985924747075598 
4.460000000002944, -0.5984343115903326 
4.470000000002921, -0.5982643498054088 
4.480000000002898, -0.5980825867315469 
4.490000000002874, -0.597889211069301 
4.500000000002851, -0.5976844054151706 
4.510000000002828, -0.5974682119959788 
4.520000000002804, -0.5972404599238296 
4.530000000002781, -0.5970007524322036 
4.540000000002758, -0.5967485171678841 
4.5500000000027345, -0.5964831263979726 
4.560000000002711, -0.5962040913269323 
4.570000000002688, -0.5959113203660761 
4.580000000002665, -0.5956054035946317 
4.590000000002641, -0.595287852488144 
4.600000000002618, -0.5949612050130728 
4.610000000002595, -0.5946289249361744 
4.620000000002571, -0.594295087521898 
4.630000000002548, -0.5939639258345834 
4.640000000002525, -0.5936393656310341 
4.6500000000025015, -0.5933246705838513 
4.660000000002478, -0.5930222625835097 
4.670000000002455, -0.5927337128278446 
4.6800000000024315, -0.5924598532459133 
4.690000000002408, -0.5922009451192511 
4.700000000002385, -0.5919568527949409 
4.710000000002362, -0.5917271898200709 
4.720000000002338, -0.5915114220894692 
4.730000000002315, -0.5913089238702536 
4.740000000002292, -0.5911189884313341 
4.750000000002268, -0.5909407977560236 
4.760000000002245, -0.5907733579552166 
4.770000000002222, -0.5906154107039544 
4.7800000000021985, -0.5904653377575595 
4.790000000002175, -0.5903210851512761 
4.800000000002152, -0.5901801425524605 
4.810000000002129, -0.5900396137764375 
4.820000000002105, -0.589896397713619 
4.830000000002082, -0.5897474625410151 
4.840000000002059, -0.5895901527784657 
4.850000000002035, -0.5894224436789515 
4.860000000002012, -0.5892430705235274 
4.870000000001989, -0.5890515073797126 
4.880000000001965, -0.5888478235526642 
4.890000000001942, -0.5886324780388367 
4.900000000001919, -0.5884061135013636 
4.9100000000018955, -0.5881693918859102 
4.920000000001872, -0.5879228901861311 
