t, s[1].omega / s[0].omega 
0, -3.9999936714631046 
0.009999999999999995, -3.999316804421374 
0.019999999999999934, -3.9985836688095433 
0.029999999999999874, -3.997907575019531 
0.04000000000000012, -3.997343121109786 
0.050000000000000405, -3.996779280327016 
0.06000000000000069, -3.996151683240702 
0.07000000000000098, -3.995475968511002 
0.08000000000000126, -3.994808408282131 
0.09000000000000155, -3.994194563951143 
0.10000000000000184, -3.9935986691275738 
0.11000000000000212, -3.9929662543834703 
0.12000000000000241, -3.992299224623334 
0.130000000000002, -3.991653996435319 
0.1400000000000009, -3.9910619426561347 
0.1499999999999998, -3.990474289364058 
0.1599999999999987, -3.9898363233002905 
0.1699999999999976, -3.9891354367480725 
0.1799999999999965, -3.988441043719449 
0.1899999999999954, -3.9878606441354334 
0.1999999999999943, -3.987331337328006 
0.2099999999999932, -3.986742895948776 
0.2199999999999921, -3.9860674939068312 
0.229999999999991, -3.9853371797865393 
0.2399999999999899, -3.984665043534796 
0.2499999999999888, -3.98410333849039 
0.2599999999999877, -3.983541628047307 
0.2699999999999866, -3.9829166235924722 
0.2799999999999855, -3.9822440160585955 
0.2899999999999844, -3.9815795326536922 
0.2999999999999833, -3.9809681521469606 
0.3099999999999822, -3.980374857830782 
0.3199999999999811, -3.9797454458037906 
0.32999999999998, -3.9790809991979024 
0.3399999999999789, -3.978437544566676 
0.3499999999999778, -3.977848032936877 
0.35999999999997667, -3.9772644118033753 
0.36999999999997557, -3.976631217005339 
0.37999999999997447, -3.97593405813312 
0.38999999999997337, -3.9752384616816037 
0.39999999999997227, -3.974655560040309 
0.40999999999997117, -3.9741303892021107 
0.41999999999997006, -3.973549474749376 
0.42999999999996896, -3.9728818827951593 
0.43999999999996786, -3.972155878838265 
0.44999999999996676, -3.9714793406713205 
0.45999999999996566, -3.970914662333999 
0.46999999999996456, -3.970357859850349 
0.47999999999996346, -3.9697398920214626 
0.48999999999996235, -3.9690726006779875 
0.49999999999996125, -3.968409155131191 
0.5099999999999602, -3.9677969220806704 
0.519999999999959, -3.9672068113714873 
0.529999999999958, -3.9665832393635974 
0.5399999999999568, -3.965922131302212 
0.5499999999999557, -3.965276964993309 
0.5599999999999546, -3.9646875767303436 
0.5699999999999535, -3.964110130126433 
0.5799999999999524, -3.9634863268755076 
0.5899999999999513, -3.9627964130541224 
0.5999999999999502, -3.9620949399646497 
0.6099999999999491, -3.9614999253160783 
0.619999999999948, -3.9609789872772345 
0.6299999999999469, -3.960411688424196 
0.6399999999999458, -3.9597584286475773 
0.6499999999999447, -3.959039741783628 
0.6599999999999436, -3.958352215984587 
0.6699999999999425, -3.957777238381037 
0.6799999999999414, -3.9572268297435107 
0.6899999999999403, -3.9566202252947313 
0.6999999999999392, -3.955960972176314 
0.7099999999999381, -3.955297442685899 
0.719999999999937, -3.9546809568962153 
0.7299999999999359, -3.9540937477058753 
0.7399999999999348, -3.9534787684737127 
0.7499999999999337, -3.952822695464733 
0.7599999999999326, -3.952172803894803 
0.7699999999999315, -3.9515798627383156 
0.7799999999999304, -3.9510097688798935 
0.7899999999999293, -3.9503998669153937 
0.7999999999999282, -3.949722209155577 
0.8099999999999271, -3.949013848731346 
0.819999999999926, -3.9483954497978084 
0.8299999999999249, -3.947874765532776 
0.8399999999999238, -3.9473261960842527 
0.8499999999999227, -3.9466940450476122 
0.8599999999999216, -3.9459883378634806 
0.8699999999999205, -3.945287501274806 
0.8799999999999194, -3.944692419328189 
0.8899999999999183, -3.9441468329615494 
0.8999999999999172, -3.9435555191934712 
0.9099999999999161, -3.942907933407619 
0.919999999999915, -3.9422448748285364 
0.9299999999999139, -3.9416209244539053 
0.9399999999999128, -3.94103470138462 
0.9499999999999117, -3.9404305806522943 
0.9599999999999106, -3.9397827301085497 
0.9699999999999095, -3.939126688199386 
0.9799999999999084, -3.9385245740178583 
0.9899999999999073, -3.937960889089561 
0.9999999999999062, -3.937368820414045 
1.0099999999999052, -3.9367099032274124 
1.019999999999904, -3.9359996834421715 
1.029999999999903, -3.9353474265335096 
1.039999999999902, -3.934815551996607 
1.0499999999999008, -3.9342881596738906 
1.0599999999998997, -3.9336838637705456 
1.0699999999998986, -3.932999268774813 
1.0799999999998975, -3.932289819287803 
1.0899999999998964, -3.931664223226112 
1.0999999999998953, -3.9311163428726053 
1.1099999999998942, -3.9305428535066946 
1.119999999999893, -3.929911495954923 
1.129999999999892, -3.9292516969668676 
1.1399999999998909, -3.9286182063889634 
1.1499999999998898, -3.92802896546416 
1.1599999999998887, -3.927436545098659 
1.1699999999998876, -3.9268014942718943 
1.1799999999998865, -3.9261412921315504 
1.1899999999998854, -3.9255228685706185 
1.1999999999998843, -3.9249606966098023 
1.2099999999998832, -3.9243888297054683 
1.219999999999882, -3.923755621933617 
1.229999999999881, -3.9230551129925737 
1.2399999999998799, -3.922366377874956 
1.2499999999998788, -3.9218022988800785 
1.2599999999998777, -3.9212918113364004 
1.2699999999998766, -3.920721240148192 
1.2799999999998755, -3.9200669549305767 
1.2899999999998744, -3.919361331272267 
1.2999999999998733, -3.918700480605909 
1.3099999999998722, -3.918135735653011 
1.319999999999871, -3.9175787787354865 
1.32999999999987, -3.9169685615429444 
1.3399999999998689, -3.91631723285616 
1.3499999999998678, -3.9156746164697487 
1.3599999999998666, -3.915076795883251 
1.3699999999998655, -3.914494074877889 
1.3799999999998644, -3.9138765978921546 
1.3899999999998633, -3.913219159365778 
1.3999999999998622, -3.912579033416121 
1.4099999999998611, -3.912007272565602 
1.41999999999986, -3.9114543618841884 
1.429999999999859, -3.9108527862778266 
1.4399999999998578, -3.9101770413222234 
1.4499999999998567, -3.9094653402156943 
1.4599999999998556, -3.9088447378897064 
1.4699999999998545, -3.9083325652032492 
1.4799999999998534, -3.907798146421853 
1.4899999999998523, -3.907182770249282 
1.4999999999998512, -3.906497754930103 
1.5099999999998501, -3.9058106091879923 
1.519999999999849, -3.9052103807040965 
1.529999999999848, -3.9046604261055124 
1.5399999999998468, -3.9040748270120282 
1.5499999999998457, -3.9034392462365184 
1.5599999999998446, -3.902791542640373 
1.5699999999998435, -3.902180027151613 
1.5799999999998424, -3.9016009611109714 
1.5899999999998413, -3.901003696130124 
1.5999999999998402, -3.900359931417566 
1.6099999999998391, -3.8997011059374835 
1.619999999999838, -3.8991027120776343 
1.629999999999837, -3.898559582121293 
1.6399999999998358, -3.8979926346804903 
1.6499999999998347, -3.8973550916213284 
1.6599999999998336, -3.8966491599741593 
1.6699999999998325, -3.89596586335867 
1.6799999999998314, -3.8954134687984188 
1.6899999999998303, -3.894906465930853 
1.6999999999998292, -3.894336393298981 
1.709999999999828, -3.893687619183922 
1.719999999999827, -3.8929974603157644 
1.729999999999826, -3.8923528793950815 
1.7399999999998248, -3.89178856664543 
1.7499999999998237, -3.891225374322957 
1.7599999999998226, -3.89061342549453 
1.7699999999998215, -3.8899689311336387 
1.7799999999998204, -3.8893418504493793 
1.7899999999998193, -3.8887568513617774 
1.7999999999998182, -3.8881774377106786 
1.809999999999817, -3.8875578658035366 
1.819999999999816, -3.8868963160339454 
1.8299999999998149, -3.8862583688523555 
1.8399999999998138, -3.885701640265964 
1.8499999999998127, -3.8851652501383533 
1.8599999999998116, -3.8845743840328644 
1.8699999999998105, -3.8839042469787812 
1.8799999999998094, -3.8831899179773495 
1.8899999999998083, -3.8825577282364696 
1.8999999999998072, -3.8820430150049865 
1.909999999999806, -3.881517454231372 
1.919999999999805, -3.880916228210345 
1.9299999999998039, -3.8802498833880477 
1.9399999999998028, -3.8795765974241503 
1.9499999999998017, -3.8789729471387604 
1.9599999999998006, -3.878417113912458 
1.9699999999997995, -3.8778333852086346 
1.9799999999997984, -3.877204181747375 
1.9899999999997973, -3.8765657191979 
1.9999999999997962, -3.8759646430507386 
2.0099999999998173, -3.875393712586709 
2.0199999999998384, -3.8748029383078397 
2.0299999999998595, -3.874161299433761 
2.0399999999998806, -3.8734944273047978 
2.0499999999999017, -3.872890144132481 
2.059999999999923, -3.872362271182454 
2.069999999999944, -3.87181932931561 
2.079999999999965, -3.8712039295169496 
2.089999999999986, -3.8705108267331987 
2.100000000000007, -3.8698091785736395 
2.1100000000000283, -3.869224842491435 
2.1200000000000494, -3.868719069138762 
2.1300000000000705, -3.868170088931617 
2.1400000000000916, -3.867547405786598 
2.1500000000001127, -3.8668788549750763 
2.160000000000134, -3.866232635903329 
2.170000000000155, -3.8656548252175327 
2.180000000000176, -3.8650926751134924 
2.190000000000197, -3.864490563204896 
2.2000000000002182, -3.863853756927597 
2.2100000000002393, -3.8632308817624996 
2.2200000000002604, -3.8626525905823863 
2.2300000000002815, -3.8620853390076144 
2.2400000000003026, -3.8614794687448075 
2.2500000000003237, -3.860819493201748 
2.260000000000345, -3.860158155970923 
2.270000000000366, -3.859588351526957 
2.280000000000387, -3.8590761898284525 
2.290000000000408, -3.8585223402753948 
2.3000000000004293, -3.8578872473193244 
2.3100000000004504, -3.8571835028138786 
2.3200000000004715, -3.8565055488786038 
2.3300000000004926, -3.855952091822117 
2.3400000000005137, -3.8554398970063177 
2.3500000000005348, -3.8548711514861864 
2.360000000000556, -3.8542371438644487 
2.370000000000577, -3.853577329375961 
2.380000000000598, -3.852957186411957 
2.390000000000619, -3.852390962127923 
2.4000000000006403, -3.8518179855592116 
2.4100000000006614, -3.851202081031574 
2.4200000000006825, -3.8505651070877427 
2.4300000000007036, -3.8499613919661373 
2.4400000000007247, -3.849400200128451 
2.450000000000746, -3.8488314334924825 
2.460000000000767, -3.8482109947350027 
2.470000000000788, -3.8475371452784004 
2.480000000000809, -3.8468864341435127 
2.49000000000083, -3.846344424425285 
2.5000000000008513, -3.845839816335123 
2.5100000000008724, -3.845276574604891 
2.5200000000008935, -3.844629565208149 
2.5300000000009146, -3.8439262537339127 
2.5400000000009357, -3.843271874027031 
2.550000000000957, -3.8427322844524014 
2.560000000000978, -3.8422087934464444 
2.570000000000999, -3.8416263353769935 
2.58000000000102, -3.840989221255034 
2.5900000000010412, -3.8403432956030494 
2.6000000000010624, -3.839743189782587 
2.6100000000010835, -3.839180226736835 
2.6200000000011046, -3.8385969004966194 
2.6300000000011257, -3.837971281400158 
2.6400000000011468, -3.837338052757206 
2.650000000001168, -3.8367530004493395 
2.660000000001189, -3.836204855857678 
2.67000000000121, -3.8356339841621194 
2.680000000001231, -3.83500198616888 
2.6900000000012523, -3.8343178569484437 
2.7000000000012734, -3.833676010064972 
2.7100000000012945, -3.8331523851907967 
2.7200000000013156, -3.8326519475231535 
2.7300000000013367, -3.832083929950165 
2.740000000001358, -3.831433644823201 
2.750000000001379, -3.83073831384891 
2.7600000000014, -3.8301012710981786 
2.770000000001421, -3.8295639638146506 
2.780000000001442, -3.829029615233395 
2.7900000000014633, -3.8284391396878066 
2.8000000000014844, -3.8278041902930746 
2.8100000000015055, -3.8271727978850882 
2.8200000000015266, -3.826586763034329 
2.8300000000015477, -3.8260239594567422 
2.840000000001569, -3.8254325994952394 
2.85000000000159, -3.8247997765443076 
2.860000000001611, -3.8241703597337464 
2.870000000001632, -3.8236014573548203 
2.8800000000016532, -3.8230651938708036 
2.8900000000016743, -3.8224950636768447 
2.9000000000016954, -3.8218564751421518 
2.9100000000017165, -3.82116472280605 
2.9200000000017377, -3.820524627016302 
2.9300000000017588, -3.820009148624954 
2.94000000000178, -3.8195121063207216 
2.950000000001801, -3.8189449294244375 
2.960000000001822, -3.8182991784630396 
2.970000000001843, -3.8176159510338508 
2.9800000000018643, -3.816989166638532 
2.9900000000018854, -3.816447814512153 
3.0000000000019065, -3.815904952049008 
3.0100000000019276, -3.8153107704064135 
3.0200000000019487, -3.8146802994592783 
3.03000000000197, -3.814061641010118 
3.040000000001991, -3.813485868138522 
3.050000000002012, -3.8129235383311837 
3.060000000002033, -3.8123271896075215 
3.070000000002054, -3.811688135900256 
3.0800000000020753, -3.8110588617425636 
3.0900000000020964, -3.8105021294414696 
3.1000000000021175, -3.809978971330943 
3.1100000000021386, -3.8094149874199807 
3.1200000000021597, -3.8087768244889864 
3.130000000002181, -3.8080808162251047 
3.140000000002202, -3.8074331677747573 
3.150000000002223, -3.8069145119212124 
3.160000000002244, -3.806420289440073 
3.1700000000022652, -3.8058589864713683 
3.1800000000022863, -3.805223681149954 
3.1900000000023074, -3.804554514040988 
3.2000000000023285, -3.8039329604503758 
3.2100000000023496, -3.803384790488191 
3.2200000000023707, -3.802836034797965 
3.230000000002392, -3.802240983057456 
3.240000000002413, -3.8016148770336025 
3.250000000002434, -3.8010059861975534 
3.260000000002455, -3.8004388754806397 
3.2700000000024763, -3.7998795620942767 
3.2800000000024974, -3.7992821232406193 
3.2900000000025185, -3.798637370129076 
3.3000000000025396, -3.798001256478911 
3.3100000000025607, -3.797449798433798 
3.3200000000025818, -3.7969416928928985 
3.330000000002603, -3.7963909257015693 
3.340000000002624, -3.795762111540392 
3.350000000002645, -3.7950682263641555 
3.360000000002666, -3.7944061700276697 
3.3700000000026873, -3.793871678449117 
3.3800000000027084, -3.793377766023538 
3.3900000000027295, -3.792825699115261 
3.4000000000027506, -3.792204460012001 
3.4100000000027717, -3.7915501393599613 
3.420000000002793, -3.7909315779674992 
3.430000000002814, -3.7903760189372533 
3.440000000002835, -3.7898237547296816 
3.450000000002856, -3.789229686422072 
3.460000000002877, -3.7886061051059654 
3.4700000000028983, -3.788002845334069 
3.4800000000029194, -3.787444032240534 
3.4900000000029405, -3.7868919438650464 
3.5000000000029616, -3.7862988811779807 
3.5100000000029827, -3.7856507834044293 
3.520000000003004, -3.7849994642749003 
3.530000000003025, -3.7844405590828956 
3.540000000003046, -3.7839468820727675 
3.550000000003067, -3.7834166102202387 
3.5600000000030882, -3.7828068820787357 
3.5700000000031094, -3.782125193748713 
3.5800000000031305, -3.7814494426370286 
3.5900000000031516, -3.780887216565474 
3.6000000000031727, -3.780387672566584 
3.6100000000031938, -3.7798458796305368 
3.620000000003215, -3.7792401948864622 
3.630000000003236, -3.7786005764779027 
3.640000000003257, -3.7779849487905475 
3.650000000003278, -3.777422957162595 
3.6600000000032993, -3.776869431122779 
3.6700000000033204, -3.776278120255268 
3.6800000000033415, -3.775654534763865 
3.6900000000033626, -3.775050596900516 
3.7000000000033837, -3.7744989386043444 
3.710000000003405, -3.773959409377473 
3.720000000003426, -3.7733783570577715 
3.730000000003447, -3.7727337903774503 
3.740000000003468, -3.7720630853374653 
3.750000000003489, -3.7714769487498416 
3.7600000000035103, -3.7709887026298383 
3.7700000000035314, -3.77048372232244 
3.7800000000035525, -3.769901678193926 
3.7900000000035736, -3.7692435017928823 
3.8000000000035947, -3.768564332672537 
3.810000000003616, -3.767968622663419 
3.820000000003637, -3.767454111562052 
3.830000000003658, -3.766920885703435 
3.840000000003679, -3.766330658653525 
3.8500000000037002, -3.76570452613577 
3.8600000000037213, -3.7650924356401427 
3.8700000000037424, -3.764526106371998 
3.8800000000037635, -3.763973801047759 
3.8900000000037847, -3.7633880437628706 
3.9000000000038058, -3.7627632752550335 
3.910000000003827, -3.7621495255358743 
3.920000000003848, -3.761599210007706 
3.930000000003869, -3.7610770461746936 
3.94000000000389, -3.7605175558843214 
3.9500000000039113, -3.75988878469742 
3.9600000000039324, -3.759206827965431 
3.9700000000039535, -3.758574666450791 
3.9800000000039746, -3.7580678911344165 
3.9900000000039957, -3.7575853595606823 
4.000000000004016, -3.7570363395685282 
4.010000000003993, -3.7564102957504537 
4.02000000000397, -3.7557430600111354 
4.030000000003946, -3.7551196769843598 
4.040000000003923, -3.7545805474968588 
4.0500000000039, -3.7540511696371346 
4.0600000000038765, -3.753475419524846 
4.070000000003853, -3.752860764745157 
4.08000000000383, -3.752251407356102 
4.090000000003807, -3.751682960507336 
4.100000000003783, -3.751134912804902 
4.11000000000376, -3.7505593588998645 
4.120000000003737, -3.749936736233105 
4.130000000003713, -3.749304378804779 
4.14000000000369, -3.7487394154669333 
4.150000000003667, -3.7482336909542378 
4.1600000000036434, -3.747705483196545 
4.17000000000362, -3.7471074482016578 
4.180000000003597, -3.746436427667303 
4.1900000000035735, -3.745760816300919 
4.20000000000355, -3.745200750345409 
4.210000000003527, -3.744721947166029 
4.220000000003504, -3.744205308055392 
4.23000000000348, -3.7436151905185837 
4.240000000003457, -3.7429723046245265 
4.250000000003434, -3.74233722468895 
4.26000000000341, -3.741769683345212 
4.270000000003387, -3.741236949722281 
4.280000000003364, -3.7406742606840906 
4.2900000000033405, -3.7400696951796655 
4.300000000003317, -3.7394595031518607 
4.310000000003294, -3.7388883454644803 
4.320000000003271, -3.7383476277277787 
4.330000000003247, -3.7377887554544578 
4.340000000003224, -3.7371782172219645 
4.350000000003201, -3.7365288321684744 
4.360000000003177, -3.7359238478060917 
4.370000000003154, -3.735415842189216 
4.380000000003131, -3.734923381214945 
4.390000000003107, -3.734369263818391 
4.400000000003084, -3.733734448133344 
4.410000000003061, -3.7330491616544172 
4.4200000000030375, -3.732420421232441 
4.430000000003014, -3.7319078550728926 
4.440000000002991, -3.7314115506197516 
4.450000000002968, -3.7308562747460585 
4.460000000002944, -3.7302430971414133 
4.470000000002921, -3.7296129285061417 
4.480000000002898, -3.729023281688245 
4.490000000002874, -3.7284802353944455 
4.500000000002851, -3.7279286129383506 
4.510000000002828, -3.7273355318510406 
4.520000000002804, -3.7267205335244116 
4.530000000002781, -3.726138513901849 
4.540000000002758, -3.725604466428679 
4.5500000000027345, -3.7250692739552207 
4.560000000002711, -3.7244853096534136 
4.570000000002688, -3.7238394219195285 
4.580000000002665, -3.723183750025938 
4.590000000002641, -3.722627272590136 
4.600000000002618, -3.722153791082481 
4.610000000002595, -3.7216500207606 
4.620000000002571, -3.721067781703616 
4.630000000002548, -3.720413637878829 
4.640000000002525, -3.7197482981708205 
4.6500000000025015, -3.719170736430834 
4.660000000002478, -3.7186658175986516 
4.670000000002455, -3.718137928240926 
4.6800000000024315, -3.7175545914214574 
4.690000000002408, -3.716938402892338 
4.700000000002385, -3.7163382160883947 
4.710000000002362, -3.7157824552208565 
4.720000000002338, -3.7152391470115163 
4.730000000002315, -3.714662397344243 
4.740000000002292, -3.7140459388508305 
4.750000000002268, -3.7134384231366453 
4.760000000002245, -3.7128958968120136 
4.770000000002222, -3.7123867765373513 
4.7800000000021985, -3.711843497742027 
4.790000000002175, -3.71123144072504 
4.800000000002152, -3.7105594857252355 
4.810000000002129, -3.709918653398355 
4.820000000002105, -3.7094039809732093 
4.830000000002082, -3.708935559462419 
4.840000000002059, -3.708410520755212 
4.850000000002035, -3.70780910051583 
4.860000000002012, -3.7071582947867525 
4.870000000001989, -3.7065307732926627 
4.880000000001965, -3.7059839556569685 
4.890000000001942, -3.7054651859521166 
4.900000000001919, -3.70490888826332 
4.9100000000018955, -3.704309853762976 
4.920000000001872, -3.703705729883384 
4.930000000001849, -3.7031385408667625 
4.940000000001826, -3.70260082514813 
4.950000000001802, -3.7020462509441265 
4.960000000001779, -3.701443913587101 
4.970000000001756, -3.700810364988713 
