t, s[1].omega / s[0].omega 
0, -0.06999781930147185 
0.009999999999999995, -0.06978543747679752 
0.019999999999999934, -0.06958346055363145 
0.029999999999999874, -0.06938952962944592 
0.04000000000000012, -0.06920031790046603 
0.050000000000000405, -0.06901219632741076 
0.06000000000000069, -0.06882181641305136 
0.07000000000000098, -0.06862646209595046 
0.08000000000000126, -0.06842413961277252 
0.09000000000000155, -0.06821347167036546 
0.10000000000000184, -0.06799350309219107 
0.11000000000000212, -0.06776351615062118 
0.12000000000000241, -0.06752292383217721 
0.130000000000002, -0.06727128055597273 
0.1400000000000009, -0.06700842615365639 
0.1499999999999998, -0.0667347496268213 
0.1599999999999987, -0.06645151213027206 
0.1699999999999976, -0.06616110748242154 
0.1799999999999965, -0.06586709701495837 
0.1899999999999954, -0.06557388767877849 
0.1999999999999943, -0.0652860541734904 
0.2099999999999932, -0.06500748420625725 
0.2199999999999921, -0.06474063581918874 
0.229999999999991, -0.06448615680923726 
0.2399999999999899, -0.06424295632300431 
0.2499999999999888, -0.06400864011819098 
0.2599999999999877, -0.06378011290139662 
0.2699999999999866, -0.0635541423513692 
0.2799999999999855, -0.06332774673549323 
0.2899999999999844, -0.06309836377886983 
0.2999999999999833, -0.06286383749493227 
0.3099999999999822, -0.0626222995971711 
0.3199999999999811, -0.06237202726664529 
0.32999999999998, -0.06211134792365301 
0.3399999999999789, -0.06183864960895162 
0.3499999999999778, -0.06155254429777986 
0.35999999999997667, -0.06125220731425692 
0.36999999999997557, -0.06093785798944894 
0.37999999999997447, -0.06061124817591286 
0.38999999999997337, -0.06027592519918258 
0.39999999999997227, -0.059937025570452274 
0.40999999999997117, -0.05960051312753202 
0.41999999999997006, -0.05927205337450529 
0.42999999999996896, -0.058955928049480764 
0.43999999999996786, -0.058654374453016876 
0.44999999999996676, -0.0583675061179796 
0.45999999999996566, -0.05809371107687591 
0.46999999999996456, -0.057830282081498804 
0.47999999999996346, -0.05757403603574711 
0.48999999999996235, -0.05732176820143363 
0.49999999999996125, -0.05707049041097197 
0.5099999999999602, -0.056817479050754696 
0.519999999999959, -0.05656019649825689 
0.529999999999958, -0.056296158655206555 
0.5399999999999568, -0.0560228189239725 
0.5499999999999557, -0.05573753944005453 
0.5599999999999546, -0.05543772535495658 
0.5699999999999535, -0.05512119127214683 
0.5799999999999524, -0.05478677718040278 
0.5899999999999513, -0.054435104377196654 
0.5999999999999502, -0.05406918412593964 
0.6099999999999491, -0.05369448702778098 
0.619999999999948, -0.053318215311314185 
0.6299999999999469, -0.05294790966757838 
0.6399999999999458, -0.05258991404687281 
0.6499999999999447, -0.052248295175300295 
0.6599999999999436, -0.05192452236295697 
0.6699999999999425, -0.051617818418806236 
0.6799999999999414, -0.05132586343788863 
0.6899999999999403, -0.051045529145456535 
0.6999999999999392, -0.05077344262092802 
0.7099999999999381, -0.05050631134569198 
0.719999999999937, -0.050241030606439196 
0.7299999999999359, -0.04997463395657637 
0.7399999999999348, -0.049704155699693636 
0.7499999999999337, -0.04942647342833995 
0.7599999999999326, -0.04913820541019476 
0.7699999999999315, -0.04883575755266918 
0.7799999999999304, -0.04851563383620279 
0.7899999999999293, -0.0481751005436845 
0.7999999999999282, -0.04781316824206848 
0.8099999999999271, -0.04743160842650653 
0.819999999999926, -0.04703547727768641 
0.8299999999999249, -0.04663264259039695 
0.8399999999999238, -0.04623226059055873 
0.8499999999999227, -0.04584277507516551 
0.8599999999999216, -0.045470289703270814 
0.8699999999999205, -0.04511786907781307 
0.8799999999999194, -0.044785764550577985 
0.8899999999999183, -0.04447218110179275 
0.8999999999999172, -0.04417415346983938 
0.9099999999999161, -0.04388825253740285 
0.919999999999915, -0.043611020924957236 
0.9299999999999139, -0.04333915247580719 
0.9399999999999128, -0.043069477950755324 
0.9499999999999117, -0.042798826014735815 
0.9599999999999106, -0.04252382410929599 
0.9699999999999095, -0.04224071011185679 
0.9799999999999084, -0.04194525439688866 
0.9899999999999073, -0.04163293652845973 
0.9999999999999062, -0.041299540201177085 
1.0099999999999052, -0.04094224024114774 
1.019999999999904, -0.040560979985499894 
1.029999999999903, -0.04015954965775588 
1.039999999999902, -0.03974560456981951 
1.0499999999999008, -0.03932926197688845 
1.0599999999998997, -0.03892075648059915 
1.0699999999998986, -0.0385282221059395 
1.0799999999998975, -0.038156484160895066 
1.0899999999998964, -0.03780703983661886 
1.0999999999998953, -0.03747882379502617 
1.1099999999998942, -0.03716921072880429 
1.119999999999893, -0.03687487349903486 
1.129999999999892, -0.036592344221233114 
1.1399999999998909, -0.03631827940675227 
1.1499999999998898, -0.03604949325481634 
1.1599999999998887, -0.03578283056992695 
1.1699999999998876, -0.035514940881994916 
1.1799999999998865, -0.03524201627583391 
1.1899999999998854, -0.03495958531826757 
1.1999999999998843, -0.03466251773756886 
1.2099999999998832, -0.03434545752674694 
1.219999999999882, -0.034003872647783505 
1.229999999999881, -0.0336356566491935 
1.2399999999998799, -0.033242729641632086 
1.2499999999998788, -0.03283168636402918 
1.2599999999998777, -0.03241276902903613 
1.2699999999998766, -0.0319974023537988 
1.2799999999998755, -0.03159546311180869 
1.2899999999998744, -0.03121350448321062 
1.2999999999998733, -0.030854381996017033 
1.3099999999998722, -0.030517927265508428 
1.319999999999871, -0.030202026921021023 
1.32999999999987, -0.029903613889325158 
1.3399999999998689, -0.029619351905517066 
1.3499999999998678, -0.029345991308785548 
1.3599999999998666, -0.02908045879084544 
1.3699999999998655, -0.028819755363111477 
1.3799999999998644, -0.02856072233413686 
1.3899999999998633, -0.02829972877614075 
1.3999999999998622, -0.028032359634047523 
1.4099999999998611, -0.02775325415573888 
1.41999999999986, -0.02745634139961633 
1.429999999999859, -0.027135753808551284 
1.4399999999998578, -0.02678750369451737 
1.4499999999998567, -0.02641147862696481 
1.4599999999998556, -0.026012711983949784 
1.4699999999998545, -0.02560087974714655 
1.4799999999998534, -0.02518793422990029 
1.4899999999998523, -0.024785021042062864 
1.4999999999998512, -0.024400176271734478 
1.5099999999998501, -0.024037550352041945 
1.519999999999849, -0.023697916604906607 
1.529999999999848, -0.02337976645738956 
1.5399999999998468, -0.023080396873772453 
1.5499999999998457, -0.022796699649441955 
1.5599999999998446, -0.022525600718846274 
1.5699999999998435, -0.022264206505345253 
1.5799999999998424, -0.022009733211272937 
1.5899999999998413, -0.0217592780073644 
1.5999999999998402, -0.021509478206865388 
1.6099999999998391, -0.02125612410660868 
1.619999999999838, -0.020993863542940572 
1.629999999999837, -0.02071625564075756 
1.6399999999998358, -0.02041651835441517 
1.6499999999998347, -0.020089182518546318 
1.6599999999998336, -0.01973233749301789 
1.6699999999998325, -0.01934941027292173 
1.6799999999998314, -0.018949185799034523 
1.6899999999998303, -0.018543659655564766 
1.6999999999998292, -0.018144762996972524 
1.709999999999828, -0.017761644024153873 
1.719999999999827, -0.01739952223929457 
1.729999999999826, -0.01706000887756925 
1.7399999999998248, -0.016742175987992183 
1.7499999999998237, -0.016443700882103694 
1.7599999999998226, -0.016161732117447813 
1.7699999999998215, -0.01589339493055077 
1.7799999999998204, -0.0156359850851786 
1.7899999999998193, -0.015386927115521688 
1.7999999999998182, -0.015143555422761574 
1.809999999999817, -0.014902759176473147 
1.819999999999816, -0.01466054641008335 
1.8299999999998149, -0.014411654638814895 
1.8399999999998138, -0.014149468481012178 
1.8499999999998127, -0.013866629160752014 
1.8599999999998116, -0.01355664035427239 
1.8699999999998105, -0.013216261182750336 
1.8799999999998094, -0.012847641802177151 
1.8899999999998083, -0.012458749099981207 
1.8999999999998072, -0.012061429973713178 
1.909999999999806, -0.011668043294723988 
1.919999999999805, -0.011288459468849363 
1.9299999999998039, -0.010928641500622364 
1.9399999999998028, -0.010590812685403595 
1.9499999999998017, -0.010274490081357442 
1.9599999999998006, -0.009977657684714763 
1.9699999999997995, -0.00969767973559232 
1.9799999999997984, -0.009431849033630167 
1.9899999999997973, -0.009177612212093237 
1.9999999999997962, -0.0089325472609401 
2.0099999999998173, -0.008694151285969195 
2.0199999999998384, -0.008459476493350245 
2.0299999999998595, -0.008224664179747163 
2.0399999999998806, -0.007984499024263635 
2.0499999999999017, -0.0077322483289012115 
2.059999999999923, -0.007460197472622892 
2.069999999999944, -0.0071612399924762035 
2.079999999999965, -0.006831368766243321 
2.089999999999986, -0.00647202013093835 
2.100000000000007, -0.00609071858094489 
2.1100000000000283, -0.0056992373100452085 
2.1200000000000494, -0.005310162231974432 
2.1300000000000705, -0.0049337348116165695 
2.1400000000000916, -0.004576293987570995 
2.1500000000001127, -0.004240372350205381 
2.160000000000134, -0.003925716059469743 
2.170000000000155, -0.0036304728279559807 
2.180000000000176, -0.003352126286554098 
2.190000000000197, -0.0030880617437564024 
2.2000000000002182, -0.002835802696718134 
2.2100000000002393, -0.002592993148411185 
2.2200000000002604, -0.002357183398136002 
2.2300000000002815, -0.0021254564639476086 
2.2400000000003026, -0.0018939447407459093 
2.2500000000003237, -0.0016573625290753052 
2.260000000000345, -0.0014088297925477153 
2.270000000000366, -0.0011404172305395648 
2.280000000000387, -0.0008447876205390302 
2.290000000000408, -0.0005177707866221391 
2.3000000000004293, -0.00016077564911959558 
2.3100000000004504, 0.0000012949196640692632 
2.3200000000004715, 8.282647721586427e-7 
2.3300000000004926, 0.00000168913027992479 
2.3400000000005137, 0.0000015824211589805 
2.3500000000005348, 0.0000014499732734712784 
2.360000000000556, 9.738041725943238e-7 
2.370000000000577, 0.0000011608459115852436 
2.380000000000598, 2.3863865450614947e-7 
2.390000000000619, -9.324787381339274e-9 
2.4000000000006403, 1.12082479389364e-7 
2.4100000000006614, 1.6206965471557366e-7 
2.4200000000006825, 0.0000010436387002541317 
2.4300000000007036, 8.663943053664063e-7 
2.4400000000007247, -3.118395610371003e-7 
2.450000000000746, 2.677618904645809e-9 
2.460000000000767, -6.648107441910767e-8 
2.470000000000788, 6.47682075145533e-7 
2.480000000000809, -6.106438947461496e-8 
2.49000000000083, 6.884736018327861e-7 
2.5000000000008513, 2.620268392733906e-7 
2.5100000000008724, 5.095167899993882e-7 
2.5200000000008935, 3.983291994025454e-9 
2.5300000000009146, 4.608033127936901e-7 
2.5400000000009357, 1.278837635672207e-7 
2.550000000000957, 5.427465486890711e-7 
2.560000000000978, 0.0000014245559108353416 
2.570000000000999, 0.000001189774504136193 
2.58000000000102, 9.6431531573126e-7 
2.5900000000010412, 4.866716928720101e-7 
2.6000000000010624, 8.301530230112518e-7 
2.6100000000010835, 2.3226248680896512e-7 
2.6200000000011046, -3.033272821267952e-7 
2.6300000000011257, 1.252132262077336e-7 
2.6400000000011468, -3.5616754919534676e-7 
2.650000000001168, -1.9470861514221213e-7 
2.660000000001189, 2.66660851771626e-7 
2.67000000000121, 6.949164689168472e-7 
2.680000000001231, -5.691034671775647e-7 
2.6900000000012523, 9.723895005424083e-8 
2.7000000000012734, 0.0000011017964586467379 
2.7100000000012945, 2.699871826595944e-7 
2.7200000000013156, 5.478094534255763e-7 
2.7300000000013367, 2.0076035235244915e-7 
2.740000000001358, 8.137659953381179e-7 
2.750000000001379, 7.083206003273211e-7 
2.7600000000014, 0.0000016256880183721879 
2.770000000001421, 0.0000013348001780246206 
2.780000000001442, -1.1035145030012294e-7 
2.7900000000014633, 7.112877651097644e-7 
2.8000000000014844, 6.862828269543491e-7 
2.8100000000015055, 9.027546886918035e-7 
2.8200000000015266, -4.067269054522265e-7 
2.8300000000015477, -6.722341223265075e-8 
2.840000000001569, -8.400501553427243e-8 
2.85000000000159, 5.931224663017776e-7 
2.860000000001611, -7.999010517069023e-7 
2.870000000001632, -1.7451104847181623e-7 
2.8800000000016532, -6.798388833453562e-7 
2.8900000000016743, 4.63500031326063e-7 
2.9000000000016954, -3.7861902919159923e-7 
2.9100000000017165, 8.930393861529167e-7 
2.9200000000017377, 3.7591259217368904e-7 
2.9300000000017588, 6.574412508012584e-7 
2.94000000000178, 4.2945421413714454e-7 
2.950000000001801, 4.3161341583146224e-7 
2.960000000001822, 5.222418452261483e-7 
2.970000000001843, 4.704607151350703e-7 
2.9800000000018643, 4.5384036323628756e-7 
2.9900000000018854, 7.069202572231978e-7 
3.0000000000019065, 4.020906058719577e-7 
3.0100000000019276, 8.378410700650338e-7 
3.0200000000019487, -5.178364818744872e-7 
3.03000000000197, 3.754348908609521e-7 
3.040000000001991, 1.4403306238482056e-7 
3.050000000002012, -3.103089003456529e-7 
3.060000000002033, 8.144131355511394e-8 
3.070000000002054, 5.332237560471247e-8 
3.0800000000020753, 8.601978495727948e-7 
3.0900000000020964, -5.561093800501388e-7 
3.1000000000021175, 1.135210842881491e-7 
3.1100000000021386, 6.923564155482771e-7 
3.1200000000021597, 6.232415994433024e-8 
3.130000000002181, 5.787667182749452e-7 
3.140000000002202, 1.0973475870274248e-7 
3.150000000002223, 6.876762543773764e-7 
3.160000000002244, 3.8908722782411115e-8 
3.1700000000022652, 0.0000017482249813495611 
3.1800000000022863, 7.097080762295868e-7 
3.1900000000023074, 2.3489227235974746e-7 
3.2000000000023285, 8.48564199296409e-9 
3.2100000000023496, 3.7111112566896986e-8 
3.2200000000023707, 9.417707698969744e-7 
3.230000000002392, 2.0211692081225161e-7 
3.240000000002413, 3.991232984817942e-7 
3.250000000002434, 0.0000010574842464145056 
3.260000000002455, 1.7340282125991875e-7 
3.2700000000024763, 2.893671704890939e-7 
3.2800000000024974, 1.8577605389580504e-7 
3.2900000000025185, -2.614330920498235e-7 
3.3000000000025396, 3.4081180540985174e-7 
3.3100000000025607, 5.623717374183056e-7 
3.3200000000025818, -3.221518798664228e-7 
3.330000000002603, 6.310553273622844e-8 
3.340000000002624, 1.5084550261067904e-7 
3.350000000002645, 0.0000010827056996977756 
3.360000000002666, 2.4644556426141394e-7 
3.3700000000026873, 3.603282313848711e-7 
3.3800000000027084, 2.497872005156786e-8 
3.3900000000027295, 1.6287450750723093e-7 
3.4000000000027506, 0.0000014046269927495796 
3.4100000000027717, 7.013502326489675e-7 
3.420000000002793, 0.0000010701700595715391 
3.430000000002814, 9.985905295345306e-7 
3.440000000002835, 8.831103835917096e-7 
3.450000000002856, 3.914710455140259e-7 
3.460000000002877, 4.935974839558029e-7 
3.4700000000028983, 6.409925608159822e-7 
3.4800000000029194, 4.909073275887522e-7 
3.4900000000029405, 3.2503631536413616e-7 
3.5000000000029616, 9.513433057619e-8 
3.5100000000029827, -1.6762162820974364e-7 
3.520000000003004, -3.684855121307269e-7 
3.530000000003025, 2.1221854141637684e-7 
3.540000000003046, 1.6881398060872102e-7 
3.550000000003067, 5.444014684802204e-7 
3.5600000000030882, 6.676798424016155e-7 
3.5700000000031094, 0.0000012834560300102961 
3.5800000000031305, 6.672448024136472e-7 
3.5900000000031516, 4.3791233733872735e-7 
3.6000000000031727, 2.8276030354046797e-7 
3.6100000000031938, 3.297256632056379e-7 
3.620000000003215, 6.058512327020794e-7 
3.630000000003236, 5.950785705806282e-7 
3.640000000003257, 0.0000010088051286394143 
3.650000000003278, 7.229065800410896e-8 
3.6600000000032993, 3.5293000067403115e-7 
3.6700000000033204, -9.38384682924943e-8 
3.6800000000033415, -3.6035360700374603e-7 
3.6900000000033626, -7.666037190377085e-7 
3.7000000000033837, 4.7201126737636585e-7 
3.710000000003405, 4.777712241899599e-7 
3.720000000003426, -6.266305980775492e-7 
3.730000000003447, 2.290554809063604e-7 
3.740000000003468, 8.431096372639149e-7 
3.750000000003489, 0.0000011061344267362127 
3.7600000000035103, 3.0494714759365396e-7 
3.7700000000035314, 0.0000010425960363862828 
3.7800000000035525, 1.6304396768332432e-7 
3.7900000000035736, 2.3102928944540152e-7 
3.8000000000035947, 7.910453314332624e-8 
3.810000000003616, 3.4216241139068336e-7 
3.820000000003637, 0.0000013701858728340238 
3.830000000003658, 0.0000011756294491741985 
3.840000000003679, 6.56088627254823e-8 
3.8500000000037002, 9.728752548919897e-7 
3.8600000000037213, 6.767585352997167e-7 
3.8700000000037424, 2.8390521929665807e-7 
3.8800000000037635, -7.044138523907672e-7 
3.8900000000037847, 7.650909977255247e-8 
3.9000000000038058, 8.774657265147706e-7 
3.910000000003827, 6.275755937016995e-7 
3.920000000003848, 8.876453296417761e-7 
3.930000000003869, 4.185128941629871e-7 
3.94000000000389, 9.030198497919671e-7 
3.9500000000039113, 1.1805144497841215e-7 
3.9600000000039324, 6.949473130488263e-7 
3.9700000000039535, 1.5785380721514684e-7 
3.9800000000039746, 2.5292249995577432e-8 
3.9900000000039957, 5.161749679291726e-7 
4.000000000004016, 0.0000012297323910251435 
4.010000000003993, 4.00669860154356e-7 
4.02000000000397, 3.4057738022764394e-7 
4.030000000003946, 1.6602706221142355e-7 
4.040000000003923, 2.3100407160278484e-7 
4.0500000000039, 9.355383377832451e-7 
4.0600000000038765, 8.912639625972344e-7 
4.070000000003853, -2.0971561098159822e-7 
4.08000000000383, 1.8480928492954353e-7 
4.090000000003807, 1.1562889819681108e-7 
4.100000000003783, 4.987484021583666e-7 
4.11000000000376, -3.895523453179916e-7 
4.120000000003737, 7.926484066921971e-7 
4.130000000003713, -1.2735635851007034e-7 
4.14000000000369, 6.259231826170112e-8 
4.150000000003667, 2.0147876035473187e-7 
4.1600000000036434, 9.445989744465315e-7 
4.17000000000362, 0.0000011151497813305804 
4.180000000003597, 0.0000015551930712542263 
4.1900000000035735, 5.203318237540457e-7 
4.20000000000355, 1.605526367291774e-7 
4.210000000003527, 7.548098548588593e-7 
4.220000000003504, 6.747845577439962e-7 
4.23000000000348, 2.7754954097674235e-7 
4.240000000003457, 3.5063536810979755e-7 
4.250000000003434, -4.7685315214109446e-8 
4.26000000000341, 0.0000010253222915048378 
4.270000000003387, 3.777335167857974e-8 
4.280000000003364, -4.066922264891712e-7 
4.2900000000033405, 7.827214168120663e-7 
4.300000000003317, 1.867124684049365e-7 
4.310000000003294, 1.8019573146494513e-7 
4.320000000003271, 5.196689009038395e-7 
4.330000000003247, 2.414749816142054e-7 
4.340000000003224, -3.860261786951126e-7 
4.350000000003201, 4.870279076229687e-7 
4.360000000003177, 3.0578126441547745e-7 
4.370000000003154, -3.0978107238055897e-7 
4.380000000003131, 1.8651892464870843e-7 
4.390000000003107, 0.0000015889026931114535 
4.400000000003084, 3.455078996121151e-7 
4.410000000003061, 0.0000012738330240073587 
4.4200000000030375, 0.0000017110495739359032 
4.430000000003014, 0.0000016269761481647917 
4.440000000002991, 1.5263931899814017e-7 
4.450000000002968, 0.0000011974006378969406 
4.460000000002944, 3.3989359987289184e-7 
4.470000000002921, 3.354014499869814e-7 
4.480000000002898, -1.338123753563498e-7 
4.490000000002874, 8.625034135989515e-8 
4.500000000002851, 6.247058480307412e-7 
4.510000000002828, 9.62582577072269e-7 
4.520000000002804, 5.746786846297146e-7 
4.530000000002781, -7.542068770102825e-7 
4.540000000002758, 4.2830712217821286e-7 
4.5500000000027345, 1.128455207234071e-7 
4.560000000002711, 2.3989310457396043e-7 
4.570000000002688, -2.3610635015084228e-7 
4.580000000002665, 7.156195079302098e-7 
4.590000000002641, 8.8716469336822e-8 
4.600000000002618, 2.5748558061083465e-7 
4.610000000002595, 0.0000016785398025501111 
4.620000000002571, 2.2029762773800943e-7 
4.630000000002548, 4.63213709274012e-7 
4.640000000002525, 3.494121679753852e-7 
4.6500000000025015, 6.920355588303915e-7 
4.660000000002478, 0.0000012529970258082389 
4.670000000002455, 6.673477557814516e-7 
4.6800000000024315, 0.0000010461519734862897 
4.690000000002408, -3.4977556913719246e-7 
4.700000000002385, 5.428014599919638e-7 
4.710000000002362, 4.377642640828567e-7 
