t, s[1].omega / s[0].omega 
0, -3.4749946885228615 
0.009999999999999995, -3.474425439069537 
0.019999999999999934, -3.473799322452576 
0.029999999999999874, -3.4731897809195376 
0.04000000000000012, -3.472678301144115 
0.050000000000000405, -3.4722249689702513 
0.06000000000000069, -3.471743668828226 
0.07000000000000098, -3.4712086783277933 
0.08000000000000126, -3.470639109818405 
0.09000000000000155, -3.4700776472286696 
0.10000000000000184, -3.469557664124976 
0.11000000000000212, -3.4690623628595696 
0.12000000000000241, -3.4685471374008388 
0.130000000000002, -3.467990125800717 
0.1400000000000009, -3.4674122441284467 
0.1499999999999998, -3.4668745357908746 
0.1599999999999987, -3.466401831272242 
0.1699999999999976, -3.465939881149456 
0.1799999999999965, -3.4654322522289123 
0.1899999999999954, -3.464855607811528 
0.1999999999999943, -3.4642238111472876 
0.2099999999999932, -3.463620888122725 
0.2199999999999921, -3.463136929440593 
0.229999999999991, -3.4627130896037257 
0.2399999999999899, -3.462249180180281 
0.2499999999999888, -3.461716865769727 
0.2599999999999877, -3.4611321267828408 
0.2699999999999866, -3.4605421475974927 
0.2799999999999855, -3.4600057883027495 
0.2899999999999844, -3.4595199647772232 
0.2999999999999833, -3.45902603993555 
0.3099999999999822, -3.4584919614341887 
0.3199999999999811, -3.4579300981304186 
0.32999999999998, -3.457383820671815 
0.3399999999999789, -3.45688182949923 
0.3499999999999778, -3.4563989432829283 
0.35999999999997667, -3.455889542368541 
0.36999999999997557, -3.455326548012169 
0.37999999999997447, -3.4547195200230583 
0.38999999999997337, -3.4541419827676223 
0.39999999999997227, -3.453668991045773 
0.40999999999997117, -3.4532463545172893 
0.41999999999997006, -3.452782906383555 
0.42999999999996896, -3.452245811374296 
0.43999999999996786, -3.451642020394393 
0.44999999999996676, -3.4510220216681375 
0.45999999999996566, -3.4504747517264156 
0.46999999999996456, -3.450010348800261 
0.47999999999996346, -3.449545715048991 
0.48999999999996235, -3.4490327784123296 
0.49999999999996125, -3.4484771346614984 
0.5099999999999602, -3.447914405830302 
0.519999999999959, -3.447384864062381 
0.529999999999958, -3.446890043124852 
0.5399999999999568, -3.4463901201741067 
0.5499999999999557, -3.445851548443705 
0.5599999999999546, -3.445276268281303 
0.5699999999999535, -3.4447147161196874 
0.5799999999999524, -3.444223903314788 
0.5899999999999513, -3.4437761466047982 
0.5999999999999502, -3.443302223088394 
0.6099999999999491, -3.442763971443843 
0.619999999999948, -3.4421564177094317 
0.6299999999999469, -3.441526004585691 
0.6399999999999458, -3.4409796008476783 
0.6499999999999447, -3.4405400523035974 
0.6599999999999436, -3.4401053074739933 
0.6699999999999425, -3.4396111699909633 
0.6799999999999414, -3.439056217485633 
0.6899999999999403, -3.438471368399609 
0.6999999999999392, -3.437911413831651 
0.7099999999999381, -3.437408448443544 
0.719999999999937, -3.436925528790881 
0.7299999999999359, -3.4364138515028237 
0.7399999999999348, -3.4358639227242636 
0.7499999999999337, -3.435306533938687 
0.7599999999999326, -3.4347880243722777 
0.7699999999999315, -3.434310121986376 
0.7799999999999304, -3.433827931237719 
0.7899999999999293, -3.4333008343230396 
0.7999999999999282, -3.4327147269319043 
0.8099999999999271, -3.432103134909826 
0.819999999999926, -3.431562053958494 
0.8299999999999249, -3.431126353299068 
0.8399999999999238, -3.4307037398947804 
0.8499999999999227, -3.4302212189043813 
0.8599999999999216, -3.4296654315458897 
0.8699999999999205, -3.429057732084741 
0.8799999999999194, -3.4284633658901895 
0.8899999999999183, -3.427951743496107 
0.8999999999999172, -3.427492700390438 
0.9099999999999161, -3.4270118493375583 
0.919999999999915, -3.4264838966433517 
0.9299999999999139, -3.4259267630074155 
0.9399999999999128, -3.4253813345142654 
0.9499999999999117, -3.4248750614858343 
0.9599999999999106, -3.4243887894639604 
0.9699999999999095, -3.423880608631856 
0.9799999999999084, -3.423327232098038 
0.9899999999999073, -3.422744968410872 
0.9999999999999062, -3.4222007914998778 
1.0099999999999052, -3.4217387438782993 
1.019999999999904, -3.421303100082863 
1.029999999999903, -3.4208243449027584 
1.039999999999902, -3.4202746138513263 
1.0499999999999008, -3.419659652352037 
1.0599999999998997, -3.4190408798032372 
1.0699999999998986, -3.4185191870846587 
1.0799999999998975, -3.418085283808883 
1.0899999999998964, -3.4176392426649214 
1.0999999999998953, -3.4171344984963574 
1.1099999999998942, -3.4165783327354915 
1.119999999999893, -3.4160066520570505 
1.129999999999892, -3.4154684756201967 
1.1399999999998909, -3.4149768844662147 
1.1499999999998898, -3.4144899671880493 
1.1599999999998887, -3.413969017986651 
1.1699999999998876, -3.4134133053110234 
1.1799999999998865, -3.412862562988914 
1.1899999999998854, -3.4123630817720483 
1.1999999999998843, -3.4119011632045564 
1.2099999999998832, -3.4114234061616564 
1.219999999999882, -3.4108920034498453 
1.229999999999881, -3.4102977325976993 
1.2399999999998799, -3.40968223674109 
1.2499999999998788, -3.4091482133926645 
1.2599999999998777, -3.40872112802401 
1.2699999999998766, -3.4083011605485405 
1.2799999999998755, -3.4078195381452594 
1.2899999999998744, -3.4072685479774663 
1.2999999999998733, -3.4066736104321094 
1.3099999999998722, -3.406095914584614 
1.319999999999871, -3.40559046046167 
1.32999999999987, -3.4051259117699844 
1.3399999999998689, -3.4046387723137146 
1.3499999999998678, -3.404108775168499 
1.3599999999998666, -3.40355630740614 
1.3699999999998655, -3.4030234164344444 
1.3799999999998644, -3.402530741649497 
1.3899999999998633, -3.402051519026923 
1.3999999999998622, -3.401544118888316 
1.4099999999998611, -3.4009867668028826 
1.41999999999986, -3.400396801407804 
1.429999999999859, -3.3998485946991095 
1.4399999999998578, -3.3993953387009492 
1.4499999999998567, -3.3989751981510112 
1.4599999999998556, -3.3985102429913225 
1.4699999999998545, -3.397972790152804 
1.4799999999998534, -3.3973698379319615 
1.4899999999998523, -3.396755588411433 
1.4999999999998512, -3.3962230380514677 
1.5099999999998501, -3.3957769094475503 
1.519999999999849, -3.395328638327082 
1.529999999999848, -3.3948293179880458 
1.5399999999998468, -3.394283586653389 
1.5499999999998457, -3.3937250081760233 
1.5599999999998446, -3.393196367996796 
1.5699999999998435, -3.392707462786209 
1.5799999999998424, -3.392221481535409 
1.5899999999998413, -3.39170154629506 
1.5999999999998402, -3.391143767417398 
1.6099999999998391, -3.390588143775551 
1.619999999999838, -3.3900917578159584 
1.629999999999837, -3.389645266923607 
1.6399999999998358, -3.389186278528464 
1.6499999999998347, -3.3886713861912674 
1.6599999999998336, -3.388087843481666 
1.6699999999998325, -3.387465180691206 
1.6799999999998314, -3.3869004097886175 
1.6899999999998303, -3.3864528905361824 
1.6999999999998292, -3.38603957786344 
1.709999999999828, -3.3855767150352514 
1.719999999999827, -3.3850483538681404 
1.729999999999826, -3.3844750056741058 
1.7399999999998248, -3.3839050861358517 
1.7499999999998237, -3.3833895723019616 
1.7599999999998226, -3.3829170866740506 
1.7699999999998215, -3.3824327001657233 
1.7799999999998204, -3.3819089669449967 
1.7899999999998193, -3.3813593975946135 
1.7999999999998182, -3.3808274058493515 
1.809999999999817, -3.3803413309563433 
1.819999999999816, -3.37987550829414 
1.8299999999998149, -3.3793841778362705 
1.8399999999998138, -3.3788391047118145 
1.8499999999998127, -3.3782438303128908 
1.8599999999998116, -3.377661711718867 
1.8699999999998105, -3.3771810710312735 
1.8799999999998094, -3.3767732824313867 
1.8899999999998083, -3.376340957298617 
1.8999999999998072, -3.3758395624509183 
1.909999999999806, -3.375269668498312 
1.919999999999805, -3.374665657615064 
1.9299999999998039, -3.374103303160358 
1.9399999999998028, -3.373626033337932 
1.9499999999998017, -3.373176492890378 
1.9599999999998006, -3.372692354577868 
1.9699999999997995, -3.372163231931475 
1.9799999999997984, -3.371614460584125 
1.9899999999997973, -3.371086976174767 
1.9999999999997962, -3.370598102137442 
2.0099999999998173, -3.370120350674444 
2.0199999999998384, -3.3696140233952456 
2.0299999999998595, -3.369062039850911 
2.0399999999998806, -3.368488378649089 
2.0499999999999017, -3.3679634703014933 
2.059999999999923, -3.3675195860500446 
2.069999999999944, -3.3670936209081823 
2.079999999999965, -3.3666204611783654 
2.089999999999986, -3.366076296760679 
2.100000000000007, -3.3654693840477443 
2.1100000000000283, -3.3648616493380166 
2.1200000000000494, -3.36434917582172 
2.1300000000000705, -3.3639217834917785 
2.1400000000000916, -3.363484015179002 
2.1500000000001127, -3.362990191019418 
2.160000000000134, -3.3624465600988622 
2.170000000000155, -3.3618868671519353 
2.180000000000176, -3.3613571884585007 
2.190000000000197, -3.360872328134358 
2.2000000000002182, -3.3603951473529676 
2.2100000000002393, -3.359886437589899 
2.2200000000002604, -3.359340814915195 
2.2300000000002815, -3.358793301243616 
2.2400000000003026, -3.35829560397566 
2.2500000000003237, -3.3578450044084938 
2.260000000000345, -3.357387791411731 
2.270000000000366, -3.35688100515648 
2.280000000000387, -3.35630900442547 
2.290000000000408, -3.3556959552759382 
2.3000000000004293, -3.355133086716819 
2.3100000000004504, -3.3546873939640776 
2.3200000000004715, -3.3542847917534333 
2.3300000000004926, -3.3538364461802175 
2.3400000000005137, -3.3533199720330287 
2.3500000000005348, -3.3527508151246534 
2.360000000000556, -3.352174335823176 
2.370000000000577, -3.3516506687225034 
2.380000000000598, -3.3511832265774624 
2.390000000000619, -3.3507148860155254 
2.4000000000006403, -3.3502085220324993 
2.4100000000006614, -3.349669202483354 
2.4200000000006825, -3.349133638108255 
2.4300000000007036, -3.3486379326283013 
2.4400000000007247, -3.348172398235671 
2.450000000000746, -3.3476949212229625 
2.460000000000767, -3.3471719238315236 
2.470000000000788, -3.3465967984779814 
2.480000000000809, -3.346012849464896 
2.49000000000083, -3.3455089246468197 
2.5000000000008513, -3.34509460274683 
2.5100000000008724, -3.3446801404396505 
2.5200000000008935, -3.344204755389538 
2.5300000000009146, -3.3436573935946177 
2.5400000000009357, -3.3430587667520806 
2.550000000000957, -3.342474840093608 
2.560000000000978, -3.341977309705489 
2.570000000000999, -3.341537838070849 
2.58000000000102, -3.3410796455964595 
2.5900000000010412, -3.3405734727562892 
2.6000000000010624, -3.340032771582261 
2.6100000000010835, -3.339494893819727 
2.6200000000011046, -3.338993230122882 
2.6300000000011257, -3.338520239004352 
2.6400000000011468, -3.338036485351541 
2.650000000001168, -3.33751247037752 
2.660000000001189, -3.3369511417964377 
2.67000000000121, -3.3364026200450967 
2.680000000001231, -3.335928297630242 
2.6900000000012523, -3.3355060550483713 
2.7000000000012734, -3.335063859532118 
2.7100000000012945, -3.3345599459314434 
2.7200000000013156, -3.333985681659945 
2.7300000000013367, -3.333370937395716 
2.740000000001358, -3.3328061338343824 
2.750000000001379, -3.3323523627286327 
2.7600000000014, -3.331939022760179 
2.770000000001421, -3.3314848858735595 
2.780000000001442, -3.3309722524160486 
2.7900000000014633, -3.33042035056073 
2.8000000000014844, -3.3298710765621005 
2.8100000000015055, -3.3293652046675524 
2.8200000000015266, -3.3288952425871834 
2.8300000000015477, -3.328415720996355 
2.840000000001569, -3.3278985950528237 
2.85000000000159, -3.327352875272689 
2.860000000001611, -3.326824115438493 
2.870000000001632, -3.3263509955317665 
2.8800000000016532, -3.325908372332055 
2.8900000000016743, -3.325442982304151 
2.9000000000016954, -3.324921357965615 
2.9100000000017165, -3.32433729883853 
2.9200000000017377, -3.3237335980785003 
2.9300000000017588, -3.3232103092344945 
2.94000000000178, -3.3227944654755914 
2.950000000001801, -3.3223911549526037 
2.960000000001822, -3.3219307544645944 
2.970000000001843, -3.321403831586719 
2.9800000000018643, -3.3208323514317053 
2.9900000000018854, -3.3202681468669093 
3.0000000000019065, -3.3197650480744194 
3.0100000000019276, -3.319308322008579 
3.0200000000019487, -3.3188396677516017 
3.03000000000197, -3.3183311475994315 
3.040000000001991, -3.3177946334905144 
3.050000000002012, -3.3172696131440333 
3.060000000002033, -3.3167863315727133 
3.070000000002054, -3.3163274975114176 
3.0800000000020753, -3.315850701148573 
3.0900000000020964, -3.3153258771375063 
3.1000000000021175, -3.3147510655985015 
3.1100000000021386, -3.314176367236935 
3.1200000000021597, -3.313688677822712 
3.130000000002181, -3.3132842973387673 
3.140000000002202, -3.3128723379710343 
3.150000000002223, -3.312397743606598 
3.160000000002244, -3.311852403160599 
3.1700000000022652, -3.3112589866695834 
3.1800000000022863, -3.310683836808444 
3.1900000000023074, -3.310194086402968 
3.2000000000023285, -3.309758930910911 
3.2100000000023496, -3.3093044346816782 
3.2200000000023707, -3.308802982664197 
3.230000000002392, -3.308268067707143 
3.240000000002413, -3.3077365074661933 
3.250000000002434, -3.3072408590431914 
3.260000000002455, -3.306773643926622 
3.2700000000024763, -3.3062962662536206 
3.2800000000024974, -3.3057789143080156 
3.2900000000025185, -3.3052223192919734 
3.3000000000025396, -3.304673687210505 
3.3100000000025607, -3.304198500367672 
3.3200000000025818, -3.3037827607728523 
3.330000000002603, -3.3033532775593946 
3.340000000002624, -3.3028643327443774 
3.350000000002645, -3.3023048405053226 
3.360000000002666, -3.301697764986205 
3.3700000000026873, -3.301123759375219 
3.3800000000027084, -3.3006568428974816 
3.3900000000027295, -3.3002461252945414 
3.4000000000027506, -3.299805414801219 
3.4100000000027717, -3.2993080719627117 
3.420000000002793, -3.2987682537661676 
3.430000000002814, -3.2982233291709946 
3.440000000002835, -3.2977150331504923 
3.450000000002856, -3.2972461266174937 
3.460000000002877, -3.296776099500446 
3.4700000000028983, -3.296271519903171 
3.4800000000029194, -3.2957324458539525 
3.4900000000029405, -3.2951978362995504 
3.5000000000029616, -3.2947174002894593 
3.5100000000029827, -3.2942821072844772 
3.520000000003004, -3.2938369092700106 
3.530000000003025, -3.29334075895837 
3.540000000003046, -3.2927792516100056 
3.550000000003067, -3.2921750985693152 
3.5600000000030882, -3.291615015375605 
3.5700000000031094, -3.2911705390429242 
3.5800000000031305, -3.2907778925364637 
3.5900000000031516, -3.290346678828068 
3.6000000000031727, -3.2898502045841993 
3.6100000000031938, -3.2893008857822417 
3.620000000003215, -3.2887376338203724 
3.630000000003236, -3.288215906700928 
3.640000000003257, -3.28775030963068 
3.650000000003278, -3.2872936919920344 
3.6600000000032993, -3.2868044230505413 
3.6700000000033204, -3.2862792451376066 
3.6800000000033415, -3.2857489667843134 
3.6900000000033626, -3.2852555204366896 
3.7000000000033837, -3.2848013504734546 
3.710000000003405, -3.284346670327545 
3.720000000003426, -3.283852547438382 
3.730000000003447, -3.283301956339679 
3.740000000003468, -3.2827149118786183 
3.750000000003489, -3.282171664095609 
3.7600000000035103, -3.281736330202547 
3.7700000000035314, -3.2813479050907226 
3.7800000000035525, -3.280919800936053 
3.7900000000035736, -3.2804224075978397 
3.8000000000035947, -3.2798627264018227 
3.810000000003616, -3.279279393110252 
3.820000000003637, -3.2787433571437115 
3.830000000003658, -3.2782844694672746 
3.840000000003679, -3.2778464049171454 
3.8500000000037002, -3.277374721849516 
3.8600000000037213, -3.276861053211637 
3.8700000000037424, -3.2763299100081276 
3.8800000000037635, -3.2758206237246883 
3.8900000000037847, -3.2753495582284593 
3.9000000000038058, -3.2748907670952834 
3.910000000003827, -3.274405553613859 
3.920000000003848, -3.2738734252813964 
3.930000000003869, -3.2733083998142734 
3.94000000000389, -3.2727754779072713 
3.9500000000039113, -3.272332099921171 
3.9600000000039324, -3.271934012733385 
3.9700000000039535, -3.2715040027112465 
3.9800000000039746, -3.271007296570042 
3.9900000000039957, -3.2704424531452303 
4.000000000004016, -3.269843645337816 
4.010000000003993, -3.269293888463833 
4.02000000000397, -3.268842384664635 
4.030000000003946, -3.268426246313564 
4.040000000003923, -3.267974778363525 
4.0500000000039, -3.2674724568529476 
4.0600000000038765, -3.266938563746703 
4.070000000003853, -3.2664116880216802 
4.08000000000383, -3.2659232572727754 
4.090000000003807, -3.265462717002549 
4.100000000003783, -3.2649902184754764 
4.11000000000376, -3.264479001394976 
4.120000000003737, -3.263934800913249 
4.130000000003713, -3.263405174122768 
4.14000000000369, -3.262942637209485 
4.150000000003667, -3.262526321570814 
4.1600000000036434, -3.262092462122653 
4.17000000000362, -3.2616012821739013 
4.180000000003597, -3.2610420766601336 
4.1900000000035735, -3.260439805652242 
4.20000000000355, -3.259879372728823 
4.210000000003527, -3.2594307038578676 
4.220000000003504, -3.259035021983805 
4.23000000000348, -3.2586054915189857 
4.240000000003457, -3.2581162213554897 
4.250000000003434, -3.257580429003471 
4.26000000000341, -3.2570347399686055 
4.270000000003387, -3.2565251906443633 
4.280000000003364, -3.2560615336076117 
4.2900000000033405, -3.2556036159367814 
4.300000000003317, -3.255114184980246 
4.310000000003294, -3.2545891514617535 
4.320000000003271, -3.2540603855254338 
4.330000000003247, -3.2535753969182606 
4.340000000003224, -3.2531369516482904 
4.350000000003201, -3.2526987261565052 
4.360000000003177, -3.252218131996563 
4.370000000003154, -3.251676063955675 
4.380000000003131, -3.2510853920937577 
4.390000000003107, -3.2505193198212567 
4.400000000003084, -3.250062750917965 
4.410000000003061, -3.249677907897989 
4.4200000000030375, -3.249268752262787 
4.430000000003014, -3.24879517410362 
4.440000000002991, -3.248261431557242 
4.450000000002968, -3.247698259820057 
4.460000000002944, -3.2471620058373305 
4.470000000002921, -3.2466893428421892 
4.480000000002898, -3.246246191614099 
4.490000000002874, -3.2457803110217602 
4.500000000002851, -3.2452750960895544 
4.510000000002828, -3.2447492413211485 
4.520000000002804, -3.244243657783746 
4.530000000002781, -3.243780844454829 
4.540000000002758, -3.243336325296235 
4.5500000000027345, -3.2428684765348814 
4.560000000002711, -3.2423505626083546 
4.570000000002688, -3.2417831305094325 
4.580000000002665, -3.2412178879593263 
4.590000000002641, -3.2407411922834726 
4.600000000002618, -3.240350030292317 
4.610000000002595, -3.2399545229457574 
4.620000000002571, -3.2394987853164663 
4.630000000002548, -3.2389742565799238 
4.640000000002525, -3.2384006372011926 
4.6500000000025015, -3.237834671753936 
4.660000000002478, -3.237342358115516 
4.670000000002455, -3.236910493967502 
4.6800000000024315, -3.2364709350543905 
4.690000000002408, -3.2359890307822448 
4.700000000002385, -3.235471352091075 
4.710000000002362, -3.2349503361341396 
4.720000000002338, -3.2344612180303747 
4.730000000002315, -3.234005163997189 
4.740000000002292, -3.2335481247249973 
4.750000000002268, -3.2330559371060614 
4.760000000002245, -3.2325174191980572 
4.770000000002222, -3.2319608578527372 
4.7800000000021985, -3.231458697506496 
4.790000000002175, -3.2310427004221554 
4.800000000002152, -3.2306490259448744 
4.810000000002129, -3.230210918910857 
4.820000000002105, -3.2297042804092193 
4.830000000002082, -3.229134098417455 
4.840000000002059, -3.2285445462225675 
4.850000000002035, -3.228020544802228 
4.860000000002012, -3.227588941950237 
4.870000000001989, -3.2271766972787175 
4.880000000001965, -3.2267236930338674 
4.890000000001942, -3.226221924518621 
4.900000000001919, -3.225693838295988 
4.9100000000018955, -3.225178246529148 
4.920000000001872, -3.224701804146657 
4.930000000001849, -3.224248924211595 
4.940000000001826, -3.223780366244165 
4.950000000001802, -3.223272228718352 
4.960000000001779, -3.2227326174191058 
4.970000000001756, -3.222210829420304 
