t, s[1].omega / s[0].omega 
0, -1.3199973670879175 
0.009999999999999995, -1.3197177490179923 
0.019999999999999934, -1.3194074114081569 
0.029999999999999874, -1.3190711935429373 
0.04000000000000012, -1.318717211015688 
0.050000000000000405, -1.3183565850527246 
0.06000000000000069, -1.3180023726214745 
0.07000000000000098, -1.3176673775369776 
0.08000000000000126, -1.317361134361852 
0.09000000000000155, -1.3170871993252344 
0.10000000000000184, -1.3168421850370955 
0.11000000000000212, -1.3166171336357286 
0.12000000000000241, -1.3164003725093227 
0.130000000000002, -1.3161802591395317 
0.1400000000000009, -1.3159467420351052 
0.1499999999999998, -1.3156917068357519 
0.1599999999999987, -1.3154087400427423 
0.1699999999999976, -1.3150930376003354 
0.1799999999999965, -1.3147419811965966 
0.1899999999999954, -1.3143565887554325 
0.1999999999999943, -1.3139435653004778 
0.2099999999999932, -1.313516947850451 
0.2199999999999921, -1.313097613492483 
0.229999999999991, -1.3127090879677623 
0.2399999999999899, -1.312370101944892 
0.2499999999999888, -1.3120874621107463 
0.2599999999999877, -1.3118538728535545 
0.2699999999999866, -1.3116521377296857 
0.2799999999999855, -1.3114624664586343 
0.2899999999999844, -1.3112682758235685 
0.2999999999999833, -1.3110583960065416 
0.3099999999999822, -1.3108264901902482 
0.3199999999999811, -1.3105694786831428 
0.32999999999998, -1.3102862946753173 
0.3399999999999789, -1.309977585117728 
0.3499999999999778, -1.309646506718326 
0.35999999999997667, -1.309300392884445 
0.36999999999997557, -1.3089524472818173 
0.37999999999997447, -1.3086217622548484 
0.38999999999997337, -1.3083297300066419 
0.39999999999997227, -1.3080927104311955 
0.40999999999997117, -1.3079144144805066 
0.41999999999997006, -1.307783317232581 
0.42999999999996896, -1.3076772826326286 
0.43999999999996786, -1.3075720867057932 
0.44999999999996676, -1.3074484831191957 
0.45999999999996566, -1.3072950356837059 
0.46999999999996456, -1.3071073878920372 
0.47999999999996346, -1.3068860514102032 
0.48999999999996235, -1.306634368870511 
0.49999999999996125, -1.3063573747349326 
0.5099999999999602, -1.3060615955939063 
0.519999999999959, -1.305755442490541 
0.529999999999958, -1.3054495681077478 
0.5399999999999568, -1.3051563710636513 
0.5499999999999557, -1.3048880137900647 
0.5599999999999546, -1.3046531829811143 
0.5699999999999535, -1.30445401094267 
0.5799999999999524, -1.3042849628837185 
0.5899999999999513, -1.304134406185114 
0.5999999999999502, -1.3039879159562107 
0.6099999999999491, -1.3038316320155985 
0.619999999999948, -1.3036545053287905 
0.6299999999999469, -1.3034492281426302 
0.6399999999999458, -1.3032122503190764 
0.6499999999999447, -1.3029434048576252 
0.6599999999999436, -1.3026455197443783 
0.6699999999999425, -1.302324177152915 
0.6799999999999414, -1.301987557577355 
0.6899999999999403, -1.3016460894420416 
0.6999999999999392, -1.3013114936023267 
0.7099999999999381, -1.300994944347536 
0.719999999999937, -1.3007045867359133 
0.7299999999999359, -1.300443327881894 
0.7399999999999348, -1.3002080394625959 
0.7499999999999337, -1.2999906432736963 
0.7599999999999326, -1.2997804373382382 
0.7699999999999315, -1.2995664327508272 
0.7799999999999304, -1.2993388247681077 
0.7899999999999293, -1.299089510346219 
0.7999999999999282, -1.2988121139712854 
0.8099999999999271, -1.2985020932044509 
0.819999999999926, -1.2981573253439131 
0.8299999999999249, -1.2977792833999078 
0.8399999999999238, -1.2973745157835606 
0.8499999999999227, -1.2969556531132342 
0.8599999999999216, -1.2965407684393286 
0.8699999999999205, -1.296150110777037 
0.8799999999999194, -1.2958005181798495 
0.8899999999999183, -1.2954998127164754 
0.8999999999999172, -1.2952444066898074 
0.9099999999999161, -1.2950216173751186 
0.919999999999915, -1.2948149620722529 
0.9299999999999139, -1.2946091194529772 
0.9399999999999128, -1.2943924590718785 
0.9499999999999117, -1.2941571998621701 
0.9599999999999106, -1.293898402626005 
0.9699999999999095, -1.2936129572015742 
0.9799999999999084, -1.2932992607584388 
0.9899999999999073, -1.292957904099191 
0.9999999999999062, -1.2925933631833046 
1.0099999999999052, -1.2922161441126843 
1.019999999999904, -1.2918439143192595 
1.029999999999903, -1.2914994454180482 
1.039999999999902, -1.2912041431704235 
1.0499999999999008, -1.290969317170037 
1.0599999999998997, -1.2907906433089396 
1.0699999999998986, -1.2906500555334914 
1.0799999999998975, -1.2905236402645486 
1.0899999999998964, -1.2903899808264432 
1.0999999999998953, -1.2902346668450948 
1.1099999999998942, -1.2900505834755256 
1.119999999999893, -1.2898359647180835 
1.129999999999892, -1.2895922058821085 
1.1399999999998909, -1.2893224731497253 
1.1499999999998898, -1.289031350702453 
1.1599999999998887, -1.2887253405886985 
1.1699999999998876, -1.288413741500556 
1.1799999999998865, -1.2881090891048728 
1.1899999999998854, -1.2878261021515882 
1.1999999999998843, -1.2875784923883908 
1.2099999999998832, -1.287374406168807 
1.219999999999882, -1.2872128338344302 
1.229999999999881, -1.2870833133280306 
1.2399999999998799, -1.2869692069685323 
1.2499999999998788, -1.2868526010144212 
1.2599999999998777, -1.2867184184105602 
1.2699999999998766, -1.2865565078580696 
1.2799999999998755, -1.2863618518481297 
1.2899999999998744, -1.2861337128899195 
1.2999999999998733, -1.2858745344180962 
1.3099999999998722, -1.2855891048370354 
1.319999999999871, -1.2852841441666862 
1.32999999999987, -1.2849681684021947 
1.3399999999998689, -1.2846512471096327 
1.3499999999998678, -1.284344173941863 
1.3599999999998666, -1.2840567783932204 
1.3699999999998655, -1.2837956805477175 
1.3799999999998644, -1.2835624139701576 
1.3899999999998633, -1.2833529176202596 
1.3999999999998622, -1.2831586893187943 
1.4099999999998611, -1.2829689517565919 
1.41999999999986, -1.2827727994630964 
1.429999999999859, -1.2825606492927721 
1.4399999999998578, -1.28232493441249 
1.4499999999998567, -1.2820603722994197 
1.4599999999998556, -1.2817641837035019 
1.4699999999998545, -1.2814364792264603 
1.4799999999998534, -1.2810808090425774 
1.4899999999998523, -1.2807046490325416 
1.4999999999998512, -1.2803193933597201 
1.5099999999998501, -1.2799393182792154 
1.519999999999849, -1.2795791691643545 
1.529999999999848, -1.2792506834443245 
1.5399999999998468, -1.278959295572132 
1.5499999999998457, -1.2787026894062403 
1.5599999999998446, -1.2784720375773524 
1.5699999999998435, -1.2782551321398334 
1.5799999999998424, -1.2780396137141883 
1.5899999999998413, -1.2778149319763255 
1.5999999999998402, -1.2775728262011552 
1.6099999999998391, -1.2773069351096313 
1.619999999999838, -1.2770123144340617 
1.629999999999837, -1.276685455909253 
1.6399999999998358, -1.2763251509690654 
1.6499999999998347, -1.2759342349683354 
1.6599999999998336, -1.2755217161761778 
1.6699999999998325, -1.2751039964679405 
1.6799999999998314, -1.274703314037874 
1.6899999999998303, -1.274342271463401 
1.6999999999998292, -1.2740359601188724 
1.709999999999828, -1.2737860433250396 
1.719999999999827, -1.273580799013654 
1.729999999999826, -1.273400889737876 
1.7399999999998248, -1.273226678832119 
1.7499999999998237, -1.273043039109308 
1.7599999999998226, -1.2728405733905563 
1.7699999999998215, -1.2726145256399732 
1.7799999999998204, -1.2723630936908634 
1.7899999999998193, -1.2720862267173603 
1.7999999999998182, -1.2717853335197995 
1.809999999999817, -1.2714639507658083 
1.819999999999816, -1.2711291365473112 
1.8299999999998149, -1.2707928890277194 
1.8399999999998138, -1.2704722429676572 
1.8499999999998127, -1.2701864882275145 
1.8599999999998116, -1.2699512194681397 
1.8699999999998105, -1.2697716604227598 
1.8799999999998094, -1.2696395181158007 
1.8899999999998083, -1.2695358103792804 
1.8999999999998072, -1.26943782718576 
1.909999999999806, -1.2693259270473765 
1.919999999999805, -1.2691871465030613 
1.9299999999998039, -1.2690154201283366 
1.9399999999998028, -1.2688099134653401 
1.9499999999998017, -1.2685730484228903 
1.9599999999998006, -1.2683091225464964 
1.9699999999997995, -1.2680237706518809 
1.9799999999997984, -1.2677241118535352 
1.9899999999997973, -1.2674191660604763 
1.9999999999997962, -1.267119913509835 
2.0099999999998173, -1.2668383156468013 
2.0199999999998384, -1.2665850009487714 
2.0299999999998595, -1.2663662255419514 
2.0399999999998806, -1.2661815699154884 
2.0499999999999017, -1.2660237188096477 
2.059999999999923, -1.2658804733975866 
2.069999999999944, -1.265737894838166 
2.079999999999965, -1.2655831801449877 
2.089999999999986, -1.2654064642908187 
2.100000000000007, -1.2652014991997473 
2.1100000000000283, -1.2649655800032105 
2.1200000000000494, -1.2646991486909716 
2.1300000000000705, -1.2644053847412882 
2.1400000000000916, -1.2640899214430263 
2.1500000000001127, -1.2637606419624943 
2.160000000000134, -1.2634273254897734 
2.170000000000155, -1.2631008030356712 
2.180000000000176, -1.2627913874444527 
2.190000000000197, -1.262506755680233 
2.2000000000002182, -1.262250008240921 
2.2100000000002393, -1.2620188390476688 
2.2200000000002604, -1.2618062745106058 
2.2300000000002815, -1.261602566690995 
2.2400000000003026, -1.2613972800857443 
2.2500000000003237, -1.261180783500643 
2.260000000000345, -1.2609449499076606 
2.270000000000366, -1.260683354140539 
2.280000000000387, -1.2603914091058277 
2.290000000000408, -1.2600667736669664 
2.3000000000004293, -1.2597101411750444 
2.3100000000004504, -1.2593262446801987 
2.3200000000004715, -1.2589246165261847 
2.3300000000004926, -1.2585193934612222 
2.3400000000005137, -1.2581274736745678 
2.3500000000005348, -1.257764893599059 
2.360000000000556, -1.2574424194713376 
2.370000000000577, -1.257162359602345 
2.380000000000598, -1.2569183702684537 
2.390000000000619, -1.2566982928850163 
2.4000000000006403, -1.2564882228337448 
2.4100000000006614, -1.2562756977709648 
2.4200000000006825, -1.2560510524459456 
2.4300000000007036, -1.2558072801423803 
2.4400000000007247, -1.2555392778114094 
2.450000000000746, -1.2552432480407538 
2.460000000000767, -1.2549167460618054 
2.470000000000788, -1.2545596172973714 
2.480000000000809, -1.2541757849705708 
2.49000000000083, -1.2537753099841673 
2.5000000000008513, -1.2533753412088644 
2.5100000000008724, -1.252998082660046 
2.5200000000008935, -1.2526648767383137 
2.5300000000009146, -1.2523883572857888 
2.5400000000009357, -1.2521672568685305 
2.550000000000957, -1.251987474160533 
2.560000000000978, -1.2518284782170768 
2.570000000000999, -1.251670593401362 
2.58000000000102, -1.251499390694183 
2.5900000000010412, -1.2513064903192201 
2.6000000000010624, -1.2510882215850125 
2.6100000000010835, -1.2508438262171566 
2.6200000000011046, -1.2505742030044231 
2.6300000000011257, -1.2502815409145491 
2.6400000000011468, -1.2499698337477583 
2.650000000001168, -1.2496460333974364 
2.660000000001189, -1.249321239964226 
2.67000000000121, -1.249010829699684 
2.680000000001231, -1.2487322435788273 
2.6900000000012523, -1.2485000903738388 
2.7000000000012734, -1.2483203441141226 
2.7100000000012945, -1.248187053671678 
2.7200000000013156, -1.248083947937049 
2.7300000000013367, -1.2479900280899423 
2.740000000001358, -1.2478858101674608 
2.750000000001379, -1.2477573159676232 
2.7600000000014, -1.247597058228465 
2.770000000001421, -1.2474029700325902 
2.780000000001442, -1.2471766526645407 
2.7900000000014633, -1.2469219106111171 
2.8000000000014844, -1.2466439737712807 
2.8100000000015055, -1.2463493889351536 
2.8200000000015266, -1.246046294205671 
2.8300000000015477, -1.2457445882935736 
2.840000000001569, -1.2454553995857371 
2.85000000000159, -1.2451894408462463 
2.860000000001611, -1.2449544609804977 
2.870000000001632, -1.2447528103789032 
2.8800000000016532, -1.244580410532973 
2.8900000000016743, -1.2444277324124042 
2.9000000000016954, -1.244282251529159 
2.9100000000017165, -1.2441312109740248 
2.9200000000017377, -1.243963733632774 
2.9300000000017588, -1.2437719513139966 
2.94000000000178, -1.243551316629898 
2.950000000001801, -1.2433004447725373 
2.960000000001822, -1.2430207946055443 
2.970000000001843, -1.242716379283577 
2.9800000000018643, -1.2423935561339996 
2.9900000000018854, -1.2420607906753363 
3.0000000000019065, -1.2417281458874834 
3.0100000000019276, -1.241406208593533 
3.0200000000019487, -1.2411043598109006 
3.03000000000197, -1.2408287405459466 
3.040000000001991, -1.2405806962864965 
3.050000000002012, -1.240356470292737 
3.060000000002033, -1.240148312236352 
3.070000000002054, -1.2399464073801902 
3.0800000000020753, -1.2397407314936122 
3.0900000000020964, -1.239522250285197 
3.1000000000021175, -1.2392834290348704 
3.1100000000021386, -1.2390183805849113 
3.1200000000021597, -1.2387230422410938 
3.130000000002181, -1.2383956374791523 
3.140000000002202, -1.2380374623501982 
3.150000000002223, -1.237653789288733 
3.160000000002244, -1.2372544297489276 
3.1700000000022652, -1.2368533230911398 
3.1800000000022863, -1.236466605549168 
3.1900000000023074, -1.2361091704331457 
3.2000000000023285, -1.2357907083797524 
3.2100000000023496, -1.23551299458475 
3.2200000000023707, -1.2352698734854068 
3.230000000002392, -1.2350498732199726 
3.240000000002413, -1.2348398609223252 
3.250000000002434, -1.2346279202255335 
3.260000000002455, -1.234404617840323 
3.2700000000024763, -1.234162931305517 
3.2800000000024974, -1.2338975939352737 
3.2900000000025185, -1.2336045486556673 
3.3000000000025396, -1.233280965110267 
3.3100000000025607, -1.232926061579551 
3.3200000000025818, -1.23254272643404 
3.330000000002603, -1.2321394816408655 
3.340000000002624, -1.231731637988156 
3.350000000002645, -1.2313399827427198 
3.360000000002666, -1.2309859479297773 
3.3700000000026873, -1.2306844680198186 
3.3800000000027084, -1.2304382770872841 
3.3900000000027295, -1.2302373435893272 
3.4000000000027506, -1.2300636791864235 
3.4100000000027717, -1.229898108951502 
3.420000000002793, -1.2297252069504638 
3.430000000002814, -1.229534979711692 
3.440000000002835, -1.229322153743074 
3.450000000002856, -1.2290845991077142 
3.460000000002877, -1.228821990301502 
3.4700000000028983, -1.2285351971204839 
3.4800000000029194, -1.228226522252347 
3.4900000000029405, -1.2279006942701949 
3.5000000000029616, -1.2275662554713371 
3.5100000000029827, -1.2272365114597874 
3.520000000003004, -1.2269287372932598 
3.530000000003025, -1.2266605641424153 
3.540000000003046, -1.2264440745679863 
3.550000000003067, -1.2262804402454646 
3.5600000000030882, -1.226158610601162 
3.5700000000031094, -1.226059155238103 
3.5800000000031305, -1.2259608486212001 
3.5900000000031516, -1.2258463041253347 
3.6000000000031727, -1.225704556831619 
3.6100000000031938, -1.2255308186235383 
3.620000000003215, -1.225324810088639 
3.630000000003236, -1.2250889798204656 
3.640000000003257, -1.2248273168078514 
3.650000000003278, -1.2245449323613558 
3.6600000000032993, -1.224248273372841 
3.6700000000033204, -1.223945624876634 
3.6800000000033415, -1.2236473680037867 
3.6900000000033626, -1.2233653476193904 
3.7000000000033837, -1.2231109255811865 
3.710000000003405, -1.2228920298084347 
3.720000000003426, -1.2227104212769295 
3.730000000003447, -1.2225606613568643 
3.740000000003468, -1.2224314164842374 
3.750000000003489, -1.222308418492942 
3.7600000000035103, -1.2221776911546312 
3.7700000000035314, -1.2220279179839686 
3.7800000000035525, -1.2218515622042356 
3.7900000000035736, -1.2216449477368483 
3.8000000000035947, -1.2214077526326244 
3.810000000003616, -1.2211423429126727 
3.820000000003637, -1.220853229877878 
3.830000000003658, -1.2205467501173632 
3.840000000003679, -1.2202308759644025 
3.8500000000037002, -1.2199148969602442 
3.8600000000037213, -1.2196086471550145 
3.8700000000037424, -1.2193211015367906 
3.8800000000037635, -1.2190585598244779 
3.8900000000037847, -1.218823073065295 
3.9000000000038058, -1.2186118614371027 
3.910000000003827, -1.2184180289855655 
3.920000000003848, -1.2182322044677167 
3.930000000003869, -1.2180443626956967 
3.94000000000389, -1.21784522710696 
3.9500000000039113, -1.2176270785035286 
3.9600000000039324, -1.2173841367063272 
3.9700000000039535, -1.2171127859302 
3.9800000000039746, -1.2168118371547527 
3.9900000000039957, -1.2164828764015414 
4.000000000004016, -1.2161306076321914 
4.010000000003993, -1.215762981502068 
4.02000000000397, -1.215390816039234 
4.030000000003946, -1.2150266174276614 
4.040000000003923, -1.2146825085951378 
4.0500000000039, -1.2143676291834842 
4.0600000000038765, -1.214085895184814 
4.070000000003853, -1.213835140052486 
4.08000000000383, -1.213608074624214 
4.090000000003807, -1.213394519369327 
4.100000000003783, -1.213183769959755 
4.11000000000376, -1.2129661784094936 
4.120000000003737, -1.2127337216475405 
4.130000000003713, -1.2124798911677732 
4.14000000000369, -1.212199422982453 
4.150000000003667, -1.2118883095873865 
4.1600000000036434, -1.2115443653515825 
4.17000000000362, -1.211168400288071 
4.180000000003597, -1.2107657421308662 
4.1900000000035735, -1.2103474151550158 
4.20000000000355, -1.2099299133697614 
4.210000000003527, -1.2095326283008463 
4.220000000003504, -1.2091730212696659 
4.23000000000348, -1.2088612969277235 
4.240000000003457, -1.2085973265866385 
4.250000000003434, -1.2083715644406499 
4.26000000000341, -1.208169186259771 
4.270000000003387, -1.2079748764142864 
4.280000000003364, -1.2077760198052843 
4.2900000000033405, -1.2075636866472115 
4.300000000003317, -1.2073320945870978 
4.310000000003294, -1.2070775558034188 
4.320000000003271, -1.2067976439226047 
4.330000000003247, -1.2064909687475056 
4.340000000003224, -1.206157726655049 
4.350000000003201, -1.2058010169644626 
4.360000000003177, -1.205428585681157 
4.370000000003154, -1.205054075118668 
4.380000000003131, -1.2046962938592904 
4.390000000003107, -1.2043752858498047 
4.400000000003084, -1.2041058010523882 
4.410000000003061, -1.203891336150454 
4.4200000000030375, -1.2037225896970318 
4.430000000003014, -1.2035814292796825 
4.440000000002991, -1.2034476362725135 
4.450000000002968, -1.2033044877382113 
4.460000000002944, -1.2031411388109992 
4.470000000002921, -1.2029522382663063 
4.480000000002898, -1.202736286303971 
4.490000000002874, -1.202494002648765 
4.500000000002851, -1.2022273299071966 
4.510000000002828, -1.2019392261923976 
4.520000000002804, -1.2016341669139188 
4.530000000002781, -1.2013191086938995 
4.540000000002758, -1.2010044055956994 
4.5500000000027345, -1.2007038265417607 
4.560000000002711, -1.200432737191242 
4.570000000002688, -1.200204201773294 
4.580000000002665, -1.200024272897093 
4.590000000002641, -1.199888979435579 
4.600000000002618, -1.1997850048353569 
4.610000000002595, -1.199693806915811 
4.620000000002571, -1.199596899058502 
4.630000000002548, -1.1994798418868469 
4.640000000002525, -1.1993338570794363 
4.6500000000025015, -1.199155435089764 
4.660000000002478, -1.1989449630741844 
4.670000000002455, -1.1987052978824981 
4.6800000000024315, -1.198440801443273 
4.690000000002408, -1.1981569761803506 
4.700000000002385, -1.1978605783873513 
4.710000000002362, -1.1975599027888526 
4.720000000002338, -1.1972647864675872 
4.730000000002315, -1.1969858512966165 
4.740000000002292, -1.1967327599944826 
4.750000000002268, -1.196511852472261 
4.760000000002245, -1.1963241353702314 
4.770000000002222, -1.1961646591012307 
4.7800000000021985, -1.1960236397119688 
4.790000000002175, -1.1958887747340055 
4.800000000002152, -1.1957477597767452 
4.810000000002129, -1.1955902164310515 
4.820000000002105, -1.1954087412245635 
4.830000000002082, -1.1951991868865297 
4.840000000002059, -1.1949604576892132 
4.850000000002035, -1.1946941027051179 
4.860000000002012, -1.194403915147587 
4.870000000001989, -1.1940956353753733 
4.880000000001965, -1.193776720251822 
4.890000000001942, -1.1934560039630084 
4.900000000001919, -1.1931429991364937 
4.9100000000018955, -1.1928466701293146 
4.920000000001872, -1.1925738024232235 
4.930000000001849, -1.1923274690147196 
4.940000000001826, -1.1921062556215296 
