t, s[1].omega / s[0].omega 
0, -0.919997599939838 
0.009999999999999995, -0.9197491410574676 
0.019999999999999934, -0.9194845717232193 
0.029999999999999874, -0.9192057042011894 
0.04000000000000012, -0.9189153986417047 
0.050000000000000405, -0.9186173773060986 
0.06000000000000069, -0.9183160090579122 
0.07000000000000098, -0.9180160722668338 
0.08000000000000126, -0.9177224839237947 
0.09000000000000155, -0.9174399746039181 
0.10000000000000184, -0.9171727031762875 
0.11000000000000212, -0.9169238395931949 
0.12000000000000241, -0.9166951822547469 
0.130000000000002, -0.916486894972326 
0.1400000000000009, -0.9162974320768569 
0.1499999999999998, -0.9161236739375136 
0.1599999999999987, -0.9159612429006792 
0.1699999999999976, -0.9158049368367974 
0.1799999999999965, -0.9156492133454913 
0.1899999999999954, -0.9154886719642079 
0.1999999999999943, -0.9153184965551006 
0.2099999999999932, -0.9151348250307016 
0.2199999999999921, -0.9149350124623087 
0.229999999999991, -0.9147177589333715 
0.2399999999999899, -0.9144830943958487 
0.2499999999999888, -0.9142322454525316 
0.2599999999999877, -0.9139674377189652 
0.2699999999999866, -0.9136916957849396 
0.2799999999999855, -0.9134086851535284 
0.2899999999999844, -0.9131226044408903 
0.2999999999999833, -0.9128380962116817 
0.3099999999999822, -0.9125601159797407 
0.3199999999999811, -0.9122936932641613 
0.32999999999998, -0.9120435437901724 
0.3399999999999789, -0.9118135463967836 
0.3499999999999778, -0.9116061656539477 
0.35999999999997667, -0.911421952516517 
0.36999999999997557, -0.9112592631039442 
0.37999999999997447, -0.9111142925372306 
0.38999999999997337, -0.9109814449586959 
0.39999999999997227, -0.9108539824242605 
0.40999999999997117, -0.910724836466423 
0.41999999999997006, -0.910587434663659 
0.42999999999996896, -0.9104363927149934 
0.43999999999996786, -0.9102679544343211 
0.44999999999996676, -0.9100801276870822 
0.45999999999996566, -0.9098725472960589 
0.46999999999996456, -0.9096461650598014 
0.47999999999996346, -0.9094028950044628 
0.48999999999996235, -0.9091453239495039 
0.49999999999996125, -0.9088765501659702 
0.5099999999999602, -0.9086001584366384 
0.519999999999959, -0.9083202914854347 
0.529999999999958, -0.9080417387937668 
0.5399999999999568, -0.9077699360766381 
0.5499999999999557, -0.9075107613932756 
0.5599999999999546, -0.9072700442941622 
0.5699999999999535, -0.907052786149183 
0.5799999999999524, -0.9068622133220712 
0.5899999999999513, -0.906698905893706 
0.5999999999999502, -0.9065602975776199 
0.6099999999999491, -0.9064407781188001 
0.619999999999948, -0.9063324523009586 
0.6299999999999469, -0.906226385874384 
0.6399999999999458, -0.9061139974126293 
0.6499999999999447, -0.9059882179126403 
0.6599999999999436, -0.905844153702634 
0.6699999999999425, -0.9056791908971817 
0.6799999999999414, -0.9054926676730719 
0.6899999999999403, -0.9052853355648743 
0.6999999999999392, -0.9050588213989677 
0.7099999999999381, -0.9048152301755394 
0.719999999999937, -0.9045569489331291 
0.7299999999999359, -0.9042866520117245 
0.7399999999999348, -0.9040074705586092 
0.7499999999999337, -0.903723259389392 
0.7599999999999326, -0.9034388584618025 
0.7699999999999315, -0.9031602037070477 
0.7799999999999304, -0.9028941147481951 
0.7899999999999293, -0.9026476184524379 
0.7999999999999282, -0.9024267993594824 
0.8099999999999271, -0.9022353953073013 
0.819999999999926, -0.9020735853992108 
0.8299999999999249, -0.9019374878195432 
0.8399999999999238, -0.9018196814628441 
0.8499999999999227, -0.9017106452782556 
0.8599999999999216, -0.9016006089205044 
0.8699999999999205, -0.901481175286668 
0.8799999999999194, -0.9013462682277888 
0.8899999999999183, -0.9011923141122704 
0.8999999999999172, -0.9010178572587397 
0.9099999999999161, -0.9008229183302111 
0.919999999999915, -0.9006083581575772 
0.9299999999999139, -0.9003754002388156 
0.9399999999999128, -0.9001253688341941 
0.9499999999999117, -0.8998596440126952 
0.9599999999999106, -0.8995798123256039 
0.9699999999999095, -0.8992879795202455 
0.9799999999999084, -0.8989871870769489 
0.9899999999999073, -0.8986818234607951 
0.9999999999999062, -0.8983778500043966 
1.0099999999999052, -0.8980826097160094 
1.019999999999904, -0.8978040273011064 
1.029999999999903, -0.897549204923861 
1.039999999999902, -0.8973227446289194 
1.0499999999999008, -0.8971254105394169 
1.0599999999998997, -0.8969537394211125 
1.0699999999998986, -0.8968008262948063 
1.0799999999998975, -0.8966579617523978 
1.0899999999998964, -0.8965164465419182 
1.0999999999998953, -0.8963689591044176 
1.1099999999998942, -0.8962101902064086 
1.119999999999893, -0.8960368154404984 
1.129999999999892, -0.8958470664695131 
1.1399999999998909, -0.8956401722702626 
1.1499999999998898, -0.8954158576979869 
1.1599999999998887, -0.8951739936441943 
1.1699999999998876, -0.8949144323719859 
1.1799999999998865, -0.8946370361906762 
1.1899999999998854, -0.8943419009396972 
1.1999999999998843, -0.8940297651374352 
1.2099999999998832, -0.8937025592522609 
1.219999999999882, -0.8933639748494742 
1.229999999999881, -0.8930198336769669 
1.2399999999998799, -0.8926779692852083 
1.2499999999998788, -0.8923473921075203 
1.2599999999998777, -0.8920367581446641 
1.2699999999998766, -0.8917525355599747 
1.2799999999998755, -0.8914975355127568 
1.2899999999998744, -0.8912704034842411 
1.2999999999998733, -0.891066240370115 
1.3099999999998722, -0.890878009828459 
1.319999999999871, -0.8906981193484187 
1.32999999999987, -0.8905196480846083 
1.3399999999998689, -0.8903369882870142 
1.3499999999998678, -0.890145948118082 
1.3599999999998666, -0.8899435088669782 
1.3699999999998655, -0.8897274433724555 
1.3799999999998644, -0.8894959496738423 
1.3899999999998633, -0.8892473935172325 
1.3999999999998622, -0.8889802130185064 
1.4099999999998611, -0.888693018714753 
1.41999999999986, -0.8883849067303122 
1.429999999999859, -0.8880559701833827 
1.4399999999998578, -0.8877079272961247 
1.4499999999998567, -0.887344687905232 
1.4599999999998556, -0.8869725950648266 
1.4699999999998545, -0.8866000812746393 
1.4799999999998534, -0.8862366327825499 
1.4899999999998523, -0.8858912368305282 
1.4999999999998512, -0.8855707570669678 
1.5099999999998501, -0.8852787668515191 
1.519999999999849, -0.885015196550453 
1.529999999999848, -0.8847768160797624 
1.5399999999998468, -0.8845582699241223 
1.5499999999998457, -0.8843532544912636 
1.5599999999998446, -0.8841554938180082 
1.5699999999998435, -0.8839593420684576 
1.5799999999998424, -0.88376001176276 
1.5899999999998413, -0.8835535314630905 
1.5999999999998402, -0.8833365691652395 
1.6099999999998391, -0.8831062441243152 
1.619999999999838, -0.8828600193692022 
1.629999999999837, -0.8825957350969086 
1.6399999999998358, -0.8823118094000384 
1.6499999999998347, -0.8820075894923598 
1.6599999999998336, -0.8816837802433248 
1.6699999999998325, -0.8813428195802893 
1.6799999999998314, -0.880989041446999 
1.6899999999998303, -0.8806284966647538 
1.6999999999998292, -0.8802683945138824 
1.709999999999828, -0.8799162490042152 
1.719999999999827, -0.8795789100307664 
1.729999999999826, -0.8792616928424 
1.7399999999998248, -0.8789677852201747 
1.7499999999998237, -0.8786980311701431 
1.7599999999998226, -0.8784510912450134 
1.7699999999998215, -0.8782238906294582 
1.7799999999998204, -0.8780122112639093 
1.7899999999998193, -0.8778112780690875 
1.7999999999998182, -0.877616228417609 
1.809999999999817, -0.8774224176872641 
1.819999999999816, -0.8772255754789533 
1.8299999999998149, -0.8770218678075679 
1.8399999999998138, -0.8768079339758671 
1.8499999999998127, -0.8765809559747157 
1.8599999999998116, -0.8763387898963624 
1.8699999999998105, -0.8760801514214369 
1.8799999999998094, -0.8758048122187695 
1.8899999999998083, -0.8755137446017267 
1.8999999999998072, -0.8752091576350981 
1.909999999999806, -0.8748943967671574 
1.919999999999805, -0.874573715775736 
1.9299999999998039, -0.8742519560364235 
1.9399999999998028, -0.8739341750024426 
1.9499999999998017, -0.8736252583841619 
1.9599999999998006, -0.8733295414442752 
1.9699999999997995, -0.8730504637432102 
1.9799999999997984, -0.8727902884732256 
1.9899999999997973, -0.8725499230382526 
1.9999999999997962, -0.8723288708925475 
2.0099999999998173, -0.8721253224116747 
2.0199999999998384, -0.8719363628388435 
2.0299999999998595, -0.8717582529246755 
2.0399999999998806, -0.871586733851134 
2.0499999999999017, -0.871417322223001 
2.059999999999923, -0.8712455827525238 
2.069999999999944, -0.8710673823177618 
2.079999999999965, -0.8708791310939187 
2.089999999999986, -0.8706780053104263 
2.100000000000007, -0.8704621306614617 
2.1100000000000283, -0.8702306971458548 
2.1200000000000494, -0.8699839830369344 
2.1300000000000705, -0.8697232868347182 
2.1400000000000916, -0.8694507912833214 
2.1500000000001127, -0.8691693991197618 
2.160000000000134, -0.8688825773026719 
2.170000000000155, -0.8685942262460833 
2.180000000000176, -0.8683085627826893 
2.190000000000197, -0.868029982783664 
2.2000000000002182, -0.8677628619012616 
2.2100000000002393, -0.8675112659966059 
2.2200000000002604, -0.8672785746556959 
2.2300000000002815, -0.8670670618033155 
2.2400000000003026, -0.8668775108510592 
2.2500000000003237, -0.8667089532988687 
2.260000000000345, -0.8665586041313744 
2.270000000000366, -0.8664220317635823 
2.280000000000387, -0.866293557442009 
2.290000000000408, -0.8661668379097696 
2.3000000000004293, -0.866035548491857 
2.3100000000004504, -0.8658940548214937 
2.3200000000004715, -0.8657379514744281 
2.3300000000004926, -0.8655643698669755 
2.3400000000005137, -0.8653720187446338 
2.3500000000005348, -0.8651609977821323 
2.360000000000556, -0.8649324837541446 
2.370000000000577, -0.864688405406203 
2.380000000000598, -0.8644311989926751 
2.390000000000619, -0.8641636912456349 
2.4000000000006403, -0.8638891103363996 
2.4100000000006614, -0.8636111871594847 
2.4200000000006825, -0.8633342783922334 
2.4300000000007036, -0.8630634178224341 
2.4400000000007247, -0.8628041893496515 
2.450000000000746, -0.8625623293964184 
2.460000000000767, -0.8623430261664943 
2.470000000000788, -0.8621499924573239 
2.480000000000809, -0.8619845208044954 
2.49000000000083, -0.8618448239648133 
2.5000000000008513, -0.8617259497773352 
2.5100000000008724, -0.8616204038378221 
2.5200000000008935, -0.8615193606336131 
2.5300000000009146, -0.8614141126417506 
2.5400000000009357, -0.8612973250583632 
2.550000000000957, -0.8611637768764716 
2.560000000000978, -0.8610105025346888 
2.570000000000999, -0.8608364657840587 
2.58000000000102, -0.8606420014906631 
2.5900000000010412, -0.860428245303592 
2.6000000000010624, -0.8601966918122128 
2.6100000000010835, -0.8599489398234119 
2.6200000000011046, -0.859686629505072 
2.6300000000011257, -0.8594115506762579 
2.6400000000011468, -0.8591258889841749 
2.650000000001168, -0.8588325590633232 
2.660000000001189, -0.858535539059293 
2.67000000000121, -0.8582400710631412 
2.680000000001231, -0.857952551475119 
2.6900000000012523, -0.857679952539493 
2.7000000000012734, -0.8574287418840324 
2.7100000000012945, -0.8572035011966207 
2.7200000000013156, -0.8570056875367426 
2.7300000000013367, -0.8568330539361122 
2.740000000001358, -0.8566800308437716 
2.750000000001379, -0.8565389497778426 
2.7600000000014, -0.8564016263251781 
2.770000000001421, -0.856260737299805 
2.780000000001442, -0.8561106311729956 
2.7900000000014633, -0.8559475185378027 
2.8000000000014844, -0.8557692114185731 
2.8100000000015055, -0.8555746488514524 
2.8200000000015266, -0.8553634034028054 
2.8300000000015477, -0.8551352836314947 
2.840000000001569, -0.8548900820896671 
2.85000000000159, -0.8546274838111337 
2.860000000001611, -0.8543471402416957 
2.870000000001632, -0.8540489126471595 
2.8800000000016532, -0.8537332790615146 
2.8900000000016743, -0.8534018630304228 
2.9000000000016954, -0.8530579728802976 
2.9100000000017165, -0.8527069525600556 
2.9200000000017377, -0.8523560917375013 
2.9300000000017588, -0.8520139017754385 
2.94000000000178, -0.8516887810503648 
2.950000000001801, -0.8513874023990098 
2.960000000001822, -0.85111337198546 
2.970000000001843, -0.8508666533753736 
2.9800000000018643, -0.8506439219000403 
2.9900000000018854, -0.8504396163856173 
3.0000000000019065, -0.8502472280769128 
3.0100000000019276, -0.8500603978782275 
3.0200000000019487, -0.8498735920659405 
3.03000000000197, -0.8496823410808941 
3.040000000001991, -0.8494831583430995 
3.050000000002012, -0.8492732932424232 
3.060000000002033, -0.8490504506980227 
3.070000000002054, -0.8488125703613045 
3.0800000000020753, -0.848557725828859 
3.0900000000020964, -0.8482841825694749 
3.1000000000021175, -0.8479906335377884 
3.1100000000021386, -0.8476765992288449 
3.1200000000021597, -0.847342924714896 
3.130000000002181, -0.846992237787483 
3.140000000002202, -0.8466291822874051 
3.150000000002223, -0.8462602550763811 
3.160000000002244, -0.8458931787957498 
3.1700000000022652, -0.8455359057392249 
3.1800000000022863, -0.845195492560987 
3.1900000000023074, -0.8448771361692151 
3.2000000000023285, -0.8445835979273856 
3.2100000000023496, -0.8443151065340105 
3.2200000000023707, -0.8440696851104844 
3.230000000002392, -0.8438437477768085 
3.240000000002413, -0.8436327782308599 
3.250000000002434, -0.8434319317347961 
3.260000000002455, -0.8432364677074033 
3.2700000000024763, -0.8430419926176956 
3.2800000000024974, -0.8428445489680547 
3.2900000000025185, -0.8426406160850176 
3.3000000000025396, -0.8424270937656144 
3.3100000000025607, -0.8422013268067493 
3.3200000000025818, -0.8419612026741783 
3.330000000002603, -0.8417053205321432 
3.340000000002624, -0.8414331943781038 
3.350000000002645, -0.8411454277021619 
3.360000000002666, -0.8408437944567071 
3.3700000000026873, -0.8405311851969148 
3.3800000000027084, -0.8402114172039037 
3.3900000000027295, -0.839888942976072 
3.4000000000027506, -0.8395685070659319 
3.4100000000027717, -0.8392547957148844 
3.420000000002793, -0.8389521080832981 
3.430000000002814, -0.838664065090847 
3.440000000002835, -0.8383933683447167 
3.450000000002856, -0.8381416248087141 
3.460000000002877, -0.8379092549079481 
3.4700000000028983, -0.8376954958635088 
3.4800000000029194, -0.8374984976378 
3.4900000000029405, -0.8373154922896363 
3.5000000000029616, -0.8371430076434383 
3.5100000000029827, -0.8369770980666846 
3.520000000003004, -0.8368135767065132 
3.530000000003025, -0.8366482469623916 
3.540000000003046, -0.8364771376729188 
3.550000000003067, -0.8362967419623093 
3.5600000000030882, -0.8361042459880595 
3.5700000000031094, -0.8358977189475875 
3.5800000000031305, -0.835676229987772 
3.5900000000031516, -0.8354398681490978 
3.6000000000031727, -0.8351896665044197 
3.6100000000031938, -0.8349274599934573 
3.620000000003215, -0.8346557234629131 
3.630000000003236, -0.834377433431859 
3.640000000003257, -0.8340959762082383 
3.650000000003278, -0.8338150958857478 
3.6600000000032993, -0.8335388491993493 
3.6700000000033204, -0.833271518132964 
3.6800000000033415, -0.8330174305698337 
3.6900000000033626, -0.8327806568594905 
3.7000000000033837, -0.8325645850573492 
3.710000000003405, -0.8323714230143807 
3.720000000003426, -0.8322017186959947 
3.730000000003447, -0.8320540160864022 
3.740000000003468, -0.8319247610080636 
3.750000000003489, -0.8318085338984655 
3.7600000000035103, -0.8316986170625134 
3.7700000000035314, -0.8315878137825488 
3.7800000000035525, -0.8314693519393502 
3.7900000000035736, -0.8313376637289215 
3.8000000000035947, -0.8311888662676029 
3.810000000003616, -0.8310208700897992 
3.820000000003637, -0.8308331661156346 
3.830000000003658, -0.8306264271976733 
3.840000000003679, -0.8304020781634325 
3.8500000000037002, -0.8301619514852275 
3.8600000000037213, -0.8299080891133196 
3.8700000000037424, -0.8296427025921866 
3.8800000000037635, -0.8293682720313538 
3.8900000000037847, -0.8290877434398617 
3.9000000000038058, -0.8288047623481557 
3.910000000003827, -0.8285238533648132 
3.920000000003848, -0.8282504261627311 
3.930000000003869, -0.8279904800482367 
3.94000000000389, -0.8277499248118934 
3.9500000000039113, -0.8275335592331965 
3.9600000000039324, -0.8273439315627202 
3.9700000000039535, -0.8271804630537225 
3.9800000000039746, -0.8270392229567193 
3.9900000000039957, -0.8269135342452552 
4.000000000004016, -0.8267952434960048 
4.010000000003993, -0.8266762085626226 
4.02000000000397, -0.8265495153660615 
4.030000000003946, -0.8264101291934708 
4.040000000003923, -0.8262549620270127 
4.0500000000039, -0.8260825327552739 
4.0600000000038765, -0.8258924515389848 
4.070000000003853, -0.8256849117796945 
4.08000000000383, -0.8254602926928646 
4.090000000003807, -0.8252189106123957 
4.100000000003783, -0.8249609231418242 
4.11000000000376, -0.8246863810938313 
4.120000000003737, -0.8243954247099528 
4.130000000003713, -0.8240886175549604 
4.14000000000369, -0.8237673897677205 
4.150000000003667, -0.8234345135079186 
4.1600000000036434, -0.8230944637954994 
4.17000000000362, -0.8227534605538531 
4.180000000003597, -0.8224190020822961 
4.1900000000035735, -0.8220988395915929 
4.20000000000355, -0.8217995905334767 
4.210000000003527, -0.8215254211638726 
4.220000000003504, -0.8212772754729076 
4.23000000000348, -0.8210529171758978 
4.240000000003457, -0.8208477002129779 
4.250000000003434, -0.8206557091489592 
4.26000000000341, -0.8204708540945009 
4.270000000003387, -0.8202876393272047 
4.280000000003364, -0.8201015235246996 
4.2900000000033405, -0.8199089403751018 
4.300000000003317, -0.8197071123473512 
4.310000000003294, -0.8194937872838219 
4.320000000003271, -0.819266995277306 
4.330000000003247, -0.8190248905160104 
4.340000000003224, -0.8187657203770025 
4.350000000003201, -0.8184879486475527 
4.360000000003177, -0.8181905399336387 
4.370000000003154, -0.8178733759917144 
4.380000000003131, -0.8175377189911204 
4.390000000003107, -0.8171865781338925 
4.400000000003084, -0.8168248113413386 
4.410000000003061, -0.8164588395519387 
4.4200000000030375, -0.8160959696944501 
4.430000000003014, -0.8157434643383473 
4.440000000002991, -0.815407588279219 
4.450000000002968, -0.8150928607113951 
4.460000000002944, -0.8148016584221953 
4.470000000002921, -0.8145342000852185 
4.480000000002898, -0.814288842872638 
4.490000000002874, -0.8140625661711984 
4.500000000002851, -0.8138515067407421 
4.510000000002828, -0.8136514352930506 
4.520000000002804, -0.8134581102087513 
4.530000000002781, -0.8132674931604225 
4.540000000002758, -0.813075850675245 
4.5500000000027345, -0.8128797884320017 
4.560000000002711, -0.8126762705102466 
4.570000000002688, -0.8124626662770735 
4.580000000002665, -0.8122368466159934 
4.590000000002641, -0.8119973237109578 
4.600000000002618, -0.8117434025389365 
4.610000000002595, -0.8114752978612738 
4.620000000002571, -0.8111941753302968 
4.630000000002548, -0.8109020977737094 
4.640000000002525, -0.8106018864039944 
4.6500000000025015, -0.8102969274910181 
4.660000000002478, -0.8099909599261632 
4.670000000002455, -0.8096878695386085 
4.6800000000024315, -0.809391499812335 
4.690000000002408, -0.8091054747290276 
4.700000000002385, -0.8088330239143889 
4.710000000002362, -0.8085768044793011 
4.720000000002338, -0.8083387246653692 
4.730000000002315, -0.8081197855297623 
4.740000000002292, -0.807919962610737 
4.750000000002268, -0.807738147389801 
4.760000000002245, -0.8075721606897185 
4.770000000002222, -0.807418842123122 
4.7800000000021985, -0.8072742155009891 
4.790000000002175, -0.8071337293700556 
4.800000000002152, -0.8069925693034792 
4.810000000002129, -0.8068460275910609 
4.820000000002105, -0.8066898947013584 
4.830000000002082, -0.8065208132284798 
4.840000000002059, -0.8063365252649872 
4.850000000002035, -0.8061359623294188 
4.860000000002012, -0.8059191714959806 
4.870000000001989, -0.8056871219795015 
4.880000000001965, -0.8054414678204752 
4.890000000001942, -0.805184342257595 
4.900000000001919, -0.8049182342163992 
4.9100000000018955, -0.8046459624826078 
4.920000000001872, -0.8043707305806702 
