t, s[1].omega / s[0].omega 
0, -2.074996701480571 
0.009999999999999995, -2.074633237398021 
0.019999999999999934, -2.074207732255478 
0.029999999999999874, -2.07373697998832 
0.04000000000000012, -2.0732562645704578 
0.050000000000000405, -2.0728156024206994 
0.06000000000000069, -2.0724531814407734 
0.07000000000000098, -2.0721645095098533 
0.08000000000000126, -2.0719084089894806 
0.09000000000000155, -2.071641982086711 
0.10000000000000184, -2.0713409909098863 
0.11000000000000212, -2.0709984387772975 
0.12000000000000241, -2.0706200412168423 
0.130000000000002, -2.0702261457197992 
0.1400000000000009, -2.069853591143506 
0.1499999999999998, -2.0695412754218045 
0.1599999999999987, -2.069300295968074 
0.1699999999999976, -2.0691027730611595 
0.1799999999999965, -2.068904177577266 
0.1899999999999954, -2.0686686478721343 
0.1999999999999943, -2.0683760269293194 
0.2099999999999932, -2.068017852673889 
0.2199999999999921, -2.067594322696956 
0.229999999999991, -2.06711763793042 
0.2399999999999899, -2.0666200732611597 
0.2499999999999888, -2.066154716642774 
0.2599999999999877, -2.065770896883325 
0.2699999999999866, -2.065475133083261 
0.2799999999999855, -2.0652269916793937 
0.2899999999999844, -2.064976712571108 
0.2999999999999833, -2.0646939948040925 
0.3099999999999822, -2.0643690782908215 
0.3199999999999811, -2.0640057508565577 
0.32999999999998, -2.0636202625981452 
0.3399999999999789, -2.0632433801301304 
0.3499999999999778, -2.0629119892969396 
0.35999999999997667, -2.062644854199505 
0.36999999999997557, -2.062426097125541 
0.37999999999997447, -2.0622177587607355 
0.38999999999997337, -2.0619834133590054 
0.39999999999997227, -2.0616991616157296 
0.40999999999997117, -2.061352366539289 
0.41999999999997006, -2.0609387155636174 
0.42999999999996896, -2.0604647088795565 
0.43999999999996786, -2.0599565775315307 
0.44999999999996676, -2.0594663202147414 
0.45999999999996566, -2.059053663152901 
0.46999999999996456, -2.058741781344166 
0.47999999999996346, -2.0584970711479795 
0.48999999999996235, -2.0582634209905795 
0.49999999999996125, -2.0580016873550497 
0.5099999999999602, -2.057697122736397 
0.519999999999959, -2.0573508829430667 
0.529999999999958, -2.056975432625885 
0.5399999999999568, -2.0565957604594245 
0.5499999999999557, -2.0562459259270907 
0.5599999999999546, -2.055951298527444 
0.5699999999999535, -2.055708819222931 
0.5799999999999524, -2.055489162627727 
0.5899999999999513, -2.055256592397565 
0.5999999999999502, -2.054983669215857 
0.6099999999999491, -2.0546535865532727 
0.619999999999948, -2.0542576773025933 
0.6299999999999469, -2.0537963863249646 
0.6399999999999458, -2.053287452799035 
0.6499999999999447, -2.0527763413344267 
0.6599999999999436, -2.052328709689127 
0.6699999999999425, -2.0519882279094745 
0.6799999999999414, -2.0517374848281706 
0.6899999999999403, -2.0515180510582818 
0.6999999999999392, -2.051279477234214 
0.7099999999999381, -2.0509987312576747 
0.719999999999937, -2.050672942525589 
0.7299999999999359, -2.05031101163866 
0.7399999999999348, -2.049932537467393 
0.7499999999999337, -2.0495674886859283 
0.7599999999999326, -2.0492454314193687 
0.7699999999999315, -2.0489760208489605 
0.7799999999999304, -2.0487413272877686 
0.7899999999999293, -2.048508796833703 
0.7999999999999282, -2.0482481833156436 
0.8099999999999271, -2.047938457362981 
0.819999999999926, -2.047566831765045 
0.8299999999999249, -2.047128146484356 
0.8399999999999238, -2.0466307074066967 
0.8499999999999227, -2.046108418459897 
0.8599999999999216, -2.045624639102766 
0.8699999999999205, -2.0452419074071146 
0.8799999999999194, -2.044969470106934 
0.8899999999999183, -2.04475644002077 
0.8999999999999172, -2.044541097291938 
0.9099999999999161, -2.044287824538904 
0.919999999999915, -2.0439869714501167 
0.9299999999999139, -2.0436435384608536 
0.9399999999999128, -2.04327226989553 
0.9499999999999117, -2.0428979682408794 
0.9599999999999106, -2.0425509863879947 
0.9699999999999095, -2.0422517760494134 
0.9799999999999084, -2.0419963068588602 
0.9899999999999073, -2.041759125589433 
0.9999999999999062, -2.0415090660495427 
1.0099999999999052, -2.0412209428831796 
1.019999999999904, -2.040877846451621 
1.029999999999903, -2.0404698511791115 
1.039999999999902, -2.0399966580942506 
1.0499999999999008, -2.03947804196062 
1.0599999999998997, -2.0389655984313455 
1.0699999999998986, -2.0385311530627748 
1.0799999999998975, -2.0382162583218353 
1.0899999999998964, -2.0379934375589057 
1.0999999999998953, -2.0377963015445544 
1.1099999999998942, -2.037572892918626 
1.119999999999893, -2.037302074499717 
1.129999999999892, -2.0369832502691514 
1.1399999999998909, -2.0366266908468136 
1.1499999999998898, -2.0362516602135354 
1.1599999999998887, -2.035885807311964 
1.1699999999998876, -2.03555625382232 
1.1799999999998865, -2.0352734653430966 
1.1899999999998854, -2.035023836126126 
1.1999999999998843, -2.0347790916657136 
1.2099999999998832, -2.0345107921276884 
1.219999999999882, -2.0341976048265873 
1.229999999999881, -2.0338253871843053 
1.2399999999998799, -2.0333871401150403 
1.2499999999998788, -2.032889354000106 
1.2599999999998777, -2.032365421136869 
1.2699999999998766, -2.031881218959898 
1.2799999999998755, -2.0315041083956116 
1.2899999999998744, -2.031245718753225 
1.2999999999998733, -2.0310521613836117 
1.3099999999998722, -2.0308565999167207 
1.319999999999871, -2.0306202651856946 
1.32999999999987, -2.0303328151037423 
1.3399999999998689, -2.0299993968045578 
1.3499999999998678, -2.029634035465868 
1.3599999999998666, -2.029259292252981 
1.3699999999998655, -2.0289034760053797 
1.3799999999998644, -2.0285886695024504 
1.3899999999998633, -2.0283167007461214 
1.3999999999998622, -2.028068031477082 
1.4099999999998611, -2.027813957850377 
1.41999999999986, -2.027528765128993 
1.429999999999859, -2.0271939069316804 
1.4399999999998578, -2.0267973831666435 
1.4499999999998567, -2.026335670854774 
1.4599999999998556, -2.02582343617554 
1.4699999999998545, -2.025307282151572 
1.4799999999998534, -2.0248606531848883 
1.4899999999998523, -2.024536576577893 
1.4999999999998512, -2.0243183195771732 
1.5099999999998501, -2.02413854565446 
1.519999999999849, -2.0239374165741673 
1.529999999999848, -2.0236877017143784 
1.5399999999998468, -2.02338622544534 
1.5499999999998457, -2.0230417947230293 
1.5599999999998446, -2.022671200756242 
1.5699999999998435, -2.0222991459200075 
1.5799999999998424, -2.0219530858405634 
1.5899999999998413, -2.0216498172012933 
1.5999999999998402, -2.0213845754757265 
1.6099999999998391, -2.0211344255836696 
1.619999999999838, -2.020871258528367 
1.629999999999837, -2.020571646391142 
1.6399999999998358, -2.0202190537601306 
1.6499999999998347, -2.0198033684874956 
1.6599999999998336, -2.019324951701303 
1.6699999999998325, -2.018806799903678 
1.6799999999998314, -2.0183060994643878 
1.6899999999998303, -2.017897173657453 
1.6999999999998292, -2.0176151263070365 
1.709999999999828, -2.0174221278561366 
1.719999999999827, -2.017246786630495 
1.729999999999826, -2.0170378608076662 
1.7399999999998248, -2.016776583385559 
1.7499999999998237, -2.016464280913244 
1.7599999999998226, -2.016112138812208 
1.7699999999998215, -2.015738941436463 
1.7799999999998204, -2.015370576264348 
1.7899999999998193, -2.0150329341833255 
1.7999999999998182, -2.014738223845001 
1.809999999999817, -2.014477047600307 
1.819999999999816, -2.014224663224975 
1.8299999999998149, -2.0139538602387885 
1.8399999999998138, -2.013642960624946 
1.8499999999998127, -2.013276882793873 
1.8599999999998116, -2.012847203477066 
1.8699999999998105, -2.0123580381043062 
1.8799999999998094, -2.0118395576703696 
1.8899999999998083, -2.011355969068426 
1.8999999999998072, -2.0109783195256266 
1.909999999999806, -2.010725622138563 
1.919999999999805, -2.0105469266558122 
1.9299999999998039, -2.010371524039788 
1.9399999999998028, -2.010155432485231 
1.9499999999998017, -2.0098854484605564 
1.9599999999998006, -2.0095656002393834 
1.9699999999997995, -2.0092085901692283 
1.9799999999997984, -2.0088345297535084 
1.9899999999997973, -2.008469826648208 
1.9999999999997962, -2.008138764542698 
2.0099999999998173, -2.00785010658336 
2.0199999999998384, -2.00759146123784 
2.0299999999998595, -2.007337216129887 
2.0399999999998806, -2.0070609930502115 
2.0499999999999017, -2.006742336708984 
2.059999999999923, -2.0063671728694352 
2.069999999999944, -2.0059284287098182 
2.079999999999965, -2.005433197019707 
2.089999999999986, -2.0049167284624856 
2.100000000000007, -2.0044469746814335 
2.1100000000000283, -2.0040906937277407 
2.1200000000000494, -2.003855625169761 
2.1300000000000705, -2.0036840074150164 
2.1400000000000916, -2.0035071798002155 
2.1500000000001127, -2.0032860476900836 
2.160000000000134, -2.0030106205633538 
2.170000000000155, -2.002686385017287 
2.180000000000176, -2.002326893841382 
2.190000000000197, -2.0019529991203395 
2.2000000000002182, -2.001591249015659 
2.2100000000002393, -2.001264734603875 
2.2200000000002604, -2.000980078379979 
2.2300000000002815, -2.0007232254824894 
2.2400000000003026, -2.0004682185769562 
2.2500000000003237, -2.0001892596561768 
2.260000000000345, -1.999866621384011 
2.270000000000366, -1.9994868255936509 
2.280000000000387, -1.9990436201636594 
2.290000000000408, -1.998545776682752 
2.3000000000004293, -1.998031065792219 
2.3100000000004504, -1.9975687118437357 
2.3200000000004715, -1.99722254854201 
2.3300000000004926, -1.9969949030167473 
2.3400000000005137, -1.9968256555847734 
2.3500000000005348, -1.9966477350469394 
2.360000000000556, -1.9964243661268888 
2.370000000000577, -1.9961468689119237 
2.380000000000598, -1.9958212424516186 
2.390000000000619, -1.9954613054194568 
2.4000000000006403, -1.995088124202034 
2.4100000000006614, -1.9947282136726763 
2.4200000000006825, -1.9944041486512751 
2.4300000000007036, -1.9941217576861319 
2.4400000000007247, -1.9938664421301335 
2.450000000000746, -1.9936121938065194 
2.460000000000767, -1.993333456273692 
2.470000000000788, -1.9930107616395774 
2.480000000000809, -1.9926308246020792 
2.49000000000083, -1.992187559556352 
2.5000000000008513, -1.9916898495519966 
2.5100000000008724, -1.9911752990765443 
2.5200000000008935, -1.9907125360491382 
2.5300000000009146, -1.9903649532482839 
2.5400000000009357, -1.9901354424698152 
2.550000000000957, -1.9899649530024675 
2.560000000000978, -1.9897868818811304 
2.570000000000999, -1.9895642605537085 
2.58000000000102, -1.9892880396640589 
2.5900000000010412, -1.9889638984117586 
2.6000000000010624, -1.9886053608828038 
2.6100000000010835, -1.9882332074313425 
2.6200000000011046, -1.9878738329561751 
2.6300000000011257, -1.9875500737234286 
2.6400000000011468, -1.9872683224893308 
2.650000000001168, -1.987014472895757 
2.660000000001189, -1.9867626731745875 
2.67000000000121, -1.9864872395734463 
2.680000000001231, -1.9861685059738492 
2.6900000000012523, -1.9857929914079944 
2.7000000000012734, -1.9853541302775963 
2.7100000000012945, -1.9848593743236644 
2.7200000000013156, -1.984343543273783 
2.7300000000013367, -1.983872828498599 
2.740000000001358, -1.9835124919658682 
2.750000000001379, -1.983271748862633 
2.7600000000014, -1.9830961123246713 
2.770000000001421, -1.9829185405418528 
2.780000000001442, -1.9826994569998484 
2.7900000000014633, -1.9824277522755487 
2.8000000000014844, -1.9821079244572963 
2.8100000000015055, -1.9817526274597348 
2.8200000000015266, -1.981381834914933 
2.8300000000015477, -1.9810216857974479 
2.840000000001569, -1.9806960106832185 
2.85000000000159, -1.9804131421390576 
2.860000000001611, -1.980160562882196 
2.870000000001632, -1.97991283101587 
2.8800000000016532, -1.9796437748532436 
2.8900000000016743, -1.9793330601656431 
2.9000000000016954, -1.978966644775543 
2.9100000000017165, -1.9785369778663244 
2.9200000000017377, -1.9780488479598817 
2.9300000000017588, -1.9775319300224683 
2.94000000000178, -1.9770476453231691 
2.950000000001801, -1.976664040051056 
2.960000000001822, -1.976401783485216 
2.970000000001843, -1.9762154803251035 
2.9800000000018643, -1.9760378429906165 
2.9900000000018854, -1.97582448103678 
3.0000000000019065, -1.9755603211451742 
3.0100000000019276, -1.9752476473799483 
3.0200000000019487, -1.9748976092667256 
3.03000000000197, -1.9745287884612401 
3.040000000001991, -1.9741667436993329 
3.050000000002012, -1.9738368195669609 
3.060000000002033, -1.9735506729988592 
3.070000000002054, -1.9732986942080533 
3.0800000000020753, -1.9730563045342593 
3.0900000000020964, -1.9727965358975736 
3.1000000000021175, -1.9724978697371132 
3.1100000000021386, -1.9721453350741722 
3.1200000000021597, -1.9717301037887942 
3.130000000002181, -1.9712536131458112 
3.140000000002202, -1.9707386080172515 
3.150000000002223, -1.9702388344081403 
3.160000000002244, -1.9698236346727895 
3.1700000000022652, -1.9695285800975282 
3.1800000000022863, -1.96932332822847 
3.1900000000023074, -1.9691427418783156 
3.2000000000023285, -1.9689360723970335 
3.2100000000023496, -1.9686820574943724 
3.2200000000023707, -1.9683793900212314 
3.230000000002392, -1.9680369520773777 
3.240000000002413, -1.967671256385739 
3.250000000002434, -1.967306651166032 
3.260000000002455, -1.966970075455173 
3.2700000000024763, -1.966677805100959 
3.2800000000024974, -1.966424844207601 
3.2900000000025185, -1.9661883535450446 
3.3000000000025396, -1.9659403998505884 
3.3100000000025607, -1.9656576768719283 
3.3200000000025818, -1.965323831954588 
3.330000000002603, -1.964928637772325 
3.340000000002624, -1.9644701358477292 
3.350000000002645, -1.9639633354783843 
3.360000000002666, -1.9634514356929806 
3.3700000000026873, -1.963000890256404 
3.3800000000027084, -1.9626621435734044 
3.3900000000027295, -1.9624263865156315 
3.4000000000027506, -1.9622363558085625 
3.4100000000027717, -1.9620351733480248 
3.420000000002793, -1.9617930220236335 
3.430000000002814, -1.961503092451181 
3.440000000002835, -1.9611709801333592 
3.450000000002856, -1.9608103524766516 
3.460000000002877, -1.960443363795639 
3.4700000000028983, -1.960097907824347 
3.4800000000029194, -1.9597957737188534 
3.4900000000029405, -1.9595387649769496 
3.5000000000029616, -1.959307436182313 
3.5100000000029827, -1.9590730745822136 
3.520000000003004, -1.9588098799513858 
3.530000000003025, -1.9584994342978166 
3.540000000003046, -1.9581299748090708 
3.550000000003067, -1.9576966212419638 
3.5600000000030882, -1.9572070761084315 
3.5700000000031094, -1.9566922738919825 
3.5800000000031305, -1.9562100064059216 
3.5900000000031516, -1.9558205088905134 
3.6000000000031727, -1.9555405686520477 
3.6100000000031938, -1.955329918246667 
3.620000000003215, -1.9551294314572452 
3.630000000003236, -1.9548991200878034 
3.640000000003257, -1.9546241635946089 
3.650000000003278, -1.9543053868388198 
3.6600000000032993, -1.9539527147225335 
3.6700000000033204, -1.9535848569339567 
3.6800000000033415, -1.953229079477585 
3.6900000000033626, -1.9529125450370792 
3.7000000000033837, -1.9526462773714648 
3.710000000003405, -1.952417144153889 
3.720000000003426, -1.9521967095751411 
3.730000000003447, -1.9519559866526133 
3.740000000003468, -1.9516733986914812 
3.750000000003489, -1.9513351803275818 
3.7600000000035103, -1.9509341401483702 
3.7700000000035314, -1.9504721536540626 
3.7800000000035525, -1.9499682611939981 
3.7900000000035736, -1.9494667425821892 
3.8000000000035947, -1.9490281294340215 
3.810000000003616, -1.948692303024231 
3.820000000003637, -1.9484455834281296 
3.830000000003658, -1.9482358391751062 
3.840000000003679, -1.948014167896866 
3.8500000000037002, -1.9477551310447712 
3.8600000000037213, -1.9474526089860238 
3.8700000000037424, -1.9471116516526759 
3.8800000000037635, -1.9467462278889396 
3.8900000000037847, -1.9463805476321585 
3.9000000000038058, -1.9460451432439132 
3.910000000003827, -1.9457618592712556 
3.920000000003848, -1.9455283242919468 
3.930000000003869, -1.9453193565876798 
3.94000000000389, -1.9451026548570625 
3.9500000000039113, -1.9448518820050154 
3.9600000000039324, -1.9445500607267294 
3.9700000000039535, -1.9441878567256254 
3.9800000000039746, -1.9437631618241873 
3.9900000000039957, -1.9432855248458814 
4.000000000004016, -1.9427842512935647 
4.010000000003993, -1.9423102524985432 
4.02000000000397, -1.941915749521672 
4.030000000003946, -1.9416171592286875 
4.040000000003923, -1.9413825530290627 
4.0500000000039, -1.9411612598002481 
4.0600000000038765, -1.9409163875582547 
4.070000000003853, -1.9406321372687885 
4.08000000000383, -1.940307057782753 
4.090000000003807, -1.9399492309600084 
4.100000000003783, -1.9395771777070685 
4.11000000000376, -1.9392206017226745 
4.120000000003737, -1.9389108641560682 
4.130000000003713, -1.938661214170009 
4.14000000000369, -1.9384560112613602 
4.150000000003667, -1.9382617027964983 
4.1600000000036434, -1.938045476005025 
4.17000000000362, -1.9377847738568081 
4.180000000003597, -1.9374671445775202 
4.1900000000035735, -1.9370877320290973 
4.20000000000355, -1.9366498637361094 
4.210000000003527, -1.9361702437527915 
4.220000000003504, -1.9356848315073367 
4.23000000000348, -1.9352437480989995 
4.240000000003457, -1.9348854339462065 
4.250000000003434, -1.9346078830061821 
4.26000000000341, -1.934372425925158 
4.270000000003387, -1.934135233872937 
4.280000000003364, -1.9338689336230455 
4.2900000000033405, -1.9335632972907788 
4.300000000003317, -1.933219411691578 
4.310000000003294, -1.932848202864752 
4.320000000003271, -1.9324733186435903 
4.330000000003247, -1.932129626229985 
4.340000000003224, -1.93184731803349 
4.350000000003201, -1.931629601810253 
4.360000000003177, -1.9314490589127746 
4.370000000003154, -1.9312666551310034 
4.380000000003131, -1.9310507720123442 
4.390000000003107, -1.930782926431141 
4.400000000003084, -1.930455096073888 
4.410000000003061, -1.9300669195980427 
4.4200000000030375, -1.9296268280339892 
4.430000000003014, -1.929156773457493 
4.440000000002991, -1.928694892108949 
4.450000000002968, -1.9282854026351537 
4.460000000002944, -1.9279530851028723 
4.470000000002921, -1.927684915542891 
4.480000000002898, -1.9274425043784267 
4.490000000002874, -1.9271893999749825 
4.500000000002851, -1.9269045595339236 
4.510000000002828, -1.9265806119177697 
4.520000000002804, -1.9262200815267878 
4.530000000002781, -1.9258367863364967 
4.540000000002758, -1.925459895268886 
4.5500000000027345, -1.9251292417477448 
4.560000000002711, -1.9248730165036025 
4.570000000002688, -1.9246844771535792 
4.580000000002665, -1.9245260672486306 
4.590000000002641, -1.924354917883738 
4.600000000002618, -1.9241411974850855 
4.610000000002595, -1.923870427147159 
4.620000000002571, -1.9235388478149502 
4.630000000002548, -1.9231502955481559 
4.640000000002525, -1.9227172849776266 
4.6500000000025015, -1.92226454608508 
4.660000000002478, -1.9218287660503948 
4.670000000002455, -1.921446295301207 
4.6800000000024315, -1.921131327733595 
4.690000000002408, -1.9208658886592243 
4.700000000002385, -1.9206148709416855 
4.710000000002362, -1.9203477972185432 
4.720000000002338, -1.9200473214192662 
4.730000000002315, -1.919707182269836 
4.740000000002292, -1.9193305885273932 
4.750000000002268, -1.9189340635109056 
4.760000000002245, -1.9185524022473825 
4.770000000002222, -1.91823069929884 
4.7800000000021985, -1.9179958193752735 
4.790000000002175, -1.917832334544999 
4.800000000002152, -1.9176938278462898 
4.810000000002129, -1.9175341181824028 
4.820000000002105, -1.917325006577133 
4.830000000002082, -1.9170556670116432 
4.840000000002059, -1.9167262172807338 
4.850000000002035, -1.9163440356010693 
4.860000000002012, -1.9159243970281121 
4.870000000001989, -1.915492685040448 
4.880000000001965, -1.9150821493565597 
4.890000000001942, -1.9147216167389065 
4.900000000001919, -1.9144182477820937 
4.9100000000018955, -1.9141528310218796 
4.920000000001872, -1.913894143535704 
4.930000000001849, -1.9136158997490529 
4.940000000001826, -1.9133025422891532 
4.950000000001802, -1.912947708449611 
