t, s[1].omega / s[0].omega 
0, -0.769997665636191 
0.009999999999999995, -0.7697561659184806 
0.019999999999999934, -0.7694991779634592 
0.029999999999999874, -0.7692280788130785 
0.04000000000000012, -0.7689450371182052 
0.050000000000000405, -0.7686528756111887 
0.06000000000000069, -0.7683549315860599 
0.07000000000000098, -0.7680549451941551 
0.08000000000000126, -0.7677569876813751 
0.09000000000000155, -0.7674654174044888 
0.10000000000000184, -0.7671848298959001 
0.11000000000000212, -0.7669199568371927 
0.12000000000000241, -0.7666754712291436 
0.130000000000002, -0.7664556725612452 
0.1400000000000009, -0.766264053790888 
0.1499999999999998, -0.7661027866072716 
0.1599999999999987, -0.7659721970629491 
0.1699999999999976, -0.7658703349288368 
0.1799999999999965, -0.7657927609507671 
0.1899999999999954, -0.7657326749534501 
0.1999999999999943, -0.7656814650513507 
0.2099999999999932, -0.7656296579252583 
0.2199999999999921, -0.7655681062385524 
0.229999999999991, -0.7654891253972687 
0.2399999999999899, -0.7653872742190957 
0.2499999999999888, -0.7652595986571261 
0.2599999999999877, -0.7651053621527063 
0.2699999999999866, -0.7649254525998936 
0.2799999999999855, -0.7647217070537199 
0.2899999999999844, -0.7644963422929665 
0.2999999999999833, -0.7642515863585575 
0.3099999999999822, -0.7639895295990368 
0.3199999999999811, -0.7637121734549581 
0.32999999999998, -0.763421641979295 
0.3399999999999789, -0.7631205148628077 
0.3499999999999778, -0.762812223392283 
0.35999999999997667, -0.7625014131165833 
0.36999999999997557, -0.7621941255134606 
0.37999999999997447, -0.7618976153728522 
0.38999999999997337, -0.7616196529700845 
0.39999999999997227, -0.761367308265782 
0.40999999999997117, -0.7611454658330441 
0.41999999999997006, -0.7609555553115682 
0.42999999999996896, -0.7607950201736011 
0.43999999999996786, -0.760657790611167 
0.44999999999996676, -0.7605355925869939 
0.45999999999996566, -0.7604195848011028 
0.46999999999996456, -0.7603017659188306 
0.47999999999996346, -0.760175809476092 
0.48999999999996235, -0.7600372793278317 
0.49999999999996125, -0.7598833855688139 
0.5099999999999602, -0.759712505469628 
0.519999999999959, -0.759523656579698 
0.529999999999958, -0.759316036576696 
0.5399999999999568, -0.759088683598454 
0.5499999999999557, -0.7588402791656584 
0.5599999999999546, -0.7585691108945539 
0.5699999999999535, -0.7582732217525707 
0.5799999999999524, -0.7579507789205178 
0.5899999999999513, -0.7576006763537553 
0.5999999999999502, -0.7572233202712505 
0.6099999999999491, -0.7568214346347966 
0.619999999999948, -0.7564006068365714 
0.6299999999999469, -0.7559692618357958 
0.6399999999999458, -0.7555378879416456 
0.6499999999999447, -0.7551176212942081 
0.6599999999999436, -0.7547185793867277 
0.6699999999999425, -0.7543484385385667 
0.6799999999999414, -0.7540116202692504 
0.6899999999999403, -0.7537091897067956 
0.6999999999999392, -0.7534393316804364 
0.7099999999999381, -0.7531981498951719 
0.719999999999937, -0.7529805333532634 
0.7299999999999359, -0.7527809044197907 
0.7399999999999348, -0.7525937541784711 
0.7499999999999337, -0.7524139503842637 
0.7599999999999326, -0.7522368575019733 
0.7699999999999315, -0.7520583358587439 
0.7799999999999304, -0.751874692894045 
0.7899999999999293, -0.7516826498908306 
0.7999999999999282, -0.7514793665135003 
0.8099999999999271, -0.7512625357706055 
0.819999999999926, -0.7510305288567249 
0.8299999999999249, -0.7507825431789978 
0.8399999999999238, -0.7505187002068413 
0.8499999999999227, -0.7502400573563976 
0.8599999999999216, -0.7499485302227802 
0.8699999999999205, -0.7496467500233293 
0.8799999999999194, -0.7493378938349039 
0.8899999999999183, -0.7490255222120187 
0.8999999999999172, -0.7487134466602393 
0.9099999999999161, -0.7484056336507797 
0.919999999999915, -0.7481061356582839 
0.9299999999999139, -0.74781902646334 
0.9399999999999128, -0.7475483113948693 
0.9499999999999117, -0.7472977855469853 
0.9599999999999106, -0.7470708238154549 
0.9699999999999095, -0.7468701029279753 
0.9799999999999084, -0.7466972735781341 
0.9899999999999073, -0.7465526174820544 
0.9999999999999062, -0.7464347393927476 
1.0099999999999052, -0.7463403592220975 
1.019999999999904, -0.7462642830209723 
1.029999999999903, -0.7461996334050934 
1.039999999999902, -0.7461383902132644 
1.0499999999999008, -0.7460722142514913 
1.0599999999998997, -0.7459934132977332 
1.0699999999998986, -0.7458958159873891 
1.0799999999998975, -0.7457753171310977 
1.0899999999998964, -0.7456299709534001 
1.0999999999998953, -0.7454596777872007 
1.1099999999998942, -0.745265637154101 
1.119999999999893, -0.745049769247525 
1.129999999999892, -0.744814254230511 
1.1399999999998909, -0.7445612595694395 
1.1499999999998898, -0.7442928637575893 
1.1599999999998887, -0.7440111528698533 
1.1699999999998876, -0.7437184541595165 
1.1799999999998865, -0.7434176607914452 
1.1899999999998854, -0.7431125797173732 
1.1999999999998843, -0.742808196671189 
1.2099999999998832, -0.7425107108589326 
1.219999999999882, -0.7422271808530393 
1.229999999999881, -0.7419646895690971 
1.2399999999998799, -0.7417291073912013 
1.2499999999998788, -0.7415237651556508 
1.2599999999998777, -0.7413485093662039 
1.2699999999998766, -0.7411995509373628 
1.2799999999998755, -0.7410702123171945 
1.2899999999998744, -0.740952293650835 
1.2999999999998733, -0.7408375551368198 
1.3099999999998722, -0.7407188603677481 
1.319999999999871, -0.7405907594678129 
1.32999999999987, -0.7404495395458918 
1.3399999999998689, -0.7402929151990322 
1.3499999999998678, -0.7401195572411627 
1.3599999999998666, -0.7399286108964591 
1.3699999999998655, -0.7397192906301314 
1.3799999999998644, -0.7394905911756389 
1.3899999999998633, -0.7392411330829817 
1.3999999999998622, -0.7389691614855048 
1.4099999999998611, -0.738672726576695 
1.41999999999986, -0.7383500763119961 
1.429999999999859, -0.7380002653064944 
1.4399999999998578, -0.7376239123113564 
1.4499999999998567, -0.7372239292219502 
1.4599999999998556, -0.736805948848482 
1.4699999999998545, -0.7363781829768643 
1.4799999999998534, -0.7359506035601996 
1.4899999999998523, -0.7355336075989897 
1.4999999999998512, -0.7351365471998526 
1.5099999999998501, -0.7347665431237207 
1.519999999999849, -0.7344278477111967 
1.529999999999848, -0.734121796551598 
1.5399999999998468, -0.7338472127104889 
1.5499999999998457, -0.7336010554134342 
1.5599999999998446, -0.7333791192956287 
1.5699999999998435, -0.7331766477331791 
1.5799999999998424, -0.7329887894804459 
1.5899999999998413, -0.732810883464346 
1.5999999999998402, -0.7326385957125761 
1.6099999999998391, -0.7324679546842139 
1.619999999999838, -0.7322953387849491 
1.629999999999837, -0.732117465025817 
1.6399999999998358, -0.7319314127948242 
1.6499999999998347, -0.7317346944969041 
1.6599999999998336, -0.7315253610624143 
1.6699999999998325, -0.7313021134650401 
1.6799999999998314, -0.7310643882370116 
1.6899999999998303, -0.7308123948738793 
1.6999999999998292, -0.7305470980534015 
1.709999999999828, -0.7302701503284231 
1.719999999999827, -0.7299837902857548 
1.729999999999826, -0.7296907285985453 
1.7399999999998248, -0.7293940477627162 
1.7499999999998237, -0.7290971359681769 
1.7599999999998226, -0.7288036605920372 
1.7699999999998215, -0.7285175670070201 
1.7799999999998204, -0.7282430706309115 
1.7899999999998193, -0.7279845994373394 
1.7999999999998182, -0.7277466429559982 
1.809999999999817, -0.7275334731817538 
1.819999999999816, -0.7273487235141616 
1.8299999999998149, -0.7271948444291314 
1.8399999999998138, -0.7270724987445075 
1.8499999999998127, -0.7269800114167442 
1.8599999999998116, -0.7269130362791585 
1.8699999999998105, -0.7268646176917544 
1.8799999999998094, -0.7268257707199586 
1.8899999999998083, -0.7267865575090806 
1.8999999999998072, -0.7267374367417226 
1.909999999999806, -0.7266705139928031 
1.919999999999805, -0.7265803346747043 
1.9299999999998039, -0.7264640501129069 
1.9399999999998028, -0.7263210363287936 
1.9499999999998017, -0.7261522085421401 
1.9599999999998006, -0.7259592919853639 
1.9699999999997995, -0.725744225610902 
1.9799999999997984, -0.725508770669341 
1.9899999999997973, -0.7252543240264406 
1.9999999999997962, -0.724981907053716 
2.0099999999998173, -0.7246923008251039 
2.0199999999998384, -0.7243863075747919 
2.0299999999998595, -0.724065120585392 
2.0399999999998806, -0.7237307685074527 
2.0499999999999017, -0.7233865607310288 
2.059999999999923, -0.7230374049568099 
2.069999999999944, -0.7226898229575802 
2.079999999999965, -0.7223515013302111 
2.089999999999986, -0.7220303248747695 
2.100000000000007, -0.7217330492484524 
2.1100000000000283, -0.7214639899798723 
2.1200000000000494, -0.7212241885897956 
2.1300000000000705, -0.7210113636774326 
2.1400000000000916, -0.7208206267506051 
2.1500000000001127, -0.7206456390905011 
2.160000000000134, -0.720479781125262 
2.170000000000155, -0.7203170138802976 
2.180000000000176, -0.7201523145537708 
2.190000000000197, -0.7199817372523043 
2.2000000000002182, -0.7198022300531087 
2.2100000000002393, -0.7196113443754691 
2.2200000000002604, -0.7194069417240011 
2.2300000000002815, -0.7191869686506406 
2.2400000000003026, -0.7189493477597225 
2.2500000000003237, -0.7186920196050031 
2.260000000000345, -0.7184131562897976 
2.270000000000366, -0.7181115379784262 
2.280000000000387, -0.7177870304283043 
2.290000000000408, -0.717441036870118 
2.3000000000004293, -0.7170767583133142 
2.3100000000004504, -0.7166991264168219 
2.3200000000004715, -0.7163143812739501 
2.3300000000004926, -0.7159294015659871 
2.3400000000005137, -0.7155509767016515 
2.3500000000005348, -0.715185197622785 
2.360000000000556, -0.7148370609820885 
2.370000000000577, -0.7145102911578595 
2.380000000000598, -0.7142073295191426 
2.390000000000619, -0.7139294268654603 
2.4000000000006403, -0.7136767864173938 
2.4100000000006614, -0.7134487224319609 
2.4200000000006825, -0.7132438131447544 
2.4300000000007036, -0.7130600344913317 
2.4400000000007247, -0.7128948656500594 
2.450000000000746, -0.7127453623096728 
2.460000000000767, -0.712608200682244 
2.470000000000788, -0.712479704669525 
2.480000000000809, -0.7123558787000394 
2.49000000000083, -0.7122324767843089 
2.5000000000008513, -0.7121051397684166 
2.5100000000008724, -0.7119696211856976 
2.5200000000008935, -0.7118220925481828 
2.5300000000009146, -0.7116594763283438 
2.5400000000009357, -0.7114797204120348 
2.550000000000957, -0.7112819293752118 
2.560000000000978, -0.7110663152891625 
2.570000000000999, -0.7108340003024287 
2.58000000000102, -0.7105867546913419 
2.5900000000010412, -0.7103267633177172 
2.6000000000010624, -0.7100564866996575 
2.6100000000010835, -0.7097786427398302 
2.6200000000011046, -0.7094962993856389 
2.6300000000011257, -0.7092130414972786 
2.6400000000011468, -0.7089331522772141 
2.650000000001168, -0.708661725892392 
2.660000000001189, -0.7084046059286093 
2.67000000000121, -0.7081680384971266 
2.680000000001231, -0.7079579647422318 
2.6900000000012523, -0.7077789804453078 
2.7000000000012734, -0.707633158774823 
2.7100000000012945, -0.7075191053479509 
2.7200000000013156, -0.7074316714437584 
2.7300000000013367, -0.7073625816972682 
2.740000000001358, -0.7073018622291484 
2.750000000001379, -0.7072395902181878 
2.7600000000014, -0.7071673714411213 
2.770000000001421, -0.7070791507536522 
2.780000000001442, -0.7069713024577171 
2.7900000000014633, -0.7068422071458329 
2.8000000000014844, -0.706691599479677 
2.8100000000015055, -0.7065199117193822 
2.8200000000015266, -0.7063277338975219 
2.8300000000015477, -0.7061154278586944 
2.840000000001569, -0.7058828892465357 
2.85000000000159, -0.7056294429836752 
2.860000000001611, -0.705353870307533 
2.870000000001632, -0.7050545856505959 
2.8800000000016532, -0.704729995828852 
2.8900000000016743, -0.7043790649016108 
2.9000000000016954, -0.7040020566257827 
2.9100000000017165, -0.7036013253929612 
2.9200000000017377, -0.7031819057774658 
2.9300000000017588, -0.7027515915853854 
2.94000000000178, -0.7023202923583927 
2.950000000001801, -0.701898722161384 
2.960000000001822, -0.7014967808838756 
2.970000000001843, -0.7011221328346722 
2.9800000000018643, -0.7007793768681766 
2.9900000000018854, -0.7004699281564448 
3.0000000000019065, -0.7001924729468741 
3.0100000000019276, -0.6999437310359722 
3.0200000000019487, -0.6997192695212218 
3.03000000000197, -0.6995141941871748 
3.040000000001991, -0.6993236397701216 
3.050000000002012, -0.6991430536784675 
3.060000000002033, -0.6989683113854503 
3.070000000002054, -0.6987957205437433 
3.0800000000020753, -0.6986219729687383 
3.0900000000020964, -0.698444095324638 
3.1000000000021175, -0.6982594339762248 
3.1100000000021386, -0.6980656888528574 
3.1200000000021597, -0.6978609886095424 
3.130000000002181, -0.697643981644019 
3.140000000002202, -0.6974139123606452 
3.150000000002223, -0.6971706612769077 
3.160000000002244, -0.6969147432731162 
3.1700000000022652, -0.6966472694326385 
3.1800000000022863, -0.6963698813564452 
3.1900000000023074, -0.6960846685559597 
3.2000000000023285, -0.6957940843084456 
3.2100000000023496, -0.6955008796576659 
3.2200000000023707, -0.6952080721602316 
3.230000000002392, -0.6949189535661557 
3.240000000002413, -0.694637123117832 
3.250000000002434, -0.6943665163818549 
3.260000000002455, -0.694111387308497 
3.2700000000024763, -0.6938761954774898 
3.2800000000024974, -0.6936653533020398 
3.2900000000025185, -0.693482803077859 
3.3000000000025396, -0.6933314265965136 
3.3100000000025607, -0.6932123452006751 
3.3200000000025818, -0.6931242429941589 
3.330000000002603, -0.693062919996674 
3.340000000002624, -0.6930213096861211 
3.350000000002645, -0.6929901191585885 
3.360000000002666, -0.6929590488469939 
3.3700000000026873, -0.6929182934985825 
3.3800000000027084, -0.6928598704354735 
3.3900000000027295, -0.6927783868712136 
3.4000000000027506, -0.6926711131073545 
3.4100000000027717, -0.6925375043015608 
3.420000000002793, -0.6923784551173204 
3.430000000002814, -0.6921955507947152 
3.440000000002835, -0.6919904704674956 
3.450000000002856, -0.6917645913134596 
3.460000000002877, -0.6915187787203724 
3.4700000000028983, -0.691253329064397 
3.4800000000029194, -0.6909680408808572 
3.4900000000029405, -0.6906624094533729 
3.5000000000029616, -0.6903359553709 
3.5100000000029827, -0.6899886972282921 
3.520000000003004, -0.689621749689454 
3.530000000003025, -0.6892379614406525 
3.540000000003046, -0.688842411834398 
3.550000000003067, -0.6884425065947949 
3.5600000000030882, -0.6880474361372069 
3.5700000000031094, -0.6876669528973278 
3.5800000000031305, -0.6873097419263801 
3.5900000000031516, -0.686981912985764 
3.6000000000031727, -0.6866861316645637 
3.6100000000031938, -0.686421616333511 
3.620000000003215, -0.6861848554425204 
3.630000000003236, -0.6859706730905357 
3.640000000003257, -0.6857732666569362 
3.650000000003278, -0.6855869808740195 
3.6600000000032993, -0.6854067477714172 
3.6700000000033204, -0.6852282368259612 
3.6800000000033415, -0.6850478099226304 
3.6900000000033626, -0.6848623802781665 
3.7000000000033837, -0.6846692577939554 
3.710000000003405, -0.6844660415065198 
3.720000000003426, -0.6842505980713227 
3.730000000003447, -0.6840211410943413 
3.740000000003468, -0.6837763958330934 
3.750000000003489, -0.6835157998454975 
3.7600000000035103, -0.6832396659270054 
3.7700000000035314, -0.6829492376266957 
3.7800000000035525, -0.6826466066009799 
3.7900000000035736, -0.6823345171132325 
3.8000000000035947, -0.6820161229737658 
3.810000000003616, -0.6816947653387164 
3.820000000003637, -0.6813738134378141 
3.830000000003658, -0.6810565777024604 
3.840000000003679, -0.6807462825928909 
3.8500000000037002, -0.6804460767602987 
3.8600000000037213, -0.6801590556433126 
3.8700000000037424, -0.6798882717186552 
3.8800000000037635, -0.679636709061942 
3.8900000000037847, -0.6794072018272048 
3.9000000000038058, -0.6792022810677011 
3.910000000003827, -0.6790239415138114 
3.920000000003848, -0.6788733310142278 
3.930000000003869, -0.6787503833805555 
3.94000000000389, -0.6786534437723182 
3.9500000000039113, -0.6785789739594612 
3.9600000000039324, -0.6785214608439879 
3.9700000000039535, -0.6784736571201838 
3.9800000000039746, -0.6784272225660384 
3.9900000000039957, -0.6783736980603801 
4.000000000004016, -0.6783055828399822 
4.010000000003993, -0.678217200777242 
4.02000000000397, -0.6781051090921493 
4.030000000003946, -0.6779679925321601 
4.040000000003923, -0.6778061779788354 
4.0500000000039, -0.6776209936890558 
4.0600000000038765, -0.6774141699193625 
4.070000000003853, -0.6771873914114402 
4.08000000000383, -0.6769420311003167 
4.090000000003807, -0.6766790486678541 
4.100000000003783, -0.6763990256024643 
4.11000000000376, -0.6761023151684684 
4.120000000003737, -0.6757892958051288 
4.130000000003713, -0.6754607184155955 
4.14000000000369, -0.6751181236970563 
4.150000000003667, -0.6747642710412265 
4.1600000000036434, -0.674403469699768 
4.17000000000362, -0.6740416555380409 
4.180000000003597, -0.673686052647424 
4.1900000000035735, -0.6733443457796959 
4.20000000000355, -0.6730234790601057 
4.210000000003527, -0.6727284136505819 
4.220000000003504, -0.6724612723551731 
4.23000000000348, -0.6722211677748706 
4.240000000003457, -0.6720047144720552 
4.250000000003434, -0.6718069568303091 
4.26000000000341, -0.6716223538555782 
4.270000000003387, -0.6714455497819765 
4.280000000003364, -0.6712718203121033 
4.2900000000033405, -0.6710972183316056 
4.300000000003317, -0.6709185104289562 
4.310000000003294, -0.6707330071257805 
4.320000000003271, -0.6705383730327509 
4.330000000003247, -0.6703324802163692 
4.340000000003224, -0.6701133482803627 
4.350000000003201, -0.6698791966087377 
4.360000000003177, -0.669628610884715 
4.370000000003154, -0.669360792210502 
4.380000000003131, -0.6690758181569127 
4.390000000003107, -0.6687748205514463 
4.400000000003084, -0.6684599990222515 
4.410000000003061, -0.6681344479148281 
4.4200000000030375, -0.6678018491813982 
4.430000000003014, -0.667466130224615 
4.440000000002991, -0.6671311792782707 
4.450000000002968, -0.6668006664916646 
4.460000000002944, -0.6664779705788277 
4.470000000002921, -0.666166181798346 
4.480000000002898, -0.6658681441132687 
4.490000000002874, -0.6655865033951301 
4.500000000002851, -0.6653237358554214 
4.510000000002828, -0.6650821375358731 
4.520000000002804, -0.6648637609328728 
4.530000000002781, -0.6646702892369845 
4.540000000002758, -0.6645028435580532 
4.5500000000027345, -0.6643617263794834 
4.560000000002711, -0.6642461192105893 
4.570000000002688, -0.6641537777668985 
4.580000000002665, -0.6640808032675787 
4.590000000002641, -0.6640216013488651 
4.600000000002618, -0.6639691429323751 
4.610000000002595, -0.6639155815517555 
4.620000000002571, -0.6638531530733381 
4.630000000002548, -0.6637751384816859 
4.640000000002525, -0.6636766038587728 
4.6500000000025015, -0.6635547068800516 
4.660000000002478, -0.6634085383281041 
4.670000000002455, -0.6632386369974961 
4.6800000000024315, -0.6630463865814507 
4.690000000002408, -0.6628334691675991 
4.700000000002385, -0.6626014683753428 
4.710000000002362, -0.6623516428084321 
4.720000000002338, -0.6620848518134019 
4.730000000002315, -0.6618016069721628 
4.740000000002292, -0.6615022298891156 
4.750000000002268, -0.6611871057663901 
4.760000000002245, -0.6608570227801842 
4.770000000002222, -0.6605135723924859 
4.7800000000021985, -0.6601595521795482 
4.790000000002175, -0.6597992648112585 
4.800000000002152, -0.6594385634438413 
4.810000000002129, -0.6590844935132808 
4.820000000002105, -0.6587444694499446 
4.830000000002082, -0.6584251112578963 
4.840000000002059, -0.6581310714184342 
4.850000000002035, -0.6578642594440233 
4.860000000002012, -0.6576237276894561 
4.870000000001989, -0.6574061935161964 
4.880000000001965, -0.6572069287951726 
4.890000000001942, -0.6570206801077972 
4.900000000001919, -0.6568423766966475 
4.9100000000018955, -0.6566675348054485 
4.920000000001872, -0.6564923871101656 
