t, s[1].omega / s[0].omega 
0, -1.7499970244619536 
0.009999999999999995, -1.749675974499621 
0.019999999999999934, -1.7493113252928936 
0.029999999999999874, -1.748912652032202 
0.04000000000000012, -1.748497763236091 
0.050000000000000405, -1.7480919900397744 
0.06000000000000069, -1.7477215148105554 
0.07000000000000098, -1.7474014190054317 
0.08000000000000126, -1.7471271778640518 
0.09000000000000155, -1.7468783506613934 
0.10000000000000184, -1.7466307396441956 
0.11000000000000212, -1.746365742864603 
0.12000000000000241, -1.7460724438610515 
0.130000000000002, -1.7457461260161253 
0.1400000000000009, -1.7453879211856915 
0.1499999999999998, -1.745007630272418 
0.1599999999999987, -1.7446279682611068 
0.1699999999999976, -1.7442834427361664 
0.1799999999999965, -1.7440062485056356 
0.1899999999999954, -1.743804785965488 
0.1999999999999943, -1.7436559535067873 
0.2099999999999932, -1.743520331933201 
0.2199999999999921, -1.7433633554481471 
0.229999999999991, -1.7431652325358264 
0.2399999999999899, -1.7429195913284357 
0.2499999999999888, -1.7426286133636224 
0.2599999999999877, -1.742299693642686 
0.2699999999999866, -1.7419445566136076 
0.2799999999999855, -1.7415793733793936 
0.2899999999999844, -1.7412233232779717 
0.2999999999999833, -1.7408936702039868 
0.3099999999999822, -1.7405987101445728 
0.3199999999999811, -1.740333627201334 
0.32999999999998, -1.7400831323522907 
0.3399999999999789, -1.7398285752237825 
0.3499999999999778, -1.7395537439302344 
0.35999999999997667, -1.7392467307334996 
0.36999999999997557, -1.7388997243173296 
0.37999999999997447, -1.7385099326691236 
0.38999999999997337, -1.7380837144274426 
0.39999999999997227, -1.7376429644830402 
0.40999999999997117, -1.7372269837718748 
0.41999999999997006, -1.7368792978116776 
0.42999999999996896, -1.7366208637925393 
0.43999999999996786, -1.7364341069537677 
0.44999999999996676, -1.7362766693220781 
0.45999999999996566, -1.7361084078333142 
0.46999999999996456, -1.735906027817072 
0.47999999999996346, -1.7356620771542492 
0.48999999999996235, -1.735378639098995 
0.49999999999996125, -1.7350630072354405 
0.5099999999999602, -1.734726643059774 
0.519999999999959, -1.734385472144595 
0.529999999999958, -1.734058272879582 
0.5399999999999568, -1.7337610085482242 
0.5499999999999557, -1.7334994240469364 
0.5599999999999546, -1.733265868523904 
0.5699999999999535, -1.7330431558227724 
0.5799999999999524, -1.7328117656464486 
0.5899999999999513, -1.7325551132616066 
0.5999999999999502, -1.732261234102868 
0.6099999999999491, -1.7319226450599352 
0.619999999999948, -1.731536877852275 
0.6299999999999469, -1.7311091718803926 
0.6399999999999458, -1.7306567647581528 
0.6499999999999447, -1.7302107753606886 
0.6599999999999436, -1.7298088390165387 
0.6699999999999425, -1.7294767767409305 
0.6799999999999414, -1.7292124140963234 
0.6899999999999403, -1.7289886333142832 
0.6999999999999392, -1.7287720737306356 
0.7099999999999381, -1.7285383942360184 
0.719999999999937, -1.728275520980477 
0.7299999999999359, -1.7279803108630953 
0.7399999999999348, -1.7276555728848906 
0.7499999999999337, -1.7273100877577225 
0.7599999999999326, -1.7269605032516933 
0.7699999999999315, -1.7266309429524125 
0.7799999999999304, -1.726345455232862 
0.7899999999999293, -1.7261148351861 
0.7999999999999282, -1.7259288423349464 
0.8099999999999271, -1.7257618749403876 
0.819999999999926, -1.725585966159009 
0.8299999999999249, -1.7253801210775326 
0.8399999999999238, -1.7251326015269026 
0.8499999999999227, -1.724839322775266 
0.8599999999999216, -1.7245020600975056 
0.8699999999999205, -1.7241281598013565 
0.8799999999999194, -1.7237315006498193 
0.8899999999999183, -1.7233327600786854 
0.8999999999999172, -1.722955957812206 
0.9099999999999161, -1.7226199039796324 
0.919999999999915, -1.722328824815723 
0.9299999999999139, -1.7220703641928736 
0.9399999999999128, -1.7218232413585113 
0.9499999999999117, -1.7215671935091543 
0.9599999999999106, -1.721287923749347 
0.9699999999999095, -1.7209770882996316 
0.9799999999999084, -1.7206313503623476 
0.9899999999999073, -1.7202537406061917 
0.9999999999999062, -1.7198580238383996 
1.0099999999999052, -1.7194726465063304 
1.019999999999904, -1.7191358882813446 
1.029999999999903, -1.7188768152312786 
1.039999999999902, -1.7186943314617789 
1.0499999999999008, -1.7185567110783506 
1.0599999999998997, -1.7184223172580093 
1.0699999999998986, -1.7182596605730585 
1.0799999999998975, -1.7180534722624394 
1.0899999999998964, -1.7178009961505976 
1.0999999999998953, -1.7175067261145844 
1.1099999999998942, -1.7171795050301308 
1.119999999999893, -1.7168319945572406 
1.129999999999892, -1.716480590815901 
1.1399999999998909, -1.7161432700023862 
1.1499999999998898, -1.7158342535814626 
1.1599999999998887, -1.7155579187160062 
1.1699999999998876, -1.7153066476233416 
1.1799999999998865, -1.7150645662888262 
1.1899999999998854, -1.714813935162249 
1.1999999999998843, -1.7145396133591269 
1.2099999999998832, -1.7142302837114975 
1.219999999999882, -1.713878359361674 
1.229999999999881, -1.713481194838047 
1.2399999999998799, -1.7130451550352503 
1.2499999999998788, -1.7125914219481069 
1.2599999999998777, -1.7121575036086978 
1.2699999999998766, -1.7117854445351022 
1.2799999999998755, -1.7114977792933765 
1.2899999999998744, -1.7112819048338697 
1.2999999999998733, -1.7111005238225787 
1.3099999999998722, -1.710915803787816 
1.319999999999871, -1.7107040940082179 
1.32999999999987, -1.7104563111115165 
1.3399999999998689, -1.7101726408904576 
1.3499999999998678, -1.709858641669498 
1.3599999999998666, -1.709524479335758 
1.3699999999998655, -1.7091857036472138 
1.3799999999998644, -1.7088621865678195 
1.3899999999998633, -1.7085722671924841 
1.3999999999998622, -1.708323877226599 
1.4099999999998611, -1.7081097184771579 
1.41999999999986, -1.7079109851480734 
1.429999999999859, -1.707705841952049 
1.4399999999998578, -1.707476044901254 
1.4499999999998567, -1.707209245957301 
1.4599999999998556, -1.7068986638980637 
1.4699999999998545, -1.7065426702740898 
1.4799999999998534, -1.7061457908344717 
1.4899999999998523, -1.705721044668754 
1.4999999999998512, -1.7052914897554583 
1.5099999999998501, -1.7048868573376854 
1.519999999999849, -1.7045325623807606 
1.529999999999848, -1.7042362562003004 
1.5399999999998468, -1.7039839014402003 
1.5499999999998457, -1.7037496439139848 
1.5599999999998446, -1.7035093399269254 
1.5699999999998435, -1.7032472214638577 
1.5799999999998424, -1.7029555314520226 
1.5899999999998413, -1.7026323444174367 
1.5999999999998402, -1.7022813838343827 
1.6099999999998391, -1.7019146215548546 
1.619999999999838, -1.7015551017520547 
1.629999999999837, -1.701233858979568 
1.6399999999998358, -1.7009763241298246 
1.6499999999998347, -1.7007855559545881 
1.6599999999998336, -1.7006387469991224 
1.6699999999998325, -1.7005009254719805 
1.6799999999998314, -1.700341740932545 
1.6899999999998303, -1.7001432005908057 
1.6999999999998292, -1.6998987895812157 
1.709999999999828, -1.6996097512496404 
1.719999999999827, -1.6992824136111495 
1.729999999999826, -1.6989274556256793 
1.7399999999998248, -1.6985600754161723 
1.7499999999998237, -1.6981989384214882 
1.7599999999998226, -1.6978619822332335 
1.7699999999998215, -1.6975597007730194 
1.7799999999998204, -1.6972901763817343 
1.7899999999998193, -1.6970402289575606 
1.7999999999998182, -1.6967917944922957 
1.809999999999817, -1.6965282078557782 
1.819999999999816, -1.6962368586750056 
1.8299999999998149, -1.6959091251445475 
1.8399999999998138, -1.6955404767748363 
1.8499999999998127, -1.6951330678366134 
1.8599999999998116, -1.6947011620099146 
1.8699999999998105, -1.6942756121202869 
1.8799999999998094, -1.6938985561111668 
1.8899999999998083, -1.6936028817564903 
1.8999999999998072, -1.6933896657412166 
1.909999999999806, -1.6932274045760418 
1.919999999999805, -1.6930739258800873 
1.9299999999998039, -1.6928975507845507 
1.9399999999998028, -1.6926831846868815 
1.9499999999998017, -1.6924281244611776 
1.9599999999998006, -1.6921365579926229 
1.9699999999997995, -1.6918168121836612 
1.9799999999997984, -1.691481172278292 
1.9899999999997973, -1.6911460434114887 
1.9999999999997962, -1.690829554358394 
2.0099999999998173, -1.6905454667327802 
2.0199999999998384, -1.6902966178734407 
2.0299999999998595, -1.6900732949041515 
2.0399999999998806, -1.6898578644156514 
2.0499999999999017, -1.6896315322641928 
2.059999999999923, -1.6893788023946805 
2.069999999999944, -1.6890887336493041 
2.079999999999965, -1.6887547675640664 
2.089999999999986, -1.688375227998931 
2.100000000000007, -1.6879556013179922 
2.1100000000000283, -1.687511980065271 
2.1200000000000494, -1.6870724016589118 
2.1300000000000705, -1.6866707741253548 
2.1400000000000916, -1.686331869745399 
2.1500000000001127, -1.6860570288992398 
2.160000000000134, -1.6858245887118586 
2.170000000000155, -1.6856045351617457 
2.180000000000176, -1.6853726969289475 
2.190000000000197, -1.6851153883342653 
2.2000000000002182, -1.6848273632057396 
2.2100000000002393, -1.6845090795606836 
2.2200000000002604, -1.6841664017125164 
2.2300000000002815, -1.683812682480842 
2.2400000000003026, -1.6834702672038984 
2.2500000000003237, -1.6831661969441096 
2.260000000000345, -1.6829198575449655 
2.270000000000366, -1.6827303906627584 
2.280000000000387, -1.6825761274308129 
2.290000000000408, -1.682426578567807 
2.3000000000004293, -1.682255488600891 
2.3100000000004504, -1.682046675309055 
2.3200000000004715, -1.681793481502562 
2.3300000000004926, -1.6814961428851045 
2.3400000000005137, -1.6811599748537234 
2.3500000000005348, -1.6807950945428896 
2.360000000000556, -1.6804167887238441 
2.370000000000577, -1.680044525103532 
2.380000000000598, -1.6796976088793891 
2.390000000000619, -1.6793879448428928 
2.4000000000006403, -1.6791143741644845 
2.4100000000006614, -1.6788635775211975 
2.4200000000006825, -1.6786168912534039 
2.4300000000007036, -1.6783572070644468 
2.4400000000007247, -1.678071911997152 
2.450000000000746, -1.6777527169973978 
2.460000000000767, -1.6773953961250783 
2.470000000000788, -1.6770018310934713 
2.480000000000809, -1.676584867129866 
2.49000000000083, -1.6761728069691813 
2.5000000000008513, -1.6758055342103664 
2.5100000000008724, -1.6755162606490397 
2.5200000000008935, -1.6753092793996047 
2.5300000000009146, -1.6751563101333455 
2.5400000000009357, -1.6750157339063652 
2.550000000000957, -1.6748541309174736 
2.560000000000978, -1.6746542696005722 
2.570000000000999, -1.6744120358922512 
2.58000000000102, -1.674130889193259 
2.5900000000010412, -1.673818525368533 
2.6000000000010624, -1.6734861796677918 
2.6100000000010835, -1.6731488589798194 
2.6200000000011046, -1.672823941471681 
2.6300000000011257, -1.6725264799417683 
2.6400000000011468, -1.6722629100185533 
2.650000000001168, -1.6720278127745722 
2.660000000001189, -1.6718064688805068 
2.67000000000121, -1.6715808695695162 
2.680000000001231, -1.6713347928087636 
2.6900000000012523, -1.6710559101812155 
2.7000000000012734, -1.670735913043296 
2.7100000000012945, -1.6703707175423204 
2.7200000000013156, -1.6699622577105242 
2.7300000000013367, -1.6695219938082388 
2.740000000001358, -1.6690738982405926 
2.750000000001379, -1.6686518503510162 
2.7600000000014, -1.6682872409150078 
2.770000000001421, -1.6679919752756813 
2.780000000001442, -1.6677518077081739 
2.7900000000014633, -1.6675370529448876 
2.8000000000014844, -1.6673192682406701 
2.8100000000015055, -1.667080184575416 
2.8200000000015266, -1.666811552662189 
2.8300000000015477, -1.6665118714461826 
2.840000000001569, -1.666184583030746 
2.85000000000159, -1.6658389411265286 
2.860000000001611, -1.6654920783165608 
2.870000000001632, -1.6651683086466427 
2.8800000000016532, -1.6648914175015992 
2.8900000000016743, -1.6646718742088726 
2.9000000000016954, -1.6644993814309266 
2.9100000000017165, -1.664348266670369 
2.9200000000017377, -1.6641901865875077 
2.9300000000017588, -1.6640036902243502 
2.94000000000178, -1.6637768848052858 
2.950000000001801, -1.6635058825673394 
2.960000000001822, -1.6631926045296948 
2.970000000001843, -1.662843752970785 
2.9800000000018643, -1.6624710098348499 
2.9900000000018854, -1.662091202971569 
3.0000000000019065, -1.6617243502117582 
3.0100000000019276, -1.6613881640248547 
3.0200000000019487, -1.6610907747066233 
3.03000000000197, -1.660826844932462 
3.040000000001991, -1.6605806961560852 
3.050000000002012, -1.6603337125169724 
3.060000000002033, -1.66007014436708 
3.070000000002054, -1.659778834061198 
3.0800000000020753, -1.659452668518615 
3.0900000000020964, -1.6590886698860174 
3.1000000000021175, -1.6586906293847208 
3.1100000000021386, -1.65827412742378 
3.1200000000021597, -1.657869890577831 
3.130000000002181, -1.6575174015595722 
3.140000000002202, -1.6572452217587283 
3.150000000002223, -1.6570514137063832 
3.160000000002244, -1.656904486746273 
3.1700000000022652, -1.656763870860527 
3.1800000000022863, -1.656599074661473 
3.1900000000023074, -1.6563953256758368 
3.2000000000023285, -1.6561498372267056 
3.2100000000023496, -1.6558666017093824 
3.2200000000023707, -1.6555535161717274 
3.230000000002392, -1.6552219291590302 
3.240000000002413, -1.6548868664723837 
3.250000000002434, -1.6545654841256874 
3.260000000002455, -1.6542723074201067 
3.2700000000024763, -1.6540131299246206 
3.2800000000024974, -1.6537820989314 
3.2900000000025185, -1.65356442008047 
3.3000000000025396, -1.6533422579730626 
3.3100000000025607, -1.6530996321894817 
3.3200000000025818, -1.6528244453051453 
3.330000000002603, -1.6525086117233563 
3.340000000002624, -1.65214821801816 
3.350000000002645, -1.651745106576644 
3.360000000002666, -1.651310008225376 
3.3700000000026873, -1.6508652780387816 
3.3800000000027084, -1.6504428099371118 
3.3900000000027295, -1.650073209129562 
3.4000000000027506, -1.6497700964439652 
3.4100000000027717, -1.6495225598082732 
3.420000000002793, -1.6493034904831254 
3.430000000002814, -1.6490850422829948 
3.440000000002835, -1.6488481392325796 
3.450000000002856, -1.6485833046783214 
3.460000000002877, -1.6482878113231152 
3.4700000000028983, -1.6479637609015676 
3.4800000000029194, -1.647618718656458 
3.4900000000029405, -1.6472680007694254 
3.5000000000029616, -1.6469351895321602 
3.5100000000029827, -1.6466461541269635 
3.520000000003004, -1.646416352263202 
3.530000000003025, -1.6462405320229334 
3.540000000003046, -1.6460949304668577 
3.550000000003067, -1.6459496861212375 
3.5600000000030882, -1.6457804327089272 
3.5700000000031094, -1.6455728044318332 
3.5800000000031305, -1.6453214312632678 
3.5900000000031516, -1.6450273599017522 
3.6000000000031727, -1.644696342785171 
3.6100000000031938, -1.6443385094060392 
3.620000000003215, -1.643968558412358 
3.630000000003236, -1.64360470678747 
3.640000000003257, -1.6432647530467144 
3.650000000003278, -1.6429597524586619 
3.6600000000032993, -1.642689054512448 
3.6700000000033204, -1.6424408476836974 
3.6800000000033415, -1.6421978739460812 
3.6900000000033626, -1.6419436129888916 
3.7000000000033837, -1.6416652744011053 
3.710000000003405, -1.6413539063310219 
3.720000000003426, -1.6410040711316882 
3.730000000003447, -1.640615305464726 
3.740000000003468, -1.6401962472600293 
3.750000000003489, -1.639769623375728 
3.7600000000035103, -1.6393719663297748 
3.7700000000035314, -1.6390408122054154 
3.7800000000035525, -1.6387929085660353 
3.7900000000035736, -1.638612475715859 
3.8000000000035947, -1.6384623647600545 
3.810000000003616, -1.638305847909272 
3.820000000003637, -1.63811978455218 
3.830000000003658, -1.6378951771901964 
3.840000000003679, -1.637632243576272 
3.8500000000037002, -1.6373362356440768 
3.8600000000037213, -1.6370159113818148 
3.8700000000037424, -1.6366838424909567 
3.8800000000037635, -1.6363563917238797 
3.8900000000037847, -1.6360508969719643 
3.9000000000038058, -1.635779598526878 
3.910000000003827, -1.635543786855529 
3.920000000003848, -1.635332935757729 
3.930000000003869, -1.635129445063333 
3.94000000000389, -1.6349150003148096 
3.9500000000039113, -1.6346746909810133 
3.9600000000039324, -1.6343982072172683 
3.9700000000039535, -1.6340796564325655 
3.9800000000039746, -1.6337177442873991 
3.9900000000039957, -1.633317218608466 
4.000000000004016, -1.6328912100256527 
4.010000000003993, -1.6324623789097923 
4.02000000000397, -1.6320593160844865 
4.030000000003946, -1.6317062950306607 
4.040000000003923, -1.6314112023872471 
4.0500000000039, -1.631161778495447 
4.0600000000038765, -1.6309339406624825 
4.070000000003853, -1.630704041394388 
4.08000000000383, -1.6304557170611118 
4.090000000003807, -1.6301802043543472 
4.100000000003783, -1.6298742276947151 
4.11000000000376, -1.62953903035136 
4.120000000003737, -1.629181873537276 
4.130000000003713, -1.6288190786329868 
4.14000000000369, -1.6284768440571011 
4.150000000003667, -1.628184397653341 
4.1600000000036434, -1.6279591840093524 
4.17000000000362, -1.6277948645075675 
4.180000000003597, -1.6276641596195305 
4.1900000000035735, -1.6275336660282576 
4.20000000000355, -1.6273772671082138 
4.210000000003527, -1.6271807876355926 
4.220000000003504, -1.6269401435347497 
4.23000000000348, -1.6266578476008053 
4.240000000003457, -1.6263406835352314 
4.250000000003434, -1.625999028634208 
4.26000000000341, -1.6256468701900644 
4.270000000003387, -1.6253008064299155 
4.280000000003364, -1.624976601560776 
4.2900000000033405, -1.624683839740283 
4.300000000003317, -1.624421827605826 
4.310000000003294, -1.624179994127127 
4.320000000003271, -1.6239425216535133 
4.330000000003247, -1.6236936003239513 
4.340000000003224, -1.6234202864023026 
4.350000000003201, -1.6231129331581187 
4.360000000003177, -1.6227650672158416 
4.370000000003154, -1.6223746310321931 
4.380000000003131, -1.6219475415793192 
4.390000000003107, -1.621502466728192 
4.400000000003084, -1.6210721881498764 
4.410000000003061, -1.6206948189502732 
4.4200000000030375, -1.6203947600836852 
4.430000000003014, -1.6201674948775242 
4.440000000002991, -1.6199836590896357 
4.450000000002968, -1.6198077809430427 
4.460000000002944, -1.6196137463529596 
4.470000000002921, -1.6193885972181286 
4.480000000002898, -1.6191291254102633 
4.490000000002874, -1.6188378023468626 
4.500000000002851, -1.6185210005627944 
4.510000000002828, -1.6181894511597499 
4.520000000002804, -1.617859123593306 
4.530000000002781, -1.6175495953000887 
4.540000000002758, -1.6172778983938607 
4.5500000000027345, -1.6170502807966631 
4.560000000002711, -1.6168583258471017 
4.570000000002688, -1.6166828966579518 
4.580000000002665, -1.6165022374082973 
4.590000000002641, -1.616298360848241 
4.600000000002618, -1.616059445913497 
4.610000000002595, -1.615779549442981 
4.620000000002571, -1.6154577556409557 
4.630000000002548, -1.615098065377143 
4.640000000002525, -1.6147102026003384 
4.6500000000025015, -1.6143103808216814 
4.660000000002478, -1.6139200278210353 
4.670000000002455, -1.613560544840452 
4.6800000000024315, -1.613244982184265 
4.690000000002408, -1.6129718808869082 
4.700000000002385, -1.6127266664472066 
4.710000000002362, -1.6124894133774421 
4.720000000002338, -1.6122424065401468 
4.730000000002315, -1.6119732274029825 
4.740000000002292, -1.611674302749878 
4.750000000002268, -1.6113419371619604 
4.760000000002245, -1.6109770938364734 
4.770000000002222, -1.610588643673191 
4.7800000000021985, -1.6101974313834044 
4.790000000002175, -1.6098359366149673 
4.800000000002152, -1.6095373899678216 
4.810000000002129, -1.6093169758582537 
4.820000000002105, -1.6091607962838919 
4.830000000002082, -1.609034319270816 
4.840000000002059, -1.6089015225694094 
4.850000000002035, -1.6087381046810143 
4.860000000002012, -1.6085335259691877 
4.870000000001989, -1.6082870304992383 
4.880000000001965, -1.6080033982536641 
4.890000000001942, -1.6076907781327878 
4.900000000001919, -1.6073603917573611 
4.9100000000018955, -1.6070266222159444 
4.920000000001872, -1.6067055325661137 
4.930000000001849, -1.606410743931963 
4.940000000001826, -1.6061481977115561 
