t, s[1].omega / s[0].omega 
0, -6.499986868412921 
0.009999999999999995, -6.498594036714477 
0.019999999999999934, -6.497236034485439 
0.029999999999999874, -6.496028383612151 
0.04000000000000012, -6.494700834798889 
0.050000000000000405, -6.4933165916486955 
0.06000000000000069, -6.492063002650182 
0.07000000000000098, -6.4907701506063535 
0.08000000000000126, -6.48941507648331 
0.09000000000000155, -6.488126487844852 
0.10000000000000184, -6.486835590834919 
0.11000000000000212, -6.485494347647368 
0.12000000000000241, -6.484208367956404 
0.130000000000002, -6.482918318334906 
0.1400000000000009, -6.481561696020554 
0.1499999999999998, -6.480285070381042 
0.1599999999999987, -6.479022514386109 
0.1699999999999976, -6.477648132044405 
0.1799999999999965, -6.476331029560709 
0.1899999999999954, -6.475123911728301 
0.1999999999999943, -6.473782911249477 
0.2099999999999932, -6.472380561029405 
0.2199999999999921, -6.4711809769285535 
0.229999999999991, -6.469909661944859 
0.2399999999999899, -6.46850984990637 
0.2499999999999888, -6.467227894058887 
0.2599999999999877, -6.465991960325825 
0.2699999999999866, -6.464646266200537 
0.2799999999999855, -6.463321192876999 
0.2899999999999844, -6.4620704346556765 
0.2999999999999833, -6.460752297977078 
0.3099999999999822, -6.459434548312113 
0.3199999999999811, -6.458169795314409 
0.32999999999998, -6.456852679608263 
0.3399999999999789, -6.455536128033808 
0.3499999999999778, -6.454286310376728 
0.35999999999997667, -6.452972573442098 
0.36999999999997557, -6.451617862599593 
0.37999999999997447, -6.450396767290464 
0.38999999999997337, -6.449121929548232 
0.39999999999997227, -6.447722947108721 
0.40999999999997117, -6.4464657362028746 
0.41999999999997006, -6.4452593996283225 
0.42999999999996896, -6.443896216270266 
0.43999999999996786, -6.442538463148269 
0.44999999999996676, -6.441348447520935 
0.45999999999996566, -6.44005382553121 
0.46999999999996456, -6.438684673714791 
0.47999999999996346, -6.4374365647198175 
0.48999999999996235, -6.436173131509636 
0.49999999999996125, -6.434838613352167 
0.5099999999999602, -6.433557942672093 
0.519999999999959, -6.4322930550380715 
0.529999999999958, -6.4309702224922685 
0.5399999999999568, -6.429694042671575 
0.5499999999999557, -6.428432560169915 
0.5599999999999546, -6.427096812558004 
0.5699999999999535, -6.425816867460135 
0.5799999999999524, -6.424589002041637 
0.5899999999999513, -6.4232537049783875 
0.5999999999999502, -6.4219110761708675 
0.6099999999999491, -6.420728800855845 
0.619999999999948, -6.41944670867756 
0.6299999999999469, -6.418045397441344 
0.6399999999999458, -6.41682012017656 
0.6499999999999447, -6.415608269156325 
0.6599999999999436, -6.41425118261193 
0.6699999999999425, -6.412931606430776 
0.6799999999999414, -6.41172882645886 
0.6899999999999403, -6.4104298601804555 
0.6999999999999392, -6.409099832458696 
0.7099999999999381, -6.407859788517577 
0.719999999999937, -6.406581463757931 
0.7299999999999359, -6.405269276834737 
0.7399999999999348, -6.404016014873899 
0.7499999999999337, -6.402739521569687 
0.7599999999999326, -6.401419755240417 
0.7699999999999315, -6.400180234416982 
0.7799999999999304, -6.398921184061447 
0.7899999999999293, -6.397570230503886 
0.7999999999999282, -6.396320151134247 
0.8099999999999271, -6.395115137437933 
0.819999999999926, -6.393772579465587 
0.8299999999999249, -6.3924313497376195 
0.8399999999999238, -6.391270962219694 
0.8499999999999227, -6.3899989009905855 
0.8599999999999216, -6.388614226929798 
0.8699999999999205, -6.387389113555372 
0.8799999999999194, -6.386175130059198 
0.8899999999999183, -6.384842345257441 
0.8999999999999172, -6.38354680816616 
0.9099999999999161, -6.382330105370775 
0.919999999999915, -6.3810372030722995 
0.9299999999999139, -6.379739925528302 
0.9399999999999128, -6.37850305393289 
0.9499999999999117, -6.377218230118342 
0.9599999999999106, -6.375925503162336 
0.9699999999999095, -6.374695504442027 
0.9799999999999084, -6.37341525058556 
0.9899999999999073, -6.372091352991359 
0.9999999999999062, -6.370884342612486 
1.0099999999999052, -6.3696408993531595 
1.019999999999904, -6.36827802811212 
1.029999999999903, -6.367031107714977 
1.039999999999902, -6.365857699178681 
1.0499999999999008, -6.364533681517719 
1.0599999999998997, -6.363180798142328 
1.0699999999998986, -6.362019335320065 
1.0799999999998975, -6.360771950116018 
1.0899999999998964, -6.359418897985429 
1.0999999999998953, -6.358177576750432 
1.1099999999998942, -6.356963619226105 
1.119999999999893, -6.355658573980485 
1.129999999999892, -6.3543804965993225 
1.1399999999998909, -6.35315624676459 
1.1499999999998898, -6.351870365634391 
1.1599999999998887, -6.350596967619952 
1.1699999999998876, -6.3493698808924375 
1.1799999999998865, -6.348083416255127 
1.1899999999998854, -6.3467954634487835 
1.1999999999998843, -6.345594477336243 
1.2099999999998832, -6.3443262617512595 
1.219999999999882, -6.342982439143541 
1.229999999999881, -6.341791940563884 
1.2399999999998799, -6.340587088083567 
1.2499999999998788, -6.339234242641014 
1.2599999999998777, -6.337947905877504 
1.2699999999998766, -6.336802519577763 
1.2799999999998755, -6.335522786222624 
1.2899999999998744, -6.33417058843297 
1.2999999999998733, -6.332979865368547 
1.3099999999998722, -6.331759086073875 
1.319999999999871, -6.330444388410891 
1.32999999999987, -6.329189726343709 
1.3399999999998689, -6.3279755571581 
1.3499999999998678, -6.32669174054693 
1.3599999999998666, -6.325429938403933 
1.3699999999998655, -6.324208267641312 
1.3799999999998644, -6.3229266288203965 
1.3899999999998633, -6.3216627229037545 
1.3999999999998622, -6.3204590019376194 
1.4099999999998611, -6.319182961131463 
1.41999999999986, -6.3178718746129565 
1.429999999999859, -6.316699184774685 
1.4399999999998578, -6.315471962587539 
1.4499999999998567, -6.314116114841378 
1.4599999999998556, -6.31288779357948 
1.4699999999998545, -6.311736603271499 
1.4799999999998534, -6.310434463329178 
1.4899999999998523, -6.309099683859272 
1.4999999999998512, -6.307944334147495 
1.5099999999998501, -6.306716716565741 
1.519999999999849, -6.3053951085500515 
1.529999999999848, -6.3041639923041775 
1.5399999999998468, -6.30296009834119 
1.5499999999998457, -6.301678662684112 
1.5599999999998446, -6.3004239144689125 
1.5699999999998435, -6.299211715184693 
1.5799999999998424, -6.297940086422932 
1.5899999999998413, -6.296687585913051 
1.5999999999998402, -6.295483728374328 
1.6099999999998391, -6.294213101895388 
1.619999999999838, -6.2929277840632265 
1.629999999999837, -6.29175631035377 
1.6399999999998358, -6.290521468603709 
1.6499999999998347, -6.289178993329447 
1.6599999999998336, -6.287982748253623 
1.6699999999998325, -6.286824882379678 
1.6799999999998314, -6.285513901817369 
1.6899999999998303, -6.28419922334965 
1.6999999999998292, -6.283066212578356 
1.709999999999828, -6.281837433126694 
1.719999999999827, -6.280511169301782 
1.729999999999826, -6.279298869849032 
1.7399999999998248, -6.278108397045123 
1.7499999999998237, -6.276829811988272 
1.7599999999998226, -6.275577750946138 
1.7699999999998215, -6.274378680767557 
1.7799999999998204, -6.273119462249863 
1.7899999999998193, -6.2718700440924815 
1.7999999999998182, -6.270669891765083 
1.809999999999817, -6.269413180767724 
1.819999999999816, -6.26814214234008 
1.8299999999998149, -6.266967678579797 
1.8399999999998138, -6.265738618399199 
1.8499999999998127, -6.264414579177913 
1.8599999999998116, -6.263227473893857 
1.8699999999998105, -6.262070340063689 
1.8799999999998094, -6.2607648376567 
1.8899999999998083, -6.259461054603554 
1.8999999999998072, -6.25834243327941 
1.909999999999806, -6.25712202530381 
1.919999999999805, -6.25579295842458 
1.9299999999998039, -6.254589801882516 
1.9399999999998028, -6.2534183280160365 
1.9499999999998017, -6.252145536612618 
1.9599999999998006, -6.250889737030149 
1.9699999999997995, -6.249705974389294 
1.9799999999997984, -6.248462445225974 
1.9899999999997973, -6.247211017661372 
1.9999999999997962, -6.2460155765927805 
2.0099999999998173, -6.2447785607444 
2.0199999999998384, -6.243514180965711 
2.0299999999998595, -6.242334710986581 
2.0399999999998806, -6.241121261893959 
2.0499999999999017, -6.239816695053902 
2.059999999999923, -6.23862185750946 
2.069999999999944, -6.237473224411989 
2.079999999999965, -6.236187041350695 
2.089999999999986, -6.234881334046328 
2.100000000000007, -6.233769547803366 
2.1100000000000283, -6.2325696580794325 
2.1200000000000494, -6.231242358293139 
2.1300000000000705, -6.230032372151318 
2.1400000000000916, -6.228886332271362 
2.1500000000001127, -6.227626793360619 
2.160000000000134, -6.226359267808024 
2.170000000000155, -6.225188969422852 
2.180000000000176, -6.223967359097139 
2.190000000000197, -6.222712212162514 
2.2000000000002182, -6.221517313384932 
2.2100000000002393, -6.220304653369221 
2.2200000000002604, -6.2190460089021515 
2.2300000000002815, -6.217856860507068 
2.2400000000003026, -6.216664186601298 
2.2500000000003237, -6.215383039836639 
2.260000000000345, -6.21416789077332 
2.270000000000366, -6.213030519054151 
2.280000000000387, -6.211776622862091 
2.290000000000408, -6.210462749446415 
2.3000000000004293, -6.209343145779974 
2.3100000000004504, -6.208176221483366 
2.3200000000004715, -6.206862910032433 
2.3300000000004926, -6.205624266159424 
2.3400000000005137, -6.204506266429702 
2.3500000000005348, -6.203273151108839 
2.360000000000556, -6.2019896940000265 
2.370000000000577, -6.200821685709558 
2.380000000000598, -6.199630918818299 
2.390000000000619, -6.198376758106179 
2.4000000000006403, -6.197172079127564 
2.4100000000006614, -6.195985876928457 
2.4200000000006825, -6.194740052571303 
2.4300000000007036, -6.1935342353821 
2.4400000000007247, -6.192360721916328 
2.450000000000746, -6.191111419988793 
2.460000000000767, -6.189870732999344 
2.470000000000788, -6.1887371440350245 
2.480000000000809, -6.187525687700549 
2.49000000000083, -6.186213815095744 
2.5000000000008513, -6.185059749824642 
2.5100000000008724, -6.18393347783943 
2.5200000000008935, -6.182655274584647 
2.5300000000009146, -6.181371282188379 
2.5400000000009357, -6.180268831862099 
2.550000000000957, -6.17907946817361 
2.560000000000978, -6.177790032029778 
2.570000000000999, -6.17659885347451 
2.58000000000102, -6.175446035790641 
2.5900000000010412, -6.174207350405176 
2.6000000000010624, -6.172981127772228 
2.6100000000010835, -6.171814850128476 
2.6200000000011046, -6.170595608375923 
2.6300000000011257, -6.169370739986638 
2.6400000000011468, -6.16820451120933 
2.650000000001168, -6.1669952505089265 
2.660000000001189, -6.165739988186516 
2.67000000000121, -6.16458915557072 
2.680000000001231, -6.163422872046448 
2.6900000000012523, -6.16214016570176 
2.7000000000012734, -6.160923914941689 
2.7100000000012945, -6.159829987903898 
2.7200000000013156, -6.158609754451089 
2.7300000000013367, -6.157294108769119 
2.740000000001358, -6.1561641035055015 
2.750000000001379, -6.1550334605327945 
2.7600000000014, -6.153767599653757 
2.770000000001421, -6.152524608393141 
2.780000000001442, -6.151400970352063 
2.7900000000014633, -6.150200327507125 
2.8000000000014844, -6.148954484123548 
2.8100000000015055, -6.147784410074204 
2.8200000000015266, -6.146604680618927 
2.8300000000015477, -6.145374105675072 
2.840000000001569, -6.144193633036892 
2.85000000000159, -6.143023021304045 
2.860000000001611, -6.141782763566718 
2.870000000001632, -6.140590302381131 
2.8800000000016532, -6.139456470434928 
2.8900000000016743, -6.138230246008062 
2.9000000000016954, -6.136959374179422 
2.9100000000017165, -6.135855074563805 
2.9200000000017377, -6.1347060051351665 
2.9300000000017588, -6.133412587542074 
2.94000000000178, -6.132195618751533 
2.950000000001801, -6.1311166817746825 
2.960000000001822, -6.129911517921503 
2.970000000001843, -6.1286260863705575 
2.9800000000018643, -6.127483173391349 
2.9900000000018854, -6.126340604103738 
3.0000000000019065, -6.125104164737914 
3.0100000000019276, -6.12389725195715 
3.0200000000019487, -6.122752109209784 
3.03000000000197, -6.121546248953672 
3.040000000001991, -6.120337639772709 
3.050000000002012, -6.1191837846679515 
3.060000000002033, -6.117987927792418 
3.070000000002054, -6.116759335313267 
3.0800000000020753, -6.115620340811094 
3.0900000000020964, -6.114457761133741 
3.1000000000021175, -6.113194027133233 
3.1100000000021386, -6.112012893327719 
3.1200000000021597, -6.110922137194586 
3.130000000002181, -6.109704979425021 
3.140000000002202, -6.108409910638395 
3.150000000002223, -6.107310805338079 
3.160000000002244, -6.106191208076503 
3.1700000000022652, -6.1049299115310784 
3.1800000000022863, -6.1037013097278106 
3.1900000000023074, -6.102604246687165 
3.2000000000023285, -6.10142074727314 
3.2100000000023496, -6.100180395824781 
3.2200000000023707, -6.099024781346587 
3.230000000002392, -6.097869736556559 
3.240000000002413, -6.096654702194029 
3.250000000002434, -6.0954789245501475 
3.260000000002455, -6.094328177698164 
3.2700000000024763, -6.093113705796427 
3.2800000000024974, -6.091926191630938 
3.2900000000025185, -6.090801843615276 
3.3000000000025396, -6.089604011541413 
3.3100000000025607, -6.0883508757166025 
3.3200000000025818, -6.087245011929118 
3.330000000002603, -6.086120147186564 
3.340000000002624, -6.0848544630864945 
3.350000000002645, -6.0836310573314085 
3.360000000002666, -6.082572786671197 
3.3700000000026873, -6.081400763438467 
3.3800000000027084, -6.080120433842995 
3.3900000000027295, -6.078973503814033 
3.4000000000027506, -6.0778683159830615 
3.4100000000027717, -6.076655138981165 
3.420000000002793, -6.075439515004312 
3.430000000002814, -6.074314561432482 
3.440000000002835, -6.073141947747738 
3.450000000002856, -6.071935366302028 
3.460000000002877, -6.070786426456842 
3.4700000000028983, -6.069626670660748 
3.4800000000029194, -6.068412087609112 
3.4900000000029405, -6.06726300726 
3.5000000000029616, -6.066132556208883 
3.5100000000029827, -6.0649100718170725 
3.520000000003004, -6.063701943744265 
3.530000000003025, -6.062624537080817 
3.540000000003046, -6.061462531664665 
3.550000000003067, -6.060180283736065 
3.5600000000030882, -6.0590405683869655 
3.5700000000031094, -6.057972944366257 
3.5800000000031305, -6.056761532649995 
3.5900000000031516, -6.055499701801605 
3.6000000000031727, -6.054407772270119 
3.6100000000031938, -6.053280478655307 
3.620000000003215, -6.052054176232476 
3.630000000003236, -6.050874265328279 
3.640000000003257, -6.0497585377891685 
3.650000000003278, -6.048574978666227 
3.6600000000032993, -6.047385193033166 
3.6700000000033204, -6.046252866169758 
3.6800000000033415, -6.045083898607887 
3.6900000000033626, -6.0438825315926685 
3.7000000000033837, -6.042757944601715 
3.710000000003405, -6.041617240574994 
3.720000000003426, -6.040385848708022 
3.730000000003447, -6.0392250190173495 
3.740000000003468, -6.038150261639428 
3.750000000003489, -6.036961493117095 
3.7600000000035103, -6.035690062940576 
3.7700000000035314, -6.03460648354973 
3.7800000000035525, -6.033519745828524 
3.7900000000035736, -6.032285799824609 
3.8000000000035947, -6.031059234769522 
3.810000000003616, -6.029992073913187 
3.820000000003637, -6.028848019454538 
3.830000000003658, -6.02762174798874 
3.840000000003679, -6.026472436677052 
3.8500000000037002, -6.0253574555459295 
3.8600000000037213, -6.024171282586405 
3.8700000000037424, -6.022998770376784 
3.8800000000037635, -6.02187597795118 
3.8900000000037847, -6.020703078656874 
3.9000000000038058, -6.019518133934025 
3.910000000003827, -6.01840777803773 
3.920000000003848, -6.01726062170199 
3.930000000003869, -6.016031904900995 
3.94000000000389, -6.014904477290002 
3.9500000000039113, -6.013827367075249 
3.9600000000039324, -6.012625030190645 
3.9700000000039535, -6.01137386975754 
3.9800000000039746, -6.010319453181843 
3.9900000000039957, -6.009220949639584 
4.000000000004016, -6.007979363886231 
4.010000000003993, -6.006783175052769 
4.02000000000397, -6.00572622331493 
4.030000000003946, -6.004575523101262 
4.040000000003923, -6.003355982287225 
4.0500000000039, -6.002226667596036 
4.0600000000038765, -6.001113148318139 
4.070000000003853, -5.99993025842387 
4.08000000000383, -5.998771387729322 
4.090000000003807, -5.997655611084121 
4.100000000003783, -5.996484593824683 
4.11000000000376, -5.995312796178469 
4.120000000003737, -5.994212027299705 
4.130000000003713, -5.993065308776246 
4.14000000000369, -5.9918434364219975 
4.150000000003667, -5.99073431772457 
4.1600000000036434, -5.989659566930574 
4.17000000000362, -5.988456368989032 
4.180000000003597, -5.987219540020944 
4.1900000000035735, -5.986178727546108 
4.20000000000355, -5.985080701202019 
4.210000000003527, -5.9838424597144435 
4.220000000003504, -5.98266145159797 
4.23000000000348, -5.981611448105907 
4.240000000003457, -5.980464547256626 
4.250000000003434, -5.979253135864368 
4.26000000000341, -5.978133721628623 
4.270000000003387, -5.977026072707568 
4.280000000003364, -5.975850115047998 
4.2900000000033405, -5.974699865539825 
4.300000000003317, -5.973591399344569 
4.310000000003294, -5.972427229228598 
4.320000000003271, -5.971262811811097 
4.330000000003247, -5.970170043798883 
4.340000000003224, -5.969031578201855 
4.350000000003201, -5.967816264675988 
4.360000000003177, -5.966712104805376 
4.370000000003154, -5.965647519773787 
4.380000000003131, -5.964455402309798 
4.390000000003107, -5.9632210269612695 
4.400000000003084, -5.962183664458755 
4.410000000003061, -5.961099261999809 
4.4200000000030375, -5.959873399777463 
4.430000000003014, -5.958690360593107 
4.440000000002991, -5.95764709644369 
4.450000000002968, -5.95651411600875 
4.460000000002944, -5.955310785796833 
4.470000000002921, -5.954191895182731 
4.480000000002898, -5.953094997294832 
4.490000000002874, -5.9519290645268 
4.500000000002851, -5.950782334602353 
4.510000000002828, -5.949681867115287 
4.520000000002804, -5.9485294667755335 
4.530000000002781, -5.947366423272877 
4.540000000002758, -5.946279966988936 
4.5500000000027345, -5.9451576714540035 
4.560000000002711, -5.9439496204095 
4.570000000002688, -5.9428359785426 
4.580000000002665, -5.941788516302429 
4.590000000002641, -5.94061997022572 
4.600000000002618, -5.939379725040662 
4.610000000002595, -5.938331627627483 
4.620000000002571, -5.937273052892812 
4.630000000002548, -5.9360703455153265 
4.640000000002525, -5.934871421589124 
4.6500000000025015, -5.933830170749022 
4.660000000002478, -5.932721009586771 
4.670000000002455, -5.931528475786464 
4.6800000000024315, -5.9304003763766655 
4.690000000002408, -5.929317064824954 
4.700000000002385, -5.928165573140797 
4.710000000002362, -5.927018081716797 
4.720000000002338, -5.925924346629433 
4.730000000002315, -5.92478955463759 
4.740000000002292, -5.9236239685718735 
4.750000000002268, -5.92253868102089 
4.760000000002245, -5.921439628842135 
4.770000000002222, -5.920245685002727 
4.7800000000021985, -5.919105660911976 
4.790000000002175, -5.918076451745053 
4.800000000002152, -5.9169450046215335 
4.810000000002129, -5.915703852263988 
4.820000000002105, -5.914619691638576 
4.830000000002082, -5.913594694647293 
4.840000000002059, -5.912429326319163 
4.850000000002035, -5.911212322076269 
4.860000000002012, -5.910156421695136 
4.870000000001989, -5.9090795756746965 
4.880000000001965, -5.907905946256942 
4.890000000001942, -5.906760706081035 
4.900000000001919, -5.905687939151421 
4.9100000000018955, -5.904557698611679 
4.920000000001872, -5.903407702373643 
4.930000000001849, -5.902315571937138 
4.940000000001826, -5.901204251939159 
4.950000000001802, -5.9000386681740125 
4.960000000001779, -5.898942868049853 
4.970000000001756, -5.897870812624513 
4.980000000001732, -5.896705419113688 
4.990000000001709, -5.8955277899579706 
5.000000000001686, -5.894502407553909 
5.0100000000016625, -5.89342070197687 
5.020000000001639, -5.892202147466813 
5.030000000001616, -5.891052163585792 
