t, s[1].omega / s[0].omega 
0, -6.59998652573252 
0.009999999999999995, -6.598525012276428 
0.019999999999999934, -6.597115829168006 
0.029999999999999874, -6.595918601127669 
0.04000000000000012, -6.594543251187892 
0.050000000000000405, -6.593098634182565 
0.06000000000000069, -6.591840848821024 
0.07000000000000098, -6.590509467175518 
0.08000000000000126, -6.589106340525975 
0.09000000000000155, -6.587799449681134 
0.10000000000000184, -6.586468153229288 
0.11000000000000212, -6.585088461618693 
0.12000000000000241, -6.5837845252596665 
0.130000000000002, -6.582445838689312 
0.1400000000000009, -6.581045400252783 
0.1499999999999998, -6.579773722034753 
0.1599999999999987, -6.578456552959805 
0.1699999999999976, -6.577000784775566 
0.1799999999999965, -6.575728888539866 
0.1899999999999954, -6.574484650544849 
0.1999999999999943, -6.573027721822898 
0.2099999999999932, -6.571637979902718 
0.2199999999999921, -6.5704652838045 
0.229999999999991, -6.569091708358234 
0.2399999999999899, -6.56762175292445 
0.2499999999999888, -6.566401145582749 
0.2599999999999877, -6.565096685980345 
0.2699999999999866, -6.563672180732306 
0.2799999999999855, -6.5623688519408105 
0.2899999999999844, -6.5610754289108115 
0.2999999999999833, -6.559695444167046 
0.3099999999999822, -6.55837547459547 
0.3199999999999811, -6.557069274790119 
0.32999999999998, -6.555690819539225 
0.3399999999999789, -6.554390750488556 
0.3499999999999778, -6.553091432936708 
0.35999999999997667, -6.551680594157601 
0.36999999999997557, -6.550383490637627 
0.37999999999997447, -6.549137538751499 
0.38999999999997337, -6.547716039405957 
0.39999999999997227, -6.546327297131876 
0.40999999999997117, -6.545159673366593 
0.41999999999997006, -6.543806088377822 
0.42999999999996896, -6.542317572622856 
0.43999999999996786, -6.541117417939175 
0.44999999999996676, -6.539850792323942 
0.45999999999996566, -6.538408765803522 
0.46999999999996456, -6.537091672575538 
0.47999999999996346, -6.535847286214474 
0.48999999999996235, -6.534473384222737 
0.49999999999996125, -6.53312497751484 
0.5099999999999602, -6.53185427734673 
0.519999999999959, -6.53050139853126 
0.529999999999958, -6.529170586753115 
0.5399999999999568, -6.527889934055382 
0.5499999999999557, -6.526525535512557 
0.5599999999999546, -6.5251956383497145 
0.5699999999999535, -6.523948267540028 
0.5799999999999524, -6.522580639789426 
0.5899999999999513, -6.521182600462677 
0.5999999999999502, -6.519996339195951 
0.6099999999999491, -6.518683423597215 
0.619999999999948, -6.517200308866739 
0.6299999999999469, -6.515979533851789 
0.6399999999999458, -6.514761719463207 
0.6499999999999447, -6.51332642667511 
0.6599999999999436, -6.511962696243925 
0.6699999999999425, -6.510774912950161 
0.6799999999999414, -6.509427289882842 
0.6899999999999403, -6.50803395130554 
0.6999999999999392, -6.506790261611647 
0.7099999999999381, -6.5054789383204294 
0.719999999999937, -6.50411939969092 
0.7299999999999359, -6.502841583075599 
0.7399999999999348, -6.501528802548291 
0.7499999999999337, -6.500177802219433 
0.7599999999999326, -6.4989147342422955 
0.7699999999999315, -6.497604175088455 
0.7799999999999304, -6.496211879003025 
0.7899999999999293, -6.494978995181708 
0.7999999999999282, -6.493714452055822 
0.8099999999999271, -6.492275759409938 
0.819999999999926, -6.490986272666028 
0.8299999999999249, -6.4898140778827855 
0.8399999999999238, -6.488426858309515 
0.8499999999999227, -6.4869935756882935 
0.8599999999999216, -6.485842488359562 
0.8699999999999205, -6.484552467922842 
0.8799999999999194, -6.483119523660195 
0.8899999999999183, -6.48186330030264 
0.8999999999999172, -6.4806166145891595 
0.9099999999999161, -6.479249492326963 
0.919999999999915, -6.477939135895848 
0.9299999999999139, -6.476680620793594 
0.9399999999999128, -6.475339054443481 
0.9499999999999117, -6.474037876810547 
0.9599999999999106, -6.472771404574829 
0.9699999999999095, -6.471417085076849 
0.9799999999999084, -6.470120672090431 
0.9899999999999073, -6.46888773919637 
0.9999999999999062, -6.467525335805179 
1.0099999999999052, -6.466159902009432 
1.019999999999904, -6.464995513809443 
1.029999999999903, -6.463688972814504 
1.039999999999902, -6.462223828975157 
1.0499999999999008, -6.461033097417728 
1.0599999999998997, -6.459827578177143 
1.0699999999998986, -6.458408193256472 
1.0799999999998975, -6.457066622867297 
1.0899999999998964, -6.455895503716424 
1.0999999999998953, -6.454567347784716 
1.1099999999998942, -6.453192991764107 
1.119999999999893, -6.451965057775146 
1.129999999999892, -6.450674374390212 
1.1399999999998909, -6.449333383942782 
1.1499999999998898, -6.448071827006982 
1.1599999999998887, -6.44678085318765 
1.1699999999998876, -6.445444513920579 
1.1799999999998865, -6.4441987595768735 
1.1899999999998854, -6.442915261022141 
1.1999999999998843, -6.441535586317355 
1.2099999999998832, -6.4403088189261934 
1.219999999999882, -6.439081137361056 
1.229999999999881, -6.43767345584772 
1.2399999999998799, -6.436356862639537 
1.2499999999998788, -6.435222005614618 
1.2599999999998777, -6.433887526107929 
1.2699999999998766, -6.432442440945556 
1.2799999999998755, -6.431286376225541 
1.2899999999998744, -6.430050592136942 
1.2999999999998733, -6.428647867718181 
1.3099999999998722, -6.427365592937501 
1.319999999999871, -6.426157201370172 
1.32999999999987, -6.424824708510075 
1.3399999999998689, -6.423509696443814 
1.3499999999998678, -6.422274882237998 
1.3599999999998666, -6.420962690496462 
1.3699999999998655, -6.419663145974026 
1.3799999999998644, -6.418422602777464 
1.3899999999998633, -6.417103672595286 
1.3999999999998622, -6.415787880895913 
1.4099999999998611, -6.4145867437152315 
1.41999999999986, -6.41328526109177 
1.429999999999859, -6.411886310623719 
1.4399999999998578, -6.41071760723482 
1.4499999999998567, -6.409497747962069 
1.4599999999998556, -6.408070086480589 
1.4699999999998545, -6.406778153163605 
1.4799999999998534, -6.405651590480199 
1.4899999999998523, -6.404320115539612 
1.4999999999998512, -6.402914052704641 
1.5099999999998501, -6.401746663487012 
1.519999999999849, -6.400497060106394 
1.529999999999848, -6.399133751112686 
1.5399999999998468, -6.397876704483425 
1.5499999999998457, -6.396641910471002 
1.5599999999998446, -6.395320915317131 
1.5699999999998435, -6.3940491549041045 
1.5799999999998424, -6.392805160962965 
1.5899999999998413, -6.391480879577594 
1.5999999999998402, -6.390220657184419 
1.6099999999998391, -6.388997613283985 
1.619999999999838, -6.387656641465933 
1.629999999999837, -6.38635050493382 
1.6399999999998358, -6.3851952505180405 
1.6499999999998347, -6.383894649430169 
1.6599999999998336, -6.382470510712592 
1.6699999999998325, -6.381327093452219 
1.6799999999998314, -6.380132784549614 
1.6899999999998303, -6.378723889074335 
1.6999999999998292, -6.377419590487919 
1.709999999999828, -6.376287270040936 
1.719999999999827, -6.374982223055325 
1.729999999999826, -6.3736175292593344 
1.7399999999998248, -6.372424335841016 
1.7499999999998237, -6.371172163087666 
1.7599999999998226, -6.369847229948003 
1.7699999999998215, -6.368603401178445 
1.7799999999998204, -6.3673550204169675 
1.7899999999998193, -6.366043489527877 
1.7999999999998182, -6.364806380607577 
1.809999999999817, -6.3635644221917325 
1.819999999999816, -6.362224149878103 
1.8299999999998149, -6.360989882927695 
1.8399999999998138, -6.359800816514133 
1.8499999999998127, -6.358453452889246 
1.8599999999998116, -6.357116193029334 
1.8699999999998105, -6.356008311837877 
1.8799999999998094, -6.354744115589087 
1.8899999999998083, -6.353308919783821 
1.8999999999998072, -6.35213076647737 
1.909999999999806, -6.350972717310613 
1.919999999999805, -6.349616813076952 
1.9299999999998039, -6.348291999378857 
1.9399999999998028, -6.347138606537539 
1.9499999999998017, -6.34586485290559 
1.9599999999998006, -6.344539317514235 
1.9699999999997995, -6.343325917431303 
1.9799999999997984, -6.34207513576775 
1.9899999999997973, -6.3407756739894605 
1.9999999999997962, -6.339548801151945 
2.0099999999998173, -6.338299735072697 
2.0199999999998384, -6.336981404137143 
2.0299999999998595, -6.335774444254776 
2.0399999999998806, -6.334558227091629 
2.0499999999999017, -6.333201842736535 
2.059999999999923, -6.331948575150795 
2.069999999999944, -6.3308197767165115 
2.079999999999965, -6.329508350405942 
2.089999999999986, -6.328104891677944 
2.100000000000007, -6.327001141893369 
2.1100000000000283, -6.325805056875981 
2.1200000000000494, -6.324412815164957 
2.1300000000000705, -6.323151379563713 
2.1400000000000916, -6.322013492897046 
2.1500000000001127, -6.320719446718546 
2.160000000000134, -6.319398454034015 
2.170000000000155, -6.318214243179735 
2.180000000000176, -6.31696418586383 
2.190000000000197, -6.31566988443528 
2.2000000000002182, -6.314452373889052 
2.2100000000002393, -6.31320692450141 
2.2200000000002604, -6.311909952289315 
2.2300000000002815, -6.31070806834886 
2.2400000000003026, -6.309481045593054 
2.2500000000003237, -6.308140231273986 
2.260000000000345, -6.306930432404442 
2.270000000000366, -6.30577707441621 
2.280000000000387, -6.304445678890476 
2.290000000000408, -6.303095514910124 
2.3000000000004293, -6.302015470343562 
2.3100000000004504, -6.300791425437941 
2.3200000000004715, -6.2993825849171605 
2.3300000000004926, -6.298179458330433 
2.3400000000005137, -6.297047471425228 
2.3500000000005348, -6.295737555885657 
2.360000000000556, -6.294422955371596 
2.370000000000577, -6.293265576352379 
2.380000000000598, -6.292020017077892 
2.390000000000619, -6.2907248057840865 
2.4000000000006403, -6.289517545705413 
2.4100000000006614, -6.2882839065788385 
2.4200000000006825, -6.287000272116221 
2.4300000000007036, -6.285796784364662 
2.4400000000007247, -6.28457319586519 
2.450000000000746, -6.283254910978541 
2.460000000000767, -6.282057215327035 
2.470000000000788, -6.280891570601116 
2.480000000000809, -6.279564163255338 
2.49000000000083, -6.278253380325357 
2.5000000000008513, -6.2771741530511145 
2.5100000000008724, -6.275939792907634 
2.5200000000008935, -6.2745303805927835 
2.5300000000009146, -6.273363404025546 
2.5400000000009357, -6.272240089000174 
2.550000000000957, -6.270922543636991 
2.560000000000978, -6.2696085102733665 
2.570000000000999, -6.268476622243314 
2.58000000000102, -6.2672415349665185 
2.5900000000010412, -6.265940835749392 
2.6000000000010624, -6.264741895513705 
2.6100000000010835, -6.263527007697055 
2.6200000000011046, -6.262250805453861 
2.6300000000011257, -6.261042604705855 
2.6400000000011468, -6.259832462071094 
2.650000000001168, -6.258535842138106 
2.660000000001189, -6.257333132696013 
2.67000000000121, -6.256167319817739 
2.680000000001231, -6.254860732099798 
2.6900000000012523, -6.253565184067636 
2.7000000000012734, -6.252480130508468 
2.7100000000012945, -6.251254876211133 
2.7200000000013156, -6.249854643884296 
2.7300000000013367, -6.248695294516511 
2.740000000001358, -6.247589962207221 
2.750000000001379, -6.246278044917394 
2.7600000000014, -6.24495149652982 
2.770000000001421, -6.243842663321972 
2.780000000001442, -6.242628055126961 
2.7900000000014633, -6.241319849074607 
2.8000000000014844, -6.240121193033239 
2.8100000000015055, -6.238932268584724 
2.8200000000015266, -6.237663232169097 
2.8300000000015477, -6.236445037720559 
2.840000000001569, -6.235253686411967 
2.85000000000159, -6.23397956586267 
2.860000000001611, -6.2327622137453655 
2.870000000001632, -6.2316025298214335 
2.8800000000016532, -6.23032818966098 
2.8900000000016743, -6.229030593377223 
2.9000000000016954, -6.227934280193576 
2.9100000000017165, -6.2267354635879935 
2.9200000000017377, -6.225354593434942 
2.9300000000017588, -6.224170707469176 
2.94000000000178, -6.223093057232147 
2.950000000001801, -6.221805789715451 
2.960000000001822, -6.220453348184959 
2.970000000001843, -6.219356565920907 
2.9800000000018643, -6.218177145015335 
2.9900000000018854, -6.216866520726564 
3.0000000000019065, -6.215650792679537 
3.0100000000019276, -6.214494359398467 
3.0200000000019487, -6.213239881923244 
3.03000000000197, -6.212004157508291 
3.040000000001991, -6.21083022081458 
3.050000000002012, -6.209584873866884 
3.060000000002033, -6.208348575431527 
3.070000000002054, -6.207192315227369 
3.0800000000020753, -6.205958332031271 
3.0900000000020964, -6.204656697547332 
3.1000000000021175, -6.203535416045778 
3.1100000000021386, -6.202374469560328 
3.1200000000021597, -6.201030677406861 
3.130000000002181, -6.19979093233597 
3.140000000002202, -6.198741616334482 
3.150000000002223, -6.197501917553281 
3.160000000002244, -6.19612565823878 
3.1700000000022652, -6.195008963180952 
3.1800000000022863, -6.193881904125846 
3.1900000000023074, -6.192586891041993 
3.2000000000023285, -6.191329960235765 
3.2100000000023496, -6.190204793023082 
3.2200000000023707, -6.188980763846753 
3.230000000002392, -6.187724449132796 
3.240000000002413, -6.18655473564429 
3.250000000002434, -6.1853479322602505 
3.260000000002455, -6.184098403777414 
3.2700000000024763, -6.182932138127734 
3.2800000000024974, -6.181741303397458 
3.2900000000025185, -6.180452383950154 
3.3000000000025396, -6.17928405776328 
3.3100000000025607, -6.178161149663324 
3.3200000000025818, -6.176876925501991 
3.330000000002603, -6.175570840030732 
3.340000000002624, -6.174524845112651 
3.350000000002645, -6.17335386711626 
3.360000000002666, -6.17198733027316 
3.3700000000026873, -6.170794075221635 
3.3800000000027084, -6.169728949184806 
3.3900000000027295, -6.168480302316335 
3.4000000000027506, -6.1671718879813495 
3.4100000000027717, -6.16605144817934 
3.420000000002793, -6.164879107122323 
3.430000000002814, -6.163615804389091 
3.440000000002835, -6.162422817096352 
3.450000000002856, -6.161259188304866 
3.460000000002877, -6.160017945842077 
3.4700000000028983, -6.158823020234061 
3.4800000000029194, -6.157665968743841 
3.4900000000029405, -6.15641759174864 
3.5000000000029616, -6.155190184730853 
3.5100000000029827, -6.154084762436394 
3.520000000003004, -6.152875116637344 
3.530000000003025, -6.15154151336639 
3.540000000003046, -6.1504345155419955 
3.550000000003067, -6.14934210076807 
3.5600000000030882, -6.148039802709228 
3.5700000000031094, -6.146731319860094 
3.5800000000031305, -6.145698463819361 
3.5900000000031516, -6.144530355037795 
3.6000000000031727, -6.143206634256414 
3.6100000000031938, -6.1420253071233315 
3.620000000003215, -6.140918350677497 
3.630000000003236, -6.1396831928276745 
3.640000000003257, -6.13844404348784 
3.650000000003278, -6.137304520205986 
3.6600000000032993, -6.136103617966674 
3.6700000000033204, -6.134876945891632 
3.6800000000033415, -6.133724228785612 
3.6900000000033626, -6.132534726847121 
3.7000000000033837, -6.131277141256237 
3.710000000003405, -6.130141166655838 
3.720000000003426, -6.129002084977721 
3.730000000003447, -6.127715228812605 
3.740000000003468, -6.1264861648222535 
3.750000000003489, -6.125445518936698 
3.7600000000035103, -6.124247295015467 
3.7700000000035314, -6.122885005499766 
3.7800000000035525, -6.121772682992612 
3.7900000000035736, -6.120707147301684 
3.8000000000035947, -6.119441764693585 
3.810000000003616, -6.118151051021427 
3.820000000003637, -6.1170739579353155 
3.830000000003658, -6.115910193910066 
3.840000000003679, -6.114648423489484 
3.8500000000037002, -6.113475329111612 
3.8600000000037213, -6.112333710397278 
3.8700000000037424, -6.111109472864878 
3.8800000000037635, -6.109922317736482 
3.8900000000037847, -6.1087787504414575 
3.9000000000038058, -6.107554244266673 
3.910000000003827, -6.1063474241496625 
3.920000000003848, -6.105242147198235 
3.930000000003869, -6.104047136378482 
3.94000000000389, -6.102746328295333 
3.9500000000039113, -6.101651166513899 
3.9600000000039324, -6.100563758857641 
3.9700000000039535, -6.0992764452032215 
3.9800000000039746, -6.097986567544866 
3.9900000000039957, -6.096975735596543 
4.000000000004016, -6.095827553041415 
4.010000000003993, -6.094506759183177 
4.02000000000397, -6.093331540080973 
4.030000000003946, -6.09225949848142 
4.040000000003923, -6.091044622607699 
4.0500000000039, -6.0897999001644605 
4.0600000000038765, -6.088678808941062 
4.070000000003853, -6.087510753071907 
4.08000000000383, -6.086290182570073 
4.090000000003807, -6.0851388427101885 
4.100000000003783, -6.083982051709148 
4.11000000000376, -6.082747871840941 
4.120000000003737, -6.081599341886457 
4.130000000003713, -6.080483378293734 
4.14000000000369, -6.079241830701617 
4.150000000003667, -6.077999263456556 
4.1600000000036434, -6.076959734699076 
4.17000000000362, -6.075808864355688 
4.180000000003597, -6.074473938489428 
4.1900000000035735, -6.073319626959373 
4.20000000000355, -6.072300917726599 
4.210000000003527, -6.071083766774338 
4.220000000003504, -6.069768060149648 
4.23000000000348, -6.0686898466846895 
4.240000000003457, -6.0675827338006725 
4.250000000003434, -6.066338760432588 
4.26000000000341, -6.065138982074189 
4.270000000003387, -6.064034963218971 
4.280000000003364, -6.062845838616012 
4.2900000000033405, -6.061644392469063 
4.300000000003317, -6.060515209980187 
4.310000000003294, -6.059340544234466 
4.320000000003271, -6.05812193136102 
4.330000000003247, -6.0570092490961684 
4.340000000003224, -6.055871966323101 
4.350000000003201, -6.054607211643699 
4.360000000003177, -6.053442580319329 
4.370000000003154, -6.0524028298183765 
4.380000000003131, -6.051201008716674 
4.390000000003107, -6.049870098622735 
4.400000000003084, -6.048816995680234 
4.410000000003061, -6.047759951085756 
4.4200000000030375, -6.046496822837498 
4.430000000003014, -6.045229835718158 
4.440000000002991, -6.0441950646492435 
4.450000000002968, -6.043055193774392 
4.460000000002944, -6.041803015047711 
4.470000000002921, -6.040648913388356 
4.480000000002898, -6.039542825999962 
4.490000000002874, -6.038344805494932 
4.500000000002851, -6.037165794129434 
4.510000000002828, -6.0360471960617215 
4.520000000002804, -6.034861015737464 
4.530000000002781, -6.033667057830353 
4.540000000002758, -6.032571478406629 
4.5500000000027345, -6.031416422944655 
4.560000000002711, -6.030150879870974 
4.570000000002688, -6.02904418093879 
4.580000000002665, -6.027990168537988 
4.590000000002641, -6.026755778036349 
4.600000000002618, -6.025458268119936 
4.610000000002595, -6.024454973003008 
4.620000000002571, -6.023367103600826 
4.630000000002548, -6.022080963035945 
4.640000000002525, -6.02086775934872 
4.6500000000025015, -6.019844863032951 
4.660000000002478, -6.018685620228778 
4.670000000002455, -6.01743865225702 
4.6800000000024315, -6.016316492282701 
4.690000000002408, -6.015206002569128 
4.700000000002385, -6.014008281391289 
4.710000000002362, -6.012848174369652 
4.720000000002338, -6.0117350793073685 
4.730000000002315, -6.010545876636688 
4.740000000002292, -6.0093731559189685 
4.750000000002268, -6.008286599422714 
4.760000000002245, -6.007122818796407 
4.770000000002222, -6.005866752094622 
4.7800000000021985, -6.004792830933962 
4.790000000002175, -6.003730312791744 
4.800000000002152, -6.002482029314654 
4.810000000002129, -6.001215892680423 
4.820000000002105, -6.000233228223015 
4.830000000002082, -5.999131742072548 
4.840000000002059, -5.997840543442319 
4.850000000002035, -5.996661798681677 
4.860000000002012, -5.995642950921871 
4.870000000001989, -5.9944786155606815 
4.880000000001965, -5.993241076129551 
4.890000000001942, -5.992136369345333 
4.900000000001919, -5.991026786289929 
4.9100000000018955, -5.98983442670132 
4.920000000001872, -5.988687127042817 
4.930000000001849, -5.987579731995561 
4.940000000001826, -5.986394098077347 
4.950000000001802, -5.985234351133463 
4.960000000001779, -5.98415556069909 
4.970000000001756, -5.98299378684011 
4.980000000001732, -5.981746066493806 
4.990000000001709, -5.980686240418341 
5.000000000001686, -5.9796275739186315 
5.0100000000016625, -5.978382237564796 
5.020000000001639, -5.977127713968436 
5.030000000001616, -5.9761540273971026 
