t, s[1].omega / s[0].omega 
0, -1.8699969117514208 
0.009999999999999995, -1.8696625951714072 
0.019999999999999934, -1.8692811941400254 
0.029999999999999874, -1.8688641581667251 
0.04000000000000012, -1.8684334189451497 
0.050000000000000405, -1.8680199636337627 
0.06000000000000069, -1.8676530621182974 
0.07000000000000098, -1.8673435367476046 
0.08000000000000126, -1.8670768304609286 
0.09000000000000155, -1.8668244393035125 
0.10000000000000184, -1.8665606212975405 
0.11000000000000212, -1.866269820066633 
0.12000000000000241, -1.865945697359312 
0.130000000000002, -1.8655894685046508 
0.1400000000000009, -1.8652118474328336 
0.1499999999999998, -1.8648369304884145 
0.1599999999999987, -1.8644997204434013 
0.1699999999999976, -1.8642291259876544 
0.1799999999999965, -1.864026159845341 
0.1899999999999954, -1.8638616364330818 
0.1999999999999943, -1.8636960872518968 
0.2099999999999932, -1.863499214338915 
0.2199999999999921, -1.8632555232823111 
0.229999999999991, -1.862961034040461 
0.2399999999999899, -1.8626192180788752 
0.2499999999999888, -1.8622396781196489 
0.2599999999999877, -1.8618390624382122 
0.2699999999999866, -1.8614410586139463 
0.2799999999999855, -1.8610711595891973 
0.2899999999999844, -1.8607454086762663 
0.2999999999999833, -1.8604609135793582 
0.3099999999999822, -1.860198214121469 
0.3199999999999811, -1.8599333008723893 
0.32999999999998, -1.8596473963628164 
0.3399999999999789, -1.8593292977113403 
0.3499999999999778, -1.8589744882586767 
0.35999999999997667, -1.8585864967776922 
0.36999999999997557, -1.8581822216341375 
0.37999999999997447, -1.8577961499787345 
0.38999999999997337, -1.857471106794898 
0.39999999999997227, -1.8572311814577198 
0.40999999999997117, -1.8570607946821416 
0.41999999999997006, -1.8569161101054195 
0.42999999999996896, -1.8567541789555215 
0.43999999999996786, -1.8565497085924871 
0.44999999999996676, -1.856294481025356 
0.45999999999996566, -1.8559908148257194 
0.46999999999996456, -1.8556471351319186 
0.47999999999996346, -1.8552770079864076 
0.48999999999996235, -1.8548993405388472 
0.49999999999996125, -1.8545360306126288 
0.5099999999999602, -1.8542048288648787 
0.519999999999959, -1.853910574182287 
0.529999999999958, -1.8536424168325536 
0.5399999999999568, -1.8533802145847833 
0.5499999999999557, -1.8531038735020675 
0.5599999999999546, -1.8527983457660149 
0.5699999999999535, -1.8524541019402019 
0.5799999999999524, -1.8520675259193138 
0.5899999999999513, -1.8516450479858946 
0.5999999999999502, -1.8512107050028348 
0.6099999999999491, -1.850808450337421 
0.619999999999948, -1.850484745221652 
0.6299999999999469, -1.8502551479644223 
0.6399999999999458, -1.850090200703186 
0.6499999999999447, -1.8499392222678412 
0.6599999999999436, -1.8497619160519072 
0.6699999999999425, -1.8495393794550612 
0.6799999999999414, -1.8492688473408354 
0.6899999999999403, -1.848956209579423 
0.6999999999999392, -1.8486124443026035 
0.7099999999999381, -1.84825324425419 
0.719999999999937, -1.8478982769189565 
0.7299999999999359, -1.8475665879606247 
0.7399999999999348, -1.8472686064961947 
0.7499999999999337, -1.8470005745957203 
0.7599999999999326, -1.8467466542993587 
0.7699999999999315, -1.8464866606055643 
0.7799999999999304, -1.8462027575760036 
0.7899999999999293, -1.8458817758501247 
0.7999999999999282, -1.8455152372535821 
0.8099999999999271, -1.8451010239769292 
0.819999999999926, -1.8446491517730337 
0.8299999999999249, -1.8441894162767518 
0.8399999999999238, -1.843770115910027 
0.8499999999999227, -1.8434352966963534 
0.8599999999999216, -1.8431922068123936 
0.8699999999999205, -1.8430057672884477 
0.8799999999999194, -1.8428272514839574 
0.8899999999999183, -1.84262214623183 
0.8999999999999172, -1.842376166959438 
0.9099999999999161, -1.8420886669578516 
0.919999999999915, -1.8417663257282773 
0.9299999999999139, -1.8414211067900592 
0.9399999999999128, -1.841070429735387 
0.9499999999999117, -1.8407351115828647 
0.9599999999999106, -1.8404321281476286 
0.9699999999999095, -1.8401657143858003 
0.9799999999999084, -1.83992479054819 
0.9899999999999073, -1.8396890416616447 
0.9999999999999062, -1.8394375510163328 
1.0099999999999052, -1.8391538030570629 
1.019999999999904, -1.8388265216353914 
1.029999999999903, -1.838449524875939 
1.039999999999902, -1.8380238090724244 
1.0499999999999008, -1.8375629666670281 
1.0599999999998997, -1.837098533961098 
1.0699999999998986, -1.836675467065334 
1.0799999999998975, -1.8363300092836343 
1.0899999999998964, -1.83606414664485 
1.0999999999998953, -1.835845587540605 
1.1099999999998942, -1.8356332020353485 
1.119999999999893, -1.835398521518087 
1.129999999999892, -1.835129414664308 
1.1399999999998909, -1.8348248246049401 
1.1499999999998898, -1.8344906643380543 
1.1599999999998887, -1.8341395552599657 
1.1699999999998876, -1.833791658066137 
1.1799999999998865, -1.8334710251186688 
1.1899999999998854, -1.8331947138209752 
1.1999999999998843, -1.8329618490052375 
1.2099999999998832, -1.832753730036369 
1.219999999999882, -1.8325444226378604 
1.229999999999881, -1.832311256842028 
1.2399999999998799, -1.8320389955055325 
1.2499999999998788, -1.8317193940692555 
1.2599999999998777, -1.8313502694332615 
1.2699999999998766, -1.8309366921874903 
1.2799999999998755, -1.8304944077667191 
1.2899999999998744, -1.8300521436178436 
1.2999999999998733, -1.8296459807572774 
1.3099999999998722, -1.8293023127214643 
1.319999999999871, -1.8290208137811153 
1.32999999999987, -1.8287760326561322 
1.3399999999998689, -1.8285358775290717 
1.3499999999998678, -1.8282770112442257 
1.3599999999998666, -1.8279879472845146 
1.3699999999998655, -1.8276660138722254 
1.3799999999998644, -1.82731562689091 
1.3899999999998633, -1.8269500855137881 
1.3999999999998622, -1.8265937493112485 
1.4099999999998611, -1.826277136526834 
1.41999999999986, -1.8260210479175396 
1.429999999999859, -1.8258211497208159 
1.4399999999998578, -1.8256500101562085 
1.4499999999998567, -1.8254738957845043 
1.4599999999998556, -1.8252670417844061 
1.4699999999998545, -1.825015508999675 
1.4799999999998534, -1.8247148320855378 
1.4899999999998523, -1.824367303936647 
1.4999999999998512, -1.8239814947448945 
1.5099999999998501, -1.8235735831716309 
1.519999999999849, -1.823167619691461 
1.529999999999848, -1.8227904281240104 
1.5399999999998468, -1.8224600003998728 
1.5499999999998457, -1.8221750271613686 
1.5599999999998446, -1.8219163949193926 
1.5699999999998435, -1.82165936434891 
1.5799999999998424, -1.8213842473567106 
1.5899999999998413, -1.8210793186568957 
1.5999999999998402, -1.8207396196768078 
1.6099999999998391, -1.8203671744063175 
1.619999999999838, -1.8199749037065835 
1.629999999999837, -1.8195911819143524 
1.6399999999998358, -1.819255360465143 
1.6499999999998347, -1.8189969378003525 
1.6599999999998336, -1.8188125191583446 
1.6699999999998325, -1.8186669650607268 
1.6799999999998314, -1.8185173328472692 
1.6899999999998303, -1.8183332516109403 
1.6999999999998292, -1.8181012305142896 
1.709999999999828, -1.8178198619961417 
1.719999999999827, -1.8174947971900177 
1.729999999999826, -1.817136734444284 
1.7399999999998248, -1.8167615534888832 
1.7499999999998237, -1.8163896966459188 
1.7599999999998226, -1.8160416983372545 
1.7699999999998215, -1.8157299206117625 
1.7799999999998204, -1.8154520060006045 
1.7899999999998193, -1.815192370880078 
1.7999999999998182, -1.8149305294622202 
1.809999999999817, -1.8146486835037408 
1.819999999999816, -1.8143343138083954 
1.8299999999998149, -1.8139799582966543 
1.8399999999998138, -1.813584424856737 
1.8499999999998127, -1.8131579455523776 
1.8599999999998116, -1.8127291023682837 
1.8699999999998105, -1.8123433287089068 
1.8799999999998094, -1.812041451039827 
1.8899999999998083, -1.8118292761379844 
1.8999999999998072, -1.8116720612896884 
1.909999999999806, -1.8115210796910723 
1.919999999999805, -1.8113407037288785 
1.9299999999998039, -1.8111154208285165 
1.9399999999998028, -1.8108439531755085 
1.9499999999998017, -1.8105325875524945 
1.9599999999998006, -1.8101922723438846 
1.9699999999997995, -1.8098384269976602 
1.9799999999997984, -1.8094901247027224 
1.9899999999997973, -1.8091655503919946 
1.9999999999997962, -1.8088744280694407 
2.0099999999998173, -1.8086129353117446 
2.0199999999998384, -1.8083657726388913 
2.0299999999998595, -1.8081133564750638 
2.0399999999998806, -1.8078381262642338 
2.0499999999999017, -1.8075268812032708 
2.059999999999923, -1.8071708030957925 
2.069999999999944, -1.806766569585768 
2.079999999999965, -1.8063209166004746 
2.089999999999986, -1.8058576160177453 
2.100000000000007, -1.805419151629176 
2.1100000000000283, -1.8050512727259846 
2.1200000000000494, -1.804773393081847 
2.1300000000000705, -1.8045638853674322 
2.1400000000000916, -1.8043785126404608 
2.1500000000001127, -1.8041790584275046 
2.160000000000134, -1.803945514233397 
2.170000000000155, -1.803672811850549 
2.180000000000176, -1.803364446078119 
2.190000000000197, -1.803029432372854 
2.2000000000002182, -1.8026824304392517 
2.2100000000002393, -1.802343444298744 
2.2200000000002604, -1.8020328372663816 
2.2300000000002815, -1.8017618063809906 
2.2400000000003026, -1.8015256369330168 
2.2500000000003237, -1.8013062938894955 
2.260000000000345, -1.8010813458378696 
2.270000000000366, -1.8008314668491672 
2.280000000000387, -1.8005431110319754 
2.290000000000408, -1.800208230793644 
2.3000000000004293, -1.7998242974655256 
2.3100000000004504, -1.7993966739118652 
2.3200000000004715, -1.7989430114039837 
2.3300000000004926, -1.798495431066962 
2.3400000000005137, -1.7980927395283193 
2.3500000000005348, -1.7977605075773546 
2.360000000000556, -1.7974941272247889 
2.370000000000577, -1.7972638460596098 
2.380000000000598, -1.7970357287001453 
2.390000000000619, -1.7967867044813584 
2.4000000000006403, -1.7965064036608716 
2.4100000000006614, -1.796193292257282 
2.4200000000006825, -1.795852373163004 
2.4300000000007036, -1.79549625947691 
2.4400000000007247, -1.7951468033240048 
2.450000000000746, -1.7948311664241625 
2.460000000000767, -1.7945689619306768 
2.470000000000788, -1.79435889418269 
2.480000000000809, -1.7941787372414777 
2.49000000000083, -1.7939983787232479 
2.5000000000008513, -1.7937926898845702 
2.5100000000008724, -1.7935463429728984 
2.5200000000008935, -1.7932527398151676 
2.5300000000009146, -1.7929118806502093 
2.5400000000009357, -1.7925299091415277 
2.550000000000957, -1.7921205148947041 
2.560000000000978, -1.791706038689954 
2.570000000000999, -1.7913141739060703 
2.58000000000102, -1.7909675739798938 
2.5900000000010412, -1.7906714721920238 
2.6000000000010624, -1.790410934499798 
2.6100000000010835, -1.7901610972347384 
2.6200000000011046, -1.7898997306402493 
2.6300000000011257, -1.7896126004556947 
2.6400000000011468, -1.789292782278077 
2.650000000001168, -1.7889395555186975 
2.660000000001189, -1.7885604043207182 
2.67000000000121, -1.7881755628226426 
2.680000000001231, -1.7878188844247682 
2.6900000000012523, -1.7875256976495362 
2.7000000000012734, -1.7873097905271156 
2.7100000000012945, -1.78715140925239 
2.7200000000013156, -1.7870106872634957 
2.7300000000013367, -1.7868507363152166 
2.740000000001358, -1.786649700742834 
2.750000000001379, -1.786400022891533 
2.7600000000014, -1.786103365134506 
2.770000000001421, -1.7857670525408782 
2.780000000001442, -1.7854032120095091 
2.7900000000014633, -1.7850290089324097 
2.8000000000014844, -1.7846650553240864 
2.8100000000015055, -1.7843297443759223 
2.8200000000015266, -1.7840311968204698 
2.8300000000015477, -1.7837629421540897 
2.840000000001569, -1.7835076874686986 
2.85000000000159, -1.7832456955841973 
2.860000000001611, -1.7829608104945553 
2.870000000001632, -1.7826418837348286 
2.8800000000016532, -1.7822824834991038 
2.8900000000016743, -1.781882616395422 
2.9000000000016954, -1.7814541928511562 
2.9100000000017165, -1.7810272862614416 
2.9200000000017377, -1.78064694680127 
2.9300000000017588, -1.7803510936354097 
2.94000000000178, -1.780142522565238 
2.950000000001801, -1.7799861374589274 
2.960000000001822, -1.7798349613259958 
2.970000000001843, -1.779655071032689 
2.9800000000018643, -1.7794317014030352 
2.9900000000018854, -1.7791636072954902 
3.0000000000019065, -1.778856768683676 
3.0100000000019276, -1.7785216274838203 
3.0200000000019487, -1.7781729319368644 
3.03000000000197, -1.7778291098955084 
3.040000000001991, -1.7775081578491343 
3.050000000002012, -1.7772204081767196 
3.060000000002033, -1.776963237673355 
3.070000000002054, -1.7767224475099899 
3.0800000000020753, -1.7764788988482159 
3.0900000000020964, -1.7762148539490767 
3.1000000000021175, -1.7759166977877654 
3.1100000000021386, -1.775575083422957 
3.1200000000021597, -1.775185468606514 
3.130000000002181, -1.774751380859352 
3.140000000002202, -1.7742903719099612 
3.150000000002223, -1.7738377294198973 
3.160000000002244, -1.773437978669873 
3.1700000000022652, -1.7731207801024707 
3.1800000000022863, -1.772880037335527 
3.1900000000023074, -1.7726800918185996 
3.2000000000023285, -1.7724812285264815 
3.2100000000023496, -1.7722575512766745 
3.2200000000023707, -1.771998642563587 
3.230000000002392, -1.7717041684729171 
3.240000000002413, -1.7713798847888025 
3.250000000002434, -1.7710371330855623 
3.260000000002455, -1.7706936911275677 
3.2700000000024763, -1.7703715875674502 
3.2800000000024974, -1.7700888635139045 
3.2900000000025185, -1.7698493964405362 
3.3000000000025396, -1.7696400883128043 
3.3100000000025607, -1.7694380535032952 
3.3200000000025818, -1.769220546694753 
3.330000000002603, -1.768970622155076 
3.340000000002624, -1.7686779805356192 
3.350000000002645, -1.7683380812805283 
3.360000000002666, -1.767952274318794 
3.3700000000026873, -1.7675299508810096 
3.3800000000027084, -1.7670914172609298 
3.3900000000027295, -1.7666672463463609 
3.4000000000027506, -1.7662888996760953 
3.4100000000027717, -1.7659723727498693 
3.420000000002793, -1.765708424842271 
3.430000000002814, -1.765470213086625 
3.440000000002835, -1.7652298344749604 
3.450000000002856, -1.7649684750076204 
3.460000000002877, -1.7646770755063002 
3.4700000000028983, -1.7643536617300544 
3.4800000000029194, -1.7640025905251087 
3.4900000000029405, -1.7636369046603027 
3.5000000000029616, -1.7632807734261342 
3.5100000000029827, -1.7629651437900993 
3.520000000003004, -1.7627125916555813 
3.530000000003025, -1.7625213128415695 
3.540000000003046, -1.7623651171467074 
3.550000000003067, -1.7622093262003808 
3.5600000000030882, -1.762026264727632 
3.5700000000031094, -1.7618006116554117 
3.5800000000031305, -1.7615274348201715 
3.5900000000031516, -1.7612088263055898 
3.6000000000031727, -1.7608522473723145 
3.6100000000031938, -1.7604707602124083 
3.620000000003215, -1.7600833498967638 
3.630000000003236, -1.7597123858965424 
3.640000000003257, -1.7593764170332533 
3.650000000003278, -1.7590813258150448 
3.6600000000032993, -1.7588172162533684 
3.6700000000033204, -1.7585644359608488 
3.6800000000033415, -1.758302956473162 
3.6900000000033626, -1.7580177681423241 
3.7000000000033837, -1.7576994301878137 
3.710000000003405, -1.7573435047863648 
3.720000000003426, -1.7569523949405252 
3.730000000003447, -1.756540558560157 
3.740000000003468, -1.7561392330321532 
3.750000000003489, -1.7557907013356413 
3.7600000000035103, -1.755525891297097 
3.7700000000035314, -1.7553409931994857 
3.7800000000035525, -1.7551994152573642 
3.7900000000035736, -1.7550568197387697 
3.8000000000035947, -1.7548822705177745 
3.810000000003616, -1.7546625756648127 
3.820000000003637, -1.7543969664656909 
3.830000000003658, -1.754091446351993 
3.840000000003679, -1.7537562573013186 
3.8500000000037002, -1.7534056803117628 
3.8600000000037213, -1.753057541280476 
3.8700000000037424, -1.7527297236822836 
3.8800000000037635, -1.7524336302271195 
3.8900000000037847, -1.75216870872602 
3.9000000000038058, -1.7519227456407809 
3.910000000003827, -1.7516776545826738 
3.920000000003848, -1.7514158568338676 
3.930000000003869, -1.7511234476992752 
3.94000000000389, -1.7507905421451795 
3.9500000000039113, -1.7504115644606006 
3.9600000000039324, -1.7499879899400266 
3.9700000000039535, -1.7495340758000235 
3.9800000000039746, -1.7490817602962363 
3.9900000000039957, -1.7486753076439059 
4.000000000004016, -1.7483495615851283 
4.010000000003993, -1.7481060425772301 
4.02000000000397, -1.7479128581153407 
4.030000000003946, -1.7477283701281956 
4.040000000003923, -1.7475224736917625 
4.0500000000039, -1.7472814833004158 
4.0600000000038765, -1.7470033110847656 
4.070000000003853, -1.7466924574630993 
4.08000000000383, -1.7463583362688737 
4.090000000003807, -1.7460158938602528 
4.100000000003783, -1.745685068600082 
4.11000000000376, -1.7453854572459566 
4.120000000003737, -1.7451270357197621 
4.130000000003713, -1.7449041294069154 
4.14000000000369, -1.7446983772270985 
4.150000000003667, -1.7444874654781093 
4.1600000000036434, -1.7442523699814778 
4.17000000000362, -1.743980003190107 
4.180000000003597, -1.7436629316738483 
4.1900000000035735, -1.7432990121860272 
4.20000000000355, -1.7428927049403011 
4.210000000003527, -1.742458009902716 
4.220000000003504, -1.742020420117094 
4.23000000000348, -1.7416127341589498 
4.240000000003457, -1.7412616246551256 
4.250000000003434, -1.7409723159759096 
4.26000000000341, -1.7407261860620458 
4.270000000003387, -1.7404940797889838 
4.280000000003364, -1.7402512930242549 
4.2900000000033405, -1.739983285539741 
4.300000000003317, -1.739684120519044 
4.310000000003294, -1.7393540309043967 
4.320000000003271, -1.738999683530561 
4.330000000003247, -1.7386369329005444 
4.340000000003224, -1.7382919850475649 
4.350000000003201, -1.7379943715241306 
4.360000000003177, -1.7377608955983395 
4.370000000003154, -1.7375832003530278 
4.380000000003131, -1.7374323360831245 
4.390000000003107, -1.7372751419830703 
4.400000000003084, -1.7370870936218878 
4.410000000003061, -1.7368555188527328 
4.4200000000030375, -1.7365771269434975 
4.430000000003014, -1.7362549881736264 
4.440000000002991, -1.7358972765270562 
4.450000000002968, -1.7355175891854624 
4.460000000002944, -1.7351349702911965 
4.470000000002921, -1.734770929177159 
4.480000000002898, -1.7344422523638943 
4.490000000002874, -1.7341530389672823 
4.500000000002851, -1.7338926654529145 
4.510000000002828, -1.733641935707963 
4.520000000002804, -1.733381686874921 
4.530000000002781, -1.733097500516442 
4.540000000002758, -1.7327800913078342 
4.5500000000027345, -1.7324248132900149 
4.560000000002711, -1.7320334666123958 
4.570000000002688, -1.731619351258684 
4.580000000002665, -1.731212176108809 
4.590000000002641, -1.7308536148577467 
4.600000000002618, -1.7305767095866056 
4.610000000002595, -1.7303820402400678 
4.620000000002571, -1.7302364222202637 
4.630000000002548, -1.7300958283708483 
4.640000000002525, -1.729927562321656 
4.6500000000025015, -1.7297164697548624 
4.660000000002478, -1.7294604140586372 
4.670000000002455, -1.7291644636095012 
4.6800000000024315, -1.7288379315425342 
4.690000000002408, -1.7284939788447833 
4.700000000002385, -1.7281494573881404 
4.710000000002362, -1.7278222394058655 
4.720000000002338, -1.7275252692600975 
4.730000000002315, -1.727260619449862 
4.740000000002292, -1.7270184225744483 
4.750000000002268, -1.7267815827299475 
4.760000000002245, -1.7265321920595542 
4.770000000002222, -1.7262554545585425 
4.7800000000021985, -1.7259405521823314 
4.790000000002175, -1.7255806300916756 
4.800000000002152, -1.7251743513597684 
4.810000000002129, -1.7247301817730005 
4.820000000002105, -1.724271674903052 
4.830000000002082, -1.723837280621566 
4.840000000002059, -1.7234666921797703 
4.850000000002035, -1.723177522174439 
4.860000000002012, -1.7229535672022736 
4.870000000001989, -1.7227580256528796 
4.880000000001965, -1.7225562936105878 
4.890000000001942, -1.7223277796611107 
4.900000000001919, -1.7220649632292304 
4.9100000000018955, -1.7217684781413545 
4.920000000001872, -1.7214442312211058 
4.930000000001849, -1.721103549450482 
4.940000000001826, -1.7207641739794135 
