t, s[1].omega / s[0].omega 
0, -3.149995245378276 
0.009999999999999995, -3.149473238306601 
0.019999999999999934, -3.1488736446426895 
0.029999999999999874, -3.1482642362157476 
0.04000000000000012, -3.147757761861372 
0.050000000000000405, -3.1473658866477163 
0.06000000000000069, -3.1469837151241173 
0.07000000000000098, -3.146545397818066 
0.08000000000000126, -3.146049163270747 
0.09000000000000155, -3.1455264615879797 
0.10000000000000184, -3.1450246901059833 
0.11000000000000212, -3.144570614634609 
0.12000000000000241, -3.144140875362373 
0.130000000000002, -3.143687801339237 
0.1400000000000009, -3.1431811598433863 
0.1499999999999998, -3.1426271392974843 
0.1599999999999987, -3.1420915721943223 
0.1699999999999976, -3.141660815607698 
0.1799999999999965, -3.141311078693802 
0.1899999999999954, -3.1409440424936053 
0.1999999999999943, -3.140501685523608 
0.2099999999999932, -3.139967981315116 
0.2199999999999921, -3.1393560471285302 
0.229999999999991, -3.13874256855787 
0.2399999999999899, -3.1382512872626944 
0.2499999999999888, -3.1378814591065325 
0.2599999999999877, -3.137513518757502 
0.2699999999999866, -3.1370815338809974 
0.2799999999999855, -3.1365860646494736 
0.2899999999999844, -3.1360583777385154 
0.2999999999999833, -3.135547060915962 
0.3099999999999822, -3.1350860253902835 
0.3199999999999811, -3.1346566535106475 
0.32999999999998, -3.1342092684748044 
0.3399999999999789, -3.1337124932598925 
0.3499999999999778, -3.1331727565986784 
0.35999999999997667, -3.132649397188768 
0.36999999999997557, -3.1322159168994226 
0.37999999999997447, -3.131851969333123 
0.38999999999997337, -3.131473174700793 
0.39999999999997227, -3.13102494499193 
0.40999999999997117, -3.130487780856965 
0.41999999999997006, -3.1298719622765088 
0.42999999999996896, -3.1292578394834716 
0.43999999999996786, -3.128777110161283 
0.44999999999996676, -3.128424922218947 
0.45999999999996566, -3.1280717074526443 
0.46999999999996456, -3.1276483777956114 
0.47999999999996346, -3.127155035428572 
0.48999999999996235, -3.126621450433574 
0.49999999999996125, -3.1260978152172187 
0.5099999999999602, -3.1256278533417463 
0.519999999999959, -3.125200096566153 
0.529999999999958, -3.1247617178015497 
0.5399999999999568, -3.124277507170539 
0.5499999999999557, -3.1237510869397367 
0.5599999999999546, -3.1232330190416824 
0.5699999999999535, -3.1227891387497166 
0.5799999999999524, -3.1224097405594526 
0.5899999999999513, -3.1220232497834797 
0.5999999999999502, -3.1215757449001047 
0.6099999999999491, -3.1210436318842256 
0.619999999999948, -3.1204325445645464 
0.6299999999999469, -3.1198192386451247 
0.6399999999999458, -3.11934034527001 
0.6499999999999447, -3.1189990437023756 
0.6599999999999436, -3.118660946682884 
0.6699999999999425, -3.1182494666789062 
0.6799999999999414, -3.1177611365914877 
0.6899999999999403, -3.117222622698755 
0.6999999999999392, -3.1166844716070403 
0.7099999999999381, -3.1162017793381507 
0.719999999999937, -3.1157747481950144 
0.7299999999999359, -3.1153476665508757 
0.7399999999999348, -3.114878339491134 
0.7499999999999337, -3.1143650398607585 
0.7599999999999326, -3.1138486371411043 
0.7699999999999315, -3.113390133217334 
0.7799999999999304, -3.1129943621620386 
0.7899999999999293, -3.1126030059218968 
0.7999999999999282, -3.1121616723792345 
0.8099999999999271, -3.1116421733755755 
0.819999999999926, -3.1110437748594992 
0.8299999999999249, -3.110432092661253 
0.8399999999999238, -3.109944021182646 
0.8499999999999227, -3.1096040764551565 
0.8599999999999216, -3.109280659098885 
0.8699999999999205, -3.1088849272998322 
0.8799999999999194, -3.108406161988662 
0.8899999999999183, -3.1078660523753063 
0.8999999999999172, -3.1073126062547094 
0.9099999999999161, -3.1068116446890626 
0.919999999999915, -3.1063814984588376 
0.9299999999999139, -3.1059667190011933 
0.9399999999999128, -3.1055147227269804 
0.9499999999999117, -3.1050158545998356 
0.9599999999999106, -3.104500808066014 
0.9699999999999095, -3.10402589612018 
0.9799999999999084, -3.1036119261119572 
0.9899999999999073, -3.1032163227193887 
0.9999999999999062, -3.102784686629361 
1.0099999999999052, -3.1022836085479804 
1.019999999999904, -3.10170488981626 
1.029999999999903, -3.1010970741359625 
1.039999999999902, -3.1005893411225607 
1.0499999999999008, -3.1002379837962164 
1.0599999999998997, -3.0999266587239327 
1.0699999999998986, -3.0995506965710335 
1.0799999999998975, -3.099087512092758 
1.0899999999998964, -3.0985518228498012 
1.0999999999998953, -3.0979851997010353 
1.1099999999998942, -3.0974598783630483 
1.119999999999893, -3.0970188373609235 
1.129999999999892, -3.096615072072069 
1.1399999999998909, -3.0961829550479054 
1.1499999999998898, -3.095701430747686 
1.1599999999998887, -3.0951904954576905 
1.1699999999998876, -3.09469986251772 
1.1799999999998865, -3.0942649211308275 
1.1899999999998854, -3.0938628275787945 
1.1999999999998843, -3.0934418902255123 
1.2099999999998832, -3.092962895184338 
1.219999999999882, -3.0924096994199024 
1.229999999999881, -3.0918109887784224 
1.2399999999998799, -3.091277360262716 
1.2499999999998788, -3.090898944505322 
1.2599999999998777, -3.090593006980783 
1.2699999999998766, -3.090239791217507 
1.2799999999998755, -3.0897990284050185 
1.2899999999998744, -3.089276230293999 
1.2999999999998733, -3.0887029382219944 
1.3099999999998722, -3.088149438440726 
1.319999999999871, -3.087685489652011 
1.32999999999987, -3.0872871141623737 
1.3399999999998689, -3.0868767375865476 
1.3499999999998678, -3.0864167593654708 
1.3599999999998666, -3.0859153412361637 
1.3699999999998655, -3.085412844145503 
1.3799999999998644, -3.0849544065656334 
1.3899999999998633, -3.084540533813682 
1.3999999999998622, -3.0841280970133544 
1.4099999999998611, -3.0836724596288785 
1.41999999999986, -3.083149130693527 
1.429999999999859, -3.082567670097988 
1.4399999999998578, -3.0820098875594613 
1.4499999999998567, -3.081588545415226 
1.4599999999998556, -3.081274915214098 
1.4699999999998545, -3.0809443526478626 
1.4799999999998534, -3.0805325620778614 
1.4899999999998523, -3.0800325841745337 
1.4999999999998512, -3.079463929944741 
1.5099999999998501, -3.0788848524497427 
1.519999999999849, -3.0783840609764734 
1.529999999999848, -3.077978275582468 
1.5399999999998468, -3.0775887171076524 
1.5499999999998457, -3.0771550491039186 
1.5599999999998446, -3.0766705329292674 
1.5699999999998435, -3.0761637902846433 
1.5799999999998424, -3.075681952445544 
1.5899999999998413, -3.0752488608681303 
1.5999999999998402, -3.074838709690459 
1.6099999999998391, -3.0744048078973862 
1.619999999999838, -3.0739136751878435 
1.629999999999837, -3.073358605859938 
1.6399999999998358, -3.0727880182858307 
1.6499999999998347, -3.0723137930471562 
1.6599999999998336, -3.0719720327121656 
1.6699999999998325, -3.071657753120337 
1.6799999999998314, -3.0712794772548166 
1.6899999999998303, -3.0708121210574744 
1.6999999999998292, -3.070262654880901 
1.709999999999828, -3.0696702107031513 
1.719999999999827, -3.069123603344339 
1.729999999999826, -3.068688956684384 
1.7399999999998248, -3.0683123021869756 
1.7499999999998237, -3.0679086424123327 
1.7599999999998226, -3.0674494353976227 
1.7699999999998215, -3.066949493317063 
1.7799999999998204, -3.0664497035968536 
1.7899999999998193, -3.0659906960112506 
1.7999999999998182, -3.0655722748939596 
1.809999999999817, -3.0651544248787643 
1.819999999999816, -3.064695134471308 
1.8299999999998149, -3.0641739051037895 
1.8399999999998138, -3.0636087891728336 
1.8499999999998127, -3.063085604859819 
1.8599999999998116, -3.062691763755654 
1.8699999999998105, -3.0623770118937905 
1.8799999999998094, -3.062031944824012 
1.8899999999998083, -3.061605089324567 
1.8999999999998072, -3.061089487453649 
1.909999999999806, -3.060504345118407 
1.919999999999805, -3.059917619032994 
1.9299999999998039, -3.0594293019743204 
1.9399999999998028, -3.059044689377873 
1.9499999999998017, -3.0586697797052826 
1.9599999999998006, -3.0582439356684477 
1.9699999999997995, -3.057763778196763 
1.9799999999997984, -3.057258115962065 
1.9899999999997973, -3.0567721659604734 
1.9999999999997962, -3.0563325508381496 
2.0099999999998173, -3.055919386870866 
2.0199999999998384, -3.055487663779016 
2.0299999999998595, -3.0550039504833046 
2.0399999999998806, -3.0544630184672035 
2.0499999999999017, -3.0539120352805216 
2.059999999999923, -3.053450783575397 
2.069999999999944, -3.0531064481891836 
2.079999999999965, -3.05278454929153 
2.089999999999986, -3.0524019657922308 
2.100000000000007, -3.051931982344784 
2.1100000000000283, -3.0513771237885177 
2.1200000000000494, -3.050774798738712 
2.1300000000000705, -3.050221139833055 
2.1400000000000916, -3.0497929493182325 
2.1500000000001127, -3.049432511518863 
2.160000000000134, -3.049044793915283 
2.170000000000155, -3.048597273443971 
2.180000000000176, -3.048102762126459 
2.190000000000197, -3.0475989661079934 
2.2000000000002182, -3.0471290036885317 
2.2100000000002393, -3.046703481230695 
2.2200000000002604, -3.04628876686127 
2.2300000000002815, -3.0458411467356887 
2.2400000000003026, -3.0453372693906173 
2.2500000000003237, -3.0447894186112547 
2.260000000000345, -3.044269633187845 
2.270000000000366, -3.043862496833571 
2.280000000000387, -3.043537608884498 
2.290000000000408, -3.043194861114092 
2.3000000000004293, -3.042777341273555 
2.3100000000004504, -3.0422711456301803 
2.3200000000004715, -3.0416877926936334 
2.3300000000004926, -3.041088022182666 
2.3400000000005137, -3.040581927654864 
2.3500000000005348, -3.040198815682426 
2.360000000000556, -3.039842945258594 
2.370000000000577, -3.039438153664523 
2.380000000000598, -3.038972892061412 
2.390000000000619, -3.0384702693350305 
2.4000000000006403, -3.0379730195654875 
2.4100000000006614, -3.037518205407786 
2.4200000000006825, -3.0371015105830423 
2.4300000000007036, -3.0366813367425256 
2.4400000000007247, -3.0362187277841985 
2.450000000000746, -3.0357006485987115 
2.460000000000767, -3.0351572186935587 
2.470000000000788, -3.034674024183878 
2.480000000000809, -3.0343039020054072 
2.49000000000083, -3.0339803463329558 
2.5000000000008513, -3.0336145895810835 
2.5100000000008724, -3.0331676231205598 
2.5200000000008935, -3.0326326884663115 
2.5300000000009146, -3.032032413329966 
2.5400000000009357, -3.0314503664430292 
2.550000000000957, -3.03099142306891 
2.560000000000978, -3.030635036337894 
2.570000000000999, -3.0302737696118225 
2.58000000000102, -3.0298530299611235 
2.5900000000010412, -3.0293747756177174 
2.6000000000010624, -3.02886891587107 
2.6100000000010835, -3.028380278876704 
2.6200000000011046, -3.027938198804402 
2.6300000000011257, -3.027526137309739 
2.6400000000011468, -3.027099173572614 
2.650000000001168, -3.0266242098206595 
2.660000000001189, -3.0260979373094363 
2.67000000000121, -3.0255658764545506 
2.680000000001231, -3.0251154735016828 
2.6900000000012523, -3.0247667963534144 
2.7000000000012734, -3.024436966247966 
2.7100000000012945, -3.0240511209281253 
2.7200000000013156, -3.023581039594443 
2.7300000000013367, -3.023025044612713 
2.740000000001358, -3.0224180386815904 
2.750000000001379, -3.021860575262147 
2.7600000000014, -3.0214392227295357 
2.770000000001421, -3.0210957646707457 
2.780000000001442, -3.0207261529254064 
2.7900000000014633, -3.02029281264107 
2.8000000000014844, -3.019806008142978 
2.8100000000015055, -3.01930014903379 
2.8200000000015266, -3.018820203688834 
2.8300000000015477, -3.018387878969784 
2.840000000001569, -3.0179777841571385 
2.85000000000159, -3.017544595316063 
2.860000000001611, -3.017060636094096 
2.870000000001632, -3.016530898851827 
2.8800000000016532, -3.0160120949543057 
2.8900000000016743, -3.015586537804165 
2.9000000000016954, -3.015249018829241 
2.9100000000017165, -3.014911700485726 
2.9200000000017377, -3.0145107187123235 
2.9300000000017588, -3.0140241075492202 
2.94000000000178, -3.0134543691715807 
2.950000000001801, -3.0128474641056764 
2.960000000001822, -3.0123133996711426 
2.970000000001843, -3.0119175952552264 
2.9800000000018643, -3.011579197832318 
2.9900000000018854, -3.0112021984842743 
3.0000000000019065, -3.010760290405233 
3.0100000000019276, -3.0102686777378893 
3.0200000000019487, -3.0097645554529597 
3.03000000000197, -3.0092920360743385 
3.040000000001991, -3.0088665979470774 
3.050000000002012, -3.0084572738677933 
3.060000000002033, -3.008019612627549 
3.070000000002054, -3.0075300663283944 
3.0800000000020753, -3.0069997153485923 
3.0900000000020964, -3.0064920856010664 
3.1000000000021175, -3.0060829047117936 
3.1100000000021386, -3.0057510700667054 
3.1200000000021597, -3.005408395874679 
3.130000000002181, -3.0049980372364673 
3.140000000002202, -3.0045015213732147 
3.150000000002223, -3.0039244826005524 
3.160000000002244, -3.003320568231982 
3.1700000000022652, -3.002803330991034 
3.1800000000022863, -3.0024221616748616 
3.1900000000023074, -3.0020853864004855 
3.2000000000023285, -3.001703823071303 
3.2100000000023496, -3.001257437318917 
3.2200000000023707, -3.000764033520187 
3.230000000002392, -3.0002622240388135 
3.240000000002413, -2.99979508221067 
3.250000000002434, -2.9993740789486916 
3.260000000002455, -2.998965439345688 
3.2700000000024763, -2.998525705453533 
3.2800000000024974, -2.99803372530923 
3.2900000000025185, -2.9975039013037934 
3.3000000000025396, -2.997002959832302 
3.3100000000025607, -2.996602503288671 
3.3200000000025818, -2.996273991784611 
3.330000000002603, -2.995929700572284 
3.340000000002624, -2.9955160574382735 
3.350000000002645, -2.9950162081925384 
3.360000000002666, -2.994437366059898 
3.3700000000026873, -2.993836286761238 
3.3800000000027084, -2.9933266863809345 
3.3900000000027295, -2.992951035897955 
3.4000000000027506, -2.992614916672495 
3.4100000000027717, -2.992232361205566 
3.420000000002793, -2.991785454013046 
3.430000000002814, -2.991292734165346 
3.440000000002835, -2.9907930888520204 
3.450000000002856, -2.9903289228468704 
3.460000000002877, -2.989910304263139 
3.4700000000028983, -2.9895029152947403 
3.4800000000029194, -2.9890638099608653 
3.4900000000029405, -2.98857232198534 
3.5000000000029616, -2.9880431445691618 
3.5100000000029827, -2.987543275534134 
3.520000000003004, -2.987144515185106 
3.530000000003025, -2.9868183714661605 
3.540000000003046, -2.9864768416896643 
3.550000000003067, -2.9860661386453304 
3.5600000000030882, -2.9855694768385095 
3.5700000000031094, -2.9849938226183856 
3.5800000000031305, -2.9843941506961764 
3.5900000000031516, -2.9838823259464577 
3.6000000000031727, -2.983503996885134 
3.6100000000031938, -2.983168348739299 
3.620000000003215, -2.9827885039041364 
3.630000000003236, -2.982344901316834 
3.640000000003257, -2.9818550914249515 
3.650000000003278, -2.981357198004541 
3.6600000000032993, -2.980893548082193 
3.6700000000033204, -2.980475455045081 
3.6800000000033415, -2.980070082987462 
3.6900000000033626, -2.9796343966704755 
3.7000000000033837, -2.9791463355687826 
3.710000000003405, -2.9786178438732014 
3.720000000003426, -2.97811324603735 
3.730000000003447, -2.977708911604945 
3.740000000003468, -2.9773840192773777 
3.750000000003489, -2.977049606131578 
3.7600000000035103, -2.976648085324128 
3.7700000000035314, -2.976161144028258 
3.7800000000035525, -2.9755938585967185 
3.7900000000035736, -2.9749949212086366 
3.8000000000035947, -2.9744717853541895 
3.810000000003616, -2.9740822146633885 
3.820000000003637, -2.9737461455411607 
3.830000000003658, -2.9733723862282306 
3.840000000003679, -2.972935844408393 
3.8500000000037002, -2.9724512481908993 
3.8600000000037213, -2.971954876527943 
3.8700000000037424, -2.9714894402302408 
3.8800000000037635, -2.971069938055805 
3.8900000000037847, -2.9706671179188726 
3.9000000000038058, -2.9702375520253 
3.910000000003827, -2.9697561305609192 
3.920000000003848, -2.9692292761830323 
3.930000000003869, -2.96871495685535 
3.94000000000389, -2.968296655691783 
3.9500000000039113, -2.9679700813502263 
3.9600000000039324, -2.9676463919376146 
3.9700000000039535, -2.9672601869160062 
3.9800000000039746, -2.9667895542320695 
3.9900000000039957, -2.9662365625728486 
4.000000000004016, -2.965640233446172 
4.010000000003993, -2.9650991597928664 
4.02000000000397, -2.9646885668938703 
4.030000000003946, -2.964348957928194 
4.040000000003923, -2.9639837497484756 
4.0500000000039, -2.963557959707818 
4.0600000000038765, -2.9630812524026244 
4.070000000003853, -2.962586769805113 
4.08000000000383, -2.9621176111205547 
4.090000000003807, -2.9616944814002273 
4.100000000003783, -2.9612940969300525 
4.11000000000376, -2.9608730189266095 
4.120000000003737, -2.9604018477661898 
4.130000000003713, -2.959879329887127 
4.14000000000369, -2.9593525495578867 
4.150000000003667, -2.9589105977713825 
4.1600000000036434, -2.9585756342749425 
4.17000000000362, -2.958264333032311 
4.180000000003597, -2.9578992118846905 
4.1900000000035735, -2.957451498392783 
4.20000000000355, -2.9569195757696325 
4.210000000003527, -2.956331302171148 
4.220000000003504, -2.955770434222672 
4.23000000000348, -2.9553283497400136 
4.240000000003457, -2.9549782714075468 
4.250000000003434, -2.9546221746998693 
4.26000000000341, -2.9542105731382717 
4.270000000003387, -2.9537449927745802 
4.280000000003364, -2.953253751084819 
4.2900000000033405, -2.9527795663771004 
4.300000000003317, -2.952350235357579 
4.310000000003294, -2.9519511251311448 
4.320000000003271, -2.9515401865161865 
4.330000000003247, -2.9510831026219333 
4.340000000003224, -2.9505697311066186 
4.350000000003201, -2.950031890209108 
4.360000000003177, -2.9495569140184648 
4.370000000003154, -2.949201102628302 
4.380000000003131, -2.9488996654626787 
4.390000000003107, -2.948560360395309 
4.400000000003084, -2.948142086767901 
4.410000000003061, -2.947638492779487 
4.4200000000030375, -2.947067022640305 
4.430000000003014, -2.946491542346836 
4.440000000002991, -2.9460097705124957 
4.450000000002968, -2.9456374870329656 
4.460000000002944, -2.945287459183013 
4.470000000002921, -2.9448926205591053 
4.480000000002898, -2.944441955012531 
4.490000000002874, -2.9439566409355407 
4.500000000002851, -2.9434771539617417 
4.510000000002828, -2.9430387877473168 
4.520000000002804, -2.9426384286374274 
4.530000000002781, -2.9422380301123328 
4.540000000002758, -2.941798588972744 
4.5500000000027345, -2.941300853797938 
4.560000000002711, -2.9407589652156414 
4.570000000002688, -2.940246212484108 
4.580000000002665, -2.939851039527986 
4.590000000002641, -2.939548873346225 
4.600000000002618, -2.939237277988294 
4.610000000002595, -2.9388545947104143 
4.620000000002571, -2.9383865425203126 
4.630000000002548, -2.937842312498482 
4.640000000002525, -2.9372648448039262 
4.6500000000025015, -2.936742826710843 
4.660000000002478, -2.9363332937752165 
4.670000000002455, -2.935980358556888 
4.6800000000024315, -2.9356025940759367 
4.690000000002408, -2.9351707774401077 
4.700000000002385, -2.9346956282305876 
4.710000000002362, -2.9342122349237743 
4.720000000002338, -2.9337620468829693 
4.730000000002315, -2.933356347106501 
4.740000000002292, -2.932964992006409 
4.750000000002268, -2.932545692854258 
4.760000000002245, -2.932070523997546 
4.770000000002222, -2.931536751078629 
4.7800000000021985, -2.930992042142801 
4.790000000002175, -2.930538131164576 
4.800000000002152, -2.9302118728769986 
4.810000000002129, -2.9299226346860663 
4.820000000002105, -2.929580287386718 
4.830000000002082, -2.9291546102739505 
4.840000000002059, -2.92864770022605 
4.850000000002035, -2.9280854018610913 
4.860000000002012, -2.9275348498275684 
4.870000000001989, -2.9270761977937325 
4.880000000001965, -2.9267039911389174 
4.890000000001942, -2.926338733911334 
4.900000000001919, -2.925928707888663 
4.9100000000018955, -2.9254693022641494 
4.920000000001872, -2.924985988573723 
4.930000000001849, -2.92452207705875 
4.940000000001826, -2.924105254402959 
4.950000000001802, -2.9237188116063733 
4.960000000001779, -2.923320155561231 
4.970000000001756, -2.9228733475008686 
