t, s[1].omega / s[0].omega 
0, -1.8499969319314158 
0.009999999999999995, -1.8496737721289787 
0.019999999999999934, -1.8493208536886416 
0.029999999999999874, -1.8489465173506154 
0.04000000000000012, -1.8485654291376374 
0.050000000000000405, -1.8481966307194877 
0.06000000000000069, -1.847856877078898 
0.07000000000000098, -1.847551922964374 
0.08000000000000126, -1.847273353096364 
0.09000000000000155, -1.8470044660134115 
0.10000000000000184, -1.8467291714932077 
0.11000000000000212, -1.8464368185511897 
0.12000000000000241, -1.8461225651687898 
0.130000000000002, -1.8457867467177684 
0.1400000000000009, -1.8454356275204096 
0.1499999999999998, -1.8450830016394875 
0.1599999999999987, -1.8447489792684018 
0.1699999999999976, -1.844452021542039 
0.1799999999999965, -1.8441973051497673 
0.1899999999999954, -1.8439723456808537 
0.1999999999999943, -1.843754740630096 
0.2099999999999932, -1.8435236599563556 
0.2199999999999921, -1.8432659706891035 
0.229999999999991, -1.8429764214702646 
0.2399999999999899, -1.842655751759613 
0.2499999999999888, -1.8423095015249866 
0.2599999999999877, -1.8419479158518943 
0.2699999999999866, -1.8415855170268034 
0.2799999999999855, -1.8412381701950058 
0.2899999999999844, -1.8409170637674233 
0.2999999999999833, -1.8406230176850553 
0.3099999999999822, -1.840346279706998 
0.3199999999999811, -1.8400721925076102 
0.32999999999998, -1.8397874938360121 
0.3399999999999789, -1.8394832288828842 
0.3499999999999778, -1.8391550270869685 
0.35999999999997667, -1.8388034903846762 
0.36999999999997557, -1.838436231032259 
0.37999999999997447, -1.8380701995044213 
0.38999999999997337, -1.8377294541888822 
0.39999999999997227, -1.8374342068045457 
0.40999999999997117, -1.8371870218515511 
0.41999999999997006, -1.8369702541494282 
0.42999999999996896, -1.8367577450243353 
0.43999999999996786, -1.8365281432796965 
0.44999999999996676, -1.8362700996401204 
0.45999999999996566, -1.8359808541047538 
0.46999999999996456, -1.8356633995126983 
0.47999999999996346, -1.8353249297422676 
0.48999999999996235, -1.8349764132786692 
0.49999999999996125, -1.834631543898443 
0.5099999999999602, -1.8343033321303175 
0.519999999999959, -1.8339988491212267 
0.529999999999958, -1.8337156749866668 
0.5399999999999568, -1.8334432904887366 
0.5499999999999557, -1.8331681879858817 
0.5599999999999546, -1.8328784936909102 
0.5699999999999535, -1.832565893707082 
0.5799999999999524, -1.8322260329085946 
0.5899999999999513, -1.8318596172854946 
0.5999999999999502, -1.831475228995951 
0.6099999999999491, -1.8310919543583064 
0.619999999999948, -1.8307363693169871 
0.6299999999999469, -1.830429906399548 
0.6399999999999458, -1.830174191986941 
0.6499999999999447, -1.8299497296050646 
0.6599999999999436, -1.8297294907479837 
0.6699999999999425, -1.8294927021711807 
0.6799999999999414, -1.8292292413960296 
0.6899999999999403, -1.8289374408945882 
0.6999999999999392, -1.8286210298192251 
0.7099999999999381, -1.8282876951445748 
0.719999999999937, -1.8279486662463031 
0.7299999999999359, -1.82761727204475 
0.7399999999999348, -1.827304964352105 
0.7499999999999337, -1.8270161855664881 
0.7599999999999326, -1.8267460005792118 
0.7699999999999315, -1.8264826150512428 
0.7799999999999304, -1.8262124454821727 
0.7899999999999293, -1.8259239899380275 
0.7999999999999282, -1.8256092700431399 
0.8099999999999271, -1.8252642358823903 
0.819999999999926, -1.824890017881056 
0.8299999999999249, -1.824495656397372 
0.8399999999999238, -1.8241003247055967 
0.8499999999999227, -1.8237301051124697 
0.8599999999999216, -1.8234060741256708 
0.8699999999999205, -1.8231307838786055 
0.8799999999999194, -1.8228869535301608 
0.8899999999999183, -1.8226498453474964 
0.8999999999999172, -1.8224000303240075 
0.9099999999999161, -1.8221276346223891 
0.919999999999915, -1.821830540105249 
0.9299999999999139, -1.8215118670805066 
0.9399999999999128, -1.8211790511573032 
0.9499999999999117, -1.8208437524514334 
0.9599999999999106, -1.8205201843962908 
0.9699999999999095, -1.820220170134764 
0.9799999999999084, -1.8199470571297365 
0.9899999999999073, -1.819693576990542 
0.9999999999999062, -1.819445597997401 
1.0099999999999052, -1.8191881498593343 
1.019999999999904, -1.8189094467957052 
1.029999999999903, -1.8186020813929715 
1.039999999999902, -1.8182630840919427 
1.0499999999999008, -1.8178946153712787 
1.0599999999998997, -1.8175057371616021 
1.0699999999998986, -1.8171136605211582 
1.0799999999998975, -1.8167408935682627 
1.0899999999998964, -1.8164060217283342 
1.0999999999998953, -1.8161130213291539 
1.1099999999998942, -1.8158492684986605 
1.119999999999893, -1.8155944737150187 
1.129999999999892, -1.8153312141107834 
1.1399999999998909, -1.8150493662550222 
1.1499999999998898, -1.8147454456147085 
1.1599999999998887, -1.8144210922022528 
1.1699999999998876, -1.8140829598293595 
1.1799999999998865, -1.8137433834080188 
1.1899999999998854, -1.8134189605752542 
1.1999999999998843, -1.8131244393968093 
1.2099999999998832, -1.8128642991083592 
1.219999999999882, -1.8126293884320344 
1.229999999999881, -1.8124020099510016 
1.2399999999998799, -1.8121642523524468 
1.2499999999998788, -1.8119032370968906 
1.2599999999998777, -1.8116121793678155 
1.2699999999998766, -1.8112896153118847 
1.2799999999998755, -1.8109389652751493 
1.2899999999998744, -1.8105690160877803 
1.2999999999998733, -1.8101942208689574 
1.3099999999998722, -1.8098324783385664 
1.319999999999871, -1.809498872400452 
1.32999999999987, -1.8091981096940846 
1.3399999999998689, -1.8089221101580404 
1.3499999999998678, -1.808655339921986 
1.3599999999998666, -1.8083826461025894 
1.3699999999998655, -1.8080936239111736 
1.3799999999998644, -1.8077830927501022 
1.3899999999998633, -1.8074506052485184 
1.3999999999998622, -1.8071012026473334 
1.4099999999998611, -1.806747230669756 
1.41999999999986, -1.8064081319148624 
1.429999999999859, -1.8061040004784594 
1.4399999999998578, -1.8058439923485465 
1.4499999999998567, -1.8056194003334742 
1.4599999999998556, -1.8054088921139642 
1.4699999999998545, -1.8051902048149917 
1.4799999999998534, -1.8049480586532556 
1.4899999999998523, -1.804675519959348 
1.4999999999998512, -1.8043721383034033 
1.5099999999998501, -1.804042185035581 
1.519999999999849, -1.803694054305684 
1.529999999999848, -1.8033400134003337 
1.5399999999998468, -1.8029945131959415 
1.5499999999998457, -1.8026698694156598 
1.5599999999998446, -1.8023708582163152 
1.5699999999998435, -1.8020923312507655 
1.5799999999998424, -1.8018221766155071 
1.5899999999998413, -1.8015469582229702 
1.5999999999998402, -1.8012559256320433 
1.6099999999998391, -1.8009422048319024 
1.619999999999838, -1.8006029679228959 
1.629999999999837, -1.8002406506777557 
1.6399999999998358, -1.799865652155931 
1.6499999999998347, -1.799497995453768 
1.6599999999998336, -1.7991627022423013 
1.6699999999998325, -1.798876890053681 
1.6799999999998314, -1.7986377607511308 
1.6899999999998303, -1.798424276331889 
1.6999999999998292, -1.7982106309534174 
1.709999999999828, -1.7979779444459782 
1.719999999999827, -1.7977173596668319 
1.729999999999826, -1.7974277795784865 
1.7399999999998248, -1.7971131064033166 
1.7499999999998237, -1.7967809488547488 
1.7599999999998226, -1.7964422237548578 
1.7699999999998215, -1.796109869995001 
1.7799999999998204, -1.7957953113683505 
1.7899999999998193, -1.7955037006579357 
1.7999999999998182, -1.7952313454247126 
1.809999999999817, -1.7949675770748414 
1.819999999999816, -1.7946993898674424 
1.8299999999998149, -1.794415346078241 
1.8399999999998138, -1.7941072039803416 
1.8499999999998127, -1.7937703237644336 
1.8599999999998116, -1.7934046686716798 
1.8699999999998105, -1.793017280179074 
1.8799999999998094, -1.7926248762893067 
1.8899999999998083, -1.79225227159845 
1.8999999999998072, -1.791922514312531 
1.909999999999806, -1.7916429812861783 
1.919999999999805, -1.7914005008560754 
1.9299999999998039, -1.7911709619034575 
1.9399999999998028, -1.7909328652884668 
1.9499999999998017, -1.7906737915512423 
1.9599999999998006, -1.7903897154702133 
1.9699999999997995, -1.7900822894568584 
1.9799999999997984, -1.7897573041340098 
1.9899999999997973, -1.7894244743873062 
1.9999999999997962, -1.7890967752503013 
2.0099999999998173, -1.7887872259426048 
2.0199999999998384, -1.788503324108562 
2.0299999999998595, -1.7882429183255841 
2.0399999999998806, -1.787995184718597 
2.0499999999999017, -1.7877456586875216 
2.059999999999923, -1.7874811698781436 
2.069999999999944, -1.787192233377927 
2.079999999999965, -1.7868734843723515 
2.089999999999986, -1.7865239160525057 
2.100000000000007, -1.7861480752798116 
2.1100000000000283, -1.7857578764419553 
2.1200000000000494, -1.7853726925661053 
2.1300000000000705, -1.7850143213336374 
2.1400000000000916, -1.7846967514458325 
2.1500000000001127, -1.7844179756946157 
2.160000000000134, -1.7841620767155804 
2.170000000000155, -1.7839093399075954 
2.180000000000176, -1.7836447695741113 
2.190000000000197, -1.783360457719257 
2.2000000000002182, -1.7830543433309394 
2.2100000000002393, -1.782729022344083 
2.2200000000002604, -1.7823919956672167 
2.2300000000002815, -1.782056252155673 
2.2400000000003026, -1.7817383062473908 
2.2500000000003237, -1.7814517093277906 
2.260000000000345, -1.7811991886059375 
2.270000000000366, -1.7809704119715384 
2.280000000000387, -1.7807475736370244 
2.290000000000408, -1.7805133453478397 
2.3000000000004293, -1.780255571946436 
2.3100000000004504, -1.779968069541323 
2.3200000000004715, -1.7796497986282152 
2.3300000000004926, -1.7793043640600383 
2.3400000000005137, -1.7789403283095642 
2.3500000000005348, -1.778571349834087 
2.360000000000556, -1.7782141399804636 
2.370000000000577, -1.7778829528796625 
2.380000000000598, -1.7775828456464466 
2.390000000000619, -1.7773071496232742 
2.4000000000006403, -1.7770417345061087 
2.4100000000006614, -1.776772015562953 
2.4200000000006825, -1.7764873299384054 
2.4300000000007036, -1.7761817488908558 
2.4400000000007247, -1.7758536958754703 
2.450000000000746, -1.775506561938288 
2.460000000000767, -1.7751506143672042 
2.470000000000788, -1.7748038753140007 
2.480000000000809, -1.7744877115051587 
2.49000000000083, -1.7742160110596277 
2.5000000000008513, -1.7739855954481865 
2.5100000000008724, -1.7737777087402573 
2.5200000000008935, -1.7735689820201006 
2.5300000000009146, -1.7733413944752132 
2.5400000000009357, -1.7730855480848409 
2.550000000000957, -1.7727992942330975 
2.560000000000978, -1.7724855256916623 
2.570000000000999, -1.772151004538444 
2.58000000000102, -1.771806038980634 
2.5900000000010412, -1.7714636049869121 
2.6000000000010624, -1.7711364415957072 
2.6100000000010835, -1.7708323547698233 
2.6200000000011046, -1.7705505747100188 
2.6300000000011257, -1.7702822633436999 
2.6400000000011468, -1.7700147918871507 
2.650000000001168, -1.7697362787773212 
2.660000000001189, -1.7694378648718605 
2.67000000000121, -1.7691141711786298 
2.680000000001231, -1.768763822231199 
2.6900000000012523, -1.7683913766737915 
2.7000000000012734, -1.768010150876441 
2.7100000000012945, -1.7676425169858667 
2.7200000000013156, -1.7673128383902093 
2.7300000000013367, -1.7670338892812072 
2.740000000001358, -1.7667979653967865 
2.750000000001379, -1.7665823200338084 
2.7600000000014, -1.7663628817747103 
2.770000000001421, -1.7661236234423108 
2.780000000001442, -1.7658578577881072 
2.7900000000014633, -1.7655656238622215 
2.8000000000014844, -1.7652513169461503 
2.8100000000015055, -1.7649228069725393 
2.8200000000015266, -1.764591136221838 
2.8300000000015477, -1.764268967896817 
2.840000000001569, -1.7639667195492694 
2.85000000000159, -1.7636879452424594 
2.860000000001611, -1.7634274635922325 
2.870000000001632, -1.7631738322489536 
2.8800000000016532, -1.7629139683516837 
2.8900000000016743, -1.762636691257412 
2.9000000000016954, -1.7623341129195154 
2.9100000000017165, -1.7620019622600664 
2.9200000000017377, -1.7616403874237876 
2.9300000000017588, -1.7612559123803955 
2.94000000000178, -1.7608634698346168 
2.950000000001801, -1.7604852382373277 
2.960000000001822, -1.7601429727992843 
2.970000000001843, -1.7598463354104765 
2.9800000000018643, -1.7595870979146557 
2.9900000000018854, -1.759345317270308 
3.0000000000019065, -1.7591008657849554 
3.0100000000019276, -1.7588404620352107 
3.0200000000019487, -1.758558307778053 
3.03000000000197, -1.7582541392178097 
3.040000000001991, -1.7579319506071964 
3.050000000002012, -1.7576000914643064 
3.060000000002033, -1.757271338480166 
3.070000000002054, -1.7569604708954252 
3.0800000000020753, -1.7566783584477008 
3.0900000000020964, -1.7564258832961492 
3.1000000000021175, -1.756193024390973 
3.1100000000021386, -1.7559638874112244 
3.1200000000021597, -1.7557231078886422 
3.130000000002181, -1.7554595697573716 
3.140000000002202, -1.7551671621877598 
3.150000000002223, -1.754844377735769 
3.160000000002244, -1.7544942870734217 
3.1700000000022652, -1.7541252282619397 
3.1800000000022863, -1.7537511779645407 
3.1900000000023074, -1.7533897056558014 
3.2000000000023285, -1.7530561188185323 
3.2100000000023496, -1.7527561577712631 
3.2200000000023707, -1.7524831163261747 
3.230000000002392, -1.7522222800242653 
3.240000000002413, -1.7519584159150547 
3.250000000002434, -1.7516804985993137 
3.260000000002455, -1.7513825392254883 
3.2700000000024763, -1.7510629318874913 
3.2800000000024974, -1.75072460692469 
3.2900000000025185, -1.7503764866362974 
3.3000000000025396, -1.7500344612730927 
3.3100000000025607, -1.7497182609878439 
3.3200000000025818, -1.7494425065664245 
3.330000000002603, -1.7492073416231975 
3.340000000002624, -1.748997634447873 
3.350000000002645, -1.7487916087011919 
3.360000000002666, -1.748570583911586 
3.3700000000026873, -1.7483234249762454 
3.3800000000027084, -1.748046182991842 
3.3900000000027295, -1.7477402021463582 
3.4000000000027506, -1.7474108414021852 
3.4100000000027717, -1.7470671093352919 
3.420000000002793, -1.746721201021185 
3.430000000002814, -1.746386435541466 
3.440000000002835, -1.7460730616127058 
3.450000000002856, -1.7457838375889891 
3.460000000002877, -1.7455127770634569 
3.4700000000028983, -1.745248256060528 
3.4800000000029194, -1.7449778366611404 
3.4900000000029405, -1.744691491165106 
3.5000000000029616, -1.744382541700515 
3.5100000000029827, -1.7440478372390047 
3.520000000003004, -1.7436888533290045 
3.530000000003025, -1.7433141648180992 
3.540000000003046, -1.7429414429695325 
3.550000000003067, -1.7425946310854687 
3.5600000000030882, -1.7422934431471995 
3.5700000000031094, -1.74204100359414 
3.5800000000031305, -1.7418215441555014 
3.5900000000031516, -1.7416107020098857 
3.6000000000031727, -1.7413878239358933 
3.6100000000031938, -1.741141327986148 
3.620000000003215, -1.74086775315861 
3.630000000003236, -1.7405690372504856 
3.640000000003257, -1.7402508001849575 
3.650000000003278, -1.7399218811075934 
3.6600000000032993, -1.7395938519420298 
3.6700000000033204, -1.7392788524931018 
3.6800000000033415, -1.738985417897619 
3.6900000000033626, -1.7387145486625637 
3.7000000000033837, -1.738459138063891 
3.710000000003405, -1.7382072010720837 
3.720000000003426, -1.7379462303261313 
3.730000000003447, -1.7376660364859635 
3.740000000003468, -1.7373596921141363 
3.750000000003489, -1.737023833618553 
3.7600000000035103, -1.7366596435715658 
3.7700000000035314, -1.7362748502591845 
3.7800000000035525, -1.735885349834979 
3.7900000000035736, -1.7355131891144961 
3.8000000000035947, -1.7351783830399303 
3.810000000003616, -1.7348881092275885 
3.820000000003637, -1.7346326593729962 
3.830000000003658, -1.7343923347768153 
3.840000000003679, -1.7341481576728555 
3.8500000000037002, -1.7338878617556883 
3.8600000000037213, -1.733606158607861 
3.8700000000037424, -1.7333029015590689 
3.8800000000037635, -1.732981999835428 
3.8900000000037847, -1.732651629357866 
3.9000000000038058, -1.7323243906268044 
3.910000000003827, -1.732015039574747 
3.920000000003848, -1.7317347483466665 
3.930000000003869, -1.7314849706045556 
3.94000000000389, -1.7312561754641482 
3.9500000000039113, -1.731032581733651 
3.9600000000039324, -1.7307986038807202 
3.9700000000039535, -1.7305428140190675 
3.9800000000039746, -1.7302588608316523 
3.9900000000039957, -1.7299450166744972 
4.000000000004016, -1.729603914178713 
4.010000000003993, -1.729242950342784 
4.02000000000397, -1.7288746181180366 
4.030000000003946, -1.7285150454985085 
4.040000000003923, -1.7281793175962161 
4.0500000000039, -1.7278749268772358 
4.0600000000038765, -1.7275980631007495 
4.070000000003853, -1.727336225158395 
4.08000000000383, -1.7270747311216899 
4.090000000003807, -1.7268018316723706 
4.100000000003783, -1.7265102875989744 
4.11000000000376, -1.7261969977772533 
4.120000000003737, -1.7258629510383947 
4.130000000003713, -1.7255145145087816 
4.14000000000369, -1.7251651218918915 
4.150000000003667, -1.724834243690136 
4.1600000000036434, -1.724540462230388 
4.17000000000362, -1.7242909188328341 
4.180000000003597, -1.7240760551141423 
4.1900000000035735, -1.723875125187441 
4.20000000000355, -1.7236668862424327 
4.210000000003527, -1.723436752983909 
4.220000000003504, -1.7231780719304008 
4.23000000000348, -1.7228903369805528 
4.240000000003457, -1.7225773157422501 
4.250000000003434, -1.7222461936173254 
4.26000000000341, -1.7219072721469195 
4.270000000003387, -1.721572914054601 
4.280000000003364, -1.721254628181456 
4.2900000000033405, -1.7209588577823869 
4.300000000003317, -1.7206840908377867 
4.310000000003294, -1.7204216737331628 
4.320000000003271, -1.7201596729581745 
4.330000000003247, -1.7198868072865607 
4.340000000003224, -1.7195944440990865 
4.350000000003201, -1.719277041547204 
4.360000000003177, -1.7189325861108682 
4.370000000003154, -1.7185642047444882 
4.380000000003131, -1.7181827455604612 
4.390000000003107, -1.717807842249806 
4.400000000003084, -1.7174632819934814 
4.410000000003061, -1.7171656827272361 
4.4200000000030375, -1.7169141291488894 
4.430000000003014, -1.7166910107298505 
4.440000000002991, -1.7164731248756564 
4.450000000002968, -1.716242279228662 
4.460000000002944, -1.7159888983053957 
4.470000000002921, -1.715710535882349 
4.480000000002898, -1.7154094525733874 
4.490000000002874, -1.7150913783661867 
4.500000000002851, -1.7147653552237785 
4.510000000002828, -1.7144432295452146 
4.520000000002804, -1.7141371375587986 
4.530000000002781, -1.7138549478116225 
4.540000000002758, -1.7135963774267897 
4.5500000000027345, -1.7133529581044162 
4.560000000002711, -1.7131117981173756 
4.570000000002688, -1.7128600891748718 
4.580000000002665, -1.7125878381276654 
4.590000000002641, -1.7122886732707403 
4.600000000002618, -1.7119599810262063 
4.610000000002595, -1.7116035330599533 
4.620000000002571, -1.7112268480248471 
4.630000000002548, -1.7108441875093376 
4.640000000002525, -1.7104747915273877 
4.6500000000025015, -1.710136501339066 
4.660000000002478, -1.7098371192872257 
4.670000000002455, -1.7095703324787792 
4.6800000000024315, -1.7093201801845417 
4.690000000002408, -1.7090696474569707 
4.700000000002385, -1.7088064415802227 
4.710000000002362, -1.7085240904954777 
4.720000000002338, -1.7082208312109852 
4.730000000002315, -1.7078988896075231 
4.740000000002292, -1.7075650354944447 
4.750000000002268, -1.7072314580731394 
4.760000000002245, -1.7069144646998264 
4.770000000002222, -1.70662886725788 
4.7800000000021985, -1.7063800766854247 
4.790000000002175, -1.7061603029728913 
4.800000000002152, -1.7059525450832023 
4.810000000002129, -1.7057385381713452 
4.820000000002105, -1.7055045762122183 
4.830000000002082, -1.7052431951873288 
4.840000000002059, -1.7049523819560144 
4.850000000002035, -1.7046344477582944 
4.860000000002012, -1.704295561075579 
4.870000000001989, -1.703945698632913 
4.880000000001965, -1.7035978781046963 
4.890000000001942, -1.7032654041801372 
4.900000000001919, -1.7029572360724363 
4.9100000000018955, -1.702674022410679 
4.920000000001872, -1.7024080030713264 
4.930000000001849, -1.702146946468354 
