t, s[1].omega / s[0].omega 
0, -2.7749958232559573 
0.009999999999999995, -2.7745556886637472 
0.019999999999999934, -2.7740787191841725 
0.029999999999999874, -2.773591560112467 
0.04000000000000012, -2.7731361080458923 
0.050000000000000405, -2.7727351033571908 
0.06000000000000069, -2.77236542785572 
0.07000000000000098, -2.7719882453269107 
0.08000000000000126, -2.7715831817131233 
0.09000000000000155, -2.771150521146147 
0.10000000000000184, -2.770705308136752 
0.11000000000000212, -2.770271100683271 
0.12000000000000241, -2.76986401164067 
0.130000000000002, -2.769477717471984 
0.1400000000000009, -2.7690896153940248 
0.1499999999999998, -2.7686782904194738 
0.1599999999999987, -2.7682331191479355 
0.1699999999999976, -2.767759487213602 
0.1799999999999965, -2.7672875258396745 
0.1899999999999954, -2.7668631722428154 
0.1999999999999943, -2.766500624698462 
0.2099999999999932, -2.7661623806019398 
0.2199999999999921, -2.765803859842223 
0.229999999999991, -2.7654042587621404 
0.2399999999999899, -2.7649627061103157 
0.2499999999999888, -2.764492595900781 
0.2599999999999877, -2.7640223904096457 
0.2699999999999866, -2.7635854531079 
0.2799999999999855, -2.7631905367231924 
0.2899999999999844, -2.7628123712348507 
0.2999999999999833, -2.762420872530398 
0.3099999999999822, -2.7620028453680066 
0.3199999999999811, -2.7615627807879575 
0.32999999999998, -2.761120287825352 
0.3399999999999789, -2.760700697214026 
0.3499999999999778, -2.7603127992329095 
0.35999999999997667, -2.7599393233295215 
0.36999999999997557, -2.7595535213731752 
0.37999999999997447, -2.759135933753836 
0.38999999999997337, -2.7586792334735684 
0.39999999999997227, -2.7581933852327483 
0.40999999999997117, -2.7577151992787803 
0.41999999999997006, -2.7572932231673914 
0.42999999999996896, -2.7569345881847123 
0.43999999999996786, -2.756595233329823 
0.44999999999996676, -2.756232141150285 
0.45999999999996566, -2.7558293324647716 
0.46999999999996456, -2.7553903601043674 
0.47999999999996346, -2.7549317063429153 
0.48999999999996235, -2.754480061093463 
0.49999999999996125, -2.7540589820679395 
0.5099999999999602, -2.7536677378942422 
0.519999999999959, -2.7532824148938104 
0.529999999999958, -2.7528795659572434 
0.5399999999999568, -2.7524502149177046 
0.5499999999999557, -2.752002174708038 
0.5599999999999546, -2.751560525520571 
0.5699999999999535, -2.751153748868201 
0.5799999999999524, -2.7507842441633 
0.5899999999999513, -2.750424722809027 
0.5999999999999502, -2.7500446748202565 
0.6099999999999491, -2.749626381931567 
0.619999999999948, -2.7491657502916884 
0.6299999999999469, -2.748676008939082 
0.6399999999999458, -2.7481955403733425 
0.6499999999999447, -2.747770363082169 
0.6599999999999436, -2.7474043953490637 
0.6699999999999425, -2.7470552493514573 
0.6799999999999414, -2.7466840534322863 
0.6899999999999403, -2.7462778124636635 
0.6999999999999392, -2.7458421221908367 
0.7099999999999381, -2.745394694402691 
0.719999999999937, -2.744959554148682 
0.7299999999999359, -2.7445520775795913 
0.7399999999999348, -2.744165125161202 
0.7499999999999337, -2.7437759945587596 
0.7599999999999326, -2.743364960622993 
0.7699999999999315, -2.7429249539689975 
0.7799999999999304, -2.7424660989908007 
0.7899999999999293, -2.742019526693004 
0.7999999999999282, -2.74161966278981 
0.8099999999999271, -2.741265579421805 
0.819999999999926, -2.7409208118537824 
0.8299999999999249, -2.7405504967007266 
0.8399999999999238, -2.7401383989593286 
0.8499999999999227, -2.7396837630637734 
0.8599999999999216, -2.7392015305371897 
0.8699999999999205, -2.738726679025596 
0.8799999999999194, -2.7382984449207557 
0.8899999999999183, -2.7379206070944817 
0.8999999999999172, -2.7375581004789185 
0.9099999999999161, -2.7371774597501424 
0.919999999999915, -2.7367670151472114 
0.9299999999999139, -2.7363327466355423 
0.9399999999999128, -2.735893213738383 
0.9499999999999117, -2.735471270210279 
0.9599999999999106, -2.7350767527171955 
0.9699999999999095, -2.734697207337396 
0.9799999999999084, -2.7343092851530906 
0.9899999999999073, -2.7338944425505582 
0.9999999999999062, -2.733445764409758 
1.0099999999999052, -2.7329737395272082 
1.019999999999904, -2.732513728794539 
1.029999999999903, -2.732108408436102 
1.039999999999902, -2.7317598408417916 
1.0499999999999008, -2.7314256310844716 
1.0599999999998997, -2.7310657311155135 
1.0699999999998986, -2.730664045351273 
1.0799999999998975, -2.7302222465609005 
1.0899999999998964, -2.7297556178450644 
1.0999999999998953, -2.729293528123379 
1.1099999999998942, -2.7288668455307152 
1.119999999999893, -2.7284797247118875 
1.129999999999892, -2.728105666360356 
1.1399999999998909, -2.727716618976582 
1.1499999999998898, -2.727301207741279 
1.1599999999998887, -2.7268648397295605 
1.1699999999998876, -2.726427532954493 
1.1799999999998865, -2.7260142940286007 
1.1899999999998854, -2.7256330275716416 
1.1999999999998843, -2.7252659473182415 
1.2099999999998832, -2.7248863941015666 
1.219999999999882, -2.724475105110618 
1.229999999999881, -2.7240245792975886 
1.2399999999998799, -2.723543533742185 
1.2499999999998788, -2.7230662756992903 
1.2599999999998777, -2.7226412259426356 
1.2699999999998766, -2.722280960711131 
1.2799999999998755, -2.7219456480529 
1.2899999999998744, -2.7215910585364376 
1.2999999999998733, -2.721198655455433 
1.3099999999998722, -2.7207701603573176 
1.319999999999871, -2.7203200670285 
1.32999999999987, -2.71987285090571 
1.3399999999998689, -2.719452290022866 
1.3499999999998678, -2.719061910614932 
1.3599999999998666, -2.718681508513085 
1.3699999999998655, -2.718287119201949 
1.3799999999998644, -2.7178667587069656 
1.3899999999998633, -2.7174241007516318 
1.3999999999998622, -2.7169805964460028 
1.4099999999998611, -2.716567559734245 
1.41999999999986, -2.716197105887026 
1.429999999999859, -2.715847075603077 
1.4399999999998578, -2.7154841902509705 
1.4499999999998567, -2.7150864692667147 
1.4599999999998556, -2.714646097466797 
1.4699999999998545, -2.714169632589165 
1.4799999999998534, -2.713685062273995 
1.4899999999998523, -2.713238056176759 
1.4999999999998512, -2.7128528064641118 
1.5099999999998501, -2.712502879252372 
1.519999999999849, -2.712145262592784 
1.529999999999848, -2.7117573192337856 
1.5399999999998468, -2.711337904465981 
1.5499999999998457, -2.710899667807402 
1.5599999999998446, -2.7104643780163697 
1.5699999999998435, -2.7100520314350574 
1.5799999999998424, -2.709664876942999 
1.5899999999998413, -2.7092852839121067 
1.5999999999998402, -2.708890989050555 
1.6099999999998391, -2.708468347853854 
1.619999999999838, -2.7080174830137236 
1.629999999999837, -2.7075584082743878 
1.6399999999998358, -2.707129951923654 
1.6499999999998347, -2.706757612800911 
1.6599999999998336, -2.706421509848926 
1.6699999999998325, -2.706079468438988 
1.6799999999998314, -2.705703105812454 
1.6899999999998303, -2.7052835865456037 
1.6999999999998292, -2.704826302638783 
1.709999999999828, -2.7043521353487896 
1.719999999999827, -2.703897093193735 
1.729999999999826, -2.703489376411914 
1.7399999999998248, -2.7031195467580456 
1.7499999999998237, -2.702753209277872 
1.7599999999998226, -2.7023651627611245 
1.7699999999998215, -2.7019495558635507 
1.7799999999998204, -2.701516022197375 
1.7899999999998193, -2.7010858052620934 
1.7999999999998182, -2.700680056967299 
1.809999999999817, -2.7003013625691077 
1.819999999999816, -2.699931198851602 
1.8299999999998149, -2.699545759190525 
1.8399999999998138, -2.699128776163059 
1.8499999999998127, -2.6986757471427065 
1.8599999999998116, -2.6982003013099662 
1.8699999999998105, -2.6977414149334735 
1.8799999999998094, -2.697341861382383 
1.8899999999998083, -2.6969995469254258 
1.8999999999998072, -2.696669666061987 
1.909999999999806, -2.6963133661481224 
1.919999999999805, -2.6959168150654014 
1.9299999999998039, -2.6954836115925422 
1.9399999999998028, -2.6950296559107025 
1.9499999999998017, -2.694581585435596 
1.9599999999998006, -2.6941645475172478 
1.9699999999997995, -2.6937803036579657 
1.9799999999997984, -2.693405795788302 
1.9899999999997973, -2.6930164432005546 
1.9999999999997962, -2.692601452775934 
2.0099999999998173, -2.6921657200559994 
2.0199999999998384, -2.6917300561117115 
2.0299999999998595, -2.6913222679238693 
2.0399999999998806, -2.6909518799760614 
2.0499999999999017, -2.690598924139623 
2.059999999999923, -2.690233657235389 
2.069999999999944, -2.6898354124409716 
2.079999999999965, -2.689396012055376 
2.089999999999986, -2.688921509742754 
2.100000000000007, -2.688440243897451 
2.1100000000000283, -2.687998909446461 
2.1200000000000494, -2.6876218233876505 
2.1300000000000705, -2.687281236245928 
2.1400000000000916, -2.6869325730553952 
2.1500000000001127, -2.6865521819119142 
2.160000000000134, -2.6861382002756575 
2.170000000000155, -2.6857022935511914 
2.180000000000176, -2.685265573459814 
2.190000000000197, -2.684849782323645 
2.2000000000002182, -2.684461203488829 
2.2100000000002393, -2.6840847719485565 
2.2200000000002604, -2.6836978171061725 
2.2300000000002815, -2.6832852229839874 
2.2400000000003026, -2.6828451103819 
2.2500000000003237, -2.6823935032383095 
2.260000000000345, -2.681964863679977 
2.270000000000366, -2.6815869716847827 
2.280000000000387, -2.681248123500986 
2.290000000000408, -2.6809100004854685 
2.3000000000004293, -2.680542204894299 
2.3100000000004504, -2.680132397735921 
2.3200000000004715, -2.679682311863323 
2.3300000000004926, -2.679208752864815 
2.3400000000005137, -2.678746343794711 
2.3500000000005348, -2.678330068868556 
2.360000000000556, -2.6779602696601 
2.370000000000577, -2.677603555372356 
2.380000000000598, -2.677229225016435 
2.390000000000619, -2.676826440086693 
2.4000000000006403, -2.6764007527985894 
2.4100000000006614, -2.6759699182122607 
2.4200000000006825, -2.675556369919865 
2.4300000000007036, -2.6751705667393577 
2.4400000000007247, -2.674801238268766 
2.450000000000746, -2.6744255698788812 
2.460000000000767, -2.6740243638524133 
2.470000000000788, -2.6735886727936 
2.480000000000809, -2.6731242907959585 
2.49000000000083, -2.6726601874385016 
2.5000000000008513, -2.672241399302952 
2.5100000000008724, -2.6718859260147108 
2.5200000000008935, -2.671561163337035 
2.5300000000009146, -2.6712223662555363 
2.5400000000009357, -2.6708462574791705 
2.550000000000957, -2.6704299742798674 
2.560000000000978, -2.6699837792829673 
2.570000000000999, -2.6695300076150543 
2.58000000000102, -2.669097787250082 
2.5900000000010412, -2.66870279823928 
2.6000000000010624, -2.6683316462925064 
2.6100000000010835, -2.667956925921633 
2.6200000000011046, -2.6675601777361244 
2.6300000000011257, -2.667138405206466 
2.6400000000011468, -2.6667039108630446 
2.650000000001168, -2.6662820175391246 
2.660000000001189, -2.6658944452749234 
2.67000000000121, -2.665537035091589 
2.680000000001231, -2.6651837135936702 
2.6900000000012523, -2.6648084266387073 
2.7000000000012734, -2.6643961235860485 
2.7100000000012945, -2.663943787344051 
2.7200000000013156, -2.6634652175854976 
2.7300000000013367, -2.6629980772490334 
2.740000000001358, -2.662586111882641 
2.750000000001379, -2.6622331320894324 
2.7600000000014, -2.6618988733108924 
2.770000000001421, -2.661544660206152 
2.780000000001442, -2.661155915314704 
2.7900000000014633, -2.6607360843204884 
2.8000000000014844, -2.6603001634719226 
2.8100000000015055, -2.659870684837471 
2.8200000000015266, -2.659466311149806 
2.8300000000015477, -2.6590867567951446 
2.840000000001569, -2.6587130481951764 
2.85000000000159, -2.6583238058166243 
2.860000000001611, -2.6579073715866075 
2.870000000001632, -2.6574659629502007 
2.8800000000016532, -2.6570203881475796 
2.8900000000016743, -2.6566061303588695 
2.9000000000016954, -2.6562430747903383 
2.9100000000017165, -2.65591103582194 
2.9200000000017377, -2.6555719095908854 
2.9300000000017588, -2.6551996349187883 
2.94000000000178, -2.6547851202819985 
2.950000000001801, -2.6543325061242298 
2.960000000001822, -2.6538614488458605 
2.970000000001843, -2.6534080490884016 
2.9800000000018643, -2.6530032911267556 
2.9900000000018854, -2.6526410050150417 
3.0000000000019065, -2.6522865989308606 
3.0100000000019276, -2.6519122894243834 
3.0200000000019487, -2.6515097462822284 
3.03000000000197, -2.6510859540960867 
3.040000000001991, -2.6506594008807047 
3.050000000002012, -2.650251903771016 
3.060000000002033, -2.6498719951435215 
3.070000000002054, -2.6495069832947498 
3.0800000000020753, -2.6491341267595607 
3.0900000000020964, -2.6487349698039724 
3.1000000000021175, -2.6483011919061292 
3.1100000000021386, -2.6478390139039516 
3.1200000000021597, -2.6473774807499035 
3.130000000002181, -2.646961207036987 
3.140000000002202, -2.64660819914556 
3.150000000002223, -2.646286643237656 
3.160000000002244, -2.6459521663386543 
3.1700000000022652, -2.6455812816576803 
3.1800000000022863, -2.64517082031912 
3.1900000000023074, -2.644730511022197 
3.2000000000023285, -2.644281533649825 
3.2100000000023496, -2.6438518312284534 
3.2200000000023707, -2.6434577730450934 
3.230000000002392, -2.643088380334099 
3.240000000002413, -2.6427174705735443 
3.250000000002434, -2.642325856558944 
3.260000000002455, -2.6419089530837647 
3.2700000000024763, -2.641477134345963 
3.2800000000024974, -2.6410547892184324 
3.2900000000025185, -2.640666105828461 
3.3000000000025396, -2.6403111259663503 
3.3100000000025607, -2.639965082312424 
3.3200000000025818, -2.6396004035080796 
3.330000000002603, -2.6392001869054074 
3.340000000002624, -2.638759366695382 
3.350000000002645, -2.638287539095428 
3.360000000002666, -2.6378164291616604 
3.3700000000026873, -2.637390719389708 
3.3800000000027084, -2.6370265976113814 
3.3900000000027295, -2.6366925519085087 
3.4000000000027506, -2.6363472271949497 
3.4100000000027717, -2.635970441781845 
3.420000000002793, -2.635561759576404 
3.430000000002814, -2.6351331723268867 
3.440000000002835, -2.6347052991354056 
3.450000000002856, -2.6342984881875875 
3.460000000002877, -2.633917877775221 
3.4700000000028983, -2.6335487388986314 
3.4800000000029194, -2.633169279577645 
3.4900000000029405, -2.632764424872606 
3.5000000000029616, -2.632331127887064 
3.5100000000029827, -2.631883038322817 
3.520000000003004, -2.6314532075796926 
3.530000000003025, -2.631073612632817 
3.540000000003046, -2.6307396169494313 
3.550000000003067, -2.6304142978810385 
3.5600000000030882, -2.630064026698092 
3.5700000000031094, -2.6296736292045164 
3.5800000000031305, -2.6292426093374237 
3.5900000000031516, -2.6287833998545436 
3.6000000000031727, -2.6283240360778377 
3.6100000000031938, -2.627899203354885 
3.620000000003215, -2.6275211098077262 
3.630000000003236, -2.627166668610225 
3.640000000003257, -2.6268039925389646 
3.650000000003278, -2.6264162716693287 
3.6600000000032993, -2.626003412985834 
3.6700000000033204, -2.625578579919108 
3.6800000000033415, -2.625163960010653 
3.6900000000033626, -2.6247768929562314 
3.7000000000033837, -2.624414188067319 
3.710000000003405, -2.62405511143101 
3.720000000003426, -2.623677332399013 
3.730000000003447, -2.6232667091266206 
3.740000000003468, -2.6228202432777863 
3.750000000003489, -2.6223522607439 
3.7600000000035103, -2.621900778584506 
3.7700000000035314, -2.621507172854276 
3.7800000000035525, -2.6211712739188098 
3.7900000000035736, -2.620851320856355 
3.8000000000035947, -2.6205087438055235 
3.810000000003616, -2.6201285315130383 
3.820000000003637, -2.61971294126353 
3.830000000003658, -2.6192755409376334 
3.840000000003679, -2.618839300594865 
3.8500000000037002, -2.618427830941008 
3.8600000000037213, -2.618047552871226 
3.8700000000037424, -2.6176816153610507 
3.8800000000037635, -2.6173063275956343 
3.8900000000037847, -2.6169073753922114 
3.9000000000038058, -2.616484072194937 
3.910000000003827, -2.616051207200431 
3.920000000003848, -2.6156372332613165 
3.930000000003869, -2.6152642887203603 
3.94000000000389, -2.614924179086992 
3.9500000000039113, -2.6145865301521556 
3.9600000000039324, -2.6142241365258707 
3.9700000000039535, -2.613823040674051 
3.9800000000039746, -2.6133814852238237 
3.9900000000039957, -2.6129124003569375 
4.000000000004016, -2.6124488562675854 
4.010000000003993, -2.6120312752821486 
4.02000000000397, -2.6116693319800626 
4.030000000003946, -2.6113314030366035 
4.040000000003923, -2.6109808653179565 
4.0500000000039, -2.6106009889192814 
4.0600000000038765, -2.6101928052963297 
4.070000000003853, -2.60976926024159 
4.08000000000383, -2.609351070151514 
4.090000000003807, -2.6089560144580703 
4.100000000003783, -2.6085849688711074 
4.11000000000376, -2.608221142603983 
4.120000000003737, -2.6078434433818325 
4.130000000003713, -2.6074377484288265 
4.14000000000369, -2.607001212461112 
4.150000000003667, -2.6065478767405375 
4.1600000000036434, -2.6061129740698763 
4.17000000000362, -2.6057323936903947 
4.180000000003597, -2.6054032656018844 
4.1900000000035735, -2.605086386329446 
4.20000000000355, -2.604745600991083 
4.210000000003527, -2.6043654254767596 
4.220000000003504, -2.6039461936302173 
4.23000000000348, -2.6035000511567112 
4.240000000003457, -2.603051591508479 
4.250000000003434, -2.6026305910712706 
4.26000000000341, -2.6022494624031727 
4.270000000003387, -2.6018909000944226 
4.280000000003364, -2.6015269125912166 
4.2900000000033405, -2.601140402153787 
4.300000000003317, -2.6007293854380737 
4.310000000003294, -2.6003057200659545 
4.320000000003271, -2.5998925663551993 
4.330000000003247, -2.5995103003450306 
4.340000000003224, -2.599157172468314 
4.350000000003201, -2.5988107343214955 
4.360000000003177, -2.598446252786753 
4.370000000003154, -2.5980479524639444 
4.380000000003131, -2.5976108209167235 
4.390000000003107, -2.5971444066428715 
4.400000000003084, -2.5966804371039562 
4.410000000003061, -2.5962631838417103 
4.4200000000030375, -2.595908362875013 
4.430000000003014, -2.5955844232970455 
4.440000000002991, -2.5952495671681457 
4.450000000002968, -2.5948826654253407 
4.460000000002944, -2.5944822160795766 
4.470000000002921, -2.5940588475536317 
4.480000000002898, -2.5936320444292305 
4.490000000002874, -2.5932233841816874 
4.500000000002851, -2.592842244690839 
4.510000000002828, -2.592477575317666 
4.520000000002804, -2.5921078501667463 
4.530000000002781, -2.591716194304046 
4.540000000002758, -2.5912968952457587 
4.5500000000027345, -2.590858810147562 
4.560000000002711, -2.5904290669460246 
4.570000000002688, -2.5900409441216476 
4.580000000002665, -2.58970116567814 
4.590000000002641, -2.5893808526083464 
4.600000000002618, -2.5890447001299095 
4.610000000002595, -2.588672472083835 
4.620000000002571, -2.5882590031666806 
4.630000000002548, -2.5878112602616135 
4.640000000002525, -2.5873510236178925 
4.6500000000025015, -2.586913087482494 
4.660000000002478, -2.586522535152475 
4.670000000002455, -2.5861692883251957 
4.6800000000024315, -2.585820817390569 
4.690000000002408, -2.5854525221417974 
4.700000000002385, -2.585057281705203 
4.710000000002362, -2.5846419788504478 
4.720000000002338, -2.5842245682734797 
4.730000000002315, -2.5838265233455027 
4.740000000002292, -2.583456739695306 
4.750000000002268, -2.583103286163593 
4.760000000002245, -2.582743763018901 
4.770000000002222, -2.582359266886026 
4.7800000000021985, -2.5819400270764272 
4.790000000002175, -2.581488488294762 
4.800000000002152, -2.5810269310702045 
4.810000000002129, -2.580597719058891 
4.820000000002105, -2.580231482050321 
4.830000000002082, -2.5799114155232736 
4.840000000002059, -2.579593432689717 
4.850000000002035, -2.579246605471635 
4.860000000002012, -2.5788620405686413 
4.870000000001989, -2.578445139779353 
4.880000000001965, -2.5780115605551073 
4.890000000001942, -2.5775848816171565 
4.900000000001919, -2.577185756291658 
4.9100000000018955, -2.5768154302508877 
4.920000000001872, -2.5764547647191307 
4.930000000001849, -2.5760816482951556 
4.940000000001826, -2.575684110735451 
4.950000000001802, -2.575263276510253 
4.960000000001779, -2.574835455803842 
4.970000000001756, -2.5744294645305783 
