t, s[1].omega / s[0].omega 
0, -0.7399976778074103 
0.009999999999999995, -0.7397618003050345 
0.019999999999999934, -0.7395188884226073 
0.029999999999999874, -0.7392695443107618 
0.04000000000000012, -0.7390147126164657 
0.050000000000000405, -0.7387556148003005 
0.06000000000000069, -0.7384936798252532 
0.07000000000000098, -0.7382304835057527 
0.08000000000000126, -0.7379677027674315 
0.09000000000000155, -0.7377070833924974 
0.10000000000000184, -0.7374504129305415 
0.11000000000000212, -0.7371994860454928 
0.12000000000000241, -0.7369560485085265 
0.130000000000002, -0.7367217086731722 
0.1400000000000009, -0.7364978116902845 
0.1499999999999998, -0.7362852817795098 
0.1599999999999987, -0.7360844507509341 
0.1699999999999976, -0.7358949045246104 
0.1799999999999965, -0.7357153895223689 
0.1899999999999954, -0.7355438215228953 
0.1999999999999943, -0.7353774249707428 
0.2099999999999932, -0.7352129993600871 
0.2199999999999921, -0.735047268948399 
0.229999999999991, -0.7348772397821369 
0.2399999999999899, -0.7347004817817498 
0.2499999999999888, -0.7345152792793088 
0.2599999999999877, -0.7343206386229698 
0.2699999999999866, -0.7341161838042324 
0.2799999999999855, -0.7339019933006059 
0.2899999999999844, -0.7336784305869892 
0.2999999999999833, -0.7334460057006759 
0.3099999999999822, -0.7332052870700851 
0.3199999999999811, -0.7329568686571838 
0.32999999999998, -0.732701388919885 
0.3399999999999789, -0.7324395931545958 
0.3499999999999778, -0.7321724262754971 
0.35999999999997667, -0.7319011366060991 
0.36999999999997557, -0.7316273624659326 
0.37999999999997447, -0.7313531650359746 
0.38999999999997337, -0.731080969360195 
0.39999999999997227, -0.7308133880230318 
0.40999999999997117, -0.7305529331050803 
0.41999999999997006, -0.7303016655413247 
0.42999999999996896, -0.7300608687117005 
0.43999999999996786, -0.7298308418640065 
0.44999999999996676, -0.7296108767936468 
0.45999999999996566, -0.7293994195011734 
0.46999999999996456, -0.7291943576580509 
0.47999999999996346, -0.7289933437411347 
0.48999999999996235, -0.7287940717919442 
0.49999999999996125, -0.7285944601681629 
0.5099999999999602, -0.728392731867019 
0.519999999999959, -0.7281874121442458 
0.529999999999958, -0.7279772755732078 
0.5399999999999568, -0.7277612750012962 
0.5499999999999557, -0.7275384792442362 
0.5599999999999546, -0.7273080394802984 
0.5699999999999535, -0.7270691978834487 
0.5799999999999524, -0.7268213452210609 
0.5899999999999513, -0.7265641248795078 
0.5999999999999502, -0.726297567786884 
0.6099999999999491, -0.7260222277055175 
0.619999999999948, -0.7257392752851641 
0.6299999999999469, -0.7254505102751854 
0.6399999999999458, -0.725158269224542 
0.6499999999999447, -0.724865236590041 
0.6599999999999436, -0.7245741971997383 
0.6699999999999425, -0.724287783266342 
0.6799999999999414, -0.7240082640351987 
0.6899999999999403, -0.7237374064304296 
0.6999999999999392, -0.7234764120742224 
0.7099999999999381, -0.7232259188913732 
0.719999999999937, -0.7229860473352732 
0.7299999999999359, -0.7227564705378939 
0.7399999999999348, -0.7225364912198954 
0.7499999999999337, -0.7223251133940775 
0.7599999999999326, -0.7221211023524071 
0.7699999999999315, -0.7219230315891181 
0.7799999999999304, -0.7217293198977354 
0.7899999999999293, -0.7215382654865538 
0.7999999999999282, -0.7213480859484036 
0.8099999999999271, -0.7211569725426005 
0.819999999999926, -0.7209631639276023 
0.8299999999999249, -0.7207650382693721 
0.8399999999999238, -0.7205612146984472 
0.8499999999999227, -0.7203506479314654 
0.8599999999999216, -0.7201326969392458 
0.8699999999999205, -0.7199071525092663 
0.8799999999999194, -0.7196742191488085 
0.8899999999999183, -0.7194344599729987 
0.8999999999999172, -0.7191887231909431 
0.9099999999999161, -0.7189380714910001 
0.919999999999915, -0.7186837309104462 
0.9299999999999139, -0.718427066615279 
0.9399999999999128, -0.7181695829348544 
0.9499999999999117, -0.7179129362296992 
0.9599999999999106, -0.7176589425300067 
0.9699999999999095, -0.7174095577754913 
0.9799999999999084, -0.7171668080409861 
0.9899999999999073, -0.716932652602005 
0.9999999999999062, -0.71670877668751 
1.0099999999999052, -0.7164963340827772 
1.019999999999904, -0.7162956883300444 
1.029999999999903, -0.7161062242104786 
1.039999999999902, -0.7159263030170282 
1.0499999999999008, -0.7157534046364796 
1.0599999999998997, -0.7155844413377384 
1.0699999999998986, -0.7154161669351702 
1.0799999999998975, -0.7152455726287364 
1.0899999999998964, -0.7150701743297819 
1.0999999999998953, -0.7148881450799003 
1.1099999999998942, -0.7146983015189721 
1.119999999999893, -0.714499989952879 
1.129999999999892, -0.7142929273850892 
1.1399999999998909, -0.7140770432013029 
1.1499999999998898, -0.7138523503845584 
1.1599999999998887, -0.7136188604015377 
1.1699999999998876, -0.7133765468842266 
1.1799999999998865, -0.7131253593455632 
1.1899999999998854, -0.712865286691829 
1.1999999999998843, -0.712596467825896 
1.2099999999998832, -0.7123193400170312 
1.219999999999882, -0.7120348032060169 
1.229999999999881, -0.7117443616209495 
1.2399999999998799, -0.711450189901355 
1.2499999999998788, -0.7111550710630329 
1.2599999999998777, -0.7108621786839457 
1.2699999999998766, -0.7105747248219749 
1.2799999999998755, -0.7102955495714158 
1.2899999999998744, -0.7100267584696398 
1.2999999999998733, -0.7097695005355728 
1.3099999999998722, -0.7095239286733277 
1.319999999999871, -0.7092893231509334 
1.32999999999987, -0.7090643166348534 
1.3399999999998689, -0.708847148344097 
1.3499999999998678, -0.7086358896306396 
1.3599999999998666, -0.7084286094521565 
1.3699999999998655, -0.7082234731443137 
1.3799999999998644, -0.7080187851628996 
1.3899999999998633, -0.7078129951356903 
1.3999999999998622, -0.7076046885528487 
1.4099999999998611, -0.7073925810538993 
1.41999999999986, -0.7071755300444468 
1.429999999999859, -0.706952569961244 
1.4399999999998578, -0.7067229685321461 
1.4499999999998567, -0.7064862924526836 
1.4599999999998556, -0.7062424648779186 
1.4699999999998545, -0.7059917969469465 
1.4799999999998534, -0.7057349820955192 
1.4899999999998523, -0.7054730526868072 
1.4999999999998512, -0.7052073087886408 
1.5099999999998501, -0.7049392346713079 
1.519999999999849, -0.7046704184822601 
1.529999999999848, -0.7044024859249085 
1.5399999999998468, -0.7041370521120311 
1.5499999999998457, -0.7038756893219047 
1.5599999999998446, -0.7036199035925621 
1.5699999999998435, -0.7033711105788665 
1.5799999999998424, -0.7031306009237425 
1.5899999999998413, -0.7028994873266787 
1.5999999999998402, -0.7026786292728467 
1.6099999999998391, -0.7024685368753307 
1.619999999999838, -0.7022692623891527 
1.629999999999837, -0.7020802962739154 
1.6399999999998358, -0.7019004928328643 
1.6499999999998347, -0.7017280554019532 
1.6599999999998336, -0.701560608195246 
1.6699999999998325, -0.7013953670161748 
1.6799999999998314, -0.7012293942870294 
1.6899999999998303, -0.701059893362517 
1.6999999999998292, -0.7008844775240951 
1.709999999999828, -0.7007013530357588 
1.719999999999827, -0.7005093836486467 
1.729999999999826, -0.7003080422967459 
1.7399999999998248, -0.700097285979788 
1.7499999999998237, -0.6998774011102781 
1.7599999999998226, -0.6996488602777551 
1.7699999999998215, -0.6994122163249205 
1.7799999999998204, -0.6991680446289082 
1.7899999999998193, -0.698916933966798 
1.7999999999998182, -0.6986595203801409 
1.809999999999817, -0.6983965547653602 
1.819999999999816, -0.6981289909183631 
1.8299999999998149, -0.697858074941121 
1.8399999999998138, -0.6975854097962894 
1.8499999999998127, -0.6973129635193993 
1.8599999999998116, -0.6970429915993223 
1.8699999999998105, -0.6967778588074667 
1.8799999999998094, -0.6965197745301465 
1.8899999999998083, -0.6962704910750797 
1.8999999999998072, -0.6960310404931667 
1.909999999999806, -0.6958015851644814 
1.919999999999805, -0.6955814250389161 
1.9299999999998039, -0.6953691528191825 
1.9399999999998028, -0.6951629024998379 
1.9499999999998017, -0.6949606172086465 
1.9599999999998006, -0.6947602730226723 
1.9699999999997995, -0.6945600243645424 
1.9799999999997984, -0.6943582670838885 
1.9899999999997973, -0.6941536363296378 
1.9999999999997962, -0.6939449653034095 
2.0099999999998173, -0.6937312311056342 
2.0199999999998384, -0.6935115096875436 
2.0299999999998595, -0.6932849565355859 
2.0399999999998806, -0.6930508240114295 
2.0499999999999017, -0.6928085193660258 
2.059999999999923, -0.6925576980279973 
2.069999999999944, -0.6922983749076609 
2.079999999999965, -0.692031025182818 
2.089999999999986, -0.6917566411557066 
2.100000000000007, -0.6914767187735763 
2.1100000000000283, -0.6911931665555338 
2.1200000000000494, -0.690908153623824 
2.1300000000000705, -0.6906239309875408 
2.1400000000000916, -0.6903426634709733 
2.1500000000001127, -0.6900662994714271 
2.160000000000134, -0.6897964893742696 
2.170000000000155, -0.6895345489125253 
2.180000000000176, -0.6892814553007967 
2.190000000000197, -0.6890378616980448 
2.2000000000002182, -0.6888041173462726 
2.2100000000002393, -0.6885802842922112 
2.2200000000002604, -0.688366145455759 
2.2300000000002815, -0.688161202433849 
2.2400000000003026, -0.6879646649122835 
2.2500000000003237, -0.6877754371708767 
2.260000000000345, -0.6875921109186452 
2.270000000000366, -0.6874129769363871 
2.280000000000387, -0.687236069185222 
2.290000000000408, -0.6870592519468924 
2.3000000000004293, -0.6868803514374192 
2.3100000000004504, -0.6866973188742296 
2.3200000000004715, -0.6865083969442873 
2.3300000000004926, -0.6863122538288747 
2.3400000000005137, -0.6861080546024214 
2.3500000000005348, -0.6858954582264076 
2.360000000000556, -0.6856745511106661 
2.370000000000577, -0.6854457447083699 
2.380000000000598, -0.6852096690187458 
2.390000000000619, -0.684967087600542 
2.4000000000006403, -0.6847188483788045 
2.4100000000006614, -0.6844658734056394 
2.4200000000006825, -0.6842091821850989 
2.4300000000007036, -0.6839499369340949 
2.4400000000007247, -0.6836894929537648 
2.450000000000746, -0.6834294325122163 
2.460000000000767, -0.6831715574456693 
2.470000000000788, -0.6829178172514119 
2.480000000000809, -0.6826701598591682 
2.49000000000083, -0.6824303136099482 
2.5000000000008513, -0.6821995374584305 
2.5100000000008724, -0.6819784006305648 
2.5200000000008935, -0.6817666579978977 
2.5300000000009146, -0.6815632648076744 
2.5400000000009357, -0.6813665307791651 
2.550000000000957, -0.6811743690111912 
2.560000000000978, -0.6809845704993327 
2.570000000000999, -0.6807950387546995 
2.58000000000102, -0.68060394394152 
2.5900000000010412, -0.6804097869950084 
2.6000000000010624, -0.6802113883713028 
2.6100000000010835, -0.6800078280302412 
2.6200000000011046, -0.679798364520883 
2.6300000000011257, -0.6795823564045732 
2.6400000000011468, -0.6793592032172902 
2.650000000001168, -0.6791283182256574 
2.660000000001189, -0.6788891415864065 
2.67000000000121, -0.678641198660206 
2.680000000001231, -0.6783842018370863 
2.6900000000012523, -0.6781181836056683 
2.7000000000012734, -0.6778436346211819 
2.7100000000012945, -0.6775616082203294 
2.7200000000013156, -0.6772737504700606 
2.7300000000013367, -0.6769822290861012 
2.740000000001358, -0.6766895638115031 
2.750000000001379, -0.6763983930257584 
2.7600000000014, -0.6761112305006575 
2.770000000001421, -0.6758302636020036 
2.780000000001442, -0.6755572239582394 
2.7900000000014633, -0.6752933360261151 
2.8000000000014844, -0.6750393294005919 
2.8100000000015055, -0.6747954917614754 
2.8200000000015266, -0.6745617394689791 
2.8300000000015477, -0.6743376879257064 
2.840000000001569, -0.674122710334951 
2.85000000000159, -0.6739159794602803 
2.860000000001611, -0.673716491872577 
2.870000000001632, -0.6735230781059658 
2.8800000000016532, -0.6733344053993654 
2.8900000000016743, -0.6731489822980794 
2.9000000000016954, -0.6729651759169268 
2.9100000000017165, -0.6727812522254709 
2.9200000000017377, -0.672595446129909 
2.9300000000017588, -0.6724060606342285 
2.94000000000178, -0.6722115838380895 
2.950000000001801, -0.6720108024671017 
2.960000000001822, -0.6718028863922997 
2.970000000001843, -0.671587424174188 
2.9800000000018643, -0.671364404030282 
2.9900000000018854, -0.6711341513552017 
3.0000000000019065, -0.6708972452998151 
3.0100000000019276, -0.6706544389558922 
3.0200000000019487, -0.6704066017519269 
3.03000000000197, -0.670154693059295 
3.040000000001991, -0.6698997665916813 
3.050000000002012, -0.6696429976222567 
3.060000000002033, -0.6693857191869093 
3.070000000002054, -0.6691294487011539 
3.0800000000020753, -0.6688758831309458 
3.0900000000020964, -0.6686268410188843 
3.1000000000021175, -0.6683841366014269 
3.1100000000021386, -0.6681493877513177 
3.1200000000021597, -0.66792378448389 
3.130000000002181, -0.6677078703693237 
3.140000000002202, -0.6675014015979057 
3.150000000002223, -0.6673033354609428 
3.160000000002244, -0.6671119616665911 
3.1700000000022652, -0.6669251425148015 
3.1800000000022863, -0.6667405949662142 
3.1900000000023074, -0.6665561436183781 
3.2000000000023285, -0.6663698955586642 
3.2100000000023496, -0.6661803207055399 
3.2200000000023707, -0.6659862489918634 
3.230000000002392, -0.6657868107888595 
3.240000000002413, -0.6655813498030629 
3.250000000002434, -0.6653693331412516 
3.260000000002455, -0.6651502764773304 
3.2700000000024763, -0.6649236965551222 
3.2800000000024974, -0.6646890996106365 
3.2900000000025185, -0.6644460118074349 
3.3000000000025396, -0.664194054348913 
3.3100000000025607, -0.6639330591452961 
3.3200000000025818, -0.6636632094786029 
3.330000000002603, -0.6633851758158691 
3.340000000002624, -0.6631002059175176 
3.350000000002645, -0.6628101294818677 
3.360000000002666, -0.6625172564286577 
3.3700000000026873, -0.6622241804490057 
3.3800000000027084, -0.6619335311654967 
3.3900000000027295, -0.6616477330032591 
3.4000000000027506, -0.6613688203467125 
3.4100000000027717, -0.66109833396953 
3.420000000002793, -0.6608372970160679 
3.430000000002814, -0.6605862507806654 
3.440000000002835, -0.6603453242194857 
3.450000000002856, -0.6601143136297885 
3.460000000002877, -0.6598927555589035 
3.4700000000028983, -0.659679983192899 
3.4800000000029194, -0.659475162541685 
3.4900000000029405, -0.6592773093969383 
3.5000000000029616, -0.6590852916349665 
3.5100000000029827, -0.6588978243628268 
3.520000000003004, -0.6587134677653638 
3.530000000003025, -0.6585306389151089 
3.540000000003046, -0.6583476482950117 
3.550000000003067, -0.6581627680247255 
3.5600000000030882, -0.6579743308724253 
3.5700000000031094, -0.65778084801684 
3.5800000000031305, -0.6575811230632714 
3.5900000000031516, -0.6573743357909472 
3.6000000000031727, -0.6571600755161859 
3.6100000000031938, -0.6569383192129818 
3.620000000003215, -0.6567093665776441 
3.630000000003236, -0.6564737551964168 
3.640000000003257, -0.65623218031591 
3.650000000003278, -0.6559854373231976 
3.6600000000032993, -0.6557343954735322 
3.6700000000033204, -0.6554800024242727 
3.6800000000033415, -0.6552233121868949 
3.6900000000033626, -0.6549655238413935 
3.7000000000033837, -0.6547080140295016 
3.710000000003405, -0.6544523430226976 
3.720000000003426, -0.6542002138045144 
3.730000000003447, -0.6539533691642504 
3.740000000003468, -0.6537134259236069 
3.750000000003489, -0.6534816673777611 
3.7600000000035103, -0.6532588380831136 
3.7700000000035314, -0.6530449974353859 
3.7800000000035525, -0.6528394796102653 
3.7900000000035736, -0.6526409770426952 
3.8000000000035947, -0.652447725443826 
3.810000000003616, -0.6522577388983507 
3.820000000003637, -0.6520690359924005 
3.830000000003658, -0.6518798115025592 
3.840000000003679, -0.6516885326419405 
3.8500000000037002, -0.6514939623736843 
3.8600000000037213, -0.6512951275629325 
3.8700000000037424, -0.6510912553993875 
3.8800000000037635, -0.6508817002483447 
3.8900000000037847, -0.6506658787095598 
3.9000000000038058, -0.6504432261197338 
3.910000000003827, -0.6502131842304506 
3.920000000003848, -0.6499752268349321 
3.930000000003869, -0.6497289260265617 
3.94000000000389, -0.6494740546196128 
3.9500000000039113, -0.6492107093439018 
3.9600000000039324, -0.6489394270088715 
3.9700000000039535, -0.6486612578429012 
3.9800000000039746, -0.6483777639322035 
3.9900000000039957, -0.648090929299133 
4.000000000004016, -0.6478029959793171 
4.010000000003993, -0.6475162644012477 
4.02000000000397, -0.6472329044753511 
4.030000000003946, -0.6469548136625061 
4.040000000003923, -0.6466835377004728 
4.0500000000039, -0.6464202497008641 
4.0600000000038765, -0.646165771126405 
4.070000000003853, -0.645920614733807 
4.08000000000383, -0.6456850320865951 
4.090000000003807, -0.6454590532102218 
4.100000000003783, -0.6452425110386275 
4.11000000000376, -0.6450350475909291 
4.120000000003737, -0.644836102416386 
4.130000000003713, -0.6446448872835587 
4.14000000000369, -0.6444603548561276 
4.150000000003667, -0.6442811732191522 
4.1600000000036434, -0.644105721717809 
4.17000000000362, -0.643932124582801 
4.180000000003597, -0.6437583344006441 
4.1900000000035735, -0.6435822657187771 
4.20000000000355, -0.643401961629486 
4.210000000003527, -0.6432157598346876 
4.220000000003504, -0.6430224188035172 
4.23000000000348, -0.6428211746461959 
4.240000000003457, -0.642611721578293 
4.250000000003434, -0.6423941322904436 
4.26000000000341, -0.6421687485086378 
4.270000000003387, -0.6419360729263175 
4.280000000003364, -0.6416966852298585 
4.2900000000033405, -0.6414511935791815 
4.300000000003317, -0.6412002233701778 
4.310000000003294, -0.6409444388624606 
4.320000000003271, -0.6406845894083135 
4.330000000003247, -0.6404215689290621 
4.340000000003224, -0.6401564738729291 
4.350000000003201, -0.6398906413847424 
4.360000000003177, -0.6396256475946595 
4.370000000003154, -0.639363248640556 
4.380000000003131, -0.6391052568188004 
4.390000000003107, -0.6388533612667885 
4.400000000003084, -0.6386089228885247 
4.410000000003061, -0.6383727890171171 
4.4200000000030375, -0.6381451758189635 
4.430000000003014, -0.6379256510835083 
4.440000000002991, -0.6377132207527926 
4.450000000002968, -0.6375064915254015 
4.460000000002944, -0.6373038629526043 
4.470000000002921, -0.6371037024464105 
4.480000000002898, -0.6369044719259668 
4.490000000002874, -0.636704795593284 
4.500000000002851, -0.6365034755512852 
4.510000000002828, -0.6362994716300575 
4.520000000002804, -0.6360918644943167 
4.530000000002781, -0.6358798195608197 
4.540000000002758, -0.6356625658787833 
4.5500000000027345, -0.6354393999687129 
4.560000000002711, -0.6352097194052243 
4.570000000002688, -0.634973083915652 
4.580000000002665, -0.6347292930206868 
4.590000000002641, -0.6344784608505825 
4.600000000002618, -0.6342210648048076 
4.610000000002595, -0.6339579490874281 
4.620000000002571, -0.6336902770994104 
4.630000000002548, -0.6334194430712341 
4.640000000002525, -0.6331469652696349 
4.6500000000025015, -0.6328743853551931 
4.660000000002478, -0.632603191710572 
4.670000000002455, -0.6323347738555141 
4.6800000000024315, -0.632070405566155 
4.690000000002408, -0.6318112484856199 
4.700000000002385, -0.6315583656981814 
4.710000000002362, -0.6313127346711652 
4.720000000002338, -0.6310752499930372 
4.730000000002315, -0.6308467078843473 
4.740000000002292, -0.6306277665563377 
4.750000000002268, -0.6304188796353087 
4.760000000002245, -0.6302202048317909 
4.770000000002222, -0.630031497465462 
4.7800000000021985, -0.6298520081200467 
4.790000000002175, -0.6296804133793088 
4.800000000002152, -0.6295148133857883 
4.810000000002129, -0.6293528233985034 
4.820000000002105, -0.6291917646460332 
4.830000000002082, -0.6290289267218503 
4.840000000002059, -0.628861843672189 
4.850000000002035, -0.6286885160522026 
4.860000000002012, -0.6285075292736164 
4.870000000001989, -0.6283180554130408 
4.880000000001965, -0.628119761707038 
4.890000000001942, -0.6279126684544398 
4.900000000001919, -0.6276969989253847 
4.9100000000018955, -0.6274730515158675 
4.920000000001872, -0.6272411095740604 
