t, s[1].omega / s[0].omega 
0, -3.3499949109232787 
0.009999999999999995, -3.349462223056591 
0.019999999999999934, -3.3488953097921934 
0.029999999999999874, -3.348337320289898 
0.04000000000000012, -3.3478344269059384 
0.050000000000000405, -3.3473720313848423 
0.06000000000000069, -3.3469000915737466 
0.07000000000000098, -3.3463949579108117 
0.08000000000000126, -3.3458631250125412 
0.09000000000000155, -3.345329802760932 
0.10000000000000184, -3.344820993717068 
0.11000000000000212, -3.3443357359328565 
0.12000000000000241, -3.3438472834614026 
0.130000000000002, -3.3433333968117047 
0.1400000000000009, -3.3427942980522816 
0.1499999999999998, -3.342258726043879 
0.1599999999999987, -3.341763882601088 
0.1699999999999976, -3.3413040177486715 
0.1799999999999965, -3.3408376148925107 
0.1899999999999954, -3.340334061358088 
0.1999999999999943, -3.339785795323148 
0.2099999999999932, -3.3392133214464237 
0.2199999999999921, -3.338671954576217 
0.229999999999991, -3.3381977788842176 
0.2399999999999899, -3.3377511149211037 
0.2499999999999888, -3.337279755008951 
0.2599999999999877, -3.336768075295771 
0.2699999999999866, -3.336227657036485 
0.2799999999999855, -3.3356883593018494 
0.2899999999999844, -3.3351802952299345 
0.2999999999999833, -3.3346996574274663 
0.3099999999999822, -3.334214581216018 
0.3199999999999811, -3.3337040790700305 
0.32999999999998, -3.3331727245534943 
0.3399999999999789, -3.3326482319026454 
0.3499999999999778, -3.3321566464828827 
0.35999999999997667, -3.331687752089055 
0.36999999999997557, -3.331208390467899 
0.37999999999997447, -3.3306944246275227 
0.38999999999997337, -3.3301422163396737 
0.39999999999997227, -3.329580174894031 
0.40999999999997117, -3.329065438128564 
0.41999999999997006, -3.3286129900013686 
0.42999999999996896, -3.3281701945220403 
0.43999999999996786, -3.327692197825434 
0.44999999999996676, -3.327169361896831 
0.45999999999996566, -3.3266165935143746 
0.46999999999996456, -3.326071236627628 
0.47999999999996346, -3.3255692755427924 
0.48999999999996235, -3.3250992549935297 
0.49999999999996125, -3.3246211412991817 
0.5099999999999602, -3.324114827838953 
0.519999999999959, -3.323587583780578 
0.529999999999958, -3.323065376374676 
0.5399999999999568, -3.3225702034250117 
0.5499999999999557, -3.3220940840980298 
0.5599999999999546, -3.321608895319316 
0.5699999999999535, -3.321093522027696 
0.5799999999999524, -3.320547916925245 
0.5899999999999513, -3.320003882566912 
0.5999999999999502, -3.3195093243887968 
0.6099999999999491, -3.3190624149516545 
0.619999999999948, -3.318612668351352 
0.6299999999999469, -3.3181240454830907 
0.6399999999999458, -3.3175891408923226 
0.6499999999999447, -3.3170253912890266 
0.6599999999999436, -3.3164793060311397 
0.6699999999999425, -3.315990330696505 
0.6799999999999414, -3.31553469190184 
0.6899999999999403, -3.315064443833439 
0.6999999999999392, -3.3145608346865862 
0.7099999999999381, -3.314032981472143 
0.719999999999937, -3.3135069162837114 
0.7299999999999359, -3.3130065669431956 
0.7399999999999348, -3.312527770650802 
0.7499999999999337, -3.3120434187295364 
0.7599999999999326, -3.311532882320948 
0.7699999999999315, -3.3109979250214296 
0.7799999999999304, -3.3104683315617245 
0.7899999999999293, -3.309980606026135 
0.7999999999999282, -3.309527421544703 
0.8099999999999271, -3.3090670771863406 
0.819999999999926, -3.308569485296789 
0.8299999999999249, -3.308027308947712 
0.8399999999999238, -3.3074602150319365 
0.8499999999999227, -3.3069217721430695 
0.8599999999999216, -3.3064495401825047 
0.8699999999999205, -3.3060074792532412 
0.8799999999999194, -3.305543373085592 
0.8899999999999183, -3.3050399785474425 
0.8999999999999172, -3.304507332561441 
0.9099999999999161, -3.3039734089974986 
0.919999999999915, -3.3034681357968303 
0.9299999999999139, -3.3029911228664113 
0.9399999999999128, -3.30251260700825 
0.9499999999999117, -3.3020099489845967 
0.9599999999999106, -3.301484614238027 
0.9699999999999095, -3.3009621364488098 
0.9799999999999084, -3.3004717478203496 
0.9899999999999073, -3.3000086873102368 
0.9999999999999062, -3.2995401680569314 
1.0099999999999052, -3.2990392889452074 
1.019999999999904, -3.298498236299271 
1.029999999999903, -3.2979375318061828 
1.039999999999902, -3.297411669919832 
1.0499999999999008, -3.2969524810364077 
1.0599999999998997, -3.296518099023152 
1.0699999999998986, -3.2960566561767286 
1.0799999999998975, -3.295551293689691 
1.0899999999998964, -3.2950113155500107 
1.0999999999998953, -3.2944673760032837 
1.1099999999998942, -3.29395798435946 
1.119999999999893, -3.293486510842276 
1.129999999999892, -3.293017560432868 
1.1399999999998909, -3.292524135451388 
1.1499999999998898, -3.292005994522345 
1.1599999999998887, -3.291484818081577 
1.1699999999998876, -3.2909873263179974 
1.1799999999998865, -3.2905151925610694 
1.1899999999998854, -3.290042966187978 
1.1999999999998843, -3.289544919674796 
1.2099999999998832, -3.289012230700012 
1.219999999999882, -3.288463559470677 
1.229999999999881, -3.2879479631474076 
1.2399999999998799, -3.2874922352252502 
1.2499999999998788, -3.2870575607012995 
1.2599999999998777, -3.286595586882219 
1.2699999999998766, -3.286088002048424 
1.2799999999998755, -3.2855413164459506 
1.2899999999998744, -3.284987891313 
1.2999999999998733, -3.2844755273219475 
1.3099999999998722, -3.284012186119706 
1.319999999999871, -3.2835555040976474 
1.32999999999987, -3.2830722365667695 
1.3399999999998689, -3.2825595033745145 
1.3499999999998678, -3.2820360856210344 
1.3599999999998666, -3.281529339360825 
1.3699999999998655, -3.2810494223763946 
1.3799999999998644, -3.2805772472056396 
1.3899999999998633, -3.280086386082863 
1.3999999999998622, -3.279565670189207 
1.4099999999998611, -3.279029350313075 
1.41999999999986, -3.2785179007519942 
1.429999999999859, -3.2780562949531635 
1.4399999999998578, -3.2776153083027104 
1.4499999999998567, -3.2771517123530365 
1.4599999999998556, -3.2766445486382274 
1.4699999999998545, -3.27609589201925 
1.4799999999998534, -3.275537010499972 
1.4899999999998523, -3.2750227717144744 
1.4999999999998512, -3.2745676972500055 
1.5099999999998501, -3.2741242756127207 
1.519999999999849, -3.27365194720067 
1.529999999999848, -3.2731440374911784 
1.5399999999998468, -3.2726165896260455 
1.5499999999998457, -3.272098814052608 
1.5599999999998446, -3.271611001043401 
1.5699999999998435, -3.2711410191252397 
1.5799999999998424, -3.270659981539332 
1.5899999999998413, -3.2701523476319756 
1.5999999999998402, -3.2696265901828574 
1.6099999999998391, -3.2691144419178846 
1.619999999999838, -3.2686415442209573 
1.629999999999837, -3.2681914057938264 
1.6399999999998358, -3.267727078121473 
1.6499999999998347, -3.2672248744159376 
1.6599999999998336, -3.2666816708617032 
1.6699999999998325, -3.2661238452163452 
1.6799999999998314, -3.2656078647312903 
1.6899999999998303, -3.2651571382647995 
1.6999999999998292, -3.264724937195429 
1.709999999999828, -3.2642637541952224 
1.719999999999827, -3.2637613517156465 
1.729999999999826, -3.263229888579165 
1.7399999999998248, -3.2626995470515068 
1.7499999999998237, -3.2622018296336024 
1.7599999999998226, -3.261734336958476 
1.7699999999998215, -3.2612648997220197 
1.7799999999998204, -3.260771053877767 
1.7899999999998193, -3.2602548203022237 
1.7999999999998182, -3.259740154397884 
1.809999999999817, -3.259253975500239 
1.819999999999816, -3.2587934903835913 
1.8299999999998149, -3.2583295971764406 
1.8399999999998138, -3.2578364281608865 
1.8499999999998127, -3.2573054769853007 
1.8599999999998116, -3.256755106057445 
1.8699999999998105, -3.2562364075706447 
1.8799999999998094, -3.2557822676205603 
1.8899999999998083, -3.255355548063792 
1.8999999999998072, -3.2549045260020883 
1.909999999999806, -3.25440949145407 
1.919999999999805, -3.253876533404808 
1.9299999999998039, -3.2533337312401818 
1.9399999999998028, -3.2528227475848714 
1.9499999999998017, -3.2523557066243747 
1.9599999999998006, -3.2518989970676095 
1.9699999999997995, -3.251420406102355 
1.9799999999997984, -3.2509144317335426 
1.9899999999997973, -3.2503980348759294 
1.9999999999997962, -3.249898397417982 
2.0099999999998173, -3.249426095393459 
2.0199999999998384, -3.2489624159273647 
2.0299999999998595, -3.248480293876439 
2.0399999999998806, -3.2479655582329423 
2.0499999999999017, -3.2474272145259526 
2.059999999999923, -3.246905395823108 
2.069999999999944, -3.2464394433234367 
2.079999999999965, -3.2460098592551 
2.089999999999986, -3.245566455612521 
2.100000000000007, -3.245081317280009 
2.1100000000000283, -3.244552278909675 
2.1200000000000494, -3.2440009021508396 
2.1300000000000705, -3.243473872887838 
2.1400000000000916, -3.243002219526 
2.1500000000001127, -3.242557619885948 
2.160000000000134, -3.2420964002922696 
2.170000000000155, -3.241603205963481 
2.180000000000176, -3.241087963177857 
2.190000000000197, -3.240575966562074 
2.2000000000002182, -3.240089285060537 
2.2100000000002393, -3.239623222255146 
2.2200000000002604, -3.2391518905990084 
2.2300000000002815, -3.23865474620001 
2.2400000000003026, -3.2381313546523613 
2.2500000000003237, -3.237608479994351 
2.260000000000345, -3.2371257878153648 
2.270000000000366, -3.2366846972243906 
2.280000000000387, -3.2362446672315315 
2.290000000000408, -3.235771367796572 
2.3000000000004293, -3.235253333719536 
2.3100000000004504, -3.23470195070155 
2.3200000000004715, -3.2341599294981775 
2.3300000000004926, -3.2336759859785054 
2.3400000000005137, -3.2332388038238626 
2.3500000000005348, -3.232796205495164 
2.360000000000556, -3.2323195168939627 
2.370000000000577, -3.231810253056339 
2.380000000000598, -3.2312890167070285 
2.390000000000619, -3.2307850740795923 
2.4000000000006403, -3.2303111006773646 
2.4100000000006614, -3.2298479434159075 
2.4200000000006825, -3.229368374462292 
2.4300000000007036, -3.2288621139874216 
2.4400000000007247, -3.228342854589336 
2.450000000000746, -3.2278441089168934 
2.460000000000767, -3.2273847983456383 
2.470000000000788, -3.2269420889163407 
2.480000000000809, -3.226480306001263 
2.49000000000083, -3.225979174161524 
2.5000000000008513, -3.225438746778425 
2.5100000000008724, -3.224889091265392 
2.5200000000008935, -3.224386013230062 
2.5300000000009146, -3.223945573862398 
2.5400000000009357, -3.2235189779014646 
2.550000000000957, -3.223062204476156 
2.560000000000978, -3.2225652696928035 
2.570000000000999, -3.2220410667063724 
2.58000000000102, -3.2215192331251004 
2.5900000000010412, -3.2210293295027297 
2.6000000000010624, -3.220568247833614 
2.6100000000010835, -3.2201050991246527 
2.6200000000011046, -3.2196180276531203 
2.6300000000011257, -3.219108473715928 
2.6400000000011468, -3.218599638889839 
2.650000000001168, -3.218119193130323 
2.660000000001189, -3.2176662211594538 
2.67000000000121, -3.217212085441222 
2.680000000001231, -3.2167299687212667 
2.6900000000012523, -3.216209425746451 
2.7000000000012734, -3.2156643650172207 
2.7100000000012945, -3.2151420958702177 
2.7200000000013156, -3.214683963735383 
2.7300000000013367, -3.214263620624542 
2.740000000001358, -3.2138270055173157 
2.750000000001379, -3.2133488002680837 
2.7600000000014, -3.2128311170799884 
2.770000000001421, -3.212296506002127 
2.780000000001442, -3.2117834815459645 
2.7900000000014633, -3.211313401217159 
2.8000000000014844, -3.2108625819586853 
2.8100000000015055, -3.2103964694123084 
2.8200000000015266, -3.209903002329382 
2.8300000000015477, -3.2093935586969935 
2.840000000001569, -3.2088945783660847 
2.85000000000159, -3.208423864001129 
2.860000000001611, -3.2079694849803104 
2.870000000001632, -3.207503736321037 
2.8800000000016532, -3.2070069778278993 
2.8900000000016743, -3.2064784640844897 
2.9000000000016954, -3.2059468037114898 
2.9100000000017165, -3.205461194006054 
2.9200000000017377, -3.205030322046003 
2.9300000000017588, -3.2046073902545125 
2.94000000000178, -3.204151491991273 
2.950000000001801, -3.203650813754693 
2.960000000001822, -3.2031156388507354 
2.970000000001843, -3.2025799638253796 
2.9800000000018643, -3.202086680760568 
2.9900000000018854, -3.2016373952857657 
3.0000000000019065, -3.2011917157970813 
3.0100000000019276, -3.2007202331071034 
3.0200000000019487, -3.200221053914407 
3.03000000000197, -3.199712370070968 
3.040000000001991, -3.1992203134657378 
3.050000000002012, -3.1987546442719235 
3.060000000002033, -3.1982975378578553 
3.070000000002054, -3.197823161924116 
3.0800000000020753, -3.197318407130814 
3.0900000000020964, -3.196792615991155 
3.1000000000021175, -3.1962832066817497 
3.1100000000021386, -3.1958252871177204 
3.1200000000021597, -3.195401118511815 
3.130000000002181, -3.1949646357434665 
3.140000000002202, -3.194488321261179 
3.150000000002223, -3.193968111441568 
3.160000000002244, -3.193422933638139 
3.1700000000022652, -3.1928987183912887 
3.1800000000022863, -3.1924317838599006 
3.1900000000023074, -3.191998577802304 
3.2000000000023285, -3.191552664410129 
3.2100000000023496, -3.1910741552977537 
3.2200000000023707, -3.190569243552038 
3.230000000002392, -3.190060640164662 
3.240000000002413, -3.189573680652658 
3.250000000002434, -3.18911201714048 
3.260000000002455, -3.1886532913325554 
3.2700000000024763, -3.1881737486500015 
3.2800000000024974, -3.1876667325312766 
3.2900000000025185, -3.1871498525207302 
3.3000000000025396, -3.1866606805119737 
3.3100000000025607, -3.1862161698200415 
3.3200000000025818, -3.1857870521160936 
3.330000000002603, -3.1853351523390647 
3.340000000002624, -3.1848415375662413 
3.350000000002645, -3.184307807579585 
3.360000000002666, -3.183763170299244 
3.3700000000026873, -3.1832607598095968 
3.3800000000027084, -3.1828190528493026 
3.3900000000027295, -3.1823945440661987 
3.4000000000027506, -3.1819443511170435 
3.4100000000027717, -3.1814577828260413 
3.420000000002793, -3.1809467437000167 
3.430000000002814, -3.180437701897376 
3.440000000002835, -3.1799557731914256 
3.450000000002856, -3.179498738362697 
3.460000000002877, -3.179039981589759 
3.4700000000028983, -3.178558205367533 
3.4800000000029194, -3.178052566800465 
3.4900000000029405, -3.1775455254361993 
3.5000000000029616, -3.1770695049805036 
3.5100000000029827, -3.1766282510243937 
3.520000000003004, -3.1761907626237447 
3.530000000003025, -3.175726037559242 
3.540000000003046, -3.1752203184681913 
3.550000000003067, -3.1746808605241363 
3.5600000000030882, -3.1741466093489805 
3.5700000000031094, -3.1736693933694817 
3.5800000000031305, -3.17324599952309 
3.5900000000031516, -3.1728235226713135 
3.6000000000031727, -3.172366758795052 
3.6100000000031938, -3.171871680228402 
3.620000000003215, -3.1713542846802842 
3.630000000003236, -3.1708450415793346 
3.640000000003257, -3.17036906702975 
3.650000000003278, -3.1699176266849904 
3.6600000000032993, -3.169460274204913 
3.6700000000033204, -3.168978339496281 
3.6800000000033415, -3.168475485751897 
3.6900000000033626, -3.1679759687887463 
3.7000000000033837, -3.167506381411658 
3.710000000003405, -3.167063704491774 
3.720000000003426, -3.1666187955599403 
3.730000000003447, -3.166145451797477 
3.740000000003468, -3.1656334639871866 
3.750000000003489, -3.1650955976163746 
3.7600000000035103, -3.164577035032491 
3.7700000000035314, -3.1641213341957592 
3.7800000000035525, -3.1637079271925046 
3.7900000000035736, -3.163283186206514 
3.8000000000035947, -3.162819176637148 
3.810000000003616, -3.1623158318826547 
3.820000000003637, -3.1617923775344736 
3.830000000003658, -3.1612837184777223 
3.840000000003679, -3.1608146956616565 
3.8500000000037002, -3.1603696426710823 
3.8600000000037213, -3.1599148819472993 
3.8700000000037424, -3.159434078530958 
3.8800000000037635, -3.1589338855795033 
3.8900000000037847, -3.1584386644608315 
3.9000000000038058, -3.157971024232639 
3.910000000003827, -3.1575257378292045 
3.920000000003848, -3.157075979453806 
3.930000000003869, -3.1565983890559997 
3.94000000000389, -3.156085369082913 
3.9500000000039113, -3.1555538931655462 
3.9600000000039324, -3.155050802592114 
3.9700000000039535, -3.154609361961212 
3.9800000000039746, -3.1541993287750443 
3.9900000000039957, -3.153770524879839 
4.000000000004016, -3.1532999682235934 
4.010000000003993, -3.1527894373552945 
4.02000000000397, -3.1522607951425874 
4.030000000003946, -3.1517534810006946 
4.040000000003923, -3.151291868191679 
4.0500000000039, -3.150853725271966 
4.0600000000038765, -3.1504025937449986 
4.070000000003853, -3.1499237378093903 
4.08000000000383, -3.1494254426958945 
4.090000000003807, -3.1489316401364844 
4.100000000003783, -3.1484633390183854 
4.11000000000376, -3.1480157812015808 
4.120000000003737, -3.147563970615801 
4.130000000003713, -3.147085955296446 
4.14000000000369, -3.1465757613712517 
4.150000000003667, -3.1460523983148296 
4.1600000000036434, -3.1455608913335427 
4.17000000000362, -3.1451263843015917 
4.180000000003597, -3.1447157309189775 
4.1900000000035735, -3.1442830127334767 
4.20000000000355, -3.143807739414667 
4.210000000003527, -3.1432919737932474 
4.220000000003504, -3.1427594020345913 
4.23000000000348, -3.1422535990400915 
4.240000000003457, -3.141798989349717 
4.250000000003434, -3.141368029781328 
4.26000000000341, -3.140921561565876 
4.270000000003387, -3.140445372762854 
4.280000000003364, -3.139948250620575 
4.2900000000033405, -3.1394536793889998 
4.300000000003317, -3.1389830907689 
4.310000000003294, -3.138533900344593 
4.320000000003271, -3.138082455590184 
4.330000000003247, -3.137607033625415 
4.340000000003224, -3.137102073719547 
4.350000000003201, -3.136586353306869 
4.360000000003177, -3.13610139643925 
4.370000000003154, -3.135668083316606 
4.380000000003131, -3.135254954081282 
4.390000000003107, -3.134819711800973 
4.400000000003084, -3.1343423952075407 
4.410000000003061, -3.1338241020111828 
4.4200000000030375, -3.133289019627767 
4.430000000003014, -3.1327839562297797 
4.440000000002991, -3.132334903402444 
4.450000000002968, -3.131911124429476 
4.460000000002944, -3.1314704665837296 
4.470000000002921, -3.1309978939074776 
4.480000000002898, -3.130501677531913 
4.490000000002874, -3.130004811292981 
4.500000000002851, -3.129530570311885 
4.510000000002828, -3.129080009517852 
4.520000000002804, -3.1286307310152215 
4.530000000002781, -3.1281601725951447 
4.540000000002758, -3.127661862708152 
4.5500000000027345, -3.1271524905467007 
4.560000000002711, -3.126669598001129 
4.570000000002688, -3.126233429067107 
4.580000000002665, -3.125817168082139 
4.590000000002641, -3.1253813509054167 
4.600000000002618, -3.124905135800647 
4.610000000002595, -3.124387555401437 
4.620000000002571, -3.1238514681227967 
4.630000000002548, -3.1233454414351196 
4.640000000002525, -3.122899337007465 
4.6500000000025015, -3.1224822971236037 
4.660000000002478, -3.1220487339648253 
4.670000000002455, -3.121581179387775 
4.6800000000024315, -3.1210863287835364 
4.690000000002408, -3.1205862948955345 
4.700000000002385, -3.1201069129777776 
4.710000000002362, -3.119654461461322 
4.720000000002338, -3.119208402971295 
4.730000000002315, -3.1187444121912824 
4.740000000002292, -3.118253774702183 
4.750000000002268, -3.117749730515615 
4.760000000002245, -3.117265686876934 
4.770000000002222, -3.116823768935544 
4.7800000000021985, -3.1164040066498284 
4.790000000002175, -3.115969502569419 
4.800000000002152, -3.1154975781666963 
4.810000000002129, -3.1149842270930583 
4.820000000002105, -3.114448897181996 
4.830000000002082, -3.113939693535403 
4.840000000002059, -3.113492697881689 
4.850000000002035, -3.113081167089129 
4.860000000002012, -3.1126559905125655 
4.870000000001989, -3.112195402699178 
4.880000000001965, -3.111703301288396 
4.890000000001942, -3.1112000583915664 
4.900000000001919, -3.1107138991392964 
4.9100000000018955, -3.1102579753499704 
4.920000000001872, -3.1098152521678832 
4.930000000001849, -3.109359093806845 
4.940000000001826, -3.1088772063048626 
4.950000000001802, -3.1083783655344317 
4.960000000001779, -3.1078914521671805 
4.970000000001756, -3.107441551034013 
