t, s[1].omega / s[0].omega 
0, -1.2899973879526994 
0.009999999999999995, -1.2897257221933354 
0.019999999999999934, -1.2894344399725 
0.029999999999999874, -1.2891267963994806 
0.04000000000000012, -1.2888081195095558 
0.050000000000000405, -1.2884855012107046 
0.06000000000000069, -1.2881670479782117 
0.07000000000000098, -1.2878605857317675 
0.08000000000000126, -1.2875720081635764 
0.09000000000000155, -1.28730381987546 
0.10000000000000184, -1.2870545400939388 
0.11000000000000212, -1.2868192736342516 
0.12000000000000241, -1.2865911258980895 
0.130000000000002, -1.2863627495517813 
0.1400000000000009, -1.2861274386925845 
0.1499999999999998, -1.2858796201451885 
0.1599999999999987, -1.2856149544042355 
0.1699999999999976, -1.2853303818538886 
0.1799999999999965, -1.285024385499407 
0.1899999999999954, -1.2846975814324737 
0.1999999999999943, -1.2843535233032946 
0.2099999999999932, -1.2839993255097284 
0.2199999999999921, -1.2836454666345536 
0.229999999999991, -1.283304180486891 
0.2399999999999899, -1.2829864466898901 
0.2499999999999888, -1.2826986310272899 
0.2599999999999877, -1.2824404969774532 
0.2699999999999866, -1.2822057361774144 
0.2799999999999855, -1.2819845867992263 
0.2899999999999844, -1.281766922888839 
0.2999999999999833, -1.2815443644261204 
0.3099999999999822, -1.281310989961869 
0.3199999999999811, -1.281063083764837 
0.32999999999998, -1.2807985815539111 
0.3399999999999789, -1.2805167116196992 
0.3499999999999778, -1.280218080445503 
0.35999999999997667, -1.279905236339309 
0.36999999999997557, -1.2795835018304333 
0.37999999999997447, -1.2792615324391412 
0.38999999999997337, -1.2789507659706865 
0.39999999999997227, -1.278663092429707 
0.40999999999997117, -1.2784070830781573 
0.41999999999997006, -1.278184535635466 
0.42999999999996896, -1.277989509117474 
0.43999999999996786, -1.2778105598234937 
0.44999999999996676, -1.277634733219244 
0.45999999999996566, -1.2774510557759995 
0.46999999999996456, -1.2772522236921753 
0.47999999999996346, -1.2770346006174904 
0.48999999999996235, -1.2767973604321914 
0.49999999999996125, -1.2765415615714943 
0.5099999999999602, -1.2762695781248738 
0.519999999999959, -1.2759849831143781 
0.529999999999958, -1.2756927528692432 
0.5399999999999568, -1.2753994850648802 
0.5499999999999557, -1.2751131891865528 
0.5599999999999546, -1.2748422421971903 
0.5699999999999535, -1.2745934786317525 
0.5799999999999524, -1.2743700409227405 
0.5899999999999513, -1.2741700647716732 
0.5999999999999502, -1.2739869836912294 
0.6099999999999491, -1.273811323517816 
0.619999999999948, -1.2736330816811623 
0.6299999999999469, -1.2734437128592864 
0.6399999999999458, -1.2732372254361306 
0.6499999999999447, -1.2730104322638733 
0.6599999999999436, -1.2727626832812908 
0.6699999999999425, -1.2724954293294946 
0.6799999999999414, -1.2722118467925891 
0.6899999999999403, -1.271916590671541 
0.6999999999999392, -1.2716155881542661 
0.7099999999999381, -1.271315671712562 
0.719999999999937, -1.2710238410495711 
0.7299999999999359, -1.2707461043646764 
0.7399999999999348, -1.2704861588612617 
0.7499999999999337, -1.270244431074472 
0.7599999999999326, -1.270017946746921 
0.7699999999999315, -1.269801098970413 
0.7799999999999304, -1.2695869313932464 
0.7899999999999293, -1.2693683991145945 
0.7999999999999282, -1.2691392626049107 
0.8099999999999271, -1.2688945798595197 
0.819999999999926, -1.2686309613768085 
0.8299999999999249, -1.2683467805821858 
0.8399999999999238, -1.2680424459867345 
0.8499999999999227, -1.2677207108175346 
0.8599999999999216, -1.2673868623931264 
0.8699999999999205, -1.267048530185905 
0.8799999999999194, -1.2667148408756748 
0.8899999999999183, -1.2663948236043354 
0.8999999999999172, -1.2660953620921747 
0.9099999999999161, -1.2658194251280166 
0.919999999999915, -1.2655653986801545 
0.9299999999999139, -1.2653278492560085 
0.9399999999999128, -1.2650992627101507 
0.9499999999999117, -1.264871862168707 
0.9599999999999106, -1.2646388115564728 
0.9699999999999095, -1.2643946538487945 
0.9799999999999084, -1.2641352534782704 
0.9899999999999073, -1.2638576369812984 
0.9999999999999062, -1.2635600510984606 
1.0099999999999052, -1.263242409469364 
1.019999999999904, -1.2629071060407437 
1.029999999999903, -1.262559900015685 
1.039999999999902, -1.2622102505651607 
1.0499999999999008, -1.2618703226959382 
1.0599999999998997, -1.2615522834210933 
1.0699999999998986, -1.261264591329193 
1.0799999999998975, -1.2610090829191247 
1.0899999999998964, -1.2607805827423564 
1.0999999999998953, -1.2605692099909072 
1.1099999999998942, -1.2603638560645758 
1.119999999999893, -1.2601549762363966 
1.129999999999892, -1.2599358239987761 
1.1399999999998909, -1.2597023784493158 
1.1499999999998898, -1.2594526862266848 
1.1599999999998887, -1.2591862366848754 
1.1699999999998876, -1.2589037045520572 
1.1799999999998865, -1.258607155388213 
1.1899999999998854, -1.2583006184464698 
1.1999999999998843, -1.2579907061701001 
1.2099999999998832, -1.2576866941321805 
1.219999999999882, -1.257399374332581 
1.229999999999881, -1.2571384227342022 
1.2399999999998799, -1.256909065479181 
1.2499999999998788, -1.256709780874766 
1.2599999999998777, -1.2565325297293648 
1.2699999999998766, -1.256365451502815 
1.2799999999998755, -1.256196452022666 
1.2899999999998744, -1.2560159346830195 
1.2999999999998733, -1.2558179100450249 
1.3099999999998722, -1.255599771180918 
1.319999999999871, -1.2553614611573884 
1.32999999999987, -1.2551046517404916 
1.3399999999998689, -1.25483224977447 
1.3499999999998678, -1.254548278780846 
1.3599999999998666, -1.2542579924441521 
1.3699999999998655, -1.2539679350612971 
1.3799999999998644, -1.2536855874020854 
1.3899999999998633, -1.2534183271123565 
1.3999999999998622, -1.2531717844047154 
1.4099999999998611, -1.252948166208397 
1.41999999999986, -1.252745367189049 
1.429999999999859, -1.2525573717436949 
1.4399999999998578, -1.2523757618337306 
1.4499999999998567, -1.2521916307731336 
1.4599999999998556, -1.2519971957131548 
1.4699999999998545, -1.2517867553917204 
1.4799999999998534, -1.2515570138359913 
1.4899999999998523, -1.2513069888903972 
1.4999999999998512, -1.2510377477796244 
1.5099999999998501, -1.2507521377607413 
1.519999999999849, -1.2504545684499033 
1.529999999999848, -1.2501507844711455 
1.5399999999998468, -1.2498474737094154 
1.5499999999998457, -1.2495515434489823 
1.5599999999998446, -1.2492690256135228 
1.5699999999998435, -1.249003831790034 
1.5799999999998424, -1.2487568119268257 
1.5899999999998413, -1.2485255509624529 
1.5999999999998402, -1.2483050042440933 
1.6099999999998391, -1.248088657558219 
1.619999999999838, -1.24786971868691 
1.629999999999837, -1.247641990744435 
1.6399999999998358, -1.247400362163755 
1.6499999999998347, -1.2471410562111438 
1.6599999999998336, -1.246861833774601 
1.6699999999998325, -1.2465622753391643 
1.6799999999998314, -1.2462441457084539 
1.6899999999998303, -1.2459117103724107 
1.6999999999998292, -1.245571756601764 
1.709999999999828, -1.2452330276938492 
1.719999999999827, -1.2449048899191437 
1.729999999999826, -1.244595378709264 
1.7399999999998248, -1.2443092178865878 
1.7499999999998237, -1.2440466538352695 
1.7599999999998226, -1.2438036688618275 
1.7699999999998215, -1.243573415080586 
1.7799999999998204, -1.2433480899544957 
1.7899999999998193, -1.2431204305644943 
1.7999999999998182, -1.242884450766145 
1.809999999999817, -1.2426355387103347 
1.819999999999816, -1.242370271667399 
1.8299999999998149, -1.2420862994537554 
1.8399999999998138, -1.2417825318851645 
1.8499999999998127, -1.2414597158049823 
1.8599999999998116, -1.2411212880962508 
1.8699999999998105, -1.240774113210489 
1.8799999999998094, -1.2404284379708974 
1.8899999999998083, -1.2400963975819121 
1.8999999999998072, -1.239789009216997 
1.909999999999806, -1.2395126960513043 
1.919999999999805, -1.2392671454866517 
1.9299999999998039, -1.2390457617205763 
1.9399999999998028, -1.238838340802897 
1.9499999999998017, -1.238634320233678 
1.9599999999998006, -1.2384250613648893 
1.9699999999997995, -1.238204661039958 
1.9799999999997984, -1.2379696903801585 
1.9899999999997973, -1.2377185342097645 
1.9999999999997962, -1.2374508456129076 
2.0099999999998173, -1.237167373921009 
2.0199999999998384, -1.2368702250442598 
2.0299999999998595, -1.2365634461929313 
2.0399999999998806, -1.2362536172199519 
2.0499999999999017, -1.2359498875638077 
2.059999999999923, -1.2356628230283202 
2.069999999999944, -1.2354018511127358 
2.079999999999965, -1.2351720721806614 
2.089999999999986, -1.2349720722679205 
2.100000000000007, -1.2347941313435338 
2.1100000000000283, -1.234626776378666 
2.1200000000000494, -1.234458213065706 
2.1300000000000705, -1.2342789787488804 
2.1400000000000916, -1.2340830589650609 
2.1500000000001127, -1.2338677088265562 
2.160000000000134, -1.2336326606661576 
2.170000000000155, -1.2333793175073093 
2.180000000000176, -1.2331102523830253 
2.190000000000197, -1.2328290806463205 
2.2000000000002182, -1.232540594391694 
2.2100000000002393, -1.2322509123357688 
2.2200000000002604, -1.2319673021547373 
2.2300000000002815, -1.2316973591723506 
2.2400000000003026, -1.2314474924034635 
2.2500000000003237, -1.2312211445178887 
2.260000000000345, -1.2310175427739394 
2.270000000000366, -1.230831657941859 
2.280000000000387, -1.2306554332959074 
2.290000000000408, -1.2304797059357009 
2.3000000000004293, -1.230296040914139 
2.3100000000004504, -1.2300979565455132 
2.3200000000004715, -1.2298814286676567 
2.3300000000004926, -1.2296448500433868 
2.3400000000005137, -1.2293887160351828 
2.3500000000005348, -1.2291152655137603 
2.360000000000556, -1.2288282003589233 
2.370000000000577, -1.2285324836955516 
2.380000000000598, -1.2282341044141665 
2.390000000000619, -1.2279396310679882 
2.4000000000006403, -1.2276554180948371 
2.4100000000006614, -1.2273865072840364 
2.4200000000006825, -1.2271355237047283 
2.4300000000007036, -1.2269020122867818 
2.4400000000007247, -1.2266825302010853 
2.450000000000746, -1.2264714516107167 
2.460000000000767, -1.2262621209560092 
2.470000000000788, -1.226047931997883 
2.480000000000809, -1.225823091465331 
2.49000000000083, -1.225583060555293 
2.5000000000008513, -1.2253248027181685 
2.5100000000008724, -1.2250469747659702 
2.5200000000008935, -1.2247501297664163 
2.5300000000009146, -1.2244369081987407 
2.5400000000009357, -1.2241121082266246 
2.550000000000957, -1.2237824648739142 
2.560000000000978, -1.2234559637241509 
2.570000000000999, -1.223140620725247 
2.58000000000102, -1.2228429037534374 
2.5900000000010412, -1.2225662668618773 
2.6000000000010624, -1.2223103892336247 
2.6100000000010835, -1.2220714644725388 
2.6200000000011046, -1.2218433687462638 
2.6300000000011257, -1.2216191270018133 
2.6400000000011468, -1.2213920894509918 
2.650000000001168, -1.2211565521376184 
2.660000000001189, -1.2209079082878374 
2.67000000000121, -1.2206425982007756 
2.680000000001231, -1.220358129870771 
2.6900000000012523, -1.2200533518246712 
2.7000000000012734, -1.2197290240764214 
2.7100000000012945, -1.2193885521991892 
2.7200000000013156, -1.2190385277463078 
2.7300000000013367, -1.21868854241492 
2.740000000001358, -1.2183498101617374 
2.750000000001379, -1.2180326235436365 
2.7600000000014, -1.2177434689992126 
2.770000000001421, -1.2174831531733408 
2.780000000001442, -1.21724692585701 
2.7900000000014633, -1.2170264349608582 
2.8000000000014844, -1.2168123486126472 
2.8100000000015055, -1.2165964085333816 
2.8200000000015266, -1.2163723682663394 
2.8300000000015477, -1.216135995911435 
2.840000000001569, -1.215884636185755 
2.85000000000159, -1.2156167800118705 
2.860000000001611, -1.2153319158466331 
2.870000000001632, -1.2150307773510776 
2.8800000000016532, -1.2147159575600723 
2.8900000000016743, -1.214392665788003 
2.9000000000016954, -1.214069140163167 
2.9100000000017165, -1.213756038185292 
2.9200000000017377, -1.2134643352739605 
2.9300000000017588, -1.213202093290996 
2.94000000000178, -1.2129715274181354 
2.950000000001801, -1.212768079038319 
2.960000000001822, -1.2125821022172518 
2.970000000001843, -1.2124021206802427 
2.9800000000018643, -1.212217879933838 
2.9900000000018854, -1.2120220272602849 
3.0000000000019065, -1.211810347310911 
3.0100000000019276, -1.2115811506339382 
3.0200000000019487, -1.211334474391189 
3.03000000000197, -1.2110715108477788 
3.040000000001991, -1.210794420795063 
3.050000000002012, -1.2105065104307555 
3.060000000002033, -1.2102126141482743 
3.070000000002054, -1.2099193807148076 
3.0800000000020753, -1.2096350354209222 
3.0900000000020964, -1.2093682359358193 
3.1000000000021175, -1.2091260277998206 
3.1100000000021386, -1.2089115656525375 
3.1200000000021597, -1.2087227198974377 
3.130000000002181, -1.2085524054210544 
3.140000000002202, -1.2083905274732025 
3.150000000002223, -1.2082265816758677 
3.160000000002244, -1.2080518053643783 
3.1700000000022652, -1.2078602864380314 
3.1800000000022863, -1.2076490709928636 
3.1900000000023074, -1.2074176739449696 
3.2000000000023285, -1.2071674337851608 
3.2100000000023496, -1.2069010066946357 
3.2200000000023707, -1.2066221101430954 
3.230000000002392, -1.2063354679498537 
3.240000000002413, -1.2060467884207413 
3.250000000002434, -1.2057625358460091 
3.260000000002455, -1.2054892813850968 
3.2700000000024763, -1.2052325996621494 
3.2800000000024974, -1.2049957815680012 
3.2900000000025185, -1.2047788750516006 
3.3000000000025396, -1.2045785159073237 
3.3100000000025607, -1.2043886488238706 
3.3200000000025818, -1.2042018237197833 
3.330000000002603, -1.2040105740124025 
3.340000000002624, -1.2038084961894377 
3.350000000002645, -1.203590890520221 
3.360000000002666, -1.203355015116794 
3.3700000000026873, -1.2031000870059976 
3.3800000000027084, -1.2028271606086198 
3.3900000000027295, -1.2025389689374175 
3.4000000000027506, -1.2022397492501045 
3.4100000000027717, -1.2019350036694267 
3.420000000002793, -1.2016310876262304 
3.430000000002814, -1.2013345182280446 
3.440000000002835, -1.2010509957126145 
3.450000000002856, -1.200784323484712 
3.460000000002877, -1.2005355834746623 
3.4700000000028983, -1.2003029123899844 
3.4800000000029194, -1.2000819794529811 
3.4900000000029405, -1.1998669420495474 
3.5000000000029616, -1.1996514878568225 
3.5100000000029827, -1.1994296516453482 
3.520000000003004, -1.1991963111262451 
3.530000000003025, -1.198947450164514 
3.540000000003046, -1.198680345335983 
3.550000000003067, -1.1983937965636753 
3.5600000000030882, -1.19808843350585 
3.5700000000031094, -1.197767026034454 
3.5800000000031305, -1.1974346350250715 
3.5900000000031516, -1.1970983864175988 
3.6000000000031727, -1.1967666808989765 
3.6100000000031938, -1.196447812638573 
3.620000000003215, -1.1961482610214753 
3.630000000003236, -1.1958712099559923 
3.640000000003257, -1.1956159020190191 
3.650000000003278, -1.1953781038526703 
3.6600000000032993, -1.1951514134701504 
3.6700000000033204, -1.1949287755721936 
3.6800000000033415, -1.194703628748984 
3.6900000000033626, -1.1944704593103057 
3.7000000000033837, -1.1942248784752212 
3.710000000003405, -1.1939634977709401 
3.720000000003426, -1.1936838694400433 
3.730000000003447, -1.1933846722757457 
3.740000000003468, -1.1930662069694404 
3.750000000003489, -1.1927311115705261 
3.7600000000035103, -1.1923850044480688 
3.7700000000035314, -1.1920365656637557 
3.7800000000035525, -1.1916965482682826 
3.7900000000035736, -1.1913755738855814 
3.8000000000035947, -1.1910812987196522 
3.810000000003616, -1.1908161833407847 
3.820000000003637, -1.1905770110207974 
3.830000000003658, -1.1903563447039736 
3.840000000003679, -1.1901450183819253 
3.8500000000037002, -1.1899344032202206 
3.8600000000037213, -1.1897176825246942 
3.8700000000037424, -1.1894901106209947 
3.8800000000037635, -1.1892486686204853 
3.8900000000037847, -1.1889915788470877 
3.9000000000038058, -1.1887179957661176 
3.910000000003827, -1.1884280325559342 
3.920000000003848, -1.1881231573489628 
3.930000000003869, -1.1878068583941983 
3.94000000000389, -1.1874852800255185 
3.9500000000039113, -1.1871673034650128 
3.9600000000039324, -1.186863483496949 
3.9700000000039535, -1.1865836436646506 
3.9800000000039746, -1.1863338165809827 
3.9900000000039957, -1.1861140146938525 
4.000000000004016, -1.1859181540003656 
4.010000000003993, -1.1857361965626676 
4.02000000000397, -1.1855572579127167 
4.030000000003946, -1.185372146659698 
4.040000000003923, -1.18517455212343 
4.0500000000039, -1.1849610165907374 
4.0600000000038765, -1.1847302804234432 
4.070000000003853, -1.1844825551343892 
4.08000000000383, -1.1842190477374772 
4.090000000003807, -1.183941846285179 
4.100000000003783, -1.1836541334116588 
4.11000000000376, -1.1833605791311341 
4.120000000003737, -1.183067632619013 
4.130000000003713, -1.1827833158123553 
4.14000000000369, -1.1825161568268991 
4.150000000003667, -1.182273248682108 
4.1600000000036434, -1.182058028904478 
4.17000000000362, -1.181868830009883 
4.180000000003597, -1.1816990470801765 
4.1900000000035735, -1.1815389147112472 
4.20000000000355, -1.1813780282271202 
4.210000000003527, -1.1812075238317488 
4.220000000003504, -1.1810212691408621 
4.23000000000348, -1.180816041385983 
4.240000000003457, -1.1805910665388557 
4.250000000003434, -1.1803473628092616 
4.26000000000341, -1.180087202610598 
4.270000000003387, -1.1798138283984811 
4.280000000003364, -1.179531405691711 
4.2900000000033405, -1.1792450808551624 
4.300000000003317, -1.1789609277414619 
4.310000000003294, -1.1786855442973256 
4.320000000003271, -1.178425160621474 
4.330000000003247, -1.1781843726717334 
4.340000000003224, -1.1779649170859818 
4.350000000003201, -1.1777650255080572 
4.360000000003177, -1.1775796880875355 
4.370000000003154, -1.1774017306937614 
4.380000000003131, -1.1772232707132928 
4.390000000003107, -1.177037061899192 
4.400000000003084, -1.176837420791071 
4.410000000003061, -1.176620666744884 
4.4200000000030375, -1.176385173231538 
4.430000000003014, -1.176131191208713 
4.440000000002991, -1.1758605939613014 
4.450000000002968, -1.1755766391347773 
4.460000000002944, -1.175283768189931 
4.470000000002921, -1.1749873833899707 
4.480000000002898, -1.1746934851403585 
4.490000000002874, -1.1744080592441222 
4.500000000002851, -1.1741362078175943 
4.510000000002828, -1.173881196819959 
4.520000000002804, -1.1736437394515429 
4.530000000002781, -1.1734218138350871 
4.540000000002758, -1.173211098186028 
4.5500000000027345, -1.1730058362171831 
4.560000000002711, -1.1727998077130075 
4.570000000002688, -1.1725871383635016 
4.580000000002665, -1.1723628489468696 
4.590000000002641, -1.1721231865524249 
4.600000000002618, -1.1718658353616989 
4.610000000002595, -1.1715900834739232 
4.620000000002571, -1.1712969672793025 
4.630000000002548, -1.1709893586383222 
4.640000000002525, -1.17067191621113 
4.6500000000025015, -1.1703507967916464 
4.660000000002478, -1.1700330316166299 
4.670000000002455, -1.1697255463996796 
4.6800000000024315, -1.1694339574502755 
4.690000000002408, -1.1691614581723027 
4.700000000002385, -1.1689081897978075 
4.710000000002362, -1.1686713500308603 
4.720000000002338, -1.1684459728891237 
4.730000000002315, -1.1682260231250614 
4.740000000002292, -1.1680053870280593 
4.750000000002268, -1.1677785112003667 
4.760000000002245, -1.1675406819892056 
4.770000000002222, -1.1672880995856594 
4.7800000000021985, -1.1670179401442444 
4.790000000002175, -1.166728551461055 
4.800000000002152, -1.1664198346883994 
4.810000000002129, -1.1660937461780947 
4.820000000002105, -1.165754723511691 
4.830000000002082, -1.1654097357196063 
4.840000000002059, -1.1650676548973606 
4.850000000002035, -1.164737828122863 
4.860000000002012, -1.16442810118872 
4.870000000001989, -1.1641429460149426 
4.880000000001965, -1.1638824687111011 
4.890000000001942, -1.163642724739583 
4.900000000001919, -1.1634171139073155 
4.9100000000018955, -1.1631981389635473 
4.920000000001872, -1.1629788117600963 
4.930000000001849, -1.162753372047799 
4.940000000001826, -1.1625173959030257 
