t, s[1].omega / s[0].omega 
0, -4.099993462177602 
0.009999999999999995, -4.099300875727592 
0.019999999999999934, -4.098562302168347 
0.029999999999999874, -4.0978803932293015 
0.04000000000000012, -4.097289915013228 
0.050000000000000405, -4.0966903275088224 
0.06000000000000069, -4.096032712009146 
0.07000000000000098, -4.095337551100471 
0.08000000000000126, -4.094660766758478 
0.09000000000000155, -4.094032777245423 
0.10000000000000184, -4.09340804820345 
0.11000000000000212, -4.092745544765875 
0.12000000000000241, -4.092061898462604 
0.130000000000002, -4.091410684664128 
0.1400000000000009, -4.0907980086250415 
0.1499999999999998, -4.090171557759191 
0.1599999999999987, -4.089492710705447 
0.1699999999999976, -4.0887752045786305 
0.1799999999999965, -4.088110004716362 
0.1899999999999954, -4.087533057431221 
0.1999999999999943, -4.086946805012103 
0.2099999999999932, -4.086289714126652 
0.2199999999999921, -4.085563928433264 
0.229999999999991, -4.084843592268063 
0.2399999999999899, -4.084225586008974 
0.2499999999999888, -4.08364881639548 
0.2599999999999877, -4.083023083483015 
0.2699999999999866, -4.082341544800902 
0.2799999999999855, -4.081647343283386 
0.2899999999999844, -4.080998414448523 
0.2999999999999833, -4.080384593823244 
0.3099999999999822, -4.0797475747018535 
0.3199999999999811, -4.079073321028989 
0.32999999999998, -4.07840221737556 
0.3399999999999789, -4.07777437134728 
0.3499999999999778, -4.077162632440897 
0.35999999999997667, -4.076515996350875 
0.36999999999997557, -4.075817276831371 
0.37999999999997447, -4.075118039425795 
0.38999999999997337, -4.074505456802028 
0.39999999999997227, -4.073936762863809 
0.40999999999997117, -4.073320295901963 
0.41999999999997006, -4.072628003841893 
0.42999999999996896, -4.0718915299200935 
0.43999999999996786, -4.071219262212637 
0.44999999999996676, -4.070642437264528 
0.45999999999996566, -4.070053350284022 
0.46999999999996456, -4.0694017883785705 
0.47999999999996346, -4.0687070271216585 
0.48999999999996235, -4.068028021338798 
0.49999999999996125, -4.067404755848151 
0.5099999999999602, -4.066791355605648 
0.519999999999959, -4.066140769008533 
0.529999999999958, -4.065464248092747 
0.5399999999999568, -4.064811373502171 
0.5499999999999557, -4.064197352971122 
0.5599999999999546, -4.063577975392711 
0.5699999999999535, -4.062912568824385 
0.5799999999999524, -4.062208123905419 
0.5899999999999513, -4.0615438862489475 
0.5999999999999502, -4.06096348206983 
0.6099999999999491, -4.060382979475246 
0.619999999999948, -4.0597371847597525 
0.6299999999999469, -4.0590203819556105 
0.6399999999999458, -4.0582977964374916 
0.6499999999999447, -4.057677240895138 
0.6599999999999436, -4.057113271436409 
0.6699999999999425, -4.05650417562474 
0.6799999999999414, -4.055832672887349 
0.6899999999999403, -4.055135708686174 
0.6999999999999392, -4.054479184924707 
0.7099999999999381, -4.053871999884937 
0.719999999999937, -4.053251856987815 
0.7299999999999359, -4.052591408503935 
0.7399999999999348, -4.051920143586729 
0.7499999999999337, -4.051284318446481 
0.7599999999999326, -4.050676026800216 
0.7699999999999315, -4.050046147769789 
0.7799999999999304, -4.049367139468066 
0.7899999999999293, -4.048670343157353 
0.7999999999999282, -4.04804134818752 
0.8099999999999271, -4.047473014967904 
0.819999999999926, -4.046875163571436 
0.8299999999999249, -4.046205321430617 
0.8399999999999238, -4.045476785327202 
0.8499999999999227, -4.0447839528868546 
0.8599999999999216, -4.044200646271252 
0.8699999999999205, -4.043633198868075 
0.8799999999999194, -4.0430054824058725 
0.8899999999999183, -4.042321087314753 
0.8999999999999172, -4.041630573364027 
0.9099999999999161, -4.040996069769654 
0.919999999999915, -4.040395797646045 
0.9299999999999139, -4.03976755293692 
0.9399999999999128, -4.0391021140930485 
0.9499999999999117, -4.038439819899496 
0.9599999999999106, -4.037817124877813 
0.9699999999999095, -4.037209738700165 
0.9799999999999084, -4.036570065392141 
0.9899999999999073, -4.035883789346237 
0.9999999999999062, -4.035202266566041 
1.0099999999999052, -4.034599681052391 
1.019999999999904, -4.034032238931378 
1.029999999999903, -4.033418393755012 
1.039999999999902, -4.032731191934456 
1.0499999999999008, -4.032002238686166 
1.0599999999998997, -4.0313420737454795 
1.0699999999998986, -4.03077945318546 
1.0799999999998975, -4.030203309926784 
1.0899999999998964, -4.029561470505473 
1.0999999999998953, -4.028870591915011 
1.1099999999998942, -4.0281910166176695 
1.119999999999893, -4.027573639959215 
1.129999999999892, -4.026974960567212 
1.1399999999998909, -4.026340294345333 
1.1499999999998898, -4.025673847848926 
1.1599999999998887, -4.025021043716086 
1.1699999999998876, -4.024407543164189 
1.1799999999998865, -4.023799162325881 
1.1899999999998854, -4.023152247906549 
1.1999999999998843, -4.022464028986272 
1.2099999999998832, -4.021798893805711 
1.219999999999882, -4.02121312942553 
1.229999999999881, -4.020642837221806 
1.2399999999998799, -4.020017076486202 
1.2499999999998788, -4.01931920517 
1.2599999999998777, -4.018596541375975 
1.2699999999998766, -4.017963053270648 
1.2799999999998755, -4.017410128295124 
1.2899999999998744, -4.016826124193583 
1.2999999999998733, -4.016175329958924 
1.3099999999998722, -4.015482772761504 
1.319999999999871, -4.014814452698497 
1.32999999999987, -4.014208592270411 
1.3399999999998689, -4.013609753888223 
1.3499999999998678, -4.0129713966245735 
1.3599999999998666, -4.012306384573732 
1.3699999999998655, -4.011661732850345 
1.3799999999998644, -4.011054492404598 
1.3899999999998633, -4.010445273961468 
1.3999999999998622, -4.009794327251976 
1.4099999999998611, -4.009107343456775 
1.41999999999986, -4.008455400733489 
1.429999999999859, -4.007879580861837 
1.4399999999998578, -4.0073069662000975 
1.4499999999998567, -4.0066743585617015 
1.4599999999998556, -4.00597159412307 
1.4699999999998545, -4.00525663326281 
1.4799999999998534, -4.004640640801723 
1.4899999999998523, -4.004092185881982 
1.4999999999998512, -4.003503791647326 
1.5099999999998501, -4.002849027625993 
1.519999999999849, -4.00215772019379 
1.529999999999848, -4.001498115988015 
1.5399999999998468, -4.000899242379512 
1.5499999999998457, -4.000300704514951 
1.5599999999998446, -3.9996614799997916 
1.5699999999998435, -3.998998981017351 
1.5799999999998424, -3.998360323338762 
1.5899999999998413, -3.9977574670002176 
1.5999999999998402, -3.997148798366409 
1.6099999999998391, -3.9964970506465702 
1.619999999999838, -3.9958124088965574 
1.629999999999837, -3.9951685153412613 
1.6399999999998358, -3.99459844159837 
1.6499999999998347, -3.9940261075527843 
1.6599999999998336, -3.9933920331105384 
1.6699999999998325, -3.9926890036339477 
1.6799999999998314, -3.991979337154285 
1.6899999999998303, -3.9913715503995766 
1.6999999999998292, -3.9908258632668305 
1.709999999999828, -3.9902375174860034 
1.719999999999827, -3.9895833998910106 
1.729999999999826, -3.9888948329842897 
1.7399999999998248, -3.9882400429734233 
1.7499999999998237, -3.987644791431124 
1.7599999999998226, -3.9870480549466314 
1.7699999999998215, -3.9864106086993845 
1.7799999999998204, -3.9857508599022973 
1.7899999999998193, -3.9851157606234495 
1.7999999999998182, -3.984516098320566 
1.809999999999817, -3.98390996211709 
1.819999999999816, -3.9832605256652536 
1.8299999999998149, -3.9825781374308113 
1.8399999999998138, -3.981936501890652 
1.8499999999998127, -3.981369336652596 
1.8599999999998116, -3.98080068108663 
1.8699999999998105, -3.980170600353211 
1.8799999999998094, -3.9794713020708627 
1.8899999999998083, -3.978762977519961 
1.8999999999998072, -3.978154488762134 
1.909999999999806, -3.9776110798020676 
1.919999999999805, -3.9770274159690695 
1.9299999999998039, -3.9763783345888255 
1.9399999999998028, -3.9756934675908484 
1.9499999999998017, -3.9750393370852555 
1.9599999999998006, -3.974444793805449 
1.9699999999997995, -3.9738515801501286 
1.9799999999997984, -3.9732184564569657 
1.9899999999997973, -3.9725614610117956 
1.9999999999997962, -3.9719274171751033 
2.0099999999998173, -3.971329910862562 
2.0199999999998384, -3.97072840451617 
2.0299999999998595, -3.9700844302999636 
2.0399999999998806, -3.969404215720813 
2.0499999999999017, -3.9687589315314242 
2.059999999999923, -3.968191590465401 
2.069999999999944, -3.9676299206428105 
2.079999999999965, -3.967009315554924 
2.089999999999986, -3.966318018324653 
2.100000000000007, -3.965607895369915 
2.1100000000000283, -3.9649896579113637 
2.1200000000000494, -3.964447164326432 
2.1300000000000705, -3.9638725093664844 
2.1400000000000916, -3.963232878170411 
2.1500000000001127, -3.9625531546786177 
2.160000000000134, -3.961896152861474 
2.170000000000155, -3.9612990048740664 
2.180000000000176, -3.960710568954634 
2.190000000000197, -3.9600843719050878 
2.2000000000002182, -3.959430517790799 
2.2100000000002393, -3.9587950747655336 
2.2200000000002604, -3.9581982649437144 
2.2300000000002815, -3.9576031498814594 
2.2400000000003026, -3.9569680071290847 
2.2500000000003237, -3.956291132214608 
2.260000000000345, -3.955636798701323 
2.270000000000366, -3.95506430427549 
2.280000000000387, -3.954511861939546 
2.290000000000408, -3.9539061349559086 
2.3000000000004293, -3.953228111963405 
2.3100000000004504, -3.952516151236008 
2.3200000000004715, -3.951879094124876 
2.3300000000004926, -3.9513331277194874 
2.3400000000005137, -3.950770803210496 
2.3500000000005348, -3.950145206628352 
2.360000000000556, -3.9494733457103743 
2.370000000000577, -3.9488115700430617 
2.380000000000598, -3.948207594888083 
2.390000000000619, -3.947623915131831 
2.4000000000006403, -3.9470073132111 
2.4100000000006614, -3.9463579817273597 
2.4200000000006825, -3.945719018694689 
2.4300000000007036, -3.9451204858477134 
2.4400000000007247, -3.94453262647013 
2.450000000000746, -3.943909827046088 
2.460000000000767, -3.94323965262648 
2.470000000000788, -3.9425729517744683 
2.480000000000809, -3.9419871122864754 
2.49000000000083, -3.941443482644785 
2.5000000000008513, -3.9408575967394794 
2.5100000000008724, -3.940199216236897 
2.5200000000008935, -3.939490238527983 
2.5300000000009146, -3.9388275550189062 
2.5400000000009357, -3.9382686238941034 
2.550000000000957, -3.937719500770492 
2.560000000000978, -3.93711253255445 
2.570000000000999, -3.9364528267229746 
2.58000000000102, -3.935787171704812 
2.5900000000010412, -3.9351716544805035 
2.6000000000010624, -3.9345903946546157 
2.6100000000010835, -3.9339857021360642 
2.6200000000011046, -3.9333437372298254 
2.6300000000011257, -3.9327002114669725 
2.6400000000011468, -3.9320962138642925 
2.650000000001168, -3.931514798827183 
2.660000000001189, -3.9309074810362326 
2.67000000000121, -3.9302496933307216 
2.680000000001231, -3.9295721300116107 
2.6900000000012523, -3.928961932433597 
2.7000000000012734, -3.9284212756898684 
2.7100000000012945, -3.9278587740379933 
2.7200000000013156, -3.9272268729632813 
2.7300000000013367, -3.9265306114769936 
2.740000000001358, -3.9258426884929944 
2.750000000001379, -3.9252559942069403 
2.7600000000014, -3.9247156095752183 
2.770000000001421, -3.9241310991203164 
2.780000000001442, -3.923489107283763 
2.7900000000014633, -3.922824033093609 
2.8000000000014844, -3.9221936728346103 
2.8100000000015055, -3.921609310316731 
2.8200000000015266, -3.921017358389551 
2.8300000000015477, -3.920387027647481 
2.840000000001569, -3.9197403386014065 
2.85000000000159, -3.9191260523484663 
2.860000000001611, -3.918547545758816 
2.870000000001632, -3.917957461413706 
2.8800000000016532, -3.9173189519405867 
2.8900000000016743, -3.916639180845361 
2.9000000000016954, -3.915995590925269 
2.9100000000017165, -3.9154430490839474 
2.9200000000017377, -3.9149035141918183 
2.9300000000017588, -3.914304336073087 
2.94000000000178, -3.9136330370068513 
2.950000000001801, -3.9129319794536905 
2.960000000001822, -3.9123032450372315 
2.970000000001843, -3.9117575978279184 
2.9800000000018643, -3.9111964521976765 
2.9900000000018854, -3.9105781479095447 
3.0000000000019065, -3.909921296170188 
3.0100000000019276, -3.9092771452904387 
3.0200000000019487, -3.908681622311655 
3.03000000000197, -3.9080998236543203 
3.040000000001991, -3.9074857193774135 
3.050000000002012, -3.906841161770283 
3.060000000002033, -3.906212543043066 
3.070000000002054, -3.905629512181265 
3.0800000000020753, -3.905055450578722 
3.0900000000020964, -3.9044422251753703 
3.1000000000021175, -3.9037748280860947 
3.1100000000021386, -3.9031006307188805 
3.1200000000021597, -3.902512440086266 
3.130000000002181, -3.9019856025463993 
3.140000000002202, -3.9014230639384087 
3.150000000002223, -3.900788018904001 
3.160000000002244, -3.9000956618796634 
3.1700000000022652, -3.8994246619175215 
3.1800000000022863, -3.8988492369987435 
3.1900000000023074, -3.898304447942217 
3.2000000000023285, -3.8977145804403754 
3.2100000000023496, -3.897075258181458 
3.2200000000023707, -3.8964244566044948 
3.230000000002392, -3.895811010271527 
3.240000000002413, -3.89523149144904 
3.250000000002434, -3.894635998349402 
3.260000000002455, -3.8940025617931626 
3.2700000000024763, -3.8933607923989095 
3.2800000000024974, -3.892761906786774 
3.2900000000025185, -3.892197194335286 
3.3000000000025396, -3.8916120637811304 
3.3100000000025607, -3.8909720199886606 
3.3200000000025818, -3.8902881478884943 
3.330000000002603, -3.889645832836964 
3.340000000002624, -3.8891030739528722 
3.350000000002645, -3.888573774534855 
3.360000000002666, -3.887983030412576 
3.3700000000026873, -3.8873217625355294 
3.3800000000027084, -3.886631690766381 
3.3900000000027295, -3.8860049580006417 
3.4000000000027506, -3.88545438403071 
3.4100000000027717, -3.8848924973907466 
3.420000000002793, -3.88427964013961 
3.430000000002814, -3.8836341026371137 
3.440000000002835, -3.8830029177240832 
3.450000000002856, -3.8824136664755713 
3.460000000002877, -3.881833351395135 
3.4700000000028983, -3.881220205977592 
3.4800000000029194, -3.8805761174539066 
3.4900000000029405, -3.8799515919660594 
3.5000000000029616, -3.8793806558158317 
3.5100000000029827, -3.8788203120546543 
3.520000000003004, -3.878217367427544 
3.530000000003025, -3.8775537457581803 
3.540000000003046, -3.876870199000951 
3.550000000003067, -3.8762696050144947 
3.5600000000030882, -3.8757497753166144 
3.5700000000031094, -3.8752053334802197 
3.5800000000031305, -3.874590612912737 
3.5900000000031516, -3.8739166897890542 
3.6000000000031727, -3.873246642350393 
3.6100000000031938, -3.8726561819221024 
3.620000000003215, -3.8721078355665965 
3.630000000003236, -3.8715266341249097 
3.640000000003257, -3.87089994312038 
3.650000000003278, -3.8702603666133397 
3.6600000000032993, -3.8696520083733246 
3.6700000000033204, -3.869075262852758 
3.6800000000033415, -3.868485871243112 
3.6900000000033626, -3.8678569996374863 
3.7000000000033837, -3.867211821104315 
3.710000000003405, -3.866611530080894 
3.720000000003426, -3.8660604661375686 
3.730000000003447, -3.865496152961582 
3.740000000003468, -3.864874935884044 
3.750000000003489, -3.864194902182336 
3.7600000000035103, -3.8635248499864305 
3.7700000000035314, -3.8629594970287933 
3.7800000000035525, -3.862444858812232 
3.7900000000035736, -3.8618835565929097 
3.8000000000035947, -3.861252823897523 
3.810000000003616, -3.860579199050646 
3.820000000003637, -3.8599352201265824 
3.830000000003658, -3.859365392723185 
3.840000000003679, -3.85880911187141 
3.8500000000037002, -3.858212436077781 
3.8600000000037213, -3.857580393594124 
3.8700000000037424, -3.856953825119075 
3.8800000000037635, -3.856364747504717 
3.8900000000037847, -3.8557917212451 
3.9000000000038058, -3.8551911050527736 
3.910000000003827, -3.8545501633994106 
3.920000000003848, -3.8539108350141866 
3.930000000003869, -3.8533347833353977 
3.94000000000389, -3.8527961575739456 
3.9500000000039113, -3.852225348509427 
3.9600000000039324, -3.851589283168863 
3.9700000000039535, -3.85090100508888 
3.9800000000039746, -3.850249129066742 
3.9900000000039957, -3.849705853990732 
4.000000000004016, -3.849187432487846 
4.010000000003993, -3.848612740383934 
4.02000000000397, -3.847974501482202 
4.030000000003946, -3.8473099365684176 
4.040000000003923, -3.8466889185381645 
4.0500000000039, -3.846127315377192 
4.0600000000038765, -3.8455610374272835 
4.070000000003853, -3.844953805878403 
4.08000000000383, -3.8443224289698947 
4.090000000003807, -3.843711027508001 
4.100000000003783, -3.843136180428605 
4.11000000000376, -3.8425627613012736 
4.120000000003737, -3.841951818353558 
4.130000000003713, -3.8413019894446476 
4.14000000000369, -3.840670966098314 
4.150000000003667, -3.840115362068166 
4.1600000000036434, -3.839585104566153 
4.17000000000362, -3.839009430868942 
4.180000000003597, -3.838364255543534 
4.1900000000035735, -3.8376745420383065 
4.20000000000355, -3.8370379429117976 
4.210000000003527, -3.8365044055974615 
4.220000000003504, -3.835979487190495 
4.23000000000348, -3.8353964926074893 
4.240000000003457, -3.834757787810882 
4.250000000003434, -3.834106029151031 
4.26000000000341, -3.833501569087455 
4.270000000003387, -3.832941486289761 
4.280000000003364, -3.8323666744889557 
4.2900000000033405, -3.8317529014592075 
4.300000000003317, -3.8311251563129503 
4.310000000003294, -3.830528069789377 
4.320000000003271, -3.829963982509208 
4.330000000003247, -3.829389779754817 
4.340000000003224, -3.828770862803706 
4.350000000003201, -3.8281138741384027 
4.360000000003177, -3.8274888946280328 
4.370000000003154, -3.8269484981302844 
4.380000000003131, -3.826425667073573 
4.390000000003107, -3.8258493214068445 
4.400000000003084, -3.825201935107887 
4.410000000003061, -3.824515542403918 
4.4200000000030375, -3.823887678284648 
4.430000000003014, -3.8233548145178853 
4.440000000002991, -3.8228237734226527 
4.450000000002968, -3.822237284280822 
4.460000000002944, -3.8216027634404264 
4.470000000002921, -3.8209639490555487 
4.480000000002898, -3.82037034556546 
4.490000000002874, -3.819809402936675 
4.500000000002851, -3.819228614033066 
4.510000000002828, -3.8186108151899467 
4.520000000002804, -3.8179867571811164 
4.530000000002781, -3.817401779923016 
4.540000000002758, -3.816847350258038 
4.5500000000027345, -3.81627462420033 
4.560000000002711, -3.815651231776645 
4.570000000002688, -3.814987652038068 
4.580000000002665, -3.814362456723111 
4.590000000002641, -3.813830838266201 
4.600000000002618, -3.813316130731814 
4.610000000002595, -3.8127444803779524 
4.620000000002571, -3.8121019729941166 
4.630000000002548, -3.8114224151470992 
4.640000000002525, -3.810796865991776 
4.6500000000025015, -3.8102585678533734 
4.660000000002478, -3.8097227067326145 
4.670000000002455, -3.8091364026710854 
4.6800000000024315, -3.8085083378008493 
4.690000000002408, -3.807880823137288 
4.700000000002385, -3.807294417678625 
4.710000000002362, -3.8067328265974085 
4.720000000002338, -3.806148877994193 
4.730000000002315, -3.805528261605091 
4.740000000002292, -3.804905376567459 
4.750000000002268, -3.8043293500481163 
4.760000000002245, -3.8037853791198857 
4.770000000002222, -3.803218432770317 
4.7800000000021985, -3.8025956482812084 
4.790000000002175, -3.8019266114717354 
4.800000000002152, -3.8012925661618455 
4.810000000002129, -3.800760817507237 
4.820000000002105, -3.8002545188951693 
4.830000000002082, -3.7996927697234826 
4.840000000002059, -3.799061525089801 
4.850000000002035, -3.7983921420248974 
4.860000000002012, -3.797765007416443 
4.870000000001989, -3.7972172827253425 
4.880000000001965, -3.796677686009229 
4.890000000001942, -3.7960939658177546 
4.900000000001919, -3.795472757514556 
4.9100000000018955, -3.794854180210275 
4.920000000001872, -3.7942731683526696 
4.930000000001849, -3.7937126656999007 
4.940000000001826, -3.7931287180217717 
4.950000000001802, -3.792506058339525 
4.960000000001779, -3.7918796970075626 
4.970000000001756, -3.7913074272244245 
4.980000000001732, -3.790775306305985 
4.990000000001709, -3.790219997680192 
