t, s[1].omega / s[0].omega 
0, -2.7749958235478887 
0.009999999999999995, -2.774558632883293 
0.019999999999999934, -2.7740897865359977 
0.029999999999999874, -2.7736130018564022 
0.04000000000000012, -2.7731640611817543 
0.050000000000000405, -2.7727615422184266 
0.06000000000000069, -2.77238561592155 
0.07000000000000098, -2.772003145922043 
0.08000000000000126, -2.771596266663286 
0.09000000000000155, -2.7711650371277505 
0.10000000000000184, -2.770722742609456 
0.11000000000000212, -2.770290237074221 
0.12000000000000241, -2.769881839675669 
0.130000000000002, -2.7694921053466475 
0.1400000000000009, -2.76910105079534 
0.1499999999999998, -2.768689626352306 
0.1599999999999987, -2.7682485555827467 
0.1699999999999976, -2.7677829524363964 
0.1799999999999965, -2.7673189580854984 
0.1899999999999954, -2.766895220588375 
0.1999999999999943, -2.7665238446518776 
0.2099999999999932, -2.7661738970114156 
0.2199999999999921, -2.765807259037906 
0.229999999999991, -2.7654052008831793 
0.2399999999999899, -2.7649666026505932 
0.2499999999999888, -2.764503507618013 
0.2599999999999877, -2.764041126088188 
0.2699999999999866, -2.763608024307165 
0.2799999999999855, -2.7632110794649085 
0.2899999999999844, -2.76282838268533 
0.2999999999999833, -2.7624338929847396 
0.3099999999999822, -2.762015963504511 
0.3199999999999811, -2.7615785136934003 
0.32999999999998, -2.7611388022375123 
0.3399999999999789, -2.760719064108204 
0.3499999999999778, -2.7603273102403665 
0.35999999999997667, -2.759948747675161 
0.36999999999997557, -2.7595597749802856 
0.37999999999997447, -2.7591430319147032 
0.38999999999997337, -2.75869227362199 
0.39999999999997227, -2.7582167810816203 
0.40999999999997117, -2.7577483372307574 
0.41999999999997006, -2.757327408892274 
0.42999999999996896, -2.7569598962883317 
0.43999999999996786, -2.7566092881980593 
0.44999999999996676, -2.7562388048476043 
0.45999999999996566, -2.7558339466780746 
0.46999999999996456, -2.7553975051535926 
0.47999999999996346, -2.7549441800943666 
0.48999999999996235, -2.754497612795753 
0.49999999999996125, -2.7540781130461154 
0.5099999999999602, -2.753684593991654 
0.519999999999959, -2.7532960790829013 
0.529999999999958, -2.752892016651584 
0.5399999999999568, -2.7524645003524952 
0.5499999999999557, -2.7520204704702147 
0.5599999999999546, -2.751581783007598 
0.5699999999999535, -2.751173113665881 
0.5799999999999524, -2.7507970484624567 
0.5899999999999513, -2.7504304043408263 
0.5999999999999502, -2.750046356397937 
0.6099999999999491, -2.7496290095855933 
0.619999999999948, -2.7491749632495064 
0.6299999999999469, -2.7486964172216366 
0.6399999999999458, -2.74822659732408 
0.6499999999999447, -2.7478038065131787 
0.6599999999999436, -2.7474309377599377 
0.6699999999999425, -2.7470725571948105 
0.6799999999999414, -2.7466954010868845 
0.6899999999999403, -2.7462877195036466 
0.6999999999999392, -2.745854198881231 
0.7099999999999381, -2.7454105837571046 
0.719999999999937, -2.7449781826157365 
0.7299999999999359, -2.7445704154442034 
0.7399999999999348, -2.744180802660204 
0.7499999999999337, -2.7437892632402034 
0.7599999999999326, -2.7433783585325773 
0.7699999999999315, -2.7429419517152906 
0.7799999999999304, -2.742489109263615 
0.7899999999999293, -2.742046685288282 
0.7999999999999282, -2.7416439949347593 
0.8099999999999271, -2.741280810063397 
0.819999999999926, -2.7409265031154133 
0.8299999999999249, -2.7405506474537846 
0.8399999999999238, -2.7401385239555625 
0.8499999999999227, -2.73968948331419 
0.8599999999999216, -2.7392171520464297 
0.8699999999999205, -2.738752074074644 
0.8799999999999194, -2.738327173481656 
0.8899999999999183, -2.7379450399497722 
0.8999999999999172, -2.7375759108475135 
0.9099999999999161, -2.7371910264951844 
0.919999999999915, -2.7367799678922307 
0.9299999999999139, -2.736347883760154 
0.9399999999999128, -2.7359112092024462 
0.9499999999999117, -2.735490175628287 
0.9599999999999106, -2.735093566296737 
0.9699999999999095, -2.7347104725368756 
0.9799999999999084, -2.7343201964909296 
0.9899999999999073, -2.7339062641784304 
0.9999999999999062, -2.733462779624883 
1.0099999999999052, -2.7329993063864544 
1.019999999999904, -2.7325462397090483 
1.029999999999903, -2.7321393574552277 
1.039999999999902, -2.731780712678016 
1.0499999999999008, -2.731435095142945 
1.0599999999998997, -2.7310679864861687 
1.0699999999998986, -2.730664724354056 
1.0799999999998975, -2.7302265350542183 
1.0899999999998964, -2.7297671706111535 
1.0999999999998953, -2.7293125489554755 
1.1099999999998942, -2.7288889880681166 
1.119999999999893, -2.7284994481086455 
1.129999999999892, -2.728120976918013 
1.1399999999998909, -2.7277292498572296 
1.1499999999998898, -2.727314214957768 
1.1599999999998887, -2.726880620418123 
1.1699999999998876, -2.7264460724836295 
1.1799999999998865, -2.7260324913164373 
1.1899999999998854, -2.7256471072185375 
1.1999999999998843, -2.7252746995600465 
1.2099999999998832, -2.724891767831489 
1.219999999999882, -2.7244811245671188 
1.229999999999881, -2.724036353921043 
1.2399999999998799, -2.7235656664808303 
1.2499999999998788, -2.7230988170007198 
1.2599999999998777, -2.722676227227526 
1.2699999999998766, -2.7223081889052496 
1.2799999999998755, -2.7219617183300895 
1.2899999999998744, -2.721599202659478 
1.2999999999998733, -2.7212040210047292 
1.3099999999998722, -2.7207772990007757 
1.319999999999871, -2.7203319143782236 
1.32999999999987, -2.719889620867489 
1.3399999999998689, -2.7194710894772665 
1.3499999999998678, -2.7190789797284594 
1.3599999999998666, -2.7186954615937045 
1.3699999999998655, -2.718299508420803 
1.3799999999998644, -2.7178805710036085 
1.3899999999998633, -2.717441978087181 
1.3999999999998622, -2.717002479705131 
1.4099999999998611, -2.7165890715137637 
1.41999999999986, -2.7162125301629714 
1.429999999999859, -2.715854357341224 
1.4399999999998578, -2.7154856575033213 
1.4499999999998567, -2.7150867752938916 
1.4599999999998556, -2.714650778133003 
1.4699999999998545, -2.714183944917094 
1.4799999999998534, -2.7137110336507186 
1.4899999999998523, -2.713270651827121 
1.4999999999998512, -2.7128824760902797 
1.5099999999998501, -2.712524233472814 
1.519999999999849, -2.7121595243012253 
1.529999999999848, -2.7117685104410585 
1.5399999999998468, -2.711349867891884 
1.5499999999998457, -2.710914743001706 
1.5599999999998446, -2.7104824857767627 
1.5699999999998435, -2.710070756683302 
1.5799999999998424, -2.7096814412127848 
1.5899999999998413, -2.7092988999143737 
1.5999999999998402, -2.7089034058975097 
1.6099999999998391, -2.7084829312705825 
1.619999999999838, -2.708037827721699 
1.629999999999837, -2.7075856810248373 
1.6399999999998358, -2.707159547551659 
1.6499999999998347, -2.706781075629679 
1.6599999999998336, -2.7064340991319007 
1.6699999999998325, -2.706082850429099 
1.6799999999998314, -2.705702249749405 
1.6899999999998303, -2.7052841024529246 
1.6999999999998292, -2.704833297252395 
1.709999999999828, -2.704368596738983 
1.719999999999827, -2.7039211879550997 
1.729999999999826, -2.703514533228104 
1.7399999999998248, -2.7031401207348993 
1.7499999999998237, -2.702768538791503 
1.7599999999998226, -2.702377911809096 
1.7699999999998215, -2.7019629589449417 
1.7799999999998204, -2.7015321505300145 
1.7899999999998193, -2.701104235685974 
1.7999999999998182, -2.7006978928732703 
1.809999999999817, -2.700315633912302 
1.819999999999816, -2.6999412985575537 
1.8299999999998149, -2.6995537642459473 
1.8399999999998138, -2.699138585230283 
1.8499999999998127, -2.6986921062391134 
1.8599999999998116, -2.698226703590095 
1.8699999999998105, -2.6977757444271395 
1.8799999999998094, -2.697374825022158 
1.8899999999998083, -2.6970223553788184 
1.8999999999998072, -2.696681105753464 
1.909999999999806, -2.696317652911468 
1.919999999999805, -2.6959193418375635 
1.9299999999998039, -2.695489061736743 
1.9399999999998028, -2.6950410367382407 
1.9499999999998017, -2.694598839469539 
1.9599999999998006, -2.6941840766096767 
1.9699999999997995, -2.6937977638142945 
1.9799999999997984, -2.693419722703735 
1.9899999999997973, -2.6930284922856997 
1.9999999999997962, -2.692614565005378 
2.0099999999998173, -2.6921823037750072 
2.0199999999998384, -2.6917499359477137 
2.0299999999998595, -2.691341597343193 
2.0399999999998806, -2.690965887079563 
2.0499999999999017, -2.6906059725693408 
2.059999999999923, -2.6902358637672803 
2.069999999999944, -2.689837092302626 
2.079999999999965, -2.6894025037580525 
2.089999999999986, -2.688937975658758 
2.100000000000007, -2.6884684842179896 
2.1100000000000283, -2.688033356956078 
2.1200000000000494, -2.6876523889913346 
2.1300000000000705, -2.6873023850325444 
2.1400000000000916, -2.6869457258739864 
2.1500000000001127, -2.686561671929707 
2.160000000000134, -2.686148204069521 
2.170000000000155, -2.68571557808353 
2.180000000000176, -2.6852825892861913 
2.190000000000197, -2.6848684050083333 
2.2000000000002182, -2.6844783518983064 
2.2100000000002393, -2.6840990158747386 
2.2200000000002604, -2.6837103635142476 
2.2300000000002815, -2.6832990587204146 
2.2400000000003026, -2.682863619697292 
2.2500000000003237, -2.6824182032697794 
2.260000000000345, -2.6819923361930096 
2.270000000000366, -2.681609681487648 
2.280000000000387, -2.681260904387414 
2.290000000000408, -2.680913574174609 
2.3000000000004293, -2.6805409750488605 
2.3100000000004504, -2.6801318489906567 
2.3200000000004715, -2.679687819103017 
2.3300000000004926, -2.6792241271529673 
2.3400000000005137, -2.6787709244287132 
2.3500000000005348, -2.678357503232932 
2.360000000000556, -2.6779835622892088 
2.370000000000577, -2.6776206768707778 
2.380000000000598, -2.677242418830198 
2.390000000000619, -2.676839133767783 
2.4000000000006403, -2.6764156238999606 
2.4100000000006614, -2.6759875973280525 
2.4200000000006825, -2.6755748754974342 
2.4300000000007036, -2.675186802043581 
2.4400000000007247, -2.674813587043594 
2.450000000000746, -2.6744350485818473 
2.460000000000767, -2.6740341115453363 
2.470000000000788, -2.6736030389235825 
2.480000000000809, -2.673147368525675 
2.49000000000083, -2.672692293632096 
2.5000000000008513, -2.672275624237173 
2.5100000000008724, -2.671912376847925 
2.5200000000008935, -2.671575711270331 
2.5300000000009146, -2.6712276977281046 
2.5400000000009357, -2.670847650223485 
2.550000000000957, -2.670432594706327 
2.560000000000978, -2.6699916384852846 
2.570000000000999, -2.6695447218302095 
2.58000000000102, -2.669117195835072 
2.5900000000010412, -2.668722106155703 
2.6000000000010624, -2.668347504136878 
2.6100000000010835, -2.6679695730855792 
2.6200000000011046, -2.667572139482292 
2.6300000000011257, -2.667152564114289 
2.6400000000011468, -2.666721715139905 
2.650000000001168, -2.666301677098195 
2.660000000001189, -2.6659114192242357 
2.67000000000121, -2.665547798563464 
2.680000000001231, -2.6651883722687226 
2.6900000000012523, -2.664810091140729 
2.7000000000012734, -2.664399512456792 
2.7100000000012945, -2.6639542900529456 
2.7200000000013156, -2.6634870988137647 
2.7300000000013367, -2.6630304300979377 
2.740000000001358, -2.662620617148519 
2.750000000001379, -2.662260489471005 
2.7600000000014, -2.6619164570879614 
2.770000000001421, -2.6615555222005196 
2.780000000001442, -2.661164594865961 
2.7900000000014633, -2.660746419936884 
2.8000000000014844, -2.660314308380865 
2.8100000000015055, -2.6598882820954692 
2.8200000000015266, -2.6594846846203724 
2.8300000000015477, -2.6591030272356777 
2.840000000001569, -2.658726494348788 
2.85000000000159, -2.658336204950014 
2.860000000001611, -2.657921915440009 
2.870000000001632, -2.6574857812824755 
2.8800000000016532, -2.6570460148346546 
2.8900000000016743, -2.656632899152996 
2.9000000000016954, -2.656263493594419 
2.9100000000017165, -2.6559212569255153 
2.9200000000017377, -2.655573676900136 
2.9300000000017588, -2.6551976601020852 
2.94000000000178, -2.6547848747899763 
2.950000000001801, -2.6543391784755648 
2.960000000001822, -2.653878282501558 
2.970000000001843, -2.6534334168249396 
2.9800000000018643, -2.6530303430927344 
2.9900000000018854, -2.6526633192966576 
3.0000000000019065, -2.6523029008193046 
3.0100000000019276, -2.65192509411309 
3.0200000000019487, -2.6515224300385722 
3.03000000000197, -2.65110100300003 
3.040000000001991, -2.6506771681824146 
3.050000000002012, -2.650270193938139 
3.060000000002033, -2.6498877320669956 
3.070000000002054, -2.6495187377584353 
3.0800000000020753, -2.6491430858161626 
3.0900000000020964, -2.6487443648971065 
3.1000000000021175, -2.6483154137416123 
3.1100000000021386, -2.6478621586414293 
3.1200000000021597, -2.64740985432553 
3.130000000002181, -2.646995929165355 
3.140000000002202, -2.646635351029066 
3.150000000002223, -2.646301919658203 
3.160000000002244, -2.6459580718090008 
3.1700000000022652, -2.6455829871397127 
3.1800000000022863, -2.6451734159713194 
3.1900000000023074, -2.644737959461661 
3.2000000000023285, -2.6442955427798562 
3.2100000000023496, -2.643870565004847 
3.2200000000023707, -2.6434767412672806 
3.230000000002392, -2.6431041739413654 
3.240000000002413, -2.6427300649051566 
3.250000000002434, -2.6423376102496827 
3.260000000002455, -2.641922782578067 
3.2700000000024763, -2.6414947730564515 
3.2800000000024974, -2.641074846800285 
3.2900000000025185, -2.640684019507308 
3.3000000000025396, -2.6403227612223605 
3.3100000000025607, -2.639969922691688 
3.3200000000025818, -2.639601243258633 
3.330000000002603, -2.6392015964593645 
3.340000000002624, -2.6387667004631643 
3.350000000002645, -2.6383055670027464 
3.360000000002666, -2.637845913363413 
3.3700000000026873, -2.637425164144231 
3.3800000000027084, -2.6370563219936036 
3.3900000000027295, -2.63671302398904 
3.4000000000027506, -2.6363602520935503 
3.4100000000027717, -2.6359802340230636 
3.420000000002793, -2.6355722550115432 
3.430000000002814, -2.6351468857014 
3.440000000002835, -2.6347224725444183 
3.450000000002856, -2.6343169611315687 
3.460000000002877, -2.6339347154270745 
3.4700000000028983, -2.633562630018827 
3.4800000000029194, -2.6331814264844473 
3.4900000000029405, -2.6327777997160484 
3.5000000000029616, -2.632349260226753 
3.5100000000029827, -2.6319079639040295 
3.520000000003004, -2.631482259825321 
3.530000000003025, -2.6310991965406982 
3.540000000003046, -2.6307553170266162 
3.550000000003067, -2.6304196587081283 
3.5600000000030882, -2.630062984275543 
3.5700000000031094, -2.6296715233764543 
3.5800000000031305, -2.6292447328736284 
3.5900000000031516, -2.628793936308206 
3.6000000000031727, -2.628343893145072 
3.6100000000031938, -2.6279241042276307 
3.620000000003215, -2.627544289329477 
3.630000000003236, -2.6271845358541617 
3.640000000003257, -2.6268174777566564 
3.650000000003278, -2.6264283814267326 
3.6600000000032993, -2.626017071731424 
3.6700000000033204, -2.6255951766684977 
3.6800000000033415, -2.6251822386151926 
3.6900000000033626, -2.624793580959067 
3.7000000000033837, -2.6244266546321744 
3.710000000003405, -2.624063322455904 
3.720000000003426, -2.623683751224758 
3.730000000003447, -2.623275417603238 
3.740000000003468, -2.622836049175911 
3.750000000003489, -2.6223786535765776 
3.7600000000035103, -2.62193577778812 
3.7700000000035314, -2.621541763949694 
3.7800000000035525, -2.6211964521072018 
3.7900000000035736, -2.6208651670029597 
3.8000000000035947, -2.620514912986269 
3.810000000003616, -2.620132110471349 
3.820000000003637, -2.619718411460208 
3.830000000003658, -2.6192858965778734 
3.840000000003679, -2.618854994294815 
3.8500000000037002, -2.618446231349242 
3.8600000000037213, -2.6180647669412536 
3.8700000000037424, -2.617695673478393 
3.8800000000037635, -2.6173182037627596 
3.8900000000037847, -2.6169197727709337 
3.9000000000038058, -2.616499864536178 
3.910000000003827, -2.6160715258911806 
3.920000000003848, -2.61565934947988 
3.930000000003869, -2.615282468889443 
3.94000000000389, -2.6149343623901165 
3.9500000000039113, -2.6145890848254534 
3.9600000000039324, -2.6142226548129814 
3.9700000000039535, -2.613822518929523 
3.9800000000039746, -2.6133873257315954 
3.9900000000039957, -2.612928982849594 
4.000000000004016, -2.612476314165959 
4.010000000003993, -2.612063146996379 
4.02000000000397, -2.611697003254381 
4.030000000003946, -2.611351213383558 
4.040000000003923, -2.610994598341869 
4.0500000000039, -2.610612402065227 
4.0600000000038765, -2.610205308304656 
4.070000000003853, -2.6097847606599793 
4.08000000000383, -2.6093691427320573 
4.090000000003807, -2.6089741658703787 
4.100000000003783, -2.6086005873522926 
4.11000000000376, -2.608233548680524 
4.120000000003737, -2.6078543391461677 
4.130000000003713, -2.6074504906508706 
4.14000000000369, -2.607019777223481 
4.150000000003667, -2.6065747836271345 
4.1600000000036434, -2.606145646781328 
4.17000000000362, -2.6057624249551363 
4.180000000003597, -2.6054230129515417 
4.1900000000035735, -2.6050947558281385 
4.20000000000355, -2.604746480542286 
4.210000000003527, -2.6043641423530204 
4.220000000003504, -2.60394777858125 
4.23000000000348, -2.6035083267299006 
4.240000000003457, -2.603067635650239 
4.250000000003434, -2.602651332890876 
4.26000000000341, -2.602269491295673 
4.270000000003387, -2.601906910022457 
4.280000000003364, -2.6015393811697343 
4.2900000000033405, -2.601151939065576 
4.300000000003317, -2.6007428184010815 
4.310000000003294, -2.600322501737904 
4.320000000003271, -2.599911255299251 
4.330000000003247, -2.5995269131807492 
4.340000000003224, -2.599168318455165 
4.350000000003201, -2.5988161136629175 
4.360000000003177, -2.598448442304695 
4.370000000003154, -2.5980512366890745 
4.380000000003131, -2.5976203348190205 
4.390000000003107, -2.597164699364162 
4.400000000003084, -2.59671194775027 
4.410000000003061, -2.596299073910312 
4.4200000000030375, -2.5959387458836853 
4.430000000003014, -2.5956046911371233 
4.440000000002991, -2.5952615852801526 
4.450000000002968, -2.5948908329260094 
4.460000000002944, -2.5944907362555307 
4.470000000002921, -2.594070633127692 
4.480000000002898, -2.5936478860067504 
4.490000000002874, -2.5932415222103513 
4.500000000002851, -2.592859563407604 
4.510000000002828, -2.5924920928905912 
4.520000000002804, -2.5921201034200188 
4.530000000002781, -2.5917287065086247 
4.540000000002758, -2.5913129946571556 
4.5500000000027345, -2.590880959484017 
4.560000000002711, -2.5904560698044325 
4.570000000002688, -2.59006658581319 
4.580000000002665, -2.589718518984494 
4.590000000002641, -2.589387824852383 
4.600000000002618, -2.589044093857843 
4.610000000002595, -2.5886692224139662 
4.620000000002571, -2.5882584368377257 
4.630000000002548, -2.587818161473277 
4.640000000002525, -2.5873678941128255 
4.6500000000025015, -2.586937604129867 
4.660000000002478, -2.586548020698615 
4.670000000002455, -2.5861901188055634 
4.6800000000024315, -2.585836128240229 
4.690000000002408, -2.5854647540877225 
4.700000000002385, -2.5850696229054555 
4.710000000002362, -2.5846567718975373 
4.720000000002338, -2.584242065279253 
4.730000000002315, -2.583844415861784 
4.740000000002292, -2.5834717909456435 
4.750000000002268, -2.583113892276117 
4.760000000002245, -2.582750959650388 
4.770000000002222, -2.5823661736953922 
4.7800000000021985, -2.5819510297015493 
4.790000000002175, -2.581508164132585 
4.800000000002152, -2.581057276841257 
4.810000000002129, -2.5806341596696223 
4.820000000002105, -2.5802640663917544 
4.830000000002082, -2.57993313760396 
4.840000000002059, -2.579604504607978 
4.850000000002035, -2.5792513700118764 
4.860000000002012, -2.5788654539995255 
4.870000000001989, -2.5784513108218476 
4.880000000001965, -2.5780229306117826 
4.890000000001942, -2.5776012034783586 
4.900000000001919, -2.5772039658176924 
4.9100000000018955, -2.576831881220934 
4.920000000001872, -2.576468073920515 
4.930000000001849, -2.576093164638542 
4.940000000001826, -2.5756966356218935 
4.950000000001802, -2.5752795941379722 
4.960000000001779, -2.574856396391314 
4.970000000001756, -2.574451886349096 
