t, s[1].omega / s[0].omega 
0, -1.959996823493316 
0.009999999999999995, -1.9596639332492434 
0.019999999999999934, -1.9593036662196304 
0.029999999999999874, -1.9589249299147107 
0.04000000000000012, -1.9585431610665585 
0.050000000000000405, -1.958177356979038 
0.06000000000000069, -1.9578418584988473 
0.07000000000000098, -1.9575377363466242 
0.08000000000000126, -1.9572525940731325 
0.09000000000000155, -1.9569692064040631 
0.10000000000000184, -1.9566739788995335 
0.11000000000000212, -1.956359786058195 
0.12000000000000241, -1.9560254646489241 
0.130000000000002, -1.9556756731628209 
0.1400000000000009, -1.9553218178732124 
0.1499999999999998, -1.9549810896844992 
0.1599999999999987, -1.9546697114080658 
0.1699999999999976, -1.9543925894295415 
0.1799999999999965, -1.954139190883622 
0.1899999999999954, -1.9538902566645586 
0.1999999999999943, -1.9536277898416223 
0.2099999999999932, -1.953340283517417 
0.2199999999999921, -1.9530229997785686 
0.229999999999991, -1.9526768727703927 
0.2399999999999899, -1.9523083481094408 
0.2499999999999888, -1.951929926563394 
0.2599999999999877, -1.9515589602395242 
0.2699999999999866, -1.951211942374334 
0.2799999999999855, -1.9508958072862228 
0.2899999999999844, -1.9506037379616756 
0.2999999999999833, -1.9503202679911151 
0.3099999999999822, -1.9500302005601085 
0.3199999999999811, -1.949723694534057 
0.32999999999998, -1.9493968494011629 
0.3399999999999789, -1.9490513593420675 
0.3499999999999778, -1.9486954033842216 
0.35999999999997667, -1.9483443592548064 
0.36999999999997557, -1.9480170102541692 
0.37999999999997447, -1.9477254412248548 
0.38999999999997337, -1.947466070642193 
0.39999999999997227, -1.947221629556762 
0.40999999999997117, -1.9469716357151394 
0.41999999999997006, -1.946700893624051 
0.42999999999996896, -1.9464017406399285 
0.43999999999996786, -1.946072899271602 
0.44999999999996676, -1.945718422994799 
0.45999999999996566, -1.9453477824894716 
0.46999999999996456, -1.944975704229331 
0.47999999999996346, -1.944619017202307 
0.48999999999996235, -1.9442894932304795 
0.49999999999996125, -1.9439871004958509 
0.5099999999999602, -1.943700437455965 
0.519999999999959, -1.9434140803674638 
0.529999999999958, -1.9431155929784496 
0.5399999999999568, -1.9427980258560946 
0.5499999999999557, -1.9424598382986171 
0.5599999999999546, -1.942105370952279 
0.5699999999999535, -1.9417463883669566 
0.5799999999999524, -1.9414015141440157 
0.5899999999999513, -1.9410890356717476 
0.5999999999999502, -1.940815081153983 
0.6099999999999491, -1.9405684175744604 
0.619999999999948, -1.9403278949948586 
0.6299999999999469, -1.9400740051383707 
0.6399999999999458, -1.9397948486174243 
0.6499999999999447, -1.9394861430117707 
0.6599999999999436, -1.9391494661695727 
0.6699999999999425, -1.9387914130148978 
0.6799999999999414, -1.9384235901707654 
0.6899999999999403, -1.9380613879775044 
0.6999999999999392, -1.9377193100242263 
0.7099999999999381, -1.9374039287405025 
0.719999999999937, -1.9371101097370604 
0.7299999999999359, -1.9368245921488616 
0.7399999999999348, -1.9365333094236221 
0.7499999999999337, -1.9362262149157168 
0.7599999999999326, -1.935898378350285 
0.7699999999999315, -1.9355501199454086 
0.7799999999999304, -1.935188372937915 
0.7899999999999293, -1.9348283219412115 
0.7999999999999282, -1.9344908127253349 
0.8099999999999271, -1.9341920346219101 
0.819999999999926, -1.9339318052928072 
0.8299999999999249, -1.9336930386517213 
0.8399999999999238, -1.933452982727783 
0.8499999999999227, -1.933194128088532 
0.8599999999999216, -1.9329076767508506 
0.8699999999999205, -1.9325921014021976 
0.8799999999999194, -1.9322512157693457 
0.8899999999999183, -1.931893488151082 
0.8999999999999172, -1.9315316866857866 
0.9099999999999161, -1.931180601032764 
0.919999999999915, -1.9308516154762434 
0.9299999999999139, -1.9305468155768444 
0.9399999999999128, -1.9302579375741362 
0.9499999999999117, -1.9299714383022661 
0.9599999999999106, -1.9296747991215395 
0.9699999999999095, -1.929359696697184 
0.9799999999999084, -1.9290225629044588 
0.9899999999999073, -1.9286652690422101 
0.9999999999999062, -1.9282972009993493 
1.0099999999999052, -1.927936525205654 
1.019999999999904, -1.927605332224322 
1.029999999999903, -1.9273169956184635 
1.039999999999902, -1.9270658163303716 
1.0499999999999008, -1.9268308066371058 
1.0599999999998997, -1.9265890545452649 
1.0699999999998986, -1.9263252540026776 
1.0799999999998975, -1.9260331706515081 
1.0899999999998964, -1.9257133545572365 
1.0999999999998953, -1.9253712312616496 
1.1099999999998942, -1.9250164751046495 
1.119999999999893, -1.924662208497566 
1.129999999999892, -1.9243219171730395 
1.1399999999998909, -1.9240039187340627 
1.1499999999998898, -1.9237069459028284 
1.1599999999998887, -1.9234210431092198 
1.1699999999998876, -1.9231330206423696 
1.1799999999998865, -1.92283160573161 
1.1899999999998854, -1.9225095787855715 
1.1999999999998843, -1.9221642632956528 
1.2099999999998832, -1.9217987892756423 
1.219999999999882, -1.9214246385211737 
1.229999999999881, -1.9210623080510199 
1.2399999999998799, -1.9207344552584065 
1.2499999999998788, -1.9204518491193128 
1.2599999999998777, -1.9202047691580315 
1.2699999999998766, -1.9199700288000798 
1.2799999999998755, -1.919725260398539 
1.2899999999998744, -1.9194570507794766 
1.2999999999998733, -1.9191610232247598 
1.3099999999998722, -1.9188391193745253 
1.319999999999871, -1.9184977870285618 
1.32999999999987, -1.9181473539006906 
1.3399999999998689, -1.9178008127832915 
1.3499999999998678, -1.9174702021025083 
1.3599999999998666, -1.917161303858753 
1.3699999999998655, -1.9168705421556809 
1.3799999999998644, -1.9165870791883486 
1.3899999999998633, -1.916298152585128 
1.3999999999998622, -1.9159933047618836 
1.4099999999998611, -1.9156659427435017 
1.41999999999986, -1.9153139284380873 
1.429999999999859, -1.9149412822580083 
1.4399999999998578, -1.914560969172944 
1.4499999999998567, -1.914195007645232 
1.4599999999998556, -1.9138662884430448 
1.4699999999998545, -1.9135839170984326 
1.4799999999998534, -1.9133360046689678 
1.4899999999998523, -1.9130985448240945 
1.4999999999998512, -1.91284989997195 
1.5099999999998501, -1.9125779426181562 
1.519999999999849, -1.9122793735410035 
1.529999999999848, -1.9119568612636737 
1.5399999999998468, -1.9116173582428981 
1.5499999999998457, -1.9112714714893433 
1.5599999999998446, -1.9109319314501498 
1.5699999999998435, -1.9106096132073245 
1.5799999999998424, -1.9103084769077878 
1.5899999999998413, -1.910023405431415 
1.5999999999998402, -1.9097430017982937 
1.6099999999998391, -1.9094547282872043 
1.619999999999838, -1.9091485401585344 
1.629999999999837, -1.9088181445416308 
1.6399999999998358, -1.908461674160873 
1.6499999999998347, -1.9080835943125933 
1.6599999999998336, -1.9076975223348467 
1.6699999999998325, -1.9073260400246888 
1.6799999999998314, -1.9069921156884342 
1.6899999999998303, -1.906704512715867 
1.6999999999998292, -1.9064511601865317 
1.709999999999828, -1.9062083970679988 
1.719999999999827, -1.9059552366016508 
1.729999999999826, -1.9056801059498578 
1.7399999999998248, -1.9053799944467795 
1.7499999999998237, -1.9050576701659547 
1.7599999999998226, -1.904720148331744 
1.7699999999998215, -1.904378108466986 
1.7799999999998204, -1.904044178499691 
1.7899999999998193, -1.903728654302737 
1.7999999999998182, -1.9034344492818789 
1.809999999999817, -1.903155421456447 
1.819999999999816, -1.9028796198639824 
1.8299999999998149, -1.9025943968496553 
1.8399999999998138, -1.9022897800775476 
1.8499999999998127, -1.9019595797927025 
1.8599999999998116, -1.9016020236869626 
1.8699999999998105, -1.9012215754537767 
1.8799999999998094, -1.9008315763224477 
1.8899999999998083, -1.9004540763024955 
1.8999999999998072, -1.9001118595066626 
1.909999999999806, -1.8998145982300838 
1.919999999999805, -1.8995519629902275 
1.9299999999998039, -1.8993017600348996 
1.9399999999998028, -1.8990435767926406 
1.9499999999998017, -1.8987657047520998 
1.9599999999998006, -1.898464682055901 
1.9699999999997995, -1.8981427860979145 
1.9799999999997984, -1.8978066887272533 
1.9899999999997973, -1.8974670199657695 
1.9999999999997962, -1.8971366501175961 
2.0099999999998173, -1.896826112751621 
2.0199999999998384, -1.8965381556770335 
2.0299999999998595, -1.896266021320018 
2.0399999999998806, -1.8959970230226317 
2.0499999999999017, -1.8957179660506316 
2.059999999999923, -1.8954186207051653 
2.069999999999944, -1.8950927757741418 
2.079999999999965, -1.8947386713511953 
2.089999999999986, -1.8943604283585824 
2.100000000000007, -1.893970283119349 
2.1100000000000283, -1.8935886390502634 
2.1200000000000494, -1.8932375203011502 
2.1300000000000705, -1.8929282323454075 
2.1400000000000916, -1.8926537790588092 
2.1500000000001127, -1.8923946151819966 
2.160000000000134, -1.8921310677865641 
2.170000000000155, -1.8918508058493515 
2.180000000000176, -1.8915492855910023 
2.190000000000197, -1.8912277323047548 
2.2000000000002182, -1.8908920331513106 
2.2100000000002393, -1.8905525868391575 
2.2200000000002604, -1.890222867315887 
2.2300000000002815, -1.889914647368378 
2.2400000000003026, -1.8896316603342047 
2.2500000000003237, -1.8893670856708422 
2.260000000000345, -1.8891072640701885 
2.270000000000366, -1.888837874891821 
2.280000000000387, -1.8885479883423428 
2.290000000000408, -1.888231203067512 
2.3000000000004293, -1.8878857309879784 
2.3100000000004504, -1.8875151798500387 
2.3200000000004715, -1.8871301613409899 
2.3300000000004926, -1.8867485581534331 
2.3400000000005137, -1.886390811086219 
2.3500000000005348, -1.8860697920678984 
2.360000000000556, -1.8857827576115362 
2.370000000000577, -1.8855139591096752 
2.380000000000598, -1.8852449928509132 
2.390000000000619, -1.884962757193271 
2.4000000000006403, -1.8846611718346573 
2.4100000000006614, -1.8843398845102932 
2.4200000000006825, -1.8840034574661957 
2.4300000000007036, -1.8836616338954049 
2.4400000000007247, -1.8833285861749585 
2.450000000000746, -1.8830183416383892 
2.460000000000767, -1.8827372179881707 
2.470000000000788, -1.8824794332715071 
2.480000000000809, -1.88223033319951 
2.49000000000083, -1.8819737426636263 
2.5000000000008513, -1.8816973122064347 
2.5100000000008724, -1.8813940613138231 
2.5200000000008935, -1.8810620545135255 
2.5300000000009146, -1.8807043546592463 
2.5400000000009357, -1.8803298367976597 
2.550000000000957, -1.8799534974295735 
2.560000000000978, -1.8795934710939708 
2.570000000000999, -1.879263467458054 
2.58000000000102, -1.8789650041086428 
2.5900000000010412, -1.878686944409544 
2.6000000000010624, -1.8784129615383456 
2.6100000000010835, -1.8781294317744976 
2.6200000000011046, -1.877828530836321 
2.6300000000011257, -1.877507890803902 
2.6400000000011468, -1.8771701209435616 
2.650000000001168, -1.8768235124689852 
2.660000000001189, -1.876482370330864 
2.67000000000121, -1.876163495737978 
2.680000000001231, -1.8758777303251022 
2.6900000000012523, -1.875622495728825 
2.7000000000012734, -1.8753829691547843 
2.7100000000012945, -1.8751404996460814 
2.7200000000013156, -1.8748802283100414 
2.7300000000013367, -1.8745937820520442 
2.740000000001358, -1.8742786985851645 
2.750000000001379, -1.873937456748268 
2.7600000000014, -1.8735773839450975 
2.770000000001421, -1.87321078060676 
2.780000000001442, -1.8728532130597615 
2.7900000000014633, -1.8725183333249305 
2.8000000000014844, -1.8722111389109308 
2.8100000000015055, -1.8719252806145987 
2.8200000000015266, -1.871647305315826 
2.8300000000015477, -1.87136364066416 
2.840000000001569, -1.8710648060552018 
2.85000000000159, -1.8707461673249608 
2.860000000001611, -1.870407816127195 
2.870000000001632, -1.8700555335550426 
2.8800000000016532, -1.8697022806792174 
2.8900000000016743, -1.8693667797103242 
2.9000000000016954, -1.869065732211872 
2.9100000000017165, -1.8688030641668611 
2.9200000000017377, -1.8685665059560101 
2.9300000000017588, -1.8683353476088187 
2.94000000000178, -1.8680910381880367 
2.950000000001801, -1.8678224380758717 
2.960000000001822, -1.867525681512808 
2.970000000001843, -1.867202365693947 
2.9800000000018643, -1.8668584655048235 
2.9900000000018854, -1.866504065222306 
3.0000000000019065, -1.8661524122799786 
3.0100000000019276, -1.8658165632877033 
3.0200000000019487, -1.8655039601263663 
3.03000000000197, -1.8652125816522311 
3.040000000001991, -1.8649323137363507 
3.050000000002012, -1.8646503206584613 
3.060000000002033, -1.864355814996862 
3.070000000002054, -1.8640419203150276 
3.0800000000020753, -1.863705960634336 
3.0900000000020964, -1.8633503642984082 
3.1000000000021175, -1.8629847919206681 
3.1100000000021386, -1.8626271672783379 
3.1200000000021597, -1.8622989067803477 
3.130000000002181, -1.8620132070102329 
3.140000000002202, -1.8617653832413594 
3.150000000002223, -1.861535852995986 
3.160000000002244, -1.8613023349026094 
3.1700000000022652, -1.861049279359083 
3.1800000000022863, -1.8607698524114618 
3.1900000000023074, -1.860463900410848 
3.2000000000023285, -1.8601358752860555 
3.2100000000023496, -1.8597939720790904 
3.2200000000023707, -1.8594495423990143 
3.230000000002392, -1.8591150117851865 
3.240000000002413, -1.8587996097420394 
3.250000000002434, -1.8585050252414868 
3.260000000002455, -1.85822456701408 
3.2700000000024763, -1.857946677325835 
3.2800000000024974, -1.8576597027796804 
3.2900000000025185, -1.8573547672619104 
3.3000000000025396, -1.857026613021351 
3.3100000000025607, -1.856674241438754 
3.3200000000025818, -1.8563027970169395 
3.330000000002603, -1.855926036118716 
3.340000000002624, -1.8555656003904137 
3.350000000002645, -1.8552426183541033 
3.360000000002666, -1.85496452951863 
3.3700000000026873, -1.8547195363583886 
3.3800000000027084, -1.854485080206749 
3.3900000000027295, -1.8542408038573768 
3.4000000000027506, -1.8539750160117834 
3.4100000000027717, -1.8536842114676002 
3.420000000002793, -1.8533704909106414 
3.430000000002814, -1.853039948075916 
3.440000000002835, -1.8527021170472697 
3.450000000002856, -1.8523688568932937 
3.460000000002877, -1.8520511029019073 
3.4700000000028983, -1.8517541825000934 
3.4800000000029194, -1.851475024831203 
3.4900000000029405, -1.851203745374902 
3.5000000000029616, -1.8509281127115653 
3.5100000000029827, -1.850637417866159 
3.520000000003004, -1.8503241650188105 
3.530000000003025, -1.8499845861282886 
3.540000000003046, -1.849619696700465 
3.550000000003067, -1.849237543066592 
3.5600000000030882, -1.8488549428209822 
3.5700000000031094, -1.8484944754464387 
3.5800000000031305, -1.8481740889939455 
3.5900000000031516, -1.8478955866987117 
3.6000000000031727, -1.84764371634462 
3.6100000000031938, -1.8473968818388318 
3.620000000003215, -1.8471381206432667 
3.630000000003236, -1.8468588260087866 
3.640000000003257, -1.8465573053027016 
3.650000000003278, -1.8462366807567023 
3.6600000000032993, -1.845904049974258 
3.6700000000033204, -1.8455701461030203 
3.6800000000033415, -1.8452474294817833 
3.6900000000033626, -1.844945510828771 
3.7000000000033837, -1.8446661786542862 
3.710000000003405, -1.8444022262326363 
3.720000000003426, -1.8441410892705807 
3.730000000003447, -1.8438699390937223 
3.740000000003468, -1.8435788823974455 
3.750000000003489, -1.8432619159438253 
3.7600000000035103, -1.842917212588053 
3.7700000000035314, -1.8425481502680512 
3.7800000000035525, -1.8421650702465233 
3.7900000000035736, -1.8417856339976955 
3.8000000000035947, -1.8414302815132892 
3.810000000003616, -1.8411123394557876 
3.820000000003637, -1.8408298586207628 
3.830000000003658, -1.8405676030215887 
3.840000000003679, -1.8403069846406859 
3.8500000000037002, -1.8400342686114617 
3.8600000000037213, -1.8397426963295467 
3.8700000000037424, -1.8394312129656776 
3.8800000000037635, -1.8391033109016839 
3.8900000000037847, -1.8387670401341787 
3.9000000000038058, -1.8384348059408644 
3.910000000003827, -1.8381204269827875 
3.920000000003848, -1.8378328796243444 
3.930000000003869, -1.8375708217048898 
3.94000000000389, -1.837323033859357 
3.9500000000039113, -1.8370742001165823 
3.9600000000039324, -1.836810815349813 
3.9700000000039535, -1.8365239435874479 
3.9800000000039746, -1.8362094689537418 
3.9900000000039957, -1.8358678554033152 
4.000000000004016, -1.8355046050148993 
4.010000000003993, -1.8351310495538407 
4.02000000000397, -1.8347635190639937 
4.030000000003946, -1.83441859148488 
4.040000000003923, -1.8341052510148248 
4.0500000000039, -1.8338198420216902 
4.0600000000038765, -1.8335489399836962 
4.070000000003853, -1.8332772075358903 
4.08000000000383, -1.8329932764075565 
4.090000000003807, -1.8326912137004203 
4.100000000003783, -1.8323698865773608 
4.11000000000376, -1.8320328318022139 
4.120000000003737, -1.8316891592462778 
4.130000000003713, -1.8313535758209212 
4.14000000000369, -1.8310423349377853 
4.150000000003667, -1.8307648777238126 
4.1600000000036434, -1.8305173492673315 
4.17000000000362, -1.8302845623446788 
4.180000000003597, -1.8300482586694282 
4.1900000000035735, -1.8297941809275415 
4.20000000000355, -1.8295144556358856 
4.210000000003527, -1.8292069346207405 
4.220000000003504, -1.8288741277468836 
4.23000000000348, -1.8285229031282708 
4.240000000003457, -1.8281644552999867 
4.250000000003434, -1.8278128914972371 
4.26000000000341, -1.8274810341950054 
4.270000000003387, -1.8271746745344313 
4.280000000003364, -1.826889593276848 
4.2900000000033405, -1.826614287874347 
4.300000000003317, -1.82633585359418 
4.310000000003294, -1.8260442848876846 
4.320000000003271, -1.8257337329714312 
4.330000000003247, -1.8254025039742032 
4.340000000003224, -1.8250538033306232 
4.350000000003201, -1.8246975076436005 
4.360000000003177, -1.8243506520765311 
4.370000000003154, -1.8240326394128428 
4.380000000003131, -1.8237547895161885 
4.390000000003107, -1.8235122463268076 
4.400000000003084, -1.8232868297986784 
4.410000000003061, -1.8230576920993946 
4.4200000000030375, -1.8228097783041666 
4.430000000003014, -1.822535954889421 
4.440000000002991, -1.8222354405616372 
4.450000000002968, -1.821911961816071 
4.460000000002944, -1.8215729229193554 
4.470000000002921, -1.8212289684453526 
4.480000000002898, -1.8208923941769128 
4.490000000002874, -1.820573447294347 
4.500000000002851, -1.8202758866685602 
4.510000000002828, -1.8199951318888203 
4.520000000002804, -1.8197207378835354 
4.530000000002781, -1.8194410206606175 
4.540000000002758, -1.8191464457931699 
4.5500000000027345, -1.8188308142533216 
4.560000000002711, -1.8184916497242536 
4.570000000002688, -1.818131435372258 
4.580000000002665, -1.8177599282689425 
4.590000000002641, -1.81739521515675 
4.600000000002618, -1.817059114203215 
4.610000000002595, -1.81676585105382 
4.620000000002571, -1.816512306019248 
4.630000000002548, -1.8162801570787266 
4.640000000002525, -1.8160475011125452 
4.6500000000025015, -1.8157985174541984 
4.660000000002478, -1.8155258924413211 
4.670000000002455, -1.8152289315290968 
4.6800000000024315, -1.8149113847984608 
4.690000000002408, -1.8145804762990558 
4.700000000002385, -1.8142464332000603 
4.710000000002362, -1.8139208582709543 
4.720000000002338, -1.8136130410579816 
4.730000000002315, -1.8133257709649695 
4.740000000002292, -1.813053872904764 
4.750000000002268, -1.81278674419158 
4.760000000002245, -1.8125126592526648 
4.770000000002222, -1.8122218903698495 
4.7800000000021985, -1.8119078847158783 
4.790000000002175, -1.811567712969873 
4.800000000002152, -1.8112032248967396 
4.810000000002129, -1.8108231845012621 
4.820000000002105, -1.8104445085070435 
4.830000000002082, -1.8100887702379787 
4.840000000002059, -1.8097722607689906 
4.850000000002035, -1.8094958873014242 
4.860000000002012, -1.8092449873912337 
4.870000000001989, -1.8089992294257882 
4.880000000001965, -1.808742514964224 
4.890000000001942, -1.808466415102465 
4.900000000001919, -1.8081689541825856 
4.9100000000018955, -1.8078527260764612 
4.920000000001872, -1.8075241562456086 
4.930000000001849, -1.8071933429847238 
4.940000000001826, -1.806872580826226 
