t, s[1].omega / s[0].omega 
0, -0.9499975855688207 
0.009999999999999995, -0.9497492857462886 
0.019999999999999934, -0.9494879389999836 
0.029999999999999874, -0.9492150795938661 
0.04000000000000012, -0.9489331329879572 
0.050000000000000405, -0.9486452560193058 
0.06000000000000069, -0.9483551393815338 
0.07000000000000098, -0.948066775937946 
0.08000000000000126, -0.9477841883493807 
0.09000000000000155, -0.9475111110028308 
0.10000000000000184, -0.9472506392723835 
0.11000000000000212, -0.947004887644025 
0.12000000000000241, -0.9467747210422631 
0.130000000000002, -0.9465596236274306 
0.1400000000000009, -0.9463577409056368 
0.1499999999999998, -0.9461660865438365 
0.1599999999999987, -0.945980867302078 
0.1699999999999976, -0.9457978645655579 
0.1799999999999965, -0.9456128192424936 
0.1899999999999954, -0.9454217852464554 
0.1999999999999943, -0.9452214312092465 
0.2099999999999932, -0.9450092750933707 
0.2199999999999921, -0.9447838367551957 
0.229999999999991, -0.9445446979040047 
0.2399999999999899, -0.9442924716649423 
0.2499999999999888, -0.944028701052267 
0.2599999999999877, -0.9437557174328045 
0.2699999999999866, -0.9434764883787281 
0.2799999999999855, -0.943194468424112 
0.2899999999999844, -0.942913443458783 
0.2999999999999833, -0.9426373414943816 
0.3099999999999822, -0.9423699803424286 
0.3199999999999811, -0.9421147418999827 
0.32999999999998, -0.9418741991003987 
0.3399999999999789, -0.9416497599945501 
0.3499999999999778, -0.9414414132582953 
0.35999999999997667, -0.9412476469017493 
0.36999999999997557, -0.9410655708062095 
0.37999999999997447, -0.9408912236093615 
0.38999999999997337, -0.9407200070477717 
0.39999999999997227, -0.940547175686743 
0.40999999999997117, -0.9403683123599024 
0.41999999999997006, -0.9401797301015593 
0.42999999999996896, -0.9399787554723774 
0.43999999999996786, -0.9397638679842064 
0.44999999999996676, -0.9395346975940712 
0.45999999999996566, -0.9392919118891779 
0.46999999999996456, -0.9390370455408913 
0.47999999999996346, -0.9387723272684434 
0.48999999999996235, -0.938500542501495 
0.49999999999996125, -0.9382249401018916 
0.5099999999999602, -0.9379491595236715 
0.519999999999959, -0.9376771309188674 
0.529999999999958, -0.9374128937740567 
0.5399999999999568, -0.9371602964220014 
0.5499999999999557, -0.9369225801474739 
0.5599999999999546, -0.9367019071849516 
0.5699999999999535, -0.9364989391377587 
0.5799999999999524, -0.9363125861768603 
0.5899999999999513, -0.9361400162199274 
0.5999999999999502, -0.9359769480064168 
0.6099999999999491, -0.9358181788125679 
0.619999999999948, -0.9356582417015316 
0.6299999999999469, -0.9354920621303912 
0.6399999999999458, -0.9353154919956255 
0.6499999999999447, -0.9351256371808182 
0.6599999999999436, -0.9349209528305181 
0.6699999999999425, -0.9347011416919264 
0.6799999999999414, -0.9344669343705576 
0.6899999999999403, -0.9342198428468048 
0.6999999999999392, -0.9339619610627257 
0.7099999999999381, -0.9336958509370629 
0.719999999999937, -0.9334245125015965 
0.7299999999999359, -0.9331514015233993 
0.7399999999999348, -0.9328804310047358 
0.7499999999999337, -0.9326158789835418 
0.7599999999999326, -0.9323621328918467 
0.7699999999999315, -0.9321232401050461 
0.7799999999999304, -0.9319023055497615 
0.7899999999999293, -0.9317008607423096 
0.7999999999999282, -0.9315183862059369 
0.8099999999999271, -0.9313521629636705 
0.819999999999926, -0.9311975470916118 
0.8299999999999249, -0.9310486311436936 
0.8399999999999238, -0.9308991313027862 
0.8499999999999227, -0.9307432723476852 
0.8599999999999216, -0.9305764604658142 
0.8699999999999205, -0.9303956244151934 
0.8799999999999194, -0.9301992244302826 
0.8899999999999183, -0.9299870237193464 
0.8999999999999172, -0.9297597578802245 
0.9099999999999161, -0.9295188241952733 
0.919999999999915, -0.9292660690577451 
0.9299999999999139, -0.9290037030538087 
0.9399999999999128, -0.9287343327965928 
0.9499999999999117, -0.9284610669649453 
0.9599999999999106, -0.9281876265239916 
0.9699999999999095, -0.9279183656077231 
0.9799999999999084, -0.9276581006411705 
0.9899999999999073, -0.9274116712267662 
0.9999999999999062, -0.9271832343637412 
1.0099999999999052, -0.9269754161566306 
1.019999999999904, -0.926788564408 
1.029999999999903, -0.9266203864400528 
1.039999999999902, -0.9264661650997749 
1.0499999999999008, -0.926319541041614 
1.0599999999998997, -0.9261736292952729 
1.0699999999998986, -0.9260221220111203 
1.0799999999998975, -0.9258600746109321 
1.0899999999998964, -0.9256842376023655 
1.0999999999998953, -0.9254929787233486 
1.1099999999998942, -0.925285953096729 
1.119999999999893, -0.9250636987296325 
1.129999999999892, -0.9248272909426335 
1.1399999999998909, -0.9245781271038271 
1.1499999999998898, -0.9243178618325899 
1.1599999999998887, -0.9240484793256669 
1.1699999999998876, -0.9237724655413766 
1.1799999999998865, -0.9234930172003052 
1.1899999999998854, -0.9232141920303395 
1.1999999999998843, -0.922940875002326 
1.2099999999998832, -0.9226784358008846 
1.219999999999882, -0.9224320188507054 
1.229999999999881, -0.9222055530178384 
1.2399999999998799, -0.9220007494723594 
1.2499999999998788, -0.9218164653504408 
1.2599999999998777, -0.9216487391900637 
1.2699999999998766, -0.9214915450925302 
1.2799999999998755, -0.9213380030811639 
1.2899999999998744, -0.9211816127498968 
1.2999999999998733, -0.9210171358607134 
1.3099999999998722, -0.9208409693669124 
1.319999999999871, -0.920651071784557 
1.32999999999987, -0.9204466259255328 
1.3399999999998689, -0.9202276282430614 
1.3499999999998678, -0.9199945388839591 
1.3599999999998666, -0.9197480607759927 
1.3699999999998655, -0.9194890688506699 
1.3799999999998644, -0.9192186841959824 
1.3899999999998633, -0.9189384709843293 
1.3999999999998622, -0.918650711879325 
1.4099999999998611, -0.9183586810363641 
1.41999999999986, -0.9180667872684427 
1.429999999999859, -0.9177804296625978 
1.4399999999998578, -0.9175054396294128 
1.4499999999998567, -0.9172471151558377 
1.4599999999998556, -0.9170090647791808 
1.4699999999998545, -0.9167922605806205 
1.4799999999998534, -0.9165947025307043 
1.4899999999998523, -0.9164118634193967 
1.4999999999998512, -0.9162377357612609 
1.5099999999998501, -0.9160660612417486 
1.519999999999849, -0.9158913249615454 
1.529999999999848, -0.9157092913489503 
1.5399999999998468, -0.9155170887335238 
1.5499999999998457, -0.9153129917090945 
1.5599999999998446, -0.9150960796859098 
1.5699999999998435, -0.914865909431793 
1.5799999999998424, -0.9146222818741302 
1.5899999999998413, -0.9143651395318925 
1.5999999999998402, -0.9140946063857476 
1.6099999999998391, -0.9138111675881238 
1.619999999999838, -0.9135159676548366 
1.629999999999837, -0.9132111701139873 
1.6399999999998358, -0.9129002668562629 
1.6499999999998347, -0.9125881706121606 
1.6599999999998336, -0.9122809141966547 
1.6699999999998325, -0.9119848685677836 
1.6799999999998314, -0.9117055897113566 
1.6899999999998303, -0.9114466313991759 
1.6999999999998292, -0.9112087636948958 
1.709999999999828, -0.9109899059274371 
1.719999999999827, -0.9107857707308012 
1.729999999999826, -0.9105909180433297 
1.7399999999998248, -0.9103998106728384 
1.7499999999998237, -0.910207567176529 
1.7599999999998226, -0.9100103087544833 
1.7699999999998215, -0.9098051643984307 
1.7799999999998204, -0.9095900740518792 
1.7899999999998193, -0.9093635271430228 
1.7999999999998182, -0.9091243360629949 
1.809999999999817, -0.9088715050284621 
1.819999999999816, -0.9086042278684225 
1.8299999999998149, -0.9083220305751795 
1.8399999999998138, -0.9080250541937481 
1.8499999999998127, -0.9077144380166573 
1.8599999999998116, -0.9073927074502146 
1.8699999999998105, -0.9070640098845084 
1.8799999999998094, -0.9067340149266426 
1.8899999999998083, -0.9064093522580547 
1.8999999999998072, -0.9060966198169271 
1.909999999999806, -0.9058012020518887 
1.919999999999805, -0.9055262731237341 
1.9299999999998039, -0.9052723201411492 
1.9399999999998028, -0.9050373120057384 
1.9499999999998017, -0.9048173812002258 
1.9599999999998006, -0.9046077232611591 
1.9699999999997995, -0.9044034155425701 
1.9799999999997984, -0.90419997208823 
1.9899999999997973, -0.9039935951226497 
1.9999999999997962, -0.903781186457642 
2.0099999999998173, -0.9035602237517801 
2.0199999999998384, -0.9033286029773183 
2.0299999999998595, -0.9030845252168449 
2.0399999999998806, -0.9028264802845156 
2.0499999999999017, -0.9025533558072066 
2.059999999999923, -0.9022646731037351 
2.069999999999944, -0.9019609135021265 
2.079999999999965, -0.9016438510703979 
2.089999999999986, -0.9013167651977889 
2.100000000000007, -0.9009843971955711 
2.1100000000000283, -0.9006525642828507 
2.1200000000000494, -0.9003274504324811 
2.1300000000000705, -0.9000147172058712 
2.1400000000000916, -0.8997186592978279 
2.1500000000001127, -0.8994416258139666 
2.160000000000134, -0.8991838394639414 
2.170000000000155, -0.8989436137643299 
2.180000000000176, -0.8987178513706956 
2.190000000000197, -0.898502649050077 
2.2000000000002182, -0.8982938476063561 
2.2100000000002393, -0.8980874270000813 
2.2200000000002604, -0.8978797219957496 
2.2300000000002815, -0.897667492326845 
2.2400000000003026, -0.8974479113969563 
2.2500000000003237, -0.8972185417749182 
2.260000000000345, -0.896977352842784 
2.270000000000366, -0.896722812784358 
2.280000000000387, -0.8964540570344205 
2.290000000000408, -0.8961711015898299 
2.3000000000004293, -0.8958750396668211 
2.3100000000004504, -0.8955681459599878 
2.3200000000004715, -0.8952538242434299 
2.3300000000004926, -0.8949363707081792 
2.3400000000005137, -0.894620573717541 
2.3500000000005348, -0.8943112119810103 
2.360000000000556, -0.8940125352712738 
2.370000000000577, -0.8937278132248216 
2.380000000000598, -0.893459022836071 
2.390000000000619, -0.8932067179767404 
2.4000000000006403, -0.8929700878877856 
2.4100000000006614, -0.892747172649142 
2.4200000000006825, -0.8925351734463737 
2.4300000000007036, -0.8923307851227946 
2.4400000000007247, -0.8921304914411607 
2.450000000000746, -0.8919307925760604 
2.460000000000767, -0.8917283663040655 
2.470000000000788, -0.8915201869329425 
2.480000000000809, -0.8913036328788275 
2.49000000000083, -0.8910766051682085 
2.5000000000008513, -0.8908376602500849 
2.5100000000008724, -0.8905861398039541 
2.5200000000008935, -0.8903222669529007 
2.5300000000009146, -0.8900471786498416 
2.5400000000009357, -0.8897628774934013 
2.550000000000957, -0.8894721053530519 
2.560000000000978, -0.8891781559942524 
2.570000000000999, -0.8888846483778948 
2.58000000000102, -0.8885952778008672 
2.5900000000010412, -0.8883135554712901 
2.6000000000010624, -0.8880425457699872 
2.6100000000010835, -0.8877846169248651 
2.6200000000011046, -0.8875412310447791 
2.6300000000011257, -0.8873128051203558 
2.6400000000011468, -0.8870986688474684 
2.650000000001168, -0.8868971279076087 
2.660000000001189, -0.8867056201770553 
2.67000000000121, -0.8865209373906122 
2.680000000001231, -0.8863394818160076 
2.6900000000012523, -0.8861575343389273 
2.7000000000012734, -0.885971519310632 
2.7100000000012945, -0.8857782552213476 
2.7200000000013156, -0.885575176750215 
2.7300000000013367, -0.8853605074939896 
2.740000000001358, -0.8851333614398271 
2.750000000001379, -0.8848937604225595 
2.7600000000014, -0.8846425729594884 
2.770000000001421, -0.8843813987701747 
2.780000000001442, -0.8841124330298007 
2.7900000000014633, -0.8838383396893695 
2.8000000000014844, -0.8835621462179496 
2.8100000000015055, -0.8832871504773567 
2.8200000000015266, -0.8830168129930651 
2.8300000000015477, -0.8827546017675285 
2.840000000001569, -0.8825037659235013 
2.85000000000159, -0.8822670382861866 
2.860000000001611, -0.8820462990969823 
2.870000000001632, -0.881842261802983 
2.8800000000016532, -0.8816542549249824 
2.8900000000016743, -0.8814801646715887 
2.9000000000016954, -0.8813165737321501 
2.9100000000017165, -0.8811590917498823 
2.9200000000017377, -0.881002832463641 
2.9300000000017588, -0.8808429592725672 
2.94000000000178, -0.8806752021561867 
2.950000000001801, -0.8804962523834611 
2.960000000001822, -0.8803039718792156 
2.970000000001843, -0.880097405288564 
2.9800000000018643, -0.8798766361418362 
2.9900000000018854, -0.879642562776328 
3.0000000000019065, -0.8793966741285194 
3.0100000000019276, -0.8791408849108626 
3.0200000000019487, -0.878877457416985 
3.03000000000197, -0.8786090049959135 
3.040000000001991, -0.8783385451730487 
3.050000000002012, -0.8780695489298959 
3.060000000002033, -0.8778059180126467 
3.070000000002054, -0.8775518204095538 
3.0800000000020753, -0.8773113356857479 
3.0900000000020964, -0.8770879146124301 
3.1000000000021175, -0.8768837361960493 
3.1100000000021386, -0.8766991237428376 
3.1200000000021597, -0.8765322182164083 
3.130000000002181, -0.8763790656718177 
3.140000000002202, -0.8762341532811636 
3.150000000002223, -0.8760912703678168 
3.160000000002244, -0.8759444526593553 
3.1700000000022652, -0.8757887514128786 
3.1800000000022863, -0.8756206594373357 
3.1900000000023074, -0.8754381682566802 
3.2000000000023285, -0.875240549959986 
3.2100000000023496, -0.8750280087927695 
3.2200000000023707, -0.8748013341373152 
3.230000000002392, -0.874561640058696 
3.240000000002413, -0.8743102286753415 
3.250000000002434, -0.8740485805928863 
3.260000000002455, -0.873778454902079 
3.2700000000024763, -0.8735020650635867 
3.2800000000024974, -0.8732222765856632 
3.2900000000025185, -0.8729427453389326 
3.3000000000025396, -0.8726678909735964 
3.3100000000025607, -0.8724026012293276 
3.3200000000025818, -0.8721516186617219 
3.330000000002603, -0.8719186825661372 
3.340000000002624, -0.871705649798073 
3.350000000002645, -0.8715119112573678 
3.360000000002666, -0.8713343665121546 
3.3700000000026873, -0.8711680092086291 
3.3800000000027084, -0.8710069194171945 
3.3900000000027295, -0.8708453104918157 
3.4000000000027506, -0.8706783142161006 
3.4100000000027717, -0.8705023559833348 
3.420000000002793, -0.8703151518383546 
3.430000000002814, -0.8701154637804548 
3.440000000002835, -0.8699027651232318 
3.450000000002856, -0.8696769295715121 
3.460000000002877, -0.8694380079146189 
3.4700000000028983, -0.8691861190036292 
3.4800000000029194, -0.8689214617072188 
3.4900000000029405, -0.8686444449259098 
3.5000000000029616, -0.8683559223252934 
3.5100000000029827, -0.8680574967417425 
3.520000000003004, -0.8677518214212915 
3.530000000003025, -0.8674427793763627 
3.540000000003046, -0.867135395167138 
3.550000000003067, -0.8668353661513672 
3.5600000000030882, -0.866548220056918 
3.5700000000031094, -0.866278285399295 
3.5800000000031305, -0.866027804581789 
3.5900000000031516, -0.8657965151748266 
3.6000000000031727, -0.8655818445300346 
3.6100000000031938, -0.8653796057589439 
3.620000000003215, -0.8651849038279641 
3.630000000003236, -0.8649929459388085 
3.640000000003257, -0.8647995681865682 
3.650000000003278, -0.8646014428803678 
3.6600000000032993, -0.8643960382782272 
3.6700000000033204, -0.8641814417345385 
3.6800000000033415, -0.8639561475239466 
3.6900000000033626, -0.8637188819908322 
3.7000000000033837, -0.8634685119232038 
3.710000000003405, -0.8632040637617987 
3.720000000003426, -0.8629248673500023 
3.730000000003447, -0.8626308190582346 
3.740000000003468, -0.8623227266005145 
3.750000000003489, -0.8620026512046465 
3.7600000000035103, -0.8616741173380087 
3.7700000000035314, -0.861342047583127 
3.7800000000035525, -0.8610123325641149 
3.7900000000035736, -0.8606910658070852 
3.8000000000035947, -0.8603836149954089 
3.810000000003616, -0.8600937878870185 
3.820000000003637, -0.8598233285905167 
3.830000000003658, -0.8595718570072803 
3.840000000003679, -0.8593372070510265 
3.8500000000037002, -0.8591160037496929 
3.8600000000037213, -0.8589042860375236 
3.8700000000037424, -0.8586980230639012 
3.8800000000037635, -0.858493449225891 
3.8900000000037847, -0.858287217203122 
3.9000000000038058, -0.8580764162967496 
3.910000000003827, -0.8578585221186239 
3.920000000003848, -0.8576313413119581 
3.930000000003869, -0.8573930012141304 
3.94000000000389, -0.8571420146788759 
3.9500000000039113, -0.8568774256578381 
3.9600000000039324, -0.8565990119117165 
3.9700000000039535, -0.8563074919171031 
3.9800000000039746, -0.8560046643112085 
3.9900000000039957, -0.8556934122382296 
4.000000000004016, -0.855377535824616 
4.010000000003993, -0.855061423383068 
4.02000000000397, -0.8547496157482536 
4.030000000003946, -0.8544463416327093 
4.040000000003923, -0.8541551011866002 
4.0500000000039, -0.8538783572646771 
4.0600000000038765, -0.8536173688186011 
4.070000000003853, -0.8533721742336317 
4.08000000000383, -0.8531417071353843 
4.090000000003807, -0.8529240064890649 
4.100000000003783, -0.8527164715484259 
4.11000000000376, -0.8525161141452253 
4.120000000003737, -0.8523197752476521 
4.130000000003713, -0.8521242939224747 
4.14000000000369, -0.8519266367121879 
4.150000000003667, -0.8517240071642979 
4.1600000000036434, -0.8515139556098296 
4.17000000000362, -0.8512944992684611 
4.180000000003597, -0.8510642470914508 
4.1900000000035735, -0.8508225095859665 
4.20000000000355, -0.850569368106869 
4.210000000003527, -0.8503056839514812 
4.220000000003504, -0.8500330423524838 
4.23000000000348, -0.8497536427358383 
4.240000000003457, -0.8494701564934329 
4.250000000003434, -0.8491855730196628 
4.26000000000341, -0.8489030456094289 
4.270000000003387, -0.8486257369745613 
4.280000000003364, -0.8483566563810779 
4.2900000000033405, -0.8480984810434105 
4.300000000003317, -0.8478533634576866 
4.310000000003294, -0.8476227396501583 
4.320000000003271, -0.847407164446621 
4.330000000003247, -0.8472062034004741 
4.340000000003224, -0.8470184054566909 
4.350000000003201, -0.8468413688401538 
4.360000000003177, -0.8466719001438969 
4.370000000003154, -0.8465062564045749 
4.380000000003131, -0.8463404514248533 
4.390000000003107, -0.8461705978810656 
4.400000000003084, -0.8459932451475674 
4.410000000003061, -0.8458056639952606 
4.4200000000030375, -0.8456060318972292 
4.430000000003014, -0.845393492189326 
4.440000000002991, -0.8451680927476166 
4.450000000002968, -0.8449306417868282 
4.460000000002944, -0.8446825356057464 
4.470000000002921, -0.8444256097751843 
4.480000000002898, -0.8441620459601644 
4.490000000002874, -0.8438943407403036 
4.500000000002851, -0.843625318188692 
4.510000000002828, -0.8433581483794221 
4.520000000002804, -0.8430963213413418 
4.530000000002781, -0.8428435234452685 
4.540000000002758, -0.8426033761628403 
4.5500000000027345, -0.8423790303292952 
4.560000000002711, -0.8421726610652843 
4.570000000002688, -0.8419849667061101 
4.580000000002665, -0.8418148155861367 
4.590000000002641, -0.8416591804691208 
4.600000000002618, -0.8415134369688559 
4.610000000002595, -0.8413719915689137 
4.620000000002571, -0.8412290894298955 
4.630000000002548, -0.8410795879574067 
4.640000000002525, -0.8409195043464756 
4.6500000000025015, -0.8407462418451657 
4.660000000002478, -0.8405585171763337 
4.670000000002455, -0.8403560938668345 
4.6800000000024315, -0.8401394485835727 
4.690000000002408, -0.8399094725572029 
4.700000000002385, -0.8396672669455736 
4.710000000002362, -0.8394140528240813 
4.720000000002338, -0.8391511918090332 
4.730000000002315, -0.8388802987271564 
4.740000000002292, -0.8386034150334603 
4.750000000002268, -0.8383231939395419 
4.760000000002245, -0.8380430246274269 
4.770000000002222, -0.8377670027744936 
4.7800000000021985, -0.8374996582975814 
4.790000000002175, -0.8372454026220991 
4.800000000002152, -0.8370077641794266 
4.810000000002129, -0.8367886091600221 
4.820000000002105, -0.8365876200343874 
4.830000000002082, -0.8364022542624344 
4.840000000002059, -0.8362282273669317 
4.850000000002035, -0.8360603507010648 
4.860000000002012, -0.8358934306495109 
4.870000000001989, -0.8357229630584649 
4.880000000001965, -0.8355454912210419 
4.890000000001942, -0.8353586426929148 
4.900000000001919, -0.8351609494096615 
4.9100000000018955, -0.8349515740545431 
4.920000000001872, -0.8347300394731137 
