t, s[1].omega / s[0].omega 
0, -1.4199972968446586 
0.009999999999999995, -1.4197179120976613 
0.019999999999999934, -1.4194216837323619 
0.029999999999999874, -1.4191119313291929 
0.04000000000000012, -1.4187940932332268 
0.050000000000000405, -1.418475299950764 
0.06000000000000069, -1.4181633185345954 
0.07000000000000098, -1.4178648475616322 
0.08000000000000126, -1.417583656865109 
0.09000000000000155, -1.4173194596289131 
0.10000000000000184, -1.4170681727791163 
0.11000000000000212, -1.4168233900748004 
0.12000000000000241, -1.4165781915811189 
0.130000000000002, -1.4163264552857942 
0.1400000000000009, -1.416063420819148 
0.1499999999999998, -1.4157857777363085 
0.1599999999999987, -1.4154917149945265 
0.1699999999999976, -1.4151812550776226 
0.1799999999999965, -1.414856941802826 
0.1899999999999954, -1.4145245878927601 
0.1999999999999943, -1.4141933717914497 
0.2099999999999932, -1.4138744132298595 
0.2199999999999921, -1.4135775827906212 
0.229999999999991, -1.413307757171504 
0.2399999999999899, -1.4130628031543304 
0.2499999999999888, -1.4128347182926788 
0.2599999999999877, -1.412613045373593 
0.2699999999999866, -1.412388289955897 
0.2799999999999855, -1.412153763681144 
0.2899999999999844, -1.4119058051978834 
0.2999999999999833, -1.4116431900141788 
0.3099999999999822, -1.4113665144436334 
0.3199999999999811, -1.4110779486213079 
0.32999999999998, -1.4107813739911133 
0.3399999999999789, -1.410482611218033 
0.3499999999999778, -1.410189201624672 
0.35999999999997667, -1.4099091972468643 
0.36999999999997557, -1.409648918118262 
0.37999999999997447, -1.4094105569778508 
0.38999999999997337, -1.409191047599843 
0.39999999999997227, -1.408982985408093 
0.40999999999997117, -1.4087770335383474 
0.41999999999997006, -1.408564458393906 
0.42999999999996896, -1.4083387676544104 
0.43999999999996786, -1.408096255632164 
0.44999999999996676, -1.4078358302101743 
0.45999999999996566, -1.40755859869769 
0.46999999999996456, -1.4072675145929008 
0.47999999999996346, -1.4069671403737745 
0.48999999999996235, -1.4066633674124622 
0.49999999999996125, -1.4063628212474228 
0.5099999999999602, -1.4060717640483769 
0.519999999999959, -1.405794637575354 
0.529999999999958, -1.4055328017903306 
0.5399999999999568, -1.4052841292243772 
0.5499999999999557, -1.4050436924263532 
0.5599999999999546, -1.4048051431362607 
0.5699999999999535, -1.4045620904449878 
0.5799999999999524, -1.4043090181693207 
0.5899999999999513, -1.40404171998859 
0.5999999999999502, -1.4037575114356478 
0.6099999999999491, -1.4034555020626533 
0.619999999999948, -1.4031370581283766 
0.6299999999999469, -1.402806337724742 
0.6399999999999458, -1.402470496926354 
0.6499999999999447, -1.4021389876968942 
0.6599999999999436, -1.4018215692353435 
0.6699999999999425, -1.401525418237981 
0.6799999999999414, -1.4012526676911137 
0.6899999999999403, -1.4009998499914607 
0.6999999999999392, -1.4007595691618646 
0.7099999999999381, -1.4005232409857291 
0.719999999999937, -1.4002833447421248 
0.7299999999999359, -1.4000344419949742 
0.7399999999999348, -1.399773194378251 
0.7499999999999337, -1.3994980133946382 
0.7599999999999326, -1.3992088671670986 
0.7699999999999315, -1.3989074854486927 
0.7799999999999304, -1.398597896486023 
0.7899999999999293, -1.3982868816509457 
0.7999999999999282, -1.3979836121614255 
0.8099999999999271, -1.3976977875445338 
0.819999999999926, -1.3974364457668629 
0.8299999999999249, -1.3972009551904925 
0.8399999999999238, -1.3969861730698623 
0.8499999999999227, -1.3967824267600089 
0.8599999999999216, -1.3965789788674834 
0.8699999999999205, -1.396366963391356 
0.8799999999999194, -1.3961407298182682 
0.8899999999999183, -1.3958977943748658 
0.8999999999999172, -1.3956381595821357 
0.9099999999999161, -1.3953636466682608 
0.919999999999915, -1.3950775266681967 
0.9299999999999139, -1.3947844107502878 
0.9399999999999128, -1.3944901318198144 
0.9499999999999117, -1.3942012467742948 
0.9599999999999106, -1.3939239132006553 
0.9699999999999095, -1.393662311300527 
0.9799999999999084, -1.3934172764449861 
0.9899999999999073, -1.3931859052052262 
0.9999999999999062, -1.3929623798539743 
1.0099999999999052, -1.3927395445134418 
1.019999999999904, -1.3925104786684075 
1.029999999999903, -1.3922695725241423 
1.039999999999902, -1.3920130464982772 
1.0499999999999008, -1.3917391242963018 
1.0599999999998997, -1.3914480945758028 
1.0699999999998986, -1.3911423760932236 
1.0799999999998975, -1.3908265325321865 
1.0899999999998964, -1.3905070273125422 
1.0999999999998953, -1.390191443695011 
1.1099999999998942, -1.3898870409993487 
1.119999999999893, -1.3895989268279734 
1.129999999999892, -1.3893285834070654 
1.1399999999998909, -1.3890735310439872 
1.1499999999998898, -1.388828315796046 
1.1599999999998887, -1.3885862155794275 
1.1699999999998876, -1.3883407779833354 
1.1799999999998865, -1.3880866814117467 
1.1899999999998854, -1.3878199768450739 
1.1999999999998843, -1.387538080492761 
1.2099999999998832, -1.387239891621345 
1.219999999999882, -1.386926240734496 
1.229999999999881, -1.3866006094232923 
1.2399999999998799, -1.3862697112162654 
1.2499999999998788, -1.3859431897853554 
1.2599999999998777, -1.385631741046781 
1.2699999999998766, -1.3853438073842006 
1.2799999999998755, -1.3850823416978773 
1.2899999999998744, -1.38484367902084 
1.2999999999998733, -1.3846192858379411 
1.3099999999998722, -1.3843991152019801 
1.319999999999871, -1.3841745237446403 
1.32999999999987, -1.3839396352604099 
1.3399999999998689, -1.3836913381691285 
1.3499999999998678, -1.3834286894214858 
1.3599999999998666, -1.3831523809052262 
1.3699999999998655, -1.382864571501846 
1.3799999999998644, -1.3825690674969127 
1.3899999999998633, -1.3822715663779324 
1.3999999999998622, -1.3819794613776826 
1.4099999999998611, -1.3817006968369434 
1.41999999999986, -1.3814416238123453 
1.429999999999859, -1.381204659705271 
1.4399999999998578, -1.380987090755394 
1.4499999999998567, -1.3807818329359551 
1.4599999999998556, -1.3805797048259132 
1.4699999999998545, -1.3803719411419573 
1.4799999999998534, -1.3801518958777867 
1.4899999999998523, -1.3799156607191123 
1.4999999999998512, -1.3796619183342504 
1.5099999999998501, -1.37939150317164 
1.519999999999849, -1.3791070017366085 
1.529999999999848, -1.378812494529931 
1.5399999999998468, -1.3785133328226813 
1.5499999999998457, -1.3782157110583737 
1.5599999999998446, -1.377925813297487 
1.5699999999998435, -1.3776485475188625 
1.5799999999998424, -1.3773862576375315 
1.5899999999998413, -1.377138022543051 
1.5999999999998402, -1.3768999319724597 
1.6099999999998391, -1.376666181857599 
1.619999999999838, -1.376430422604511 
1.629999999999837, -1.376186832487049 
1.6399999999998358, -1.3759307339222597 
1.6499999999998347, -1.3756588872503888 
1.6599999999998336, -1.3753697061968955 
1.6699999999998325, -1.3750635651655139 
1.6799999999998314, -1.3747431950258824 
1.6899999999998303, -1.3744139526079704 
1.6999999999998292, -1.3740835714391944 
1.709999999999828, -1.3737610035244323 
1.719999999999827, -1.3734543225182183 
1.729999999999826, -1.3731683428820889 
1.7399999999998248, -1.3729031253296653 
1.7499999999998237, -1.3726542360716032 
1.7599999999998226, -1.3724145492370416 
1.7699999999998215, -1.372176476504931 
1.7799999999998204, -1.3719335550476497 
1.7899999999998193, -1.371681056892986 
1.7999999999998182, -1.3714159286900265 
1.809999999999817, -1.3711365669890547 
1.819999999999816, -1.3708428122805407 
1.8299999999998149, -1.3705363186497723 
1.8399999999998138, -1.370221186716032 
1.8499999999998127, -1.369904414463588 
1.8599999999998116, -1.3695954299646513 
1.8699999999998105, -1.3693040939293533 
1.8799999999998094, -1.3690374607850726 
1.8899999999998083, -1.3687968676618818 
1.8999999999998072, -1.3685772518582338 
1.909999999999806, -1.3683692055349594 
1.919999999999805, -1.368162371443245 
1.9299999999998039, -1.3679482317058378 
1.9399999999998028, -1.367721323423408 
1.9499999999998017, -1.3674791296631938 
1.9599999999998006, -1.3672214022950968 
1.9699999999997995, -1.3669495370642457 
1.9799999999997984, -1.3666662752829835 
1.9899999999997973, -1.366375704308126 
1.9999999999997962, -1.3660833068870561 
2.0099999999998173, -1.365795670426498 
2.0199999999998384, -1.3655195123754411 
2.0299999999998595, -1.3652600411328184 
2.0399999999998806, -1.3650192492941335 
2.0499999999999017, -1.364795049633478 
2.059999999999923, -1.3645817909177402 
2.069999999999944, -1.3643718707539132 
2.079999999999965, -1.3641576173068972 
2.089999999999986, -1.3639327133392425 
2.100000000000007, -1.3636929099952284 
2.1100000000000283, -1.3634361766621637 
2.1200000000000494, -1.3631625712519206 
2.1300000000000705, -1.3628740541522564 
2.1400000000000916, -1.3625743248848938 
2.1500000000001127, -1.3622686067675454 
2.160000000000134, -1.361963193209668 
2.170000000000155, -1.361664573553678 
2.180000000000176, -1.3613781504341147 
2.190000000000197, -1.3611069003440137 
2.2000000000002182, -1.3608505643316997 
2.2100000000002393, -1.3606057971524157 
2.2200000000002604, -1.3603671846491356 
2.2300000000002815, -1.3601285835668522 
2.2400000000003026, -1.3598842129177444 
2.2500000000003237, -1.359629260182694 
2.260000000000345, -1.359360120654592 
2.270000000000366, -1.3590745441926768 
2.280000000000387, -1.3587719216362004 
2.290000000000408, -1.3584537826724918 
2.3000000000004293, -1.3581243465153445 
2.3100000000004504, -1.3577907119536632 
2.3200000000004715, -1.3574621354128704 
2.3300000000004926, -1.3571480795366393 
2.3400000000005137, -1.3568554525208498 
2.3500000000005348, -1.3565863016634778 
2.360000000000556, -1.3563373024823897 
2.370000000000577, -1.3561013199250265 
2.380000000000598, -1.355869987203766 
2.390000000000619, -1.3556358773256851 
2.4000000000006403, -1.3553935414275475 
2.4100000000006614, -1.3551395713333114 
2.4200000000006825, -1.35487224361156 
2.4300000000007036, -1.3545912389307702 
2.4400000000007247, -1.3542976952415149 
2.450000000000746, -1.3539946069979332 
2.460000000000767, -1.3536873196387853 
2.470000000000788, -1.3533835857006422 
2.480000000000809, -1.3530925302292305 
2.49000000000083, -1.3528222764680202 
2.5000000000008513, -1.3525769929004128 
2.5100000000008724, -1.3523550034121885 
2.5200000000008935, -1.3521492521014093 
2.5300000000009146, -1.3519498563101624 
2.5400000000009357, -1.351747179280491 
2.550000000000957, -1.351533937766964 
2.560000000000978, -1.351305887418178 
2.570000000000999, -1.351061504393552 
2.58000000000102, -1.3508013227844446 
2.5900000000010412, -1.3505273932001456 
2.6000000000010624, -1.3502430283230047 
2.6100000000010835, -1.3499527535706048 
2.6200000000011046, -1.3496622083878151 
2.6300000000011257, -1.3493776735417102 
2.6400000000011468, -1.3491050232858446 
2.650000000001168, -1.3488482684889118 
2.660000000001189, -1.3486082819988339 
2.67000000000121, -1.348382387250698 
2.680000000001231, -1.3481650590558227 
2.6900000000012523, -1.3479493636584294 
2.7000000000012734, -1.34772847191353 
2.7100000000012945, -1.3474967566734912 
2.7200000000013156, -1.3472503574326242 
2.7300000000013367, -1.346987357814036 
2.740000000001358, -1.3467077849197255 
2.750000000001379, -1.34641356875508 
2.7600000000014, -1.346108477402212 
2.770000000001421, -1.3457979194617145 
2.780000000001442, -1.3454884258177309 
2.7900000000014633, -1.3451866624302533 
2.8000000000014844, -1.3448980489493416 
2.8100000000015055, -1.3446253975302813 
2.8200000000015266, -1.3443681778645016 
2.8300000000015477, -1.3441227923710344 
2.840000000001569, -1.343883695701302 
2.85000000000159, -1.3436447637198987 
2.860000000001611, -1.3434003447812848 
2.870000000001632, -1.3431457911937597 
2.8800000000016532, -1.3428776209381375 
2.8900000000016743, -1.3425936004879284 
2.9000000000016954, -1.3422929909124337 
2.9100000000017165, -1.341977044240727 
2.9200000000017377, -1.3416496126214306 
2.9300000000017588, -1.3413174669812562 
2.94000000000178, -1.3409897434953009 
2.950000000001801, -1.3406761140936565 
2.960000000001822, -1.3403839970250035 
2.970000000001843, -1.3401160428054228 
2.9800000000018643, -1.339869349097918 
2.9900000000018854, -1.3396368627159632 
3.0000000000019065, -1.3394100040001873 
3.0100000000019276, -1.3391810175245347 
3.0200000000019487, -1.338944183259485 
3.03000000000197, -1.3386959571287504 
3.040000000001991, -1.3384345897033962 
3.050000000002012, -1.3381597473305722 
3.060000000002033, -1.337872428764483 
3.070000000002054, -1.3375752312186582 
3.0800000000020753, -1.3372727895695817 
3.0900000000020964, -1.3369719651967853 
3.1000000000021175, -1.3366812005117334 
3.1100000000021386, -1.336408665817436 
3.1200000000021597, -1.3361595930242076 
3.130000000002181, -1.3359340959929449 
3.140000000002202, -1.3357268609944506 
3.150000000002223, -1.3355289697782082 
3.160000000002244, -1.3353307475842662 
3.1700000000022652, -1.3351241526493434 
3.1800000000022863, -1.3349039239540776 
3.1900000000023074, -1.3346676066656318 
3.2000000000023285, -1.3344150131768817 
3.2100000000023496, -1.3341476341432075 
3.2200000000023707, -1.3338682663737746 
3.230000000002392, -1.3335808768659843 
3.240000000002413, -1.3332905357938585 
3.250000000002434, -1.3330031413304728 
3.260000000002455, -1.3327246834752184 
3.2700000000024763, -1.3324600276573184 
3.2800000000024974, -1.3322115851375402 
3.2900000000025185, -1.3319784933566 
3.3000000000025396, -1.3317567607809284 
3.3100000000025607, -1.331540308433077 
3.3200000000025818, -1.3313223949222102 
3.330000000002603, -1.3310968679939248 
3.340000000002624, -1.3308589615611193 
3.350000000002645, -1.3306056612849093 
3.360000000002666, -1.3303358103839895 
3.3700000000026873, -1.3300501191127334 
3.3800000000027084, -1.3297511505239736 
3.3900000000027295, -1.3294432410180728 
3.4000000000027506, -1.3291322140498603 
3.4100000000027717, -1.328824709600588 
3.420000000002793, -1.328527053693149 
3.430000000002814, -1.3282438592289547 
3.440000000002835, -1.3279768510248633 
3.450000000002856, -1.3277244659939036 
3.460000000002877, -1.327482432147078 
3.4700000000028983, -1.3272449980899972 
3.4800000000029194, -1.3270062055462095 
3.4900000000029405, -1.3267607543890898 
3.5000000000029616, -1.326504382894969 
3.5100000000029827, -1.326233966447194 
3.520000000003004, -1.3259476118153093 
3.530000000003025, -1.3256449457144168 
3.540000000003046, -1.325327635260504 
3.550000000003067, -1.3249999577739078 
3.5600000000030882, -1.3246689938375444 
3.5700000000031094, -1.3243438963853342 
3.5800000000031305, -1.3240339440364624 
3.5900000000031516, -1.3237458269477775 
3.6000000000031727, -1.323481417246277 
3.6100000000031938, -1.3232373088024312 
3.620000000003215, -1.3230063644736585 
3.630000000003236, -1.3227802456474707 
3.640000000003257, -1.3225515542854958 
3.650000000003278, -1.3223148760775605 
3.6600000000032993, -1.3220668529305506 
3.6700000000033204, -1.321805807224259 
3.6800000000033415, -1.3215313939465658 
3.6900000000033626, -1.321244542157617 
3.7000000000033837, -1.3209477307120663 
3.710000000003405, -1.3206454314000602 
3.720000000003426, -1.3203443197831735 
3.730000000003447, -1.3200526954975875 
3.740000000003468, -1.3197787348610923 
3.750000000003489, -1.319527908315573 
3.7600000000035103, -1.319300774105067 
3.7700000000035314, -1.3190925130346358 
3.7800000000035525, -1.3188945630682385 
3.7900000000035736, -1.3186973688292283 
3.8000000000035947, -1.318492796374248 
3.810000000003616, -1.318275370647655 
3.820000000003637, -1.318042380724377 
3.830000000003658, -1.3177933759468103 
3.840000000003679, -1.3175295721330453 
3.8500000000037002, -1.317253458789503 
3.8600000000037213, -1.3169686574512918 
3.8700000000037424, -1.3166798961774797 
3.8800000000037635, -1.3163928434877268 
3.8900000000037847, -1.3161135287828327 
3.9000000000038058, -1.3158472473623146 
3.910000000003827, -1.3155972054547251 
3.920000000003848, -1.3153634858262215 
3.930000000003869, -1.3151428846503093 
3.94000000000389, -1.314929725209638 
3.9500000000039113, -1.314717242714466 
3.9600000000039324, -1.3144989543973604 
3.9700000000039535, -1.31426962385985 
3.9800000000039746, -1.31402574543432 
3.9900000000039957, -1.3137656822806543 
4.000000000004016, -1.3134896375447118 
4.010000000003993, -1.3131995786601984 
4.02000000000397, -1.3128991351757076 
4.030000000003946, -1.3125933887472563 
4.040000000003923, -1.3122884064857734 
4.0500000000039, -1.3119903939370805 
4.0600000000038765, -1.311704513528046 
4.070000000003853, -1.3114336843310714 
4.08000000000383, -1.31117785438415 
4.090000000003807, -1.310934101680082 
4.100000000003783, -1.3106975008888346 
4.11000000000376, -1.310462310443192 
4.120000000003737, -1.3102229848980507 
4.130000000003713, -1.3099747722386244 
4.14000000000369, -1.309713958755002 
4.150000000003667, -1.3094379822198001 
4.1600000000036434, -1.3091456275766722 
4.17000000000362, -1.3088374094170605 
4.180000000003597, -1.3085160769711746 
4.1900000000035735, -1.3081869761775398 
4.20000000000355, -1.3078578406474044 
4.210000000003527, -1.3075376207068201 
4.220000000003504, -1.3072343645083673 
4.23000000000348, -1.3069528523545468 
4.240000000003457, -1.3066931420406498 
4.250000000003434, -1.3064508352794755 
4.26000000000341, -1.3062188410198454 
4.270000000003387, -1.3059895741813192 
4.280000000003364, -1.3057565626451368 
4.2900000000033405, -1.3055150981830024 
4.300000000003317, -1.3052621764997865 
4.310000000003294, -1.3049961828257128 
4.320000000003271, -1.30471669131365 
4.330000000003247, -1.3044245653220568 
4.340000000003224, -1.3041223605912848 
4.350000000003201, -1.303814824861381 
4.360000000003177, -1.3035090498197948 
4.370000000003154, -1.3032137040920042 
4.380000000003131, -1.3029370481725258 
4.390000000003107, -1.3026842330001256 
4.400000000003084, -1.3024552266245566 
4.410000000003061, -1.3022446742194278 
4.4200000000030375, -1.3020438200596351 
4.430000000003014, -1.3018433175510589 
4.440000000002991, -1.3016354847878209 
4.450000000002968, -1.3014153097907266 
4.460000000002944, -1.3011803861166937 
4.470000000002921, -1.300930348668798 
4.480000000002898, -1.3006663070566282 
4.490000000002874, -1.3003905280675012 
4.500000000002851, -1.300106390675159 
4.510000000002828, -1.2998184654257852 
4.520000000002804, -1.2995324453225154 
4.530000000002781, -1.2992546197707606 
4.540000000002758, -1.2989907402402832 
4.5500000000027345, -1.2987445099212795 
4.560000000002711, -1.2985163301157145 
4.570000000002688, -1.2983029748989874 
4.580000000002665, -1.2980984038299723 
4.590000000002641, -1.2978953076004471 
4.600000000002618, -1.2976867005849744 
4.610000000002595, -1.2974670490345654 
4.620000000002571, -1.297232794377964 
4.630000000002548, -1.2969824102598893 
4.640000000002525, -1.2967162237833159 
4.6500000000025015, -1.2964361862318632 
4.660000000002478, -1.2961456731097942 
4.670000000002455, -1.2958492775022057 
4.6800000000024315, -1.295552469937205 
4.690000000002408, -1.2952609797488406 
4.700000000002385, -1.294979859313941 
4.710000000002362, -1.2947124152900797 
4.720000000002338, -1.2944593959796735 
4.730000000002315, -1.294218811667504 
4.740000000002292, -1.2939864771503038 
4.750000000002268, -1.293757004367203 
4.760000000002245, -1.2935248185402708 
4.770000000002222, -1.2932848990606232 
4.7800000000021985, -1.2930331954895804 
4.790000000002175, -1.292766848072089 
4.800000000002152, -1.292484381733681 
4.810000000002129, -1.292185975268629 
4.820000000002105, -1.2918737861393073 
4.830000000002082, -1.291552174219813 
4.840000000002059, -1.2912275586739346 
4.850000000002035, -1.2909076400643218 
4.860000000002012, -1.2905999203314313 
4.870000000001989, -1.2903098590899507 
4.880000000001965, -1.2900393931133727 
4.890000000001942, -1.2897865410964289 
4.900000000001919, -1.2895462735521133 
4.9100000000018955, -1.2893121250768125 
4.920000000001872, -1.2890777367218276 
4.930000000001849, -1.2888377921460705 
4.940000000001826, -1.2885883016084783 
