t, s[1].omega / s[0].omega 
0, -1.22999742717733 
0.009999999999999995, -1.2297303187234914 
0.019999999999999934, -1.2294447355681801 
0.029999999999999874, -1.229143575240424 
0.04000000000000012, -1.2288315460850423 
0.050000000000000405, -1.228514893576115 
0.06000000000000069, -1.2282008140951821 
0.07000000000000098, -1.2278964717622032 
0.08000000000000126, -1.2276077102359824 
0.09000000000000155, -1.227337800442321 
0.10000000000000184, -1.2270867065136053 
0.11000000000000212, -1.2268512033865795 
0.12000000000000241, -1.2266257770573417 
0.130000000000002, -1.2264038711923164 
0.1400000000000009, -1.226178981056295 
0.1499999999999998, -1.2259453264691862 
0.1599999999999987, -1.2256981338724162 
0.1699999999999976, -1.2254337340204873 
0.1799999999999965, -1.2251497013222352 
0.1899999999999954, -1.224845178025574 
0.1999999999999943, -1.224521391641777 
0.2099999999999932, -1.2241822094510746 
0.2199999999999921, -1.2238344082115695 
0.229999999999991, -1.2234872495895648 
0.2399999999999899, -1.2231510737574434 
0.2499999999999888, -1.2228350442013807 
0.2599999999999877, -1.222544764666289 
0.2699999999999866, -1.2222808216033103 
0.2799999999999855, -1.2220389686526985 
0.2899999999999844, -1.2218117784096083 
0.2999999999999833, -1.2215908285994286 
0.3099999999999822, -1.2213684372045046 
0.3199999999999811, -1.2211384963260925 
0.32999999999998, -1.2208965355688708 
0.3399999999999789, -1.220639417962231 
0.3499999999999778, -1.220365055332544 
0.35999999999997667, -1.2200723986488262 
0.36999999999997557, -1.2197618185144647 
0.37999999999997447, -1.2194358352416887 
0.38999999999997337, -1.2190999329147727 
0.39999999999997227, -1.2187629075204307 
0.40999999999997117, -1.2184360434626316 
0.41999999999997006, -1.218130729763938 
0.42999999999996896, -1.2178550680563949 
0.43999999999996786, -1.2176110519018457 
0.44999999999996676, -1.2173939569919991 
0.45999999999996566, -1.2171942891264624 
0.46999999999996456, -1.217001043485595 
0.47999999999996346, -1.2168045335562712 
0.48999999999996235, -1.2165978110684876 
0.49999999999996125, -1.2163767558306644 
0.5099999999999602, -1.2161394620605177 
0.519999999999959, -1.2158855322644933 
0.529999999999958, -1.2156156405371081 
0.5399999999999568, -1.2153314958981603 
0.5499999999999557, -1.215036175826254 
0.5599999999999546, -1.2147346524055513 
0.5699999999999535, -1.2144341484396999 
0.5799999999999524, -1.2141437993134128 
0.5899999999999513, -1.2138731734434223 
0.5999999999999502, -1.2136297407693528 
0.6099999999999491, -1.2134162291541213 
0.619999999999948, -1.2132292855614164 
0.6299999999999469, -1.2130603144564243 
0.6399999999999458, -1.212898078521579 
0.6499999999999447, -1.2127316977591533 
0.6599999999999436, -1.212552774638314 
0.6699999999999425, -1.212356179291264 
0.6799999999999414, -1.212139783421221 
0.6899999999999403, -1.2119037244431181 
0.6999999999999392, -1.2116496886235315 
0.7099999999999381, -1.2113804694147914 
0.719999999999937, -1.211099846148052 
0.7299999999999359, -1.2108126742216805 
0.7399999999999348, -1.2105249617090403 
0.7499999999999337, -1.210243636418664 
0.7599999999999326, -1.2099757530927802 
0.7699999999999315, -1.2097271345037788 
0.7799999999999304, -1.2095008330299275 
0.7899999999999293, -1.2092960793818932 
0.7999999999999282, -1.209108263911258 
0.8099999999999271, -1.208929993249789 
0.819999999999926, -1.2087527523056742 
0.8299999999999249, -1.208568532455662 
0.8399999999999238, -1.2083709797506876 
0.8499999999999227, -1.2081559396478636 
0.8599999999999216, -1.2079215150128526 
0.8699999999999205, -1.2076678478618512 
0.8799999999999194, -1.207396818490895 
0.8899999999999183, -1.207111781074944 
0.8999999999999172, -1.2068173568905993 
0.9099999999999161, -1.2065192079895468 
0.919999999999915, -1.2062236469713912 
0.9299999999999139, -1.2059369511838351 
0.9399999999999128, -1.205664381828853 
0.9499999999999117, -1.2054091275303926 
0.9599999999999106, -1.205171557099952 
0.9699999999999095, -1.2049491140309385 
0.9799999999999084, -1.2047369038253775 
0.9899999999999073, -1.2045287095996526 
0.9999999999999062, -1.204318046858753 
1.0099999999999052, -1.2040989796302355 
1.019999999999904, -1.2038666304417256 
1.029999999999903, -1.2036174708662626 
1.039999999999902, -1.2033495201456217 
1.0499999999999008, -1.2030625355340399 
1.0599999999998997, -1.2027582007249238 
1.0699999999998986, -1.2024402423183522 
1.0799999999998975, -1.202114344955277 
1.0899999999998964, -1.201787710957954 
1.0999999999998953, -1.2014681554710793 
1.1099999999998942, -1.2011627823596984 
1.119999999999893, -1.200876531819312 
1.129999999999892, -1.2006110929987703 
1.1399999999998909, -1.2003646349974344 
1.1499999999998898, -1.200132462730347 
1.1599999999998887, -1.1999082598495057 
1.1699999999998876, -1.1996853647615935 
1.1799999999998865, -1.1994576599779583 
1.1899999999998854, -1.199219971467214 
1.1999999999998843, -1.1989681324686006 
1.2099999999998832, -1.1986989612383963 
1.219999999999882, -1.198410368782634 
1.229999999999881, -1.1981017153469327 
1.2399999999998799, -1.1977744005194526 
1.2499999999998788, -1.197432501156381 
1.2599999999998777, -1.1970830895482243 
1.2699999999998766, -1.196735772045158 
1.2799999999998755, -1.1964011478530996 
1.2899999999998744, -1.1960883866095475 
1.2999999999998733, -1.1958027667355116 
1.3099999999998722, -1.195544305512873 
1.319999999999871, -1.1953081508805559 
1.32999999999987, -1.1950864299396011 
1.3399999999998689, -1.1948705258524217 
1.3499999999998678, -1.1946527970755807 
1.3599999999998666, -1.1944273433674597 
1.3699999999998655, -1.1941899960020836 
1.3799999999998644, -1.193937949065924 
1.3899999999998633, -1.1936694086623925 
1.3999999999998622, -1.193383498574447 
1.4099999999998611, -1.1930805301029213 
1.41999999999986, -1.1927626165531204 
1.429999999999859, -1.19243443466855 
1.4399999999998578, -1.1921036912135352 
1.4499999999998567, -1.1917806669881987 
1.4599999999998556, -1.191476367250197 
1.4699999999998545, -1.1911995230699588 
1.4799999999998534, -1.1909536691605838 
1.4899999999998523, -1.1907358967495036 
1.4999999999998512, -1.1905380296847716 
1.5099999999998501, -1.1903494767821903 
1.519999999999849, -1.1901601753541171 
1.529999999999848, -1.189962419001723 
1.5399999999998468, -1.1897513312928294 
1.5499999999998457, -1.1895244441359047 
1.5599999999998446, -1.1892809885444844 
1.5699999999998435, -1.189021325937331 
1.5799999999998424, -1.1887467172787745 
1.5899999999998413, -1.1884594611294077 
1.5999999999998402, -1.1881633096528603 
1.6099999999998391, -1.1878639340252044 
1.619999999999838, -1.187569047755373 
1.629999999999837, -1.187287716542754 
1.6399999999998358, -1.1870285959544113 
1.6499999999998347, -1.186797447298375 
1.6599999999998336, -1.1865949853503337 
1.6699999999998325, -1.1864162572922416 
1.6799999999998314, -1.1862519982366424 
1.6899999999998303, -1.1860912730755273 
1.6999999999998292, -1.1859241207847988 
1.709999999999828, -1.1857432197830815 
1.719999999999827, -1.1855443456057864 
1.729999999999826, -1.1853259763415143 
1.7399999999998248, -1.1850885728753326 
1.7499999999998237, -1.1848339389850064 
1.7599999999998226, -1.1845648576706647 
1.7699999999998215, -1.1842850228068422 
1.7799999999998204, -1.1839991563456518 
1.7899999999998193, -1.1837131007992838 
1.7999999999998182, -1.1834336132116703 
1.809999999999817, -1.1831676260480155 
1.819999999999816, -1.1829209584624094 
1.8299999999998149, -1.1826968214069793 
1.8399999999998138, -1.1824947361632097 
1.8499999999998127, -1.1823104100679245 
1.8599999999998116, -1.1821366703095788 
1.8699999999998105, -1.1819650576044274 
1.8799999999998094, -1.1817874673860143 
1.8899999999998083, -1.181597362238191 
1.8999999999998072, -1.181390379645451 
1.909999999999806, -1.1811644155790317 
1.919999999999805, -1.1809193884717406 
1.9299999999998039, -1.1806568943965003 
1.9399999999998028, -1.1803799005815692 
1.9499999999998017, -1.1800925301801666 
1.9599999999998006, -1.179799892172477 
1.9699999999997995, -1.1795078309227829 
1.9799999999997984, -1.1792224466490386 
1.9899999999997973, -1.1789493125406554 
1.9999999999997962, -1.1786924909188998 
2.0099999999998173, -1.1784536456098482 
2.0199999999998384, -1.1782316092338203 
2.0299999999998595, -1.1780226037095871 
2.0399999999998806, -1.1778210201864194 
2.0499999999999017, -1.1776204473714704 
2.059999999999923, -1.1774146241858916 
2.069999999999944, -1.1771981376280505 
2.079999999999965, -1.1769668526805857 
2.089999999999986, -1.1767181527853463 
2.100000000000007, -1.1764510773405854 
2.1100000000000283, -1.176166404660447 
2.1200000000000494, -1.1758666808311404 
2.1300000000000705, -1.1755561518064814 
2.1400000000000916, -1.1752405212210943 
2.1500000000001127, -1.1749264420032532 
2.160000000000134, -1.1746206871498073 
2.170000000000155, -1.1743290633452617 
2.180000000000176, -1.1740553068956106 
2.190000000000197, -1.1738003257874443 
2.2000000000002182, -1.173562090380022 
2.2100000000002393, -1.1733362099213045 
2.2200000000002604, -1.173116926500089 
2.2300000000002815, -1.172898126492661 
2.2400000000003026, -1.1726740759176146 
2.2500000000003237, -1.1724398100131102 
2.260000000000345, -1.1721912886451342 
2.270000000000366, -1.171925495612214 
2.280000000000387, -1.1716406286344019 
2.290000000000408, -1.1713364409093985 
2.3000000000004293, -1.1710146838651014 
2.3100000000004504, -1.1706794833071565 
2.3200000000004715, -1.1703373891838575 
2.3300000000004926, -1.169996830397652 
2.3400000000005137, -1.1696668478734789 
2.3500000000005348, -1.1693552884360585 
2.360000000000556, -1.1690670044414848 
2.370000000000577, -1.1688027686420757 
2.380000000000598, -1.168559368798531 
2.390000000000619, -1.1683307770440436 
2.4000000000006403, -1.1681097876197153 
2.4100000000006614, -1.1678894306460976 
2.4200000000006825, -1.1676637760664792 
2.4300000000007036, -1.1674281389582413 
2.4400000000007247, -1.1671789349634314 
2.450000000000746, -1.1669134749982462 
2.460000000000767, -1.1666299209646152 
2.470000000000788, -1.166327528533835 
2.480000000000809, -1.166007194409132 
2.49000000000083, -1.1656721768530593 
2.5000000000008513, -1.1653286600599009 
2.5100000000008724, -1.1649856619827124 
2.5200000000008935, -1.164653829352049 
2.5300000000009146, -1.1643431044133865 
2.5400000000009357, -1.1640599898950303 
2.550000000000957, -1.1638056610359313 
2.560000000000978, -1.163575897402374 
2.570000000000999, -1.1633627891231135 
2.58000000000102, -1.1631572134523256 
2.5900000000010412, -1.1629509104999407 
2.6000000000010624, -1.1627375478689304 
2.6100000000010835, -1.162512843687925 
2.6200000000011046, -1.1622741684971385 
2.6300000000011257, -1.162020050852912 
2.6400000000011468, -1.1617498645337627 
2.650000000001168, -1.1614638301295666 
2.660000000001189, -1.1611633562661205 
2.67000000000121, -1.1608516350181373 
2.680000000001231, -1.1605342431982257 
2.6900000000012523, -1.1602193036352018 
2.7000000000012734, -1.1599166781992136 
2.7100000000012945, -1.1596359423230236 
2.7200000000013156, -1.159383612404454 
2.7300000000013367, -1.1591608585894537 
2.740000000001358, -1.1589629864937112 
2.750000000001379, -1.1587810223997548 
2.7600000000014, -1.1586044965716458 
2.770000000001421, -1.1584240205015406 
2.780000000001442, -1.158232738398175 
2.7900000000014633, -1.158026574852819 
2.8000000000014844, -1.1578037377890857 
2.8100000000015055, -1.1575640137310101 
2.8200000000015266, -1.1573082175194649 
2.8300000000015477, -1.1570379548012093 
2.840000000001569, -1.1567557121785206 
2.85000000000159, -1.1564651891574655 
2.860000000001611, -1.1561716800769701 
2.870000000001632, -1.155882192128307 
2.8800000000016532, -1.1556049218978792 
2.8900000000016743, -1.1553478579497276 
2.9000000000016954, -1.1551167211923423 
2.9100000000017165, -1.154913016033883 
2.9200000000017377, -1.1547331828789265 
2.9300000000017588, -1.1545693872314842 
2.94000000000178, -1.1544116037856533 
2.950000000001801, -1.1542500242165281 
2.960000000001822, -1.1540768541642936 
2.970000000001843, -1.1538870912977786 
2.9800000000018643, -1.1536784251801127 
2.9900000000018854, -1.1534506698499605 
3.0000000000019065, -1.1532051275283093 
3.0100000000019276, -1.1529441312555728 
3.0200000000019487, -1.1526708515843942 
3.03000000000197, -1.152389325731216 
3.040000000001991, -1.1521045714717528 
3.050000000002012, -1.151822574477136 
3.060000000002033, -1.1515499152049102 
3.070000000002054, -1.1512928938938374 
3.0800000000020753, -1.1510562541899763 
3.0900000000020964, -1.1508419072248333 
3.1000000000021175, -1.1506482028094251 
3.1100000000021386, -1.1504701175460226 
3.1200000000021597, -1.1503003132535503 
3.130000000002181, -1.150130647589363 
3.140000000002202, -1.1499536155190841 
3.150000000002223, -1.14976335688611 
3.160000000002244, -1.14955611887688 
3.1700000000022652, -1.1493302643250274 
3.1800000000022863, -1.1490860117488775 
3.1900000000023074, -1.1488250942307223 
3.2000000000023285, -1.148550467205827 
3.2100000000023496, -1.1482661112459565 
3.2200000000023707, -1.1479768877084526 
3.230000000002392, -1.1476883341215713 
3.240000000002413, -1.14740626222214 
3.250000000002434, -1.1471360792923535 
3.260000000002455, -1.1468819006582678 
3.2700000000024763, -1.146645696154351 
3.2800000000024974, -1.1464267926253275 
3.2900000000025185, -1.1462219491795755 
3.3000000000025396, -1.1460259810176727 
3.3100000000025607, -1.1458326936739995 
3.3200000000025818, -1.1456358316460271 
3.330000000002603, -1.1454298369325533 
3.340000000002624, -1.1452103526417035 
3.350000000002645, -1.144974505015265 
3.360000000002666, -1.1447210299595354 
3.3700000000026873, -1.1444503001303978 
3.3800000000027084, -1.1441642840266808 
3.3900000000027295, -1.1438664413646127 
3.4000000000027506, -1.1435615287882024 
3.4100000000027717, -1.1432552604733608 
3.420000000002793, -1.1429537600438455 
3.430000000002814, -1.142662785181375 
3.440000000002835, -1.1423868169535143 
3.450000000002856, -1.1421282380508384 
3.460000000002877, -1.1418868789800523 
3.4700000000028983, -1.141660109983619 
3.4800000000029194, -1.1414434338804644 
3.4900000000029405, -1.1412313356249923 
3.5000000000029616, -1.1410180974310897 
3.5100000000029827, -1.1407983964462232 
3.520000000003004, -1.1405676628449162 
3.530000000003025, -1.140322287835588 
3.540000000003046, -1.140059797510605 
3.550000000003067, -1.139779068904478 
3.5600000000030882, -1.1394805942678248 
3.5700000000031094, -1.1391667266744454 
3.5800000000031305, -1.1388417837121376 
3.5900000000031516, -1.1385118621904131 
3.6000000000031727, -1.1381842445186656 
3.6100000000031938, -1.1378663768016455 
3.620000000003215, -1.1375645700597299 
3.630000000003236, -1.1372827628829336 
3.640000000003257, -1.137021764870931 
3.650000000003278, -1.1367792657936495 
3.6600000000032993, -1.136550575228239 
3.6700000000033204, -1.1363297468878957 
3.6800000000033415, -1.1361106450972274 
3.6900000000033626, -1.1358876571137442 
3.7000000000033837, -1.1356559999109872 
3.710000000003405, -1.1354117539284923 
3.720000000003426, -1.1351518207301992 
3.730000000003447, -1.1348739757213022 
3.740000000003468, -1.1345771168915477 
3.750000000003489, -1.134261716413405 
3.7600000000035103, -1.1339303644012442 
3.7700000000035314, -1.133588165121133 
3.7800000000035525, -1.133242658066743 
3.7900000000035736, -1.1329029819638372 
3.8000000000035947, -1.1325782535490554 
3.810000000003616, -1.1322755478193323 
3.820000000003637, -1.1319982128066948 
3.830000000003658, -1.1317452318656696 
3.840000000003679, -1.1315118736501588 
3.8500000000037002, -1.131291235543634 
3.8600000000037213, -1.1310759382137534 
3.8700000000037424, -1.1308593549575687 
3.8800000000037635, -1.1306361597307832 
3.8900000000037847, -1.1304023304073834 
3.9000000000038058, -1.1301548910734285 
3.910000000003827, -1.1298916573147384 
3.920000000003848, -1.1296111647252955 
3.930000000003869, -1.1293128754892694 
3.94000000000389, -1.1289976710637841 
3.9500000000039113, -1.128668518539586 
3.9600000000039324, -1.1283310291704476 
3.9700000000039535, -1.1279934687518054 
3.9800000000039746, -1.1276657895078228 
3.9900000000039957, -1.1273576022643232 
4.000000000004016, -1.1270756520997796 
4.010000000003993, -1.1268218860024861 
4.02000000000397, -1.1265930780594382 
4.030000000003946, -1.1263821496423552 
4.040000000003923, -1.126180407165886 
4.0500000000039, -1.1259796166040303 
4.0600000000038765, -1.1257732272815302 
4.070000000003853, -1.1255566764498592 
4.08000000000383, -1.1253271005028997 
4.090000000003807, -1.1250828503120727 
4.100000000003783, -1.124823099517173 
4.11000000000376, -1.124547699745068 
4.120000000003737, -1.1242573378326697 
4.130000000003713, -1.123953971022571 
4.14000000000369, -1.1236414111839976 
4.150000000003667, -1.1233257751483867 
4.1600000000036434, -1.1230153704293564 
4.17000000000362, -1.122719606943333 
4.180000000003597, -1.1224468970639072 
4.1900000000035735, -1.122202178935273 
4.20000000000355, -1.1219852147204907 
4.210000000003527, -1.1217906096623467 
4.220000000003504, -1.1216095576935587 
4.23000000000348, -1.1214323690612864 
4.240000000003457, -1.1212506125846635 
4.250000000003434, -1.1210582192209377 
4.26000000000341, -1.1208515799778382 
4.270000000003387, -1.1206290579977531 
4.280000000003364, -1.1203903602249068 
4.2900000000033405, -1.1201360599759302 
4.300000000003317, -1.1198673980949119 
4.310000000003294, -1.1195863789509397 
4.320000000003271, -1.1192960994570975 
4.330000000003247, -1.1190011620970608 
4.340000000003224, -1.1187079101835025 
4.350000000003201, -1.1184241363188074 
4.360000000003177, -1.118157980763205 
4.370000000003154, -1.117916072901659 
4.380000000003131, -1.117701498942306 
4.390000000003107, -1.1175125359404303 
4.400000000003084, -1.1173428751749825 
4.410000000003061, -1.1171832971717408 
4.4200000000030375, -1.1170240064149408 
4.430000000003014, -1.116856637014877 
4.440000000002991, -1.1166753334393493 
4.450000000002968, -1.11647688551944 
4.460000000002944, -1.1162602665389698 
4.470000000002921, -1.1160259892976452 
4.480000000002898, -1.1157755755484255 
4.490000000002874, -1.1155112756979018 
4.500000000002851, -1.1152360516889606 
4.510000000002828, -1.114953748989222 
4.520000000002804, -1.1146693090487565 
4.530000000002781, -1.1143888042750074 
4.540000000002758, -1.114119052124463 
4.5500000000027345, -1.1138666596647013 
4.560000000002711, -1.113636609039477 
4.570000000002688, -1.1134308276585387 
4.580000000002665, -1.1132473617592393 
4.590000000002641, -1.1130805915059645 
4.600000000002618, -1.1129224536416238 
4.610000000002595, -1.1127641848219734 
4.620000000002571, -1.1125979491588573 
4.630000000002548, -1.1124178969299428 
4.640000000002525, -1.1122205327342018 
4.6500000000025015, -1.1120045439439128 
4.660000000002478, -1.1117703578995024 
4.670000000002455, -1.1115196758128947 
4.6800000000024315, -1.111255139013758 
4.690000000002408, -1.1109801768423935 
4.700000000002385, -1.110698992491167 
4.710000000002362, -1.1104165694775607 
4.720000000002338, -1.110138535423575 
4.730000000002315, -1.1098707286748295 
4.740000000002292, -1.1096184120572297 
4.750000000002268, -1.1093852634485208 
4.760000000002245, -1.1091724597329646 
4.770000000002222, -1.108978222818306 
4.7800000000021985, -1.1087980426078896 
4.790000000002175, -1.1086255138105863 
4.800000000002152, -1.108453496242977 
4.810000000002129, -1.1082752494515962 
4.820000000002105, -1.108085286690752 
4.830000000002082, -1.107879846742229 
4.840000000002059, -1.107657013116023 
4.850000000002035, -1.1074165862230168 
4.860000000002012, -1.1071598365566893 
4.870000000001989, -1.1068892476653018 
4.880000000001965, -1.1066083094384245 
4.890000000001942, -1.1063213586450884 
4.900000000001919, -1.1060334019569158 
4.9100000000018955, -1.1057498202517146 
4.920000000001872, -1.1054758695963924 
4.930000000001849, -1.1052159804974786 
4.940000000001826, -1.104972989562293 
