t, s[1].omega / s[0].omega 
0, -1.8599969223118802 
0.009999999999999995, -1.859672695989144 
0.019999999999999934, -1.8593185404073793 
0.029999999999999874, -1.858942925004762 
0.04000000000000012, -1.858560757651717 
0.050000000000000405, -1.8581913545069244 
0.06000000000000069, -1.8578515462651553 
0.07000000000000098, -1.8575467816158162 
0.08000000000000126, -1.8572681210859983 
0.09000000000000155, -1.8569985027367266 
0.10000000000000184, -1.8567218074828056 
0.11000000000000212, -1.8564275752896582 
0.12000000000000241, -1.8561112478203305 
0.130000000000002, -1.855773547774185 
0.1400000000000009, -1.8554213135539548 
0.1499999999999998, -1.8550690248621915 
0.1599999999999987, -1.8547371006606141 
0.1699999999999976, -1.854443264028178 
0.1799999999999965, -1.8541910006573055 
0.1899999999999954, -1.8539663373316455 
0.1999999999999943, -1.8537465247957452 
0.2099999999999932, -1.8535113334625533 
0.2199999999999921, -1.8532484731919177 
0.229999999999991, -1.8529533717461906 
0.2399999999999899, -1.8526272969591857 
0.2499999999999888, -1.8522763633222321 
0.2599999999999877, -1.851911557789253 
0.2699999999999866, -1.8515481271343082 
0.2799999999999855, -1.8512020895460886 
0.2899999999999844, -1.8508837073538391 
0.2999999999999833, -1.8505920714479611 
0.3099999999999822, -1.850315955664869 
0.3199999999999811, -1.8500402525029251 
0.32999999999998, -1.8497521186835786 
0.3399999999999789, -1.8494433668557444 
0.3499999999999778, -1.8491105398030996 
0.35999999999997667, -1.8487555045235002 
0.36999999999997557, -1.848387712791372 
0.37999999999997447, -1.8480260223186165 
0.38999999999997337, -1.8476947264427335 
0.39999999999997227, -1.8474110010204776 
0.40999999999997117, -1.8471724398137919 
0.41999999999997006, -1.846958154619799 
0.42999999999996896, -1.846742166204183 
0.43999999999996786, -1.846505273108642 
0.44999999999996676, -1.8462383090994046 
0.45999999999996566, -1.845940021479792 
0.46999999999996456, -1.8456144638300256 
0.47999999999996346, -1.8452698501915699 
0.48999999999996235, -1.8449181941677097 
0.49999999999996125, -1.8445737632879826 
0.5099999999999602, -1.8442488968149682 
0.519999999999959, -1.843948562154671 
0.529999999999958, -1.8436677875823597 
0.5399999999999568, -1.8433944677213117 
0.5499999999999557, -1.8431149888995795 
0.5599999999999546, -1.8428183182852926 
0.5699999999999535, -1.8424973059099188 
0.5799999999999524, -1.842149059752287 
0.5899999999999513, -1.8417765589558528 
0.5999999999999502, -1.841391802084712 
0.6099999999999491, -1.8410172727800167 
0.619999999999948, -1.840679622643727 
0.6299999999999469, -1.8403945409219884 
0.6399999999999458, -1.8401551150071298 
0.6499999999999447, -1.839936877723503 
0.6599999999999436, -1.8397135854223858 
0.6699999999999425, -1.8394681183941368 
0.6799999999999414, -1.8391937924834227 
0.6899999999999403, -1.8388912624109586 
0.6999999999999392, -1.838565912513983 
0.7099999999999381, -1.8382269353636318 
0.719999999999937, -1.837886766616491 
0.7299999999999359, -1.8375587442997912 
0.7399999999999348, -1.8372523360232313 
0.7499999999999337, -1.8369685479994957 
0.7599999999999326, -1.8366993736195218 
0.7699999999999315, -1.836431766574347 
0.7799999999999304, -1.836152664139735 
0.7899999999999293, -1.835851908088775 
0.7999999999999282, -1.8355230473515818 
0.8099999999999271, -1.83516395448433 
0.819999999999926, -1.8347788785186587 
0.8299999999999249, -1.8343815871368094 
0.8399999999999238, -1.8339959232569203 
0.8499999999999227, -1.8336481928295583 
0.8599999999999216, -1.833352107038619 
0.8699999999999205, -1.833099207624225 
0.8799999999999194, -1.8328656165050288 
0.8899999999999183, -1.8326272206787422 
0.8999999999999172, -1.8323689355332795 
0.9099999999999161, -1.8320851645532408 
0.919999999999915, -1.8317768825625067 
0.9299999999999139, -1.8314496414790136 
0.9399999999999128, -1.831113145261206 
0.9499999999999117, -1.83078060254506 
0.9599999999999106, -1.8304654925976735 
0.9699999999999095, -1.8301757466964275 
0.9799999999999084, -1.8299093208398367 
0.9899999999999073, -1.8296551722565977 
0.9999999999999062, -1.8293985478470876 
1.0099999999999052, -1.8291261047708898 
1.019999999999904, -1.8288282998593637 
1.029999999999903, -1.8284998113678554 
1.039999999999902, -1.8281399752348317 
1.0499999999999008, -1.8277544453309145 
1.0599999999998997, -1.8273574028552901 
1.0699999999998986, -1.8269710834835553 
1.0799999999998975, -1.8266185598584415 
1.0899999999998964, -1.8263112853602625 
1.0999999999998953, -1.826041890745 
1.1099999999998942, -1.8257901238782561 
1.119999999999893, -1.825535286160342 
1.129999999999892, -1.8252638839585393 
1.1399999999998909, -1.8249702706390516 
1.1499999999998898, -1.8246546688123395 
1.1599999999998887, -1.8243221357676418 
1.1699999999998876, -1.8239828919595298 
1.1799999999998865, -1.8236518618506288 
1.1899999999998854, -1.8233444688827958 
1.1999999999998843, -1.8230689528022634 
1.2099999999998832, -1.822821007581528 
1.219999999999882, -1.8225859928064416 
1.229999999999881, -1.8223463001452185 
1.2399999999998799, -1.822087536861541 
1.2499999999998788, -1.8218007780179417 
1.2599999999998777, -1.8214823604556343 
1.2699999999998766, -1.8211335442410745 
1.2799999999998755, -1.8207611437009894 
1.2899999999998744, -1.8203784799991904 
1.2999999999998733, -1.820004284073402 
1.3099999999998722, -1.8196569926957724 
1.319999999999871, -1.819345772951473 
1.32999999999987, -1.8190653333223417 
1.3399999999998689, -1.818799932408441 
1.3499999999998678, -1.818532447170933 
1.3599999999998666, -1.8182505787297711 
1.3699999999998655, -1.8179480390488376 
1.3799999999998644, -1.817623687665877 
1.3899999999998633, -1.8172815376777158 
1.3999999999998622, -1.8169321048123095 
1.4099999999998611, -1.8165927128926165 
1.41999999999986, -1.8162827262873313 
1.429999999999859, -1.8160133086406112 
1.4399999999998578, -1.81577949521526 
1.4499999999998567, -1.8155628483415724 
1.4599999999998556, -1.8153417426182787 
1.4699999999998545, -1.8150997930482569 
1.4799999999998534, -1.8148283362133768 
1.4899999999998523, -1.8145252697912901 
1.4999999999998512, -1.8141935229151607 
1.5099999999998501, -1.813840562931481 
1.519999999999849, -1.8134784219114564 
1.529999999999848, -1.8131224415746385 
1.5399999999998468, -1.8127870448416854 
1.5499999999998457, -1.8124794928500705 
1.5599999999998446, -1.8121961311087609 
1.5699999999998435, -1.811924779842725 
1.5799999999998424, -1.811651058755352 
1.5899999999998413, -1.8113633703117358 
1.5999999999998402, -1.8110544806077684 
1.6099999999998391, -1.8107214975713013 
1.619999999999838, -1.8103666599588906 
1.629999999999837, -1.8099996653333321 
1.6399999999998358, -1.8096393234152146 
1.6499999999998347, -1.809309520119477 
1.6599999999998336, -1.8090271469642238 
1.6699999999998325, -1.8087902176168051 
1.6799999999998314, -1.8085786983512144 
1.6899999999998303, -1.8083671378634236 
1.6999999999998292, -1.808136301500981 
1.709999999999828, -1.8078767041912438 
1.719999999999827, -1.8075867126303127 
1.729999999999826, -1.8072699008009465 
1.7399999999998248, -1.8069337383994035 
1.7499999999998237, -1.8065891998311372 
1.7599999999998226, -1.8062495911593905 
1.7699999999998215, -1.805927118351418 
1.7799999999998204, -1.8056279582281494 
1.7899999999998193, -1.8053492185854652 
1.7999999999998182, -1.805080507378884 
1.809999999999817, -1.8048087336690675 
1.819999999999816, -1.8045223423212318 
1.8299999999998149, -1.8042130901460962 
1.8399999999998138, -1.803876431977071 
1.8499999999998127, -1.8035125245117514 
1.8599999999998116, -1.8031288331273483 
1.8699999999998105, -1.802742837105359 
1.8799999999998094, -1.8023800658289126 
1.8899999999998083, -1.8020632032765214 
1.8999999999998072, -1.801797598063177 
1.909999999999806, -1.8015674152259908 
1.919999999999805, -1.8013468473060996 
1.9299999999998039, -1.801114122827957 
1.9399999999998028, -1.800857415435375 
1.9499999999998017, -1.8005735616444287 
1.9599999999998006, -1.8002650596076741 
1.9699999999997995, -1.7999383982406165 
1.9799999999997984, -1.7996036683568157 
1.9899999999997973, -1.7992736750790541 
1.9999999999997962, -1.7989607142216955 
2.0099999999998173, -1.7986714690799168 
2.0199999999998384, -1.7984035270477992 
2.0299999999998595, -1.7981465537976664 
2.0399999999998806, -1.7978869599525389 
2.0499999999999017, -1.7976123340933987 
2.059999999999923, -1.7973135498602215 
2.069999999999944, -1.7969852372437056 
2.079999999999965, -1.7966263850800896 
2.089999999999986, -1.7962421826190418 
2.100000000000007, -1.795846435895704 
2.1100000000000283, -1.79546135382428 
2.1200000000000494, -1.7951105498101374 
2.1300000000000705, -1.794806465305078 
2.1400000000000916, -1.794542522582217 
2.1500000000001127, -1.7942984242820192 
2.160000000000134, -1.7940526867217639 
2.170000000000155, -1.7937909142319708 
2.180000000000176, -1.793506832577118 
2.190000000000197, -1.7932001824379042 
2.2000000000002182, -1.7928752409864785 
2.2100000000002393, -1.7925408070348645 
2.2200000000002604, -1.7922100991451604 
2.2300000000002815, -1.7918979412397409 
2.2400000000003026, -1.7916144759063475 
2.2500000000003237, -1.791359290588582 
2.260000000000345, -1.7911212941991586 
2.270000000000366, -1.790884323824351 
2.280000000000387, -1.7906334209638026 
2.290000000000408, -1.7903580797028358 
2.3000000000004293, -1.790052723463831 
2.3100000000004504, -1.7897164152845406 
2.3200000000004715, -1.7893532497161764 
2.3300000000004926, -1.7889734581490047 
2.3400000000005137, -1.7885936018859112 
2.3500000000005348, -1.7882331499217767 
2.360000000000556, -1.7879065667241143 
2.370000000000577, -1.7876155165125645 
2.380000000000598, -1.7873484212805362 
2.390000000000619, -1.7870879171983525 
2.4000000000006403, -1.7868189863077366 
2.4100000000006614, -1.786532390231749 
2.4200000000006825, -1.7862243554820836 
2.4300000000007036, -1.7858957868988483 
2.4400000000007247, -1.7855528323730927 
2.450000000000746, -1.7852081750201834 
2.460000000000767, -1.7848800290006106 
2.470000000000788, -1.784585623430536 
2.480000000000809, -1.7843312658555668 
2.49000000000083, -1.7841075587923498 
2.5000000000008513, -1.7838947774477425 
2.5100000000008724, -1.783672817947847 
2.5200000000008935, -1.7834276777228166 
2.5300000000009146, -1.783152636415458 
2.5400000000009357, -1.7828468713601222 
2.550000000000957, -1.7825141731978622 
2.560000000000978, -1.7821626269188637 
2.570000000000999, -1.7818045129038143 
2.58000000000102, -1.781454711106741 
2.5900000000010412, -1.781126348034587 
2.6000000000010624, -1.7808250970581945 
2.6100000000010835, -1.780546361860619 
2.6200000000011046, -1.7802780610722706 
2.6300000000011257, -1.7800064898535184 
2.6400000000011468, -1.7797206572132414 
2.650000000001168, -1.7794135925372612 
2.660000000001189, -1.7790823377483485 
2.67000000000121, -1.7787287615658591 
2.680000000001231, -1.7783618524106264 
2.6900000000012523, -1.7779995382458265 
2.7000000000012734, -1.7776654083792103 
2.7100000000012945, -1.7773776206605938 
2.7200000000013156, -1.777136769252205 
2.7300000000013367, -1.7769249457096379 
2.740000000001358, -1.7767170920206337 
2.750000000001379, -1.776493043811638 
2.7600000000014, -1.7762420932008745 
2.770000000001421, -1.7759616110724123 
2.780000000001442, -1.7756543347885192 
2.7900000000014633, -1.7753267927864982 
2.8000000000014844, -1.7749888419928577 
2.8100000000015055, -1.774652883835754 
2.8200000000015266, -1.7743311937487871 
2.8300000000015477, -1.7740314626366493 
2.840000000001569, -1.7737532153332616 
2.85000000000159, -1.7734880751017486 
2.860000000001611, -1.7732236564298884 
2.870000000001632, -1.7729479233370768 
2.8800000000016532, -1.7726515648270174 
2.8900000000016743, -1.7723286079008065 
2.9000000000016954, -1.771976961668501 
2.9100000000017165, -1.771600242088682 
2.9200000000017377, -1.771210603935105 
2.9300000000017588, -1.770829599255404 
2.94000000000178, -1.77048228437893 
2.950000000001801, -1.7701842245882589 
2.960000000001822, -1.7699312657106998 
2.970000000001843, -1.7697028562612664 
2.9800000000018643, -1.7694751567246172 
2.9900000000018854, -1.769231271489798 
3.0000000000019065, -1.7689634353799886 
3.0100000000019276, -1.7686707469415446 
3.0200000000019487, -1.7683568579224151 
3.03000000000197, -1.7680291712241254 
3.040000000001991, -1.7676987177759318 
3.050000000002012, -1.7673786965956413 
3.060000000002033, -1.7670803033099112 
3.070000000002054, -1.7668074657649349 
3.0800000000020753, -1.7665545793250985 
3.0900000000020964, -1.7663092273882235 
3.1000000000021175, -1.7660573581759487 
3.1100000000021386, -1.765787221203953 
3.1200000000021597, -1.7654908582029976 
3.130000000002181, -1.7651642977759923 
3.140000000002202, -1.7648080317130361 
3.150000000002223, -1.7644284646849069 
3.160000000002244, -1.764039466464056 
3.1700000000022652, -1.7636613355413235 
3.1800000000022863, -1.763314350633264 
3.1900000000023074, -1.763008622726277 
3.2000000000023285, -1.7627383158723842 
3.2100000000023496, -1.762486147084449 
3.2200000000023707, -1.7622334440415457 
3.230000000002392, -1.7619670149517486 
3.240000000002413, -1.7616803553388667 
3.250000000002434, -1.761372255335591 
3.260000000002455, -1.7610459189874537 
3.2700000000024763, -1.7607094537080745 
3.2800000000024974, -1.7603763530891539 
3.2900000000025185, -1.7600631088820164 
3.3000000000025396, -1.7597824308688843 
3.3100000000025607, -1.7595357623706918 
3.3200000000025818, -1.7593118350263093 
3.330000000002603, -1.759092649157537 
3.340000000002624, -1.7588612219184772 
3.350000000002645, -1.758605921140937 
3.360000000002666, -1.758321056077508 
3.3700000000026873, -1.7580059754274504 
3.3800000000027084, -1.7576644965807873 
3.3900000000027295, -1.7573050869926796 
3.4000000000027506, -1.7569408750245135 
3.4100000000027717, -1.7565876971203835 
3.420000000002793, -1.756259073153591 
3.430000000002814, -1.7559600752144024 
3.440000000002835, -1.7556848566782943 
3.450000000002856, -1.7554202774065064 
3.460000000002877, -1.7551522796066419 
3.4700000000028983, -1.7548701511033005 
3.4800000000029194, -1.7545675245391972 
3.4900000000029405, -1.7542421024894175 
3.5000000000029616, -1.7538962104807492 
3.5100000000029827, -1.7535387146708454 
3.520000000003004, -1.7531864663860006 
3.530000000003025, -1.7528612011948936 
3.540000000003046, -1.7525796251010406 
3.550000000003067, -1.7523425655649683 
3.5600000000030882, -1.7521337674536188 
3.5700000000031094, -1.7519296885498474 
3.5800000000031305, -1.7517105570871574 
3.5900000000031516, -1.7514651489114654 
3.6000000000031727, -1.7511900197369445 
3.6100000000031938, -1.750887125436903 
3.620000000003215, -1.750562258958449 
3.630000000003236, -1.7502245541946617 
3.640000000003257, -1.7498859276416958 
3.650000000003278, -1.7495589505351625 
3.6600000000032993, -1.7492527863976206 
3.6700000000033204, -1.7489692077445465 
3.6800000000033415, -1.7487017826269224 
3.6900000000033626, -1.7484389859461804 
3.7000000000033837, -1.7481686487261432 
3.710000000003405, -1.7478808625440752 
3.720000000003426, -1.7475688727664394 
3.730000000003447, -1.7472293975144393 
3.740000000003468, -1.7468639103397965 
3.750000000003489, -1.7464812283838693 
3.7600000000035103, -1.7460994755941481 
3.7700000000035314, -1.7457430732786405 
3.7800000000035525, -1.7454320591115475 
3.7900000000035736, -1.7451697528779886 
3.8000000000035947, -1.7449406601637107 
3.810000000003616, -1.7447208887374366 
3.820000000003637, -1.7444903168584946 
3.830000000003658, -1.7442377207944895 
3.840000000003679, -1.7439597283984878 
3.8500000000037002, -1.7436581974380974 
3.8600000000037213, -1.7433387127734268 
3.8700000000037424, -1.7430103199623825 
3.8800000000037635, -1.7426850357058377 
3.8900000000037847, -1.7423753238108883 
3.9000000000038058, -1.7420893778176616 
3.910000000003827, -1.7418270243732834 
3.920000000003848, -1.7415796503124625 
3.930000000003869, -1.7413341247387 
3.94000000000389, -1.7410774664658053 
3.9500000000039113, -1.7407996088903033 
3.9600000000039324, -1.7404941769678537 
3.9700000000039535, -1.740158668804926 
3.9800000000039746, -1.7397952795534746 
3.9900000000039957, -1.7394125406046748 
4.000000000004016, -1.7390263486491164 
4.010000000003993, -1.7386574956857086 
4.02000000000397, -1.7383238893304385 
4.030000000003946, -1.7380311366518106 
4.040000000003923, -1.737769653931517 
4.0500000000039, -1.737521264974984 
4.0600000000038765, -1.7372686692574022 
4.070000000003853, -1.7370005612667903 
4.08000000000383, -1.7367118379016098 
4.090000000003807, -1.7364021682226845 
4.100000000003783, -1.7360754250075832 
4.11000000000376, -1.7357403453652496 
4.120000000003737, -1.7354108196731435 
4.130000000003713, -1.7351030611178708 
4.14000000000369, -1.7348286851313126 
4.150000000003667, -1.7345878087655262 
4.1600000000036434, -1.7343684181334837 
4.17000000000362, -1.7341525728757599 
4.180000000003597, -1.7339237964066836 
4.1900000000035735, -1.7336710151277575 
4.20000000000355, -1.733388980356493 
4.210000000003527, -1.7330773345625723 
4.220000000003504, -1.7327399986922942 
4.23000000000348, -1.732385248870726 
4.240000000003457, -1.7320256403912455 
4.250000000003434, -1.73167618666595 
4.26000000000341, -1.731349815675614 
4.270000000003387, -1.7310517771457827 
4.280000000003364, -1.7307771545865318 
4.2900000000033405, -1.7305138336295744 
4.300000000003317, -1.7302482700689255 
4.310000000003294, -1.7299696704430505 
4.320000000003271, -1.7296711982897306 
4.330000000003247, -1.7293497976132124 
4.340000000003224, -1.729006623370966 
4.350000000003201, -1.7286488454388924 
4.360000000003177, -1.7282915431020704 
4.370000000003154, -1.7279560635099984 
4.380000000003131, -1.7276616617865739 
4.390000000003107, -1.7274139944964357 
4.400000000003084, -1.7272007917956356 
4.410000000003061, -1.7269993595621838 
4.4200000000030375, -1.7267882468770566 
4.430000000003014, -1.726553902744977 
4.440000000002991, -1.7262910309951855 
4.450000000002968, -1.726000275966967 
4.460000000002944, -1.725686265481432 
4.470000000002921, -1.7253568355062612 
4.480000000002898, -1.7250226806176883 
4.490000000002874, -1.7246959868492175 
4.500000000002851, -1.7243871555068757 
4.510000000002828, -1.7241007077851802 
4.520000000002804, -1.7238331867188155 
4.530000000002781, -1.723574814694826 
4.540000000002758, -1.7233135153139627 
4.5500000000027345, -1.723038405276823 
4.560000000002711, -1.7227413578358242 
4.570000000002688, -1.7224173709144348 
4.580000000002665, -1.7220652281210775 
4.590000000002641, -1.721689362137079 
4.600000000002618, -1.7213023197628867 
4.610000000002595, -1.7209249771036526 
4.620000000002571, -1.7205806155079872 
4.630000000002548, -1.7202832809753192 
4.640000000002525, -1.720029127334185 
4.6500000000025015, -1.7197994707860342 
4.660000000002478, -1.7195722337411232 
4.670000000002455, -1.719331174420601 
4.6800000000024315, -1.719068232612564 
4.690000000002408, -1.7187817446574993 
4.700000000002385, -1.7184743740946367 
4.710000000002362, -1.7181523627112916 
4.720000000002338, -1.7178256221953454 
4.730000000002315, -1.7175069342485334 
4.740000000002292, -1.7172085835731354 
4.750000000002268, -1.7169370621577875 
4.760000000002245, -1.7166894976653986 
4.770000000002222, -1.7164548937918045 
4.7800000000021985, -1.716218971387303 
4.790000000002175, -1.7159688395653432 
4.800000000002152, -1.7156953109240665 
4.810000000002129, -1.7153933046340775 
4.820000000002105, -1.7150618020243016 
4.830000000002082, -1.7147043662131167 
4.840000000002059, -1.7143301845370171 
4.850000000002035, -1.7139543223292606 
4.860000000002012, -1.7135950107627973 
4.870000000001989, -1.7132670440742328 
4.880000000001965, -1.712974531973829 
4.890000000001942, -1.7127090483860516 
4.900000000001919, -1.7124550131533571 
4.9100000000018955, -1.7121972360952966 
4.920000000001872, -1.7119251787716894 
4.930000000001849, -1.7116333954912082 
4.940000000001826, -1.7113206561004006 
