t, s[1].omega / s[0].omega 
0, -4.899991597175321 
0.009999999999999995, -4.899111814542074 
0.019999999999999934, -4.898205580906935 
0.029999999999999874, -4.897390115444473 
0.04000000000000012, -4.89660944412457 
0.050000000000000405, -4.895770512085526 
0.06000000000000069, -4.894887930885981 
0.07000000000000098, -4.894036867851333 
0.08000000000000126, -4.893233001046181 
0.09000000000000155, -4.892404165034116 
0.10000000000000184, -4.891541072355687 
0.11000000000000212, -4.890696722019474 
0.12000000000000241, -4.889885500383053 
0.130000000000002, -4.889054530470488 
0.1400000000000009, -4.888183154347791 
0.1499999999999998, -4.887334642937735 
0.1599999999999987, -4.886542946984833 
0.1699999999999976, -4.88573113499448 
0.1799999999999965, -4.884853868630039 
0.1899999999999954, -4.883960461673527 
0.1999999999999943, -4.883164314733039 
0.2099999999999932, -4.882393969757239 
0.2199999999999921, -4.881553169411378 
0.229999999999991, -4.880650774930153 
0.2399999999999899, -4.8797922123801545 
0.2499999999999888, -4.879015116146482 
0.2599999999999877, -4.878208489417074 
0.2699999999999866, -4.877344638892698 
0.2799999999999855, -4.876477690412896 
0.2899999999999844, -4.875664193200587 
0.2999999999999833, -4.87485529744677 
0.3099999999999822, -4.87400646249694 
0.3199999999999811, -4.87315270503727 
0.32999999999998, -4.872337713030421 
0.3399999999999789, -4.871527074024823 
0.3499999999999778, -4.870673922980872 
0.35999999999997667, -4.869805203234043 
0.36999999999997557, -4.868998893126078 
0.37999999999997447, -4.868214660806839 
0.38999999999997337, -4.867374985756213 
0.39999999999997227, -4.86647699545568 
0.40999999999997117, -4.865627830827425 
0.41999999999997006, -4.8648681425072935 
0.42999999999996896, -4.864073401860578 
0.43999999999996786, -4.8632022020599806 
0.44999999999996676, -4.862310863041304 
0.45999999999996566, -4.861504025808287 
0.46999999999996456, -4.8607249668924535 
0.47999999999996346, -4.859892460086909 
0.48999999999996235, -4.859024980544747 
0.49999999999996125, -4.8581891675423545 
0.5099999999999602, -4.857390245639357 
0.519999999999959, -4.8565648313641026 
0.529999999999958, -4.855709811831572 
0.5399999999999568, -4.854880342920724 
0.5499999999999557, -4.8540817830925205 
0.5599999999999546, -4.853257687412451 
0.5699999999999535, -4.852389006350416 
0.5799999999999524, -4.851545685768343 
0.5899999999999513, -4.850769967373359 
0.5999999999999502, -4.849974457873339 
0.6099999999999491, -4.849108370531291 
0.619999999999948, -4.848214339362407 
0.6299999999999469, -4.847415540767215 
0.6399999999999458, -4.846659113130901 
0.6499999999999447, -4.8458381014850405 
0.6599999999999436, -4.844954019222329 
0.6699999999999425, -4.844095444196212 
0.6799999999999414, -4.843315376383995 
0.6899999999999403, -4.8425198893450405 
0.6999999999999392, -4.841672739258824 
0.7099999999999381, -4.840818726320073 
0.719999999999937, -4.840009043518567 
0.7299999999999359, -4.839207393171927 
0.7399999999999348, -4.838368061519807 
0.7499999999999337, -4.837521232171172 
0.7599999999999326, -4.836716742609422 
0.7699999999999315, -4.835920900252907 
0.7799999999999304, -4.835080223416862 
0.7899999999999293, -4.834208518569439 
0.7999999999999282, -4.833399011692301 
0.8099999999999271, -4.832636428193618 
0.819999999999926, -4.831824302856448 
0.8299999999999249, -4.830941032661187 
0.8399999999999238, -4.830069807398717 
0.8499999999999227, -4.829303909322723 
0.8599999999999216, -4.828536314166348 
0.8699999999999205, -4.827696969241332 
0.8799999999999194, -4.826817075617168 
0.8899999999999183, -4.825991705079121 
0.8999999999999172, -4.825217014937645 
0.9099999999999161, -4.824406222946292 
0.919999999999915, -4.823556292873162 
0.9299999999999139, -4.822722658548431 
0.9399999999999128, -4.821927196978939 
0.9499999999999117, -4.821116879859287 
0.9599999999999106, -4.820270371685755 
0.9699999999999095, -4.819440136547732 
0.9799999999999084, -4.818654116746701 
0.9899999999999073, -4.817854025000324 
0.9999999999999062, -4.816999450832254 
1.0099999999999052, -4.816135103026868 
1.019999999999904, -4.815354928278536 
1.029999999999903, -4.814595015098726 
1.039999999999902, -4.81376892091668 
1.0499999999999008, -4.812879792613795 
1.0599999999998997, -4.81203561321357 
1.0699999999998986, -4.8112839153260945 
1.0799999999998975, -4.8105040304277935 
1.0899999999998964, -4.809656381082912 
1.0999999999998953, -4.808790643488576 
1.1099999999998942, -4.807987917233696 
1.119999999999893, -4.807209494147955 
1.129999999999892, -4.806389059789639 
1.1399999999998909, -4.805544588349678 
1.1499999999998898, -4.804730144312633 
1.1599999999998887, -4.80394040872562 
1.1699999999998876, -4.803121759536422 
1.1799999999998865, -4.802273806129832 
1.1899999999998854, -4.801461913645998 
1.1999999999998843, -4.8006883705480385 
1.2099999999998832, -4.79988312331216 
1.219999999999882, -4.799019230785655 
1.229999999999881, -4.79816583686347 
1.2399999999998799, -4.797406124202544 
1.2499999999998788, -4.796646120856275 
1.2599999999998777, -4.795812457278247 
1.2699999999998766, -4.794926260951121 
1.2799999999998755, -4.794102741751661 
1.2899999999998744, -4.793354260561314 
1.2999999999998733, -4.792566301613442 
1.3099999999998722, -4.791718762425132 
1.319999999999871, -4.790869363387292 
1.32999999999987, -4.7900789957963195 
1.3399999999998689, -4.78929554711363 
1.3499999999998678, -4.788470837160723 
1.3599999999998666, -4.787635427653331 
1.3699999999998655, -4.78683624437366 
1.3799999999998644, -4.786048975426143 
1.3899999999998633, -4.785224469986607 
1.3999999999998622, -4.784377550467636 
1.4099999999998611, -4.783581575187442 
1.41999999999986, -4.782817986810584 
1.429999999999859, -4.782010594429875 
1.4399999999998578, -4.781141892353891 
1.4499999999998567, -4.78029632577424 
1.4599999999998556, -4.779548782039255 
1.4699999999998545, -4.778790557518368 
1.4799999999998534, -4.777956867616105 
1.4899999999998523, -4.77707842228401 
1.4999999999998512, -4.776266074168221 
1.5099999999998501, -4.7755162438563215 
1.519999999999849, -4.774725397119615 
1.529999999999848, -4.7738833333204145 
1.5399999999998468, -4.773048116433553 
1.5499999999998457, -4.772263923342883 
1.5599999999998446, -4.771477324216541 
1.5699999999998435, -4.770651866740514 
1.5799999999998424, -4.769825396889221 
1.5899999999998413, -4.769038229072822 
1.5999999999998402, -4.768253996678167 
1.6099999999998391, -4.767426670654709 
1.619999999999838, -4.766579715030859 
1.629999999999837, -4.765794874305291 
1.6399999999998358, -4.765041844816333 
1.6499999999998347, -4.764237869030002 
1.6599999999998336, -4.763368849320932 
1.6699999999998325, -4.762524051442377 
1.6799999999998314, -4.761781146869827 
1.6899999999998303, -4.761028221524475 
1.6999999999998292, -4.760201596624523 
1.709999999999828, -4.759333214204152 
1.719999999999827, -4.758523971471406 
1.729999999999826, -4.7577712816123 
1.7399999999998248, -4.756981874701265 
1.7499999999998237, -4.756147793233319 
1.7599999999998226, -4.755323536258215 
1.7699999999998215, -4.754542917517933 
1.7799999999998204, -4.753755989598301 
1.7899999999998193, -4.75293150905659 
1.7999999999998182, -4.75211123274613 
1.809999999999817, -4.751334186664477 
1.819999999999816, -4.750556076402144 
1.8299999999998149, -4.749729763372846 
1.8399999999998138, -4.748879418787575 
1.8499999999998127, -4.748098186432807 
1.8599999999998116, -4.747357587323362 
1.8699999999998105, -4.746564263308353 
1.8799999999998094, -4.745700852823717 
1.8899999999998083, -4.744849844278631 
1.8999999999998072, -4.744102926224629 
1.909999999999806, -4.743358050156517 
1.919999999999805, -4.742544225190183 
1.9299999999998039, -4.741687722754254 
1.9399999999998028, -4.740876609112395 
1.9499999999998017, -4.7401202523848855 
1.9599999999998006, -4.739335273823353 
1.9699999999997995, -4.738509704615664 
1.9799999999997984, -4.737693475779481 
1.9899999999997973, -4.736916026677511 
1.9999999999997962, -4.736131985124537 
2.0099999999998173, -4.735309435626472 
2.0199999999998384, -4.734490415190649 
2.0299999999998595, -4.733721645853605 
2.0399999999998806, -4.732954429408507 
2.0499999999999017, -4.7321349546361 
2.059999999999923, -4.731278817503761 
2.069999999999944, -4.730489322506069 
2.079999999999965, -4.729761008289838 
2.089999999999986, -4.728986049076001 
2.100000000000007, -4.728136606699976 
2.1100000000000283, -4.7272774683977214 
2.1200000000000494, -4.726515761482437 
2.1300000000000705, -4.725778718004806 
2.1400000000000916, -4.72498157179795 
2.1500000000001127, -4.7241391008959495 
2.160000000000134, -4.723324698300294 
2.170000000000155, -4.722563581969331 
2.180000000000176, -4.721784852013136 
2.190000000000197, -4.72096734060919 
2.2000000000002182, -4.720156210603797 
2.2100000000002393, -4.719382468914118 
2.2200000000002604, -4.7186050958189565 
2.2300000000002815, -4.717786548703686 
2.2400000000003026, -4.716962288287654 
2.2500000000003237, -4.716196861584627 
2.260000000000345, -4.715445761927181 
2.270000000000366, -4.714641750201109 
2.280000000000387, -4.713783600429624 
2.290000000000408, -4.712970902559356 
2.3000000000004293, -4.712247265213712 
2.3100000000004504, -4.711496657986522 
2.3200000000004715, -4.710670716224543 
2.3300000000004926, -4.709810397585178 
2.3400000000005137, -4.709023996098489 
2.3500000000005348, -4.708289518638747 
2.360000000000556, -4.707510735230079 
2.370000000000577, -4.706684312014931 
2.380000000000598, -4.705868407534878 
2.390000000000619, -4.705101361900709 
2.4000000000006403, -4.704329880680532 
2.4100000000006614, -4.703520248192895 
2.4200000000006825, -4.702710272325408 
2.4300000000007036, -4.701940029075771 
2.4400000000007247, -4.70117373696554 
2.450000000000746, -4.700364544366595 
2.460000000000767, -4.699530565471874 
2.470000000000788, -4.698755944956667 
2.480000000000809, -4.698023156759804 
2.49000000000083, -4.697244984107727 
2.5000000000008513, -4.696398168812677 
2.5100000000008724, -4.695554785806231 
2.5200000000008935, -4.6948151359293435 
2.5300000000009146, -4.694088893171354 
2.5400000000009357, -4.693294144945226 
2.550000000000957, -4.692446483158272 
2.560000000000978, -4.691634112091412 
2.570000000000999, -4.690891263495306 
2.58000000000102, -4.690129734362765 
2.5900000000010412, -4.689320623803999 
2.6000000000010624, -4.688506448510943 
2.6100000000010835, -4.687733159161552 
2.6200000000011046, -4.686969295789492 
2.6300000000011257, -4.686169370777844 
2.6400000000011468, -4.685355879790184 
2.650000000001168, -4.68458476068996 
2.660000000001189, -4.683833482701713 
2.67000000000121, -4.683042882134646 
2.680000000001231, -4.682204637768734 
2.6900000000012523, -4.681401100289623 
2.7000000000012734, -4.680676905059116 
2.7100000000012945, -4.67993311838034 
2.7200000000013156, -4.679116116161207 
2.7300000000013367, -4.6782573334102215 
2.740000000001358, -4.67747449101415 
2.750000000001379, -4.676758857467686 
2.7600000000014, -4.675998234802024 
2.770000000001421, -4.675176267314961 
2.780000000001442, -4.6743504033316 
2.7900000000014633, -4.67358726633312 
2.8000000000014844, -4.672837710179222 
2.8100000000015055, -4.67204674159923 
2.8200000000015266, -4.6712365376604685 
2.8300000000015477, -4.670457473632932 
2.840000000001569, -4.669700908187696 
2.85000000000159, -4.668915602143785 
2.860000000001611, -4.6680981616482615 
2.870000000001632, -4.667313415447664 
2.8800000000016532, -4.666575838069301 
2.8900000000016743, -4.66581438196832 
2.9000000000016954, -4.664991329483328 
2.9100000000017165, -4.664151631251027 
2.9200000000017377, -4.663402714030715 
2.9300000000017588, -4.662691193526376 
2.94000000000178, -4.661918371724772 
2.950000000001801, -4.6610774771583925 
2.960000000001822, -4.660248555172631 
2.970000000001843, -4.659511250660723 
2.9800000000018643, -4.65877858470104 
2.9900000000018854, -4.6579890186878385 
3.0000000000019065, -4.657168540627256 
3.0100000000019276, -4.656382723418489 
3.0200000000019487, -4.65563488001394 
3.03000000000197, -4.654862736088411 
3.040000000001991, -4.654058362382877 
3.050000000002012, -4.653271559757854 
3.060000000002033, -4.652520375550479 
3.070000000002054, -4.651756034798725 
3.0800000000020753, -4.650946041481833 
3.0900000000020964, -4.650133285291295 
3.1000000000021175, -4.649390329944277 
3.1100000000021386, -4.64866348202683 
3.1200000000021597, -4.647879064432033 
3.130000000002181, -4.647033721748434 
3.140000000002202, -4.646222975641715 
3.150000000002223, -4.645510803560117 
3.160000000002244, -4.644784897310997 
3.1700000000022652, -4.643987784756779 
3.1800000000022863, -4.643150071455814 
3.1900000000023074, -4.642364558032712 
3.2000000000023285, -4.641636786710796 
3.2100000000023496, -4.640879214071899 
3.2200000000023707, -4.640077536023462 
3.230000000002392, -4.639279385150781 
3.240000000002413, -4.638522508789551 
3.250000000002434, -4.637767597250724 
3.260000000002455, -4.636975503615574 
3.2700000000024763, -4.636175776821213 
3.2800000000024974, -4.635420806867974 
3.2900000000025185, -4.634680719761404 
3.3000000000025396, -4.633898462529731 
3.3100000000025607, -4.633070243493587 
3.3200000000025818, -4.632281263126719 
3.330000000002603, -4.63157062539322 
3.340000000002624, -4.630838456036964 
3.350000000002645, -4.630033333828428 
3.360000000002666, -4.629186301414615 
3.3700000000026873, -4.628412430897173 
3.3800000000027084, -4.627707688070921 
3.3900000000027295, -4.62696135866463 
3.4000000000027506, -4.626154327073874 
3.4100000000027717, -4.6253394627899755 
3.420000000002793, -4.624583735508557 
3.430000000002814, -4.623846587549949 
3.440000000002835, -4.623070454309144 
3.450000000002856, -4.622272000120312 
3.460000000002877, -4.62150168325362 
3.4700000000028983, -4.620757432321733 
3.4800000000029194, -4.619988536172081 
3.4900000000029405, -4.619182844455056 
3.5000000000029616, -4.618400490561307 
3.5100000000029827, -4.61767365888992 
3.520000000003004, -4.616934093456077 
3.530000000003025, -4.6161336350103825 
3.540000000003046, -4.615297483991918 
3.550000000003067, -4.6145367059737 
3.5600000000030882, -4.613841237216321 
3.5700000000031094, -4.61309918537631 
3.5800000000031305, -4.612284780205242 
3.5900000000031516, -4.611453796818754 
3.6000000000031727, -4.610704857975202 
3.6100000000031938, -4.609990896333606 
3.620000000003215, -4.609228995648134 
3.630000000003236, -4.608425323113193 
3.640000000003257, -4.607637711863744 
3.650000000003278, -4.6068954190611695 
3.6600000000032993, -4.606145340147833 
3.6700000000033204, -4.605358096852755 
3.6800000000033415, -4.6045719079897856 
3.6900000000033626, -4.603826313509802 
3.7000000000033837, -4.60308582761287 
3.710000000003405, -4.602302747015992 
3.720000000003426, -4.601488196763687 
3.730000000003447, -4.600727013141222 
3.740000000003468, -4.600021497039709 
3.750000000003489, -4.599280280531018 
3.7600000000035103, -4.598468388579784 
3.7700000000035314, -4.597633920038406 
3.7800000000035525, -4.596891989244772 
3.7900000000035736, -4.596197723228309 
3.8000000000035947, -4.595448216812704 
3.810000000003616, -4.594637216694613 
3.820000000003637, -4.593829113918204 
3.830000000003658, -4.593091054705371 
3.840000000003679, -4.592364294792311 
3.8500000000037002, -4.591593458926254 
3.8600000000037213, -4.590800152763135 
3.8700000000037424, -4.59003585676185 
3.8800000000037635, -4.589298757360505 
3.8900000000037847, -4.588537671662658 
3.9000000000038058, -4.5877432973832954 
3.910000000003827, -4.586971839355638 
3.920000000003848, -4.586247471491104 
3.930000000003869, -4.5855096122167085 
3.94000000000389, -4.584715482356004 
3.9500000000039113, -4.583893658283748 
3.9600000000039324, -4.583147919843485 
3.9700000000039535, -4.582457237146057 
3.9800000000039746, -4.581717758167618 
3.9900000000039957, -4.580905853225784 
4.000000000004016, -4.580080161925819 
4.010000000003993, -4.579343944276302 
4.02000000000397, -4.57864290632165 
4.030000000003946, -4.577889983714564 
4.040000000003923, -4.577089953732298 
4.0500000000039, -4.576303347750916 
4.0600000000038765, -4.575568963419119 
4.070000000003853, -4.574831914479368 
4.08000000000383, -4.574056256678144 
4.090000000003807, -4.573274250567886 
4.100000000003783, -4.5725290541212384 
4.11000000000376, -4.57179625511535 
4.120000000003737, -4.571027353348073 
4.130000000003713, -4.570225465120146 
4.14000000000369, -4.5694649461725145 
4.150000000003667, -4.568760327054479 
4.1600000000036434, -4.568029636922466 
4.17000000000362, -4.567232009440437 
4.180000000003597, -4.566403988406124 
4.1900000000035735, -4.565660410988519 
4.20000000000355, -4.5649767234385745 
4.210000000003527, -4.564243314694815 
4.220000000003504, -4.5634422842514395 
4.23000000000348, -4.562630406530933 
4.240000000003457, -4.561891968517115 
4.250000000003434, -4.561181558176697 
4.26000000000341, -4.560427791192342 
4.270000000003387, -4.559639925200353 
4.280000000003364, -4.5588709979289925 
4.2900000000033405, -4.5581395643837475 
4.300000000003317, -4.557396429988199 
4.310000000003294, -4.556616666068853 
4.320000000003271, -4.5558420961550015 
4.330000000003247, -4.555114085835427 
4.340000000003224, -4.5543899317662255 
4.350000000003201, -4.553618546406867 
4.360000000003177, -4.552806743173169 
4.370000000003154, -4.552045642204124 
4.380000000003131, -4.551357588242702 
4.390000000003107, -4.550641253290424 
4.400000000003084, -4.549852286181726 
4.410000000003061, -4.549024712444225 
4.4200000000030375, -4.5482700338566495 
4.430000000003014, -4.5475829238904115 
4.440000000002991, -4.54685677259105 
4.450000000002968, -4.546071825187534 
4.460000000002944, -4.545276380936709 
4.470000000002921, -4.544535137299624 
4.480000000002898, -4.5438167431614325 
4.490000000002874, -4.543062863112547 
4.500000000002851, -4.542283690200758 
4.510000000002828, -4.5415288471128195 
4.520000000002804, -4.54080385323261 
4.530000000002781, -4.5400600551495245 
4.540000000002758, -4.539275157654609 
4.5500000000027345, -4.538498696647738 
4.560000000002711, -4.5377852813091515 
4.570000000002688, -4.537077786294117 
4.580000000002665, -4.53631422072425 
4.590000000002641, -4.535495805897218 
4.600000000002618, -4.534717179224811 
4.610000000002595, -4.534033075203602 
4.620000000002571, -4.533334901836195 
4.630000000002548, -4.532565942077637 
4.640000000002525, -4.531751344125106 
4.6500000000025015, -4.530983100855897 
4.660000000002478, -4.530283257787525 
4.670000000002455, -4.529561930311464 
4.6800000000024315, -4.5287918155964135 
4.690000000002408, -4.528011985229496 
4.700000000002385, -4.527271836085887 
4.710000000002362, -4.526549778968783 
4.720000000002338, -4.525796127326904 
4.730000000002315, -4.525018946373259 
4.740000000002292, -4.524273148087041 
4.750000000002268, -4.523560586612122 
4.760000000002245, -4.522824780932362 
4.770000000002222, -4.5220372990578666 
4.7800000000021985, -4.521245045204958 
4.790000000002175, -4.5205338146677905 
4.800000000002152, -4.519849654718299 
4.810000000002129, -4.5191081620240885 
4.820000000002105, -4.51829905355616 
4.830000000002082, -4.5174971038385845 
4.840000000002059, -4.516793730139247 
4.850000000002035, -4.51610769340029 
4.860000000002012, -4.515362365114556 
4.870000000001989, -4.51456990326078 
4.880000000001965, -4.513797308402525 
4.890000000001942, -4.51308239496382 
4.900000000001919, -4.512362713326195 
4.9100000000018955, -4.511602660907739 
4.920000000001872, -4.510833516706808 
4.930000000001849, -4.510098915217188 
4.940000000001826, -4.509380314488807 
4.950000000001802, -4.50862993238468 
4.960000000001779, -4.507847297709027 
4.970000000001756, -4.5070980812660295 
4.980000000001732, -4.506402002914471 
4.990000000001709, -4.505687218673535 
5.000000000001686, -4.5049103521240985 
5.0100000000016625, -4.504098134598859 
5.020000000001639, -4.503359873988337 
5.030000000001616, -4.502691241860111 
