t, s[1].omega / s[0].omega 
0, -2.4749962317124607 
0.009999999999999995, -2.474602126093174 
0.019999999999999934, -2.4741787896823713 
0.029999999999999874, -2.4737426496468435 
0.04000000000000012, -2.473320565049766 
0.050000000000000405, -2.4729353079430387 
0.06000000000000069, -2.4725854088020194 
0.07000000000000098, -2.4722476044951898 
0.08000000000000126, -2.471898697085137 
0.09000000000000155, -2.4715279052071217 
0.10000000000000184, -2.47113633265995 
0.11000000000000212, -2.470734774981514 
0.12000000000000241, -2.4703408728170895 
0.130000000000002, -2.4699696097535617 
0.1400000000000009, -2.469621284850069 
0.1499999999999998, -2.4692811025724075 
0.1599999999999987, -2.468930181877346 
0.1699999999999976, -2.4685546467247437 
0.1799999999999965, -2.4681485042868223 
0.1899999999999954, -2.467716136412309 
0.1999999999999943, -2.467277502217553 
0.2099999999999932, -2.466866100681397 
0.2199999999999921, -2.46650537365612 
0.229999999999991, -2.466184164090144 
0.2399999999999899, -2.4658692096234214 
0.2499999999999888, -2.4655342814244534 
0.2599999999999877, -2.465169824025481 
0.2699999999999866, -2.4647785171254144 
0.2799999999999855, -2.464371451154279 
0.2899999999999844, -2.4639659213870475 
0.2999999999999833, -2.46357878739705 
0.3099999999999822, -2.4632153537157513 
0.3199999999999811, -2.4628650664873426 
0.32999999999998, -2.4625102639029293 
0.3399999999999789, -2.462137251697605 
0.3499999999999778, -2.461740926092792 
0.35999999999997667, -2.461326938954166 
0.36999999999997557, -2.4609144501178326 
0.37999999999997447, -2.4605304738520144 
0.38999999999997337, -2.460188403105529 
0.39999999999997227, -2.4598733397197856 
0.40999999999997117, -2.459556371257691 
0.41999999999997006, -2.4592154747491546 
0.42999999999996896, -2.458841353870917 
0.43999999999996786, -2.4584350234938865 
0.44999999999996676, -2.4580073083527076 
0.45999999999996566, -2.4575798320367372 
0.46999999999996456, -2.4571781757224405 
0.47999999999996346, -2.4568134273491515 
0.48999999999996235, -2.456472052290879 
0.49999999999996125, -2.456129972165111 
0.5099999999999602, -2.455770535699298 
0.519999999999959, -2.4553891675761714 
0.529999999999958, -2.4549917420582945 
0.5399999999999568, -2.454593256037273 
0.5499999999999557, -2.4542122453675317 
0.5599999999999546, -2.453857781696793 
0.5699999999999535, -2.4535212645403908 
0.5799999999999524, -2.4531835236378536 
0.5899999999999513, -2.452826943174782 
0.5999999999999502, -2.452441105982781 
0.6099999999999491, -2.4520241480852514 
0.619999999999948, -2.4515862200656056 
0.6299999999999469, -2.4511535684452177 
0.6399999999999458, -2.4507591124923813 
0.6499999999999447, -2.4504145166556905 
0.6599999999999436, -2.4500978339790516 
0.6699999999999425, -2.449776768609424 
0.6799999999999414, -2.4494318430504807 
0.6899999999999403, -2.449058823416063 
0.6999999999999392, -2.448663729860885 
0.7099999999999381, -2.4482600599122986 
0.719999999999937, -2.4478652924112674 
0.7299999999999359, -2.447492017030704 
0.7399999999999348, -2.4471387329225216 
0.7499999999999337, -2.4467911212521796 
0.7599999999999326, -2.446432506141503 
0.7699999999999315, -2.446052013082519 
0.7799999999999304, -2.4456474914650017 
0.7899999999999293, -2.4452285550420356 
0.7999999999999282, -2.444819027613467 
0.8099999999999271, -2.4444464597099227 
0.819999999999926, -2.4441174140675064 
0.8299999999999249, -2.4438096177875335 
0.8399999999999238, -2.443493062351366 
0.8499999999999227, -2.44314885761663 
0.8599999999999216, -2.442771284787377 
0.8699999999999205, -2.4423644321795575 
0.8799999999999194, -2.4419416310406286 
0.8899999999999183, -2.441524821282017 
0.8999999999999172, -2.4411354126677938 
0.9099999999999161, -2.440778043196832 
0.919999999999915, -2.4404367682750787 
0.9299999999999139, -2.4400901333833453 
0.9399999999999128, -2.4397248887283616 
0.9499999999999117, -2.4393386722043404 
0.9599999999999106, -2.4389393235173746 
0.9699999999999095, -2.438544024246896 
0.9799999999999084, -2.4381717435489874 
0.9899999999999073, -2.437828349564993 
0.9999999999999062, -2.437500766696413 
1.0099999999999052, -2.4371677468571127 
1.019999999999904, -2.4368122290161884 
1.029999999999903, -2.4364253950504393 
1.039999999999902, -2.436007244019849 
1.0499999999999008, -2.4355697773324616 
1.0599999999998997, -2.4351398763815615 
1.0699999999998986, -2.434748336667603 
1.0799999999998975, -2.434403659558099 
1.0899999999998964, -2.4340836051780417 
1.0999999999998953, -2.4337582322987408 
1.1099999999998942, -2.433410219933261 
1.119999999999893, -2.433036406318321 
1.129999999999892, -2.4326434138202555 
1.1399999999998909, -2.432245110099013 
1.1499999999998898, -2.431858310371505 
1.1599999999998887, -2.4314933062567237 
1.1699999999998876, -2.431146113860254 
1.1799999999998865, -2.430801631236133 
1.1899999999998854, -2.430443714888666 
1.1999999999998843, -2.4300619874909213 
1.2099999999998832, -2.429654402356737 
1.219999999999882, -2.4292308183423983 
1.229999999999881, -2.428816242099861 
1.2399999999998799, -2.428440476709285 
1.2499999999998788, -2.428111750831053 
1.2599999999998777, -2.4278072350640003 
1.2699999999998766, -2.427495367953118 
1.2799999999998755, -2.427156602747912 
1.2899999999998744, -2.426785579238407 
1.2999999999998733, -2.4263868547118883 
1.3099999999998722, -2.425973244055239 
1.319999999999871, -2.4255644639275777 
1.32999999999987, -2.425179190096581 
1.3399999999998689, -2.4248217857821968 
1.3499999999998678, -2.4244787858289687 
1.3599999999998666, -2.424130892179755 
1.3699999999998655, -2.423765101462323 
1.3799999999998644, -2.423378140063897 
1.3899999999998633, -2.4229769971124426 
1.3999999999998622, -2.422579388816454 
1.4099999999998611, -2.422206891799435 
1.41999999999986, -2.421867983543428 
1.429999999999859, -2.421549267947183 
1.4399999999998578, -2.4212270755869705 
1.4499999999998567, -2.420882479622933 
1.4599999999998556, -2.4205060711902955 
1.4699999999998545, -2.420097413355736 
1.4799999999998534, -2.419666512523984 
1.4899999999998523, -2.4192363811700344 
1.4999999999998512, -2.418836084574789 
1.5099999999998501, -2.4184790900158175 
1.519999999999849, -2.4181504483182996 
1.529999999999848, -2.4178227376958996 
1.5399999999998468, -2.417476985014431 
1.5499999999998457, -2.4171075965415234 
1.5599999999998446, -2.4167192532325474 
1.5699999999998435, -2.4163246464071833 
1.5799999999998424, -2.415940683907118 
1.5899999999998413, -2.4155789479032936 
1.5999999999998402, -2.415236752667969 
1.6099999999998391, -2.4148992477493376 
1.619999999999838, -2.414549413094593 
1.629999999999837, -2.4141752892588886 
1.6399999999998358, -2.4137724351473 
1.6499999999998347, -2.4133468691001068 
1.6599999999998336, -2.4129198187851952 
1.6699999999998325, -2.4125235102065306 
1.6799999999998314, -2.412177236385013 
1.6899999999998303, -2.4118671848869706 
1.6999999999998292, -2.411560973235455 
1.709999999999828, -2.411233942999804 
1.719999999999827, -2.410877033501202 
1.729999999999826, -2.4104925735950493 
1.7399999999998248, -2.410090860106712 
1.7499999999998237, -2.4096885144203033 
1.7599999999998226, -2.4093030091063077 
1.7699999999998215, -2.4089420180115986 
1.7799999999998204, -2.4085973970771852 
1.7899999999998193, -2.408252066521494 
1.7999999999998182, -2.4078913783869456 
1.809999999999817, -2.407508559163915 
1.819999999999816, -2.4071063788039564 
1.8299999999998149, -2.4066995658291166 
1.8399999999998138, -2.4063127801209836 
1.8499999999998127, -2.4059646486055652 
1.8599999999998116, -2.4056494830806727 
1.8699999999998105, -2.405342157917983 
1.8799999999998094, -2.4050181711696563 
1.8899999999998083, -2.4046641063617096 
1.8999999999998072, -2.4042770279514722 
1.909999999999806, -2.4038629720470475 
1.919999999999805, -2.4034381408599907 
1.9299999999998039, -2.4030271845607083 
1.9399999999998028, -2.402650225359048 
1.9499999999998017, -2.4023060974968518 
1.9599999999998006, -2.401974295266995 
1.9699999999997995, -2.4016333232762705 
1.9799999999997984, -2.4012721139008066 
1.9899999999997973, -2.4008904074696984 
1.9999999999997962, -2.400497256464438 
2.0099999999998173, -2.4001093377360645 
2.0199999999998384, -2.399743211953563 
2.0299999999998595, -2.3994027535461973 
2.0399999999998806, -2.3990755239149153 
2.0499999999999017, -2.39874233476536 
2.059999999999923, -2.3983875657787133 
2.069999999999944, -2.3980028387036687 
2.079999999999965, -2.397588139452015 
2.089999999999986, -2.3971554435370033 
2.100000000000007, -2.3967315867073085 
2.1100000000000283, -2.396347114801393 
2.1200000000000494, -2.396010326064046 
2.1300000000000705, -2.3956989425475177 
2.1400000000000916, -2.3953826705618146 
2.1500000000001127, -2.3950435098779446 
2.160000000000134, -2.3946775627997927 
2.170000000000155, -2.394290526826356 
2.180000000000176, -2.3938951524377168 
2.190000000000197, -2.3935080113358884 
2.2000000000002182, -2.393141394704316 
2.2100000000002393, -2.3927946965740072 
2.2200000000002604, -2.3924549133086925 
2.2300000000002815, -2.392105795436496 
2.2400000000003026, -2.3917357045837666 
2.2500000000003237, -2.391340590996525 
2.260000000000345, -2.390926665763336 
2.270000000000366, -2.3905140956713327 
2.280000000000387, -2.3901319147363904 
2.290000000000408, -2.3897959759800584 
2.3000000000004293, -2.3894922095544824 
2.3100000000004504, -2.389190303669765 
2.3200000000004715, -2.3888666853144853 
2.3300000000004926, -2.3885116849384964 
2.3400000000005137, -2.3881263152009957 
2.3500000000005348, -2.387719821357711 
2.360000000000556, -2.387309286762585 
2.370000000000577, -2.386915361264652 
2.380000000000598, -2.386550274959669 
2.390000000000619, -2.3862080217906922 
2.4000000000006403, -2.3858701937505193 
2.4100000000006614, -2.3855199915310936 
2.4200000000006825, -2.385149376513842 
2.4300000000007036, -2.384759827080172 
2.4400000000007247, -2.38436295197626 
2.450000000000746, -2.3839789179802593 
2.460000000000767, -2.383625168044105 
2.470000000000788, -2.38330110262072 
2.480000000000809, -2.3829880146189226 
2.49000000000083, -2.3826636724380617 
2.5000000000008513, -2.3823130621700552 
2.5100000000008724, -2.381930093852047 
2.5200000000008935, -2.38151732853841 
2.5300000000009146, -2.3810883437169093 
2.5400000000009357, -2.3806686874784466 
2.550000000000957, -2.3802846441060583 
2.560000000000978, -2.3799418323874693 
2.570000000000999, -2.3796203545293877 
2.58000000000102, -2.3792942926590315 
2.5900000000010412, -2.3789482944253466 
2.6000000000010624, -2.3785792950746156 
2.6100000000010835, -2.378193457130333 
2.6200000000011046, -2.377804274157529 
2.6300000000011257, -2.3774282008997436 
2.6400000000011468, -2.377074890330433 
2.650000000001168, -2.376739689879536 
2.660000000001189, -2.3764072070373112 
2.67000000000121, -2.3760610438784413 
2.680000000001231, -2.3756900513573567 
2.6900000000012523, -2.3752903595417907 
2.7000000000012734, -2.3748682380950554 
2.7100000000012945, -2.37444458579787 
2.7200000000013156, -2.3740508195586303 
2.7300000000013367, -2.3737062863848206 
2.740000000001358, -2.373398679817795 
2.750000000001379, -2.3730968377978425 
2.7600000000014, -2.3727760533648685 
2.770000000001421, -2.372426631059661 
2.780000000001442, -2.3720501681562354 
2.7900000000014633, -2.3716559950867055 
2.8000000000014844, -2.371259520899339 
2.8100000000015055, -2.3708775887607927 
2.8200000000015266, -2.3705189565338634 
2.8300000000015477, -2.370177762729676 
2.840000000001569, -2.3698383100132254 
2.85000000000159, -2.369485541862239 
2.860000000001611, -2.3691110792554095 
2.870000000001632, -2.3687151048699717 
2.8800000000016532, -2.3683089336834184 
2.8900000000016743, -2.3679157386236933 
2.9000000000016954, -2.3675589850923986 
2.9100000000017165, -2.3672415865921184 
2.9200000000017377, -2.3669421398385757 
2.9300000000017588, -2.3666335699140646 
2.94000000000178, -2.3662985031554546 
2.950000000001801, -2.3659310917372407 
2.960000000001822, -2.3655344129073024 
2.970000000001843, -2.365120163272711 
2.9800000000018643, -2.364708654733831 
2.9900000000018854, -2.3643217565109698 
3.0000000000019065, -2.363967873494446 
3.0100000000019276, -2.3636349366982676 
3.0200000000019487, -2.363301912090466 
3.03000000000197, -2.3629533652466748 
3.040000000001991, -2.3625839637101533 
3.050000000002012, -2.3621977586133496 
3.060000000002033, -2.361807858976225 
3.070000000002054, -2.3614330226583378 
3.0800000000020753, -2.3610861316472347 
3.0900000000020964, -2.360763035725019 
3.1000000000021175, -2.3604457556871905 
3.1100000000021386, -2.3601149576889418 
3.1200000000021597, -2.359757747287483 
3.130000000002181, -2.359368996499507 
3.140000000002202, -2.35895227914727 
3.150000000002223, -2.3585233297601795 
3.160000000002244, -2.3581100868423928 
3.1700000000022652, -2.357738052032401 
3.1800000000022863, -2.357408050068959 
3.1900000000023074, -2.3570961078927626 
3.2000000000023285, -2.3567758569848314 
3.2100000000023496, -2.3564333294485538 
3.2200000000023707, -2.3560667700778724 
3.230000000002392, -2.3556830332428356 
3.240000000002413, -2.3552955622060874 
3.250000000002434, -2.354920235320765 
3.260000000002455, -2.354566503821891 
3.2700000000024763, -2.3542304581330864 
3.2800000000024974, -2.353897765398501 
3.2900000000025185, -2.3535527130800036 
3.3000000000025396, -2.3531844583703796 
3.3100000000025607, -2.352789257664493 
3.3200000000025818, -2.3523732946386926 
3.330000000002603, -2.3519568558117467 
3.340000000002624, -2.3515701265294413 
3.350000000002645, -2.351231547041953 
3.360000000002666, -2.350929179060906 
3.3700000000026873, -2.350632614404224 
3.3800000000027084, -2.3503171359416672 
3.3900000000027295, -2.349972416198117 
3.4000000000027506, -2.349599243490661 
3.4100000000027717, -2.349206121050767 
3.420000000002793, -2.348808016032504 
3.430000000002814, -2.3484226630776424 
3.440000000002835, -2.3480613133961947 
3.450000000002856, -2.347720518521993 
3.460000000002877, -2.347385151315689 
3.4700000000028983, -2.347039286806395 
3.4800000000029194, -2.346673420580061 
3.4900000000029405, -2.346286372444252 
3.5000000000029616, -2.3458870258739175 
3.5100000000029827, -2.345495471059439 
3.520000000003004, -2.3451347627245154 
3.530000000003025, -2.344812251507935 
3.540000000003046, -2.344511694410087 
3.550000000003067, -2.3442073218254817 
3.5600000000030882, -2.34387994111077 
3.5700000000031094, -2.3435211291393037 
3.5800000000031305, -2.343131380604375 
3.5900000000031516, -2.342719686919238 
3.6000000000031727, -2.342304528834479 
3.6100000000031938, -2.3419095269994887 
3.620000000003215, -2.3415490991285366 
3.630000000003236, -2.3412164437204717 
3.640000000003257, -2.340890609934542 
3.650000000003278, -2.3405530089477753 
3.6600000000032993, -2.340195096360923 
3.6700000000033204, -2.3398179315164525 
3.6800000000033415, -2.3394312306438563 
3.6900000000033626, -2.339051758967843 
3.7000000000033837, -2.3386954060327705 
3.710000000003405, -2.3383651356333464 
3.720000000003426, -2.3380481288571597 
3.730000000003447, -2.337725337744676 
3.740000000003468, -2.337381373429886 
3.750000000003489, -2.3370078875653615 
3.7600000000035103, -2.3366042252242174 
3.7700000000035314, -2.3361801389458954 
3.7800000000035525, -2.335758806264182 
3.7900000000035736, -2.335369679322383 
3.8000000000035947, -2.335026649399109 
3.810000000003616, -2.3347148792277297 
3.820000000003637, -2.334406044405963 
3.830000000003658, -2.334079569175306 
3.840000000003679, -2.333728290284926 
3.8500000000037002, -2.3333550465687134 
3.8600000000037213, -2.3329699228731293 
3.8700000000037424, -2.3325880420657588 
3.8800000000037635, -2.3322234580115135 
3.8900000000037847, -2.331880260143269 
3.9000000000038058, -2.331549512329604 
3.910000000003827, -2.331215601384446 
3.920000000003848, -2.330864656821404 
3.930000000003869, -2.330488683844541 
3.94000000000389, -2.3300874167244485 
3.9500000000039113, -2.329671941496831 
3.9600000000039324, -2.329267147588231 
3.9700000000039535, -2.3289012299646026 
3.9800000000039746, -2.3285819515280384 
3.9900000000039957, -2.3282883498733566 
4.000000000004016, -2.32799044344459 
4.010000000003993, -2.3276687152569586 
4.02000000000397, -2.327317102875852 
4.030000000003946, -2.326938956910584 
4.040000000003923, -2.326544694361796 
4.0500000000039, -2.326150539619321 
4.0600000000038765, -2.3257733896131905 
4.070000000003853, -2.325420937277353 
4.08000000000383, -2.325085920134099 
4.090000000003807, -2.324752127975208 
4.100000000003783, -2.3244050119178747 
4.11000000000376, -2.3240370683749996 
4.120000000003737, -2.3236491529067 
4.130000000003713, -2.323252374566989 
4.14000000000369, -2.3228681256687245 
4.150000000003667, -2.322517510541605 
4.1600000000036434, -2.322203341638437 
4.17000000000362, -2.321906656487219 
4.180000000003597, -2.321602435174703 
4.1900000000035735, -2.321273508031405 
4.20000000000355, -2.3209130521295553 
4.210000000003527, -2.3205226927376965 
4.220000000003504, -2.320112434128455 
4.23000000000348, -2.3197013694419875 
4.240000000003457, -2.319312369266483 
4.250000000003434, -2.3189576722418668 
4.26000000000341, -2.3186287881605483 
4.270000000003387, -2.318304917675615 
4.280000000003364, -2.3179685225145183 
4.2900000000033405, -2.3176118621691453 
4.300000000003317, -2.3172363995311125 
4.310000000003294, -2.3168520475096495 
4.320000000003271, -2.3164755821717615 
4.330000000003247, -2.3161226851378274 
4.340000000003224, -2.3157960751498834 
4.350000000003201, -2.315482851830794 
4.360000000003177, -2.3151640098208395 
4.370000000003154, -2.314824211353581 
4.380000000003131, -2.3144551024576083 
4.390000000003107, -2.3140558097869217 
4.400000000003084, -2.3136353145934434 
4.410000000003061, -2.3132154194886283 
4.4200000000030375, -2.3128248642189977 
4.430000000003014, -2.3124792217177497 
4.440000000002991, -2.312166554134537 
4.450000000002968, -2.3118597531118694 
4.460000000002944, -2.311537522327444 
4.470000000002921, -2.3111914615256146 
4.480000000002898, -2.3108232888416014 
4.490000000002874, -2.3104420532431744 
4.500000000002851, -2.3100622137442532 
4.510000000002828, -2.3096982808637954 
4.520000000002804, -2.309356016111285 
4.530000000002781, -2.3090281750486272 
4.540000000002758, -2.3086996701494864 
4.5500000000027345, -2.3083560180623444 
4.560000000002711, -2.3079880163549413 
4.570000000002688, -2.3075934812743952 
4.580000000002665, -2.3071803055218654 
4.590000000002641, -2.306770068155173 
4.600000000002618, -2.30639209515023 
4.610000000002595, -2.3060618229785694 
4.620000000002571, -2.305765436810369 
4.630000000002548, -2.305473295019919 
4.640000000002525, -2.305162213227176 
4.6500000000025015, -2.3048227519470696 
4.660000000002478, -2.3044559313714275 
4.670000000002455, -2.304070005455025 
4.6800000000024315, -2.3036791705308497 
4.690000000002408, -2.303300108247029 
4.700000000002385, -2.302943678331876 
4.710000000002362, -2.302607370990778 
4.720000000002338, -2.302277412402973 
4.730000000002315, -2.301938330304469 
4.740000000002292, -2.301579987595649 
4.750000000002268, -2.301199714463266 
4.760000000002245, -2.3008040393812337 
4.770000000002222, -2.3004108602278963 
4.7800000000021985, -2.300044480570147 
4.790000000002175, -2.2997183298341977 
4.800000000002152, -2.2994217685254177 
4.810000000002129, -2.2991293213996546 
4.820000000002105, -2.298818807160625 
4.830000000002082, -2.2984789645278694 
4.840000000002059, -2.2981080931662707 
4.850000000002035, -2.2977122453747603 
4.860000000002012, -2.297305542100471 
4.870000000001989, -2.2969085965168885 
4.880000000001965, -2.2965393163721535 
4.890000000001942, -2.296200003194424 
4.900000000001919, -2.295875914344559 
4.9100000000018955, -2.295547816700111 
4.920000000001872, -2.29520305039816 
4.930000000001849, -2.294837983974399 
4.940000000001826, -2.2944574950747234 
4.950000000001802, -2.2940750551767977 
4.960000000001779, -2.293709266003976 
4.970000000001756, -2.293372513776885 
