t, s[1].omega / s[0].omega 
0, -6.699986186701477 
0.009999999999999995, -6.698546307153616 
0.019999999999999934, -6.697143492965698 
0.029999999999999874, -6.695834806617839 
0.04000000000000012, -6.694430832558967 
0.050000000000000405, -6.693009571535464 
0.06000000000000069, -6.691680816524569 
0.07000000000000098, -6.690299182070154 
0.08000000000000126, -6.688890936313662 
0.09000000000000155, -6.687542455915056 
0.10000000000000184, -6.686163728407524 
0.11000000000000212, -6.6847678110602216 
0.12000000000000241, -6.683419060691032 
0.130000000000002, -6.682036219228012 
0.1400000000000009, -6.680635816231847 
0.1499999999999998, -6.679303390653028 
0.1599999999999987, -6.677925244514597 
0.1699999999999976, -6.676498505552094 
0.1799999999999965, -6.675181540514385 
0.1899999999999954, -6.673830141637784 
0.1999999999999943, -6.672381631016985 
0.2099999999999932, -6.671041553254358 
0.2199999999999921, -6.6697270656109655 
0.229999999999991, -6.668298459529628 
0.2399999999999899, -6.666909633050667 
0.2499999999999888, -6.665604394663275 
0.2599999999999877, -6.664211629728125 
0.2699999999999866, -6.66280926273849 
0.2799999999999855, -6.661484187180823 
0.2899999999999844, -6.660109597501015 
0.2999999999999833, -6.658719417796034 
0.3099999999999822, -6.6573801580317475 
0.3199999999999811, -6.656006111813612 
0.32999999999998, -6.654623962916753 
0.3399999999999789, -6.6532899143821265 
0.3499999999999778, -6.651912701637089 
0.35999999999997667, -6.650518703857719 
0.36999999999997557, -6.649204675739537 
0.37999999999997447, -6.647838350105263 
0.38999999999997337, -6.646412210637097 
0.39999999999997227, -6.645107063756036 
0.40999999999997117, -6.643775118181564 
0.41999999999997006, -6.642337133681517 
0.42999999999996896, -6.640993480462553 
0.43999999999996786, -6.639695060133858 
0.44999999999996676, -6.638287961683875 
0.45999999999996566, -6.636900638683265 
0.46999999999996456, -6.635599765436259 
0.47999999999996346, -6.634225479319267 
0.48999999999996235, -6.6328361022712725 
0.49999999999996125, -6.631513858647073 
0.5099999999999602, -6.6301511933117805 
0.519999999999959, -6.628774609368421 
0.529999999999958, -6.6274445842224265 
0.5399999999999568, -6.626079972599177 
0.5499999999999557, -6.624704805256089 
0.5599999999999546, -6.623386464591602 
0.5699999999999535, -6.622023093132723 
0.5799999999999524, -6.6206259974629855 
0.5899999999999513, -6.619326688088745 
0.5999999999999502, -6.617985322446633 
0.6099999999999491, -6.616559057539443 
0.619999999999948, -6.615247602913184 
0.6299999999999469, -6.6139466044857205 
0.6399999999999458, -6.612530964327961 
0.6499999999999447, -6.6111658555600865 
0.6599999999999436, -6.60988476204863 
0.6699999999999425, -6.608508344351955 
0.6799999999999414, -6.607118474550058 
0.6899999999999403, -6.605818340361202 
0.6999999999999392, -6.604466887419254 
0.7099999999999381, -6.603088444617979 
0.719999999999937, -6.601768119195279 
0.7299999999999359, -6.600420850181154 
0.7399999999999348, -6.5990527654584215 
0.7499999999999337, -6.59773298632567 
0.7599999999999326, -6.596384287623289 
0.7699999999999315, -6.595007301701552 
0.7799999999999304, -6.593702840121857 
0.7899999999999293, -6.592365646676532 
0.7999999999999282, -6.590961791110513 
0.8099999999999271, -6.589660320235376 
0.819999999999926, -6.588358100119521 
0.8299999999999249, -6.586947291651245 
0.8399999999999238, -6.585600838933433 
0.8499999999999227, -6.584333438202295 
0.8599999999999216, -6.582957822819553 
0.8699999999999205, -6.581566767144937 
0.8799999999999194, -6.580289974305183 
0.8899999999999183, -6.578951142336182 
0.8999999999999172, -6.577566109182048 
0.9099999999999161, -6.576257503927832 
0.919999999999915, -6.57493099627749 
0.9299999999999139, -6.57356426006527 
0.9399999999999128, -6.572244240850781 
0.9499999999999117, -6.570916284566752 
0.9599999999999106, -6.569551851292678 
0.9699999999999095, -6.5682397872195235 
0.9799999999999084, -6.5669167074658885 
0.9899999999999073, -6.565535933587036 
0.9999999999999062, -6.564229070707651 
1.0099999999999052, -6.562931839972047 
1.019999999999904, -6.561539774092715 
1.029999999999903, -6.560199492172073 
1.039999999999902, -6.558940430352048 
1.0499999999999008, -6.557575205210081 
1.0599999999998997, -6.556181932927954 
1.0699999999998986, -6.554923533600855 
1.0799999999998975, -6.553602264994623 
1.0899999999998964, -6.552209122563342 
1.0999999999998953, -6.550908162942889 
1.1099999999998942, -6.549607535687583 
1.119999999999893, -6.5482418198431915 
1.129999999999892, -6.546917065942042 
1.1399999999998909, -6.545613614327341 
1.1499999999998898, -6.544261088615815 
1.1599999999998887, -6.542938699684781 
1.1699999999998876, -6.5416335540166894 
1.1799999999998865, -6.5402760396626265 
1.1899999999998854, -6.538956706270378 
1.1999999999998843, -6.5376679167425475 
1.2099999999998832, -6.536304366719568 
1.219999999999882, -6.534959281877086 
1.229999999999881, -6.533702469712611 
1.2399999999998799, -6.532360374260743 
1.2499999999998788, -6.530966622166318 
1.2599999999998777, -6.529712792726022 
1.2699999999998766, -6.528416665885873 
1.2799999999998755, -6.527021707259344 
1.2899999999998744, -6.525715294313197 
1.2999999999998733, -6.524446297060408 
1.3099999999998722, -6.523088463056011 
1.319999999999871, -6.521748572610418 
1.32999999999987, -6.520470706596778 
1.3399999999998689, -6.519136779351004 
1.3499999999998678, -6.517800158678372 
1.3599999999998666, -6.51650970158232 
1.3699999999998655, -6.515179656157561 
1.3799999999998644, -6.513847571165705 
1.3899999999998633, -6.51256307860975 
1.3999999999998622, -6.51123346876074 
1.4099999999998611, -6.509883368988136 
1.41999999999986, -6.508618530024767 
1.429999999999859, -6.507308445793429 
1.4399999999998578, -6.5059244873497875 
1.4499999999998567, -6.504653685584634 
1.4599999999998556, -6.503387622552585 
1.4699999999998545, -6.502008592896213 
1.4799999999998534, -6.500677516261168 
1.4899999999998523, -6.4994397114888205 
1.4999999999998512, -6.49810523946284 
1.5099999999998501, -6.496741073877819 
1.519999999999849, -6.4954801171595475 
1.529999999999848, -6.494177582616821 
1.5399999999998468, -6.492828413534545 
1.5499999999998457, -6.49153868657613 
1.5599999999998446, -6.490242666336807 
1.5699999999998435, -6.488906930668456 
1.5799999999998424, -6.487613965121115 
1.5899999999998413, -6.486318531645059 
1.5999999999998402, -6.484976504178351 
1.6099999999998391, -6.483690259860515 
1.619999999999838, -6.482410749299338 
1.629999999999837, -6.481055015268015 
1.6399999999998358, -6.479749771073413 
1.6499999999998347, -6.478506859544863 
1.6599999999998336, -6.477166461981144 
1.6699999999998325, -6.47580394492646 
1.6799999999998314, -6.474577797529756 
1.6899999999998303, -6.473285450776115 
1.6999999999998292, -6.471906892818953 
1.709999999999828, -6.470633725983488 
1.719999999999827, -6.469375644338304 
1.729999999999826, -6.468031389369115 
1.7399999999998248, -6.466717571974003 
1.7499999999998237, -6.4654565946400835 
1.7599999999998226, -6.464137830660573 
1.7699999999998215, -6.4628227690833695 
1.7799999999998204, -6.461550818276729 
1.7899999999998193, -6.460236988869165 
1.7999999999998182, -6.458925013661867 
1.809999999999817, -6.457659566968495 
1.819999999999816, -6.456347250437555 
1.8299999999998149, -6.455014930816984 
1.8399999999998138, -6.453769310206553 
1.8499999999998127, -6.452479531905683 
1.8599999999998116, -6.45111274168177 
1.8699999999998105, -6.4498557573490585 
1.8799999999998094, -6.448613127673346 
1.8899999999998083, -6.447257239399342 
1.8999999999998072, -6.445933852222447 
1.909999999999806, -6.4447159157430765 
1.919999999999805, -6.4434085700778665 
1.9299999999998039, -6.442058376319707 
1.9399999999998028, -6.440809147369483 
1.9499999999998017, -6.4395327736034345 
1.9599999999998006, -6.438202662577666 
1.9699999999997995, -6.436923936058513 
1.9799999999997984, -6.43565189689455 
1.9899999999997973, -6.434334745162717 
1.9999999999997962, -6.433054254520552 
2.0099999999998173, -6.431783732454216 
2.0199999999998384, -6.4304607366189455 
2.0299999999998595, -6.429180844347252 
2.0399999999998806, -6.427930046398639 
2.0499999999999017, -6.426603099497281 
2.059999999999923, -6.425289476209349 
2.069999999999944, -6.424072110109542 
2.079999999999965, -6.422775286567266 
2.089999999999986, -6.421411651539023 
2.100000000000007, -6.420183376839832 
2.1100000000000283, -6.418938727634623 
2.1200000000000494, -6.417588713441394 
2.1300000000000705, -6.4162948357528125 
2.1400000000000916, -6.4150706666092985 
2.1500000000001127, -6.413764276873943 
2.160000000000134, -6.412446801759167 
2.170000000000155, -6.4112022764444365 
2.180000000000176, -6.409918134206606 
2.190000000000197, -6.408610623550517 
2.2000000000002182, -6.40735207138871 
2.2100000000002393, -6.406072172484866 
2.2200000000002604, -6.404764098007496 
2.2300000000002815, -6.403512170668918 
2.2400000000003026, -6.402242033615646 
2.2500000000003237, -6.400913633884339 
2.260000000000345, -6.39966192278473 
2.270000000000366, -6.398425572269026 
2.280000000000387, -6.397092446607944 
2.290000000000408, -6.395789360529226 
2.3000000000004293, -6.394591805750965 
2.3100000000004504, -6.393301441525221 
2.3200000000004715, -6.391948907021537 
2.3300000000004926, -6.390726979880834 
2.3400000000005137, -6.38948568209072 
2.3500000000005348, -6.388156069185454 
2.360000000000556, -6.386878033899536 
2.370000000000577, -6.385647203659532 
2.380000000000598, -6.384350822898378 
2.390000000000619, -6.38305994519233 
2.4000000000006403, -6.381816854697923 
2.4100000000006614, -6.380531747119313 
2.4200000000006825, -6.379244636677203 
2.4300000000007036, -6.3780022556850255 
2.4400000000007247, -6.376720122125989 
2.450000000000746, -6.375417213614794 
2.460000000000767, -6.374191010415999 
2.470000000000788, -6.3729297099782105 
2.480000000000809, -6.371594941088771 
2.49000000000083, -6.370357080451715 
2.5000000000008513, -6.3691433186281845 
2.5100000000008724, -6.367819680481906 
2.5200000000008935, -6.366511030593766 
2.5300000000009146, -6.365323432163671 
2.5400000000009357, -6.364053603725049 
2.550000000000957, -6.362719276632171 
2.560000000000978, -6.361488702718722 
2.570000000000999, -6.3602544397690135 
2.58000000000102, -6.358949524445965 
2.5900000000010412, -6.357681396163587 
2.6000000000010624, -6.356447918162672 
2.6100000000010835, -6.355162547363743 
2.6200000000011046, -6.353891938258491 
2.6300000000011257, -6.352655036631452 
2.6400000000011468, -6.351371595968008 
2.650000000001168, -6.350095788703312 
2.660000000001189, -6.348873889393438 
2.67000000000121, -6.3475987719199605 
2.680000000001231, -6.346288044885913 
2.6900000000012523, -6.345082157311121 
2.7000000000012734, -6.343846043191951 
2.7100000000012945, -6.342511935673536 
2.7200000000013156, -6.341259539895025 
2.7300000000013367, -6.340073241938129 
2.740000000001358, -6.338779614794225 
2.750000000001379, -6.337461821152514 
2.7600000000014, -6.336266792173902 
2.770000000001421, -6.335023369583663 
2.780000000001442, -6.333714600902313 
2.7900000000014633, -6.332472007435984 
2.8000000000014844, -6.331244689053294 
2.8100000000015055, -6.329961128101079 
2.8200000000015266, -6.328703225195126 
2.8300000000015477, -6.327473017802058 
2.840000000001569, -6.326195370951819 
2.85000000000159, -6.324937249266915 
2.860000000001611, -6.323716125449115 
2.870000000001632, -6.32243962244606 
2.8800000000016532, -6.32115650745409 
2.8900000000016743, -6.319959365291351 
2.9000000000016954, -6.318710013952244 
2.9100000000017165, -6.317385231301408 
2.9200000000017377, -6.31617238394832 
2.9300000000017588, -6.314977567127104 
2.94000000000178, -6.313670696659718 
2.950000000001801, -6.3123802100514785 
2.960000000001822, -6.311205682348544 
2.970000000001843, -6.3099547028477465 
2.9800000000018643, -6.308646454084436 
2.9900000000018854, -6.3074276047020295 
3.0000000000019065, -6.306206316169628 
3.0100000000019276, -6.304924785855748 
3.0200000000019487, -6.303677262176664 
3.03000000000197, -6.3024563152644975 
3.040000000001991, -6.301187126908886 
3.050000000002012, -6.299938465250034 
3.060000000002033, -6.298720905838103 
3.070000000002054, -6.297451765362051 
3.0800000000020753, -6.296187887729317 
3.0900000000020964, -6.2949921685694425 
3.1000000000021175, -6.293741057530285 
3.1100000000021386, -6.292433534655529 
3.1200000000021597, -6.291240097502383 
3.130000000002181, -6.290040224256076 
3.140000000002202, -6.288731552870856 
3.150000000002223, -6.287465286583069 
3.160000000002244, -6.286302821807854 
3.1700000000022652, -6.285049729874448 
3.1800000000022863, -6.2837439998712785 
3.1900000000023074, -6.282544316010865 
3.2000000000023285, -6.28133172738947 
3.2100000000023496, -6.280052332132814 
3.2200000000023707, -6.278812171929447 
3.230000000002392, -6.277603407085131 
3.240000000002413, -6.276343592708833 
3.250000000002434, -6.275098943923819 
3.260000000002455, -6.27388826403393 
3.2700000000024763, -6.272631517470673 
3.2800000000024974, -6.271377780137629 
3.2900000000025185, -6.270183083233945 
3.3000000000025396, -6.268939908800659 
3.3100000000025607, -6.267648451408612 
3.3200000000025818, -6.266460976875856 
3.330000000002603, -6.265263763199721 
3.340000000002624, -6.263962854331581 
3.350000000002645, -6.262709633505489 
3.360000000002666, -6.261556785213328 
3.3700000000026873, -6.260309479475759 
3.3800000000027084, -6.259005486973848 
3.3900000000027295, -6.2578185121986705 
3.4000000000027506, -6.256619533577249 
3.4100000000027717, -6.255343646676494 
3.420000000002793, -6.254105568617776 
3.430000000002814, -6.252911725151779 
3.440000000002835, -6.251663184115879 
3.450000000002856, -6.250418397433064 
3.460000000002877, -6.2492160595415935 
3.4700000000028983, -6.247975309826852 
3.4800000000029194, -6.246725798278914 
3.4900000000029405, -6.245532096685254 
3.5000000000029616, -6.2443039073236495 
3.5100000000029827, -6.2430255548155635 
3.520000000003004, -6.241835205597537 
3.530000000003025, -6.24064796588889 
3.540000000003046, -6.239362802298176 
3.550000000003067, -6.238109712741256 
3.5600000000030882, -6.23696553414648 
3.5700000000031094, -6.235733645016785 
3.5800000000031305, -6.234430536269707 
3.5900000000031516, -6.233246403209642 
3.6000000000031727, -6.232067372009178 
3.6100000000031938, -6.230799419719102 
3.620000000003215, -6.229555470059255 
3.630000000003236, -6.228377637596074 
3.640000000003257, -6.227144965262219 
3.650000000003278, -6.2258970992408695 
3.6600000000032993, -6.224700900013035 
3.6700000000033204, -6.223480039645225 
3.6800000000033415, -6.222233099178333 
3.6900000000033626, -6.221037581516116 
3.7000000000033837, -6.219828712811187 
3.710000000003405, -6.218564053398263 
3.720000000003426, -6.217363154053719 
3.730000000003447, -6.216189821429184 
3.740000000003468, -6.214928511695918 
3.750000000003489, -6.213666156271282 
3.7600000000035103, -6.212525766871555 
3.7700000000035314, -6.21131943210966 
3.7800000000035525, -6.210021428246718 
3.7900000000035736, -6.2088245875285555 
3.8000000000035947, -6.207670913569638 
3.810000000003616, -6.206420184638669 
3.820000000003637, -6.205162312345176 
3.830000000003658, -6.203996138913712 
3.840000000003679, -6.202787017784551 
3.8500000000037002, -6.201536980058988 
3.8600000000037213, -6.200339158762023 
3.8700000000037424, -6.199141819019581 
3.8800000000037635, -6.197901465464108 
3.8900000000037847, -6.196698137038597 
3.9000000000038058, -6.195508951290793 
3.910000000003827, -6.194263916287943 
3.920000000003848, -6.193046492462267 
3.930000000003869, -6.191884521053732 
3.94000000000389, -6.190655176964056 
3.9500000000039113, -6.189384192584366 
3.9600000000039324, -6.188233689120787 
3.9700000000039535, -6.187060713754962 
3.9800000000039746, -6.185781189849218 
3.9900000000039957, -6.18455315016089 
4.000000000004016, -6.183423182865402 
4.010000000003993, -6.18220356979325 
4.02000000000397, -6.180931839575273 
4.030000000003946, -6.179761412950204 
4.040000000003923, -6.178584469681289 
4.0500000000039, -6.177341246836663 
4.0600000000038765, -6.176129378207067 
4.070000000003853, -6.174954785133351 
4.08000000000383, -6.173731438902318 
4.090000000003807, -6.172515153473492 
4.100000000003783, -6.171338808863367 
4.11000000000376, -6.170122176070234 
4.120000000003737, -6.168890169918257 
4.130000000003713, -6.167727499066097 
4.14000000000369, -6.166534799560845 
4.150000000003667, -6.165270981298968 
4.1600000000036434, -6.164088524723211 
4.17000000000362, -6.162948456041509 
4.180000000003597, -6.16170696542829 
4.1900000000035735, -6.1604420899181855 
4.20000000000355, -6.159315448810252 
4.210000000003527, -6.1581411706839155 
4.220000000003504, -6.156873682244347 
4.23000000000348, -6.155671196084024 
4.240000000003457, -6.1545282067519675 
4.250000000003434, -6.153309862581631 
4.26000000000341, -6.152077038539619 
4.270000000003387, -6.150911615637637 
4.280000000003364, -6.149718615012798 
4.2900000000033405, -6.1484942560106095 
4.300000000003317, -6.147314490830171 
4.310000000003294, -6.146130678948913 
4.320000000003271, -6.1449007430543 
4.330000000003247, -6.143718453614032 
4.340000000003224, -6.1425574345156 
4.350000000003201, -6.1413254532023505 
4.360000000003177, -6.140099989281053 
4.370000000003154, -6.1389732625231686 
4.380000000003131, -6.137785012484699 
4.390000000003107, -6.136511127285535 
4.400000000003084, -6.135343360372901 
4.410000000003061, -6.134218613693132 
4.4200000000030375, -6.132987833646627 
4.430000000003014, -6.131738580532171 
4.440000000002991, -6.130606259109848 
4.450000000002968, -6.129433142717529 
4.460000000002944, -6.12819507596574 
4.470000000002921, -6.1270089686136755 
4.480000000002898, -6.125851455095399 
4.490000000002874, -6.124639907416732 
4.500000000002851, -6.123440217506965 
4.510000000002828, -6.122278647448572 
4.520000000002804, -6.12107607908626 
4.530000000002781, -6.119866970795209 
4.540000000002758, -6.118715683854083 
4.5500000000027345, -6.117530940205872 
4.560000000002711, -6.116289500279818 
4.570000000002688, -6.115132368160607 
4.580000000002665, -6.113996231011115 
4.590000000002641, -6.112762301504091 
4.600000000002618, -6.111525543364193 
4.610000000002595, -6.110419925910299 
4.620000000002571, -6.109253047891339 
4.630000000002548, -6.107993481682604 
4.640000000002525, -6.106814197431503 
4.6500000000025015, -6.1056916952043965 
4.660000000002478, -6.1044855604087385 
4.670000000002455, -6.1032617286970305 
4.6800000000024315, -6.1021156616901155 
4.690000000002408, -6.100943055408381 
4.700000000002385, -6.099731072770527 
4.710000000002362, -6.098561405663679 
4.720000000002338, -6.097398030013206 
4.730000000002315, -6.096188231564613 
4.740000000002292, -6.095013209748319 
4.750000000002268, -6.093866488227723 
4.760000000002245, -6.092658968039991 
4.770000000002222, -6.091446314365127 
4.7800000000021985, -6.090326723818029 
4.790000000002175, -6.089160812389478 
4.800000000002152, -6.087907373510038 
4.810000000002129, -6.086742180405654 
4.820000000002105, -6.085639104450664 
4.830000000002082, -6.084432916683765 
4.840000000002059, -6.0831860546909935 
4.850000000002035, -6.082065400844873 
4.860000000002012, -6.080922768357573 
4.870000000001989, -6.079699282198117 
4.880000000001965, -6.078511625215999 
4.890000000001942, -6.07737950721757 
4.900000000001919, -6.076192776113788 
4.9100000000018955, -6.074995016224103 
4.920000000001872, -6.073846624060687 
4.930000000001849, -6.07267447631563 
4.940000000001826, -6.071473329962189 
4.950000000001802, -6.070324690327881 
4.960000000001779, -6.069170748685439 
4.970000000001756, -6.067953937365664 
4.980000000001732, -6.06678350504348 
4.990000000001709, -6.065670464469058 
5.000000000001686, -6.064478218101785 
5.0100000000016625, -6.06323689271784 
5.020000000001639, -6.062125635553668 
5.030000000001616, -6.061003262822273 
