t, s[1].omega / s[0].omega 
0, -2.9499955632418233 
0.009999999999999995, -2.949524231511482 
0.019999999999999934, -2.9490081239358856 
0.029999999999999874, -2.948484091006736 
0.04000000000000012, -2.9480087279885936 
0.050000000000000405, -2.94760094661953 
0.06000000000000069, -2.9472170200159393 
0.07000000000000098, -2.9468104521212686 
0.08000000000000126, -2.9463667741530957 
0.09000000000000155, -2.945895967902538 
0.10000000000000184, -2.9454238549803256 
0.11000000000000212, -2.944977451820408 
0.12000000000000241, -2.9445607242389316 
0.130000000000002, -2.9441504848022357 
0.1400000000000009, -2.9437184142611814 
0.1499999999999998, -2.9432490304867143 
0.1599999999999987, -2.942747975843321 
0.1699999999999976, -2.9422533529436885 
0.1799999999999965, -2.9418194530964374 
0.1899999999999954, -2.941450304078618 
0.1999999999999943, -2.9410918051018493 
0.2099999999999932, -2.940696548590962 
0.2199999999999921, -2.940247467124772 
0.229999999999991, -2.939748422131486 
0.2399999999999899, -2.9392254576795414 
0.2499999999999888, -2.9387299611109867 
0.2599999999999877, -2.938300008759305 
0.2699999999999866, -2.9379119511287373 
0.2799999999999855, -2.937515412973377 
0.2899999999999844, -2.9370849115393267 
0.2999999999999833, -2.9366227159840874 
0.3099999999999822, -2.9361499130920636 
0.3199999999999811, -2.9356957362630847 
0.32999999999998, -2.93527370399445 
0.3399999999999789, -2.9348676957547672 
0.3499999999999778, -2.9344482435753907 
0.35999999999997667, -2.9339940675717697 
0.36999999999997557, -2.9335013266471064 
0.37999999999997447, -2.932994560627876 
0.38999999999997337, -2.932529648912005 
0.39999999999997227, -2.9321403907694075 
0.40999999999997117, -2.9317888100321405 
0.41999999999997006, -2.9314162627049587 
0.42999999999996896, -2.930993699595123 
0.43999999999996786, -2.930518049958879 
0.44999999999996676, -2.9300053331946634 
0.45999999999996566, -2.9294959377873857 
0.46999999999996456, -2.9290383644228113 
0.47999999999996346, -2.9286366066675513 
0.48999999999996235, -2.928246380700258 
0.49999999999996125, -2.927830453807648 
0.5099999999999602, -2.9273804924041404 
0.519999999999959, -2.9269102605587003 
0.529999999999958, -2.926448008053506 
0.5399999999999568, -2.9260168189601576 
0.5499999999999557, -2.925611479985333 
0.5599999999999546, -2.9252042399378047 
0.5699999999999535, -2.924768465428693 
0.5799999999999524, -2.9242915578244606 
0.5899999999999513, -2.923782940266184 
0.5999999999999502, -2.9232871565798755 
0.6099999999999491, -2.92286126146697 
0.619999999999948, -2.922502085044825 
0.6299999999999469, -2.922149184618555 
0.6399999999999458, -2.9217561612893763 
0.6499999999999447, -2.9213096525221096 
0.6599999999999436, -2.9208170268173523 
0.6699999999999425, -2.9203056831237038 
0.6799999999999414, -2.919822084323204 
0.6899999999999403, -2.919395851278017 
0.6999999999999392, -2.9190033810884244 
0.7099999999999381, -2.918600857784015 
0.719999999999937, -2.9181665398397434 
0.7299999999999359, -2.917703930376251 
0.7399999999999348, -2.917235735275061 
0.7499999999999337, -2.9167916169901695 
0.7599999999999326, -2.9163810507573094 
0.7699999999999315, -2.9159830758897436 
0.7799999999999304, -2.9155671899976285 
0.7899999999999293, -2.915112791271131 
0.7999999999999282, -2.914616031502057 
0.8099999999999271, -2.9141015382442967 
0.819999999999926, -2.913628637048404 
0.8299999999999249, -2.9132376604303096 
0.8399999999999238, -2.9128915931248818 
0.8499999999999227, -2.9125275255718868 
0.8599999999999216, -2.9121145742221417 
0.8699999999999205, -2.911650602057039 
0.8799999999999194, -2.911151590106897 
0.8899999999999183, -2.9106530419546344 
0.8999999999999172, -2.910196716403621 
0.9099999999999161, -2.9097890505925266 
0.919999999999915, -2.909393903021777 
0.9299999999999139, -2.9089767405671063 
0.9399999999999128, -2.908527715626893 
0.9499999999999117, -2.908059303711739 
0.9599999999999106, -2.9076007718161057 
0.9699999999999095, -2.907176950746197 
0.9799999999999084, -2.9067814605926703 
0.9899999999999073, -2.906384000785976 
0.9999999999999062, -2.905956345301047 
1.0099999999999052, -2.905484094345362 
1.019999999999904, -2.9049724675595665 
1.029999999999903, -2.904461207196813 
1.039999999999902, -2.904014568072491 
1.0499999999999008, -2.903647338186162 
1.0599999999998997, -2.903302102831969 
1.0699999999998986, -2.9029239964781786 
1.0799999999998975, -2.902495010242042 
1.0899999999998964, -2.902020956722427 
1.0999999999998953, -2.9015246138894613 
1.1099999999998942, -2.9010442209506304 
1.119999999999893, -2.900609722745009 
1.129999999999892, -2.9002096656109977 
1.1399999999998909, -2.8998066314601694 
1.1499999999998898, -2.899375929617332 
1.1599999999998887, -2.898916185078126 
1.1699999999998876, -2.898447514950951 
1.1799999999998865, -2.8980029028982557 
1.1899999999998854, -2.897597999471082 
1.1999999999998843, -2.897212461364647 
1.2099999999998832, -2.8968120986063717 
1.219999999999882, -2.8963726559355467 
1.229999999999881, -2.895885380377664 
1.2399999999998799, -2.8953645643298898 
1.2499999999998788, -2.894861950275173 
1.2599999999998777, -2.8944375743308024 
1.2699999999998766, -2.8940823626960523 
1.2799999999998755, -2.893731373145689 
1.2899999999998744, -2.893340277485785 
1.2999999999998733, -2.8929002450446597 
1.3099999999998722, -2.8924227701357785 
1.319999999999871, -2.891935003838067 
1.32999999999987, -2.891472880431496 
1.3399999999998689, -2.8910530718720584 
1.3499999999998678, -2.890654002119054 
1.3599999999998666, -2.8902419228550076 
1.3699999999998655, -2.8897997638189534 
1.3799999999998644, -2.8893324741948128 
1.3899999999998633, -2.888866955966682 
1.3999999999998622, -2.8884374393243224 
1.4099999999998611, -2.888048864688467 
1.41999999999986, -2.8876702103652003 
1.429999999999859, -2.887266485014562 
1.4399999999998578, -2.8868174675016838 
1.4499999999998567, -2.8863194325951156 
1.4599999999998556, -2.8857945803795957 
1.4699999999998545, -2.8853016318525344 
1.4799999999998534, -2.8848917414942106 
1.4899999999998523, -2.8845394514782976 
1.4999999999998512, -2.8841802595476396 
1.5099999999998501, -2.8837788957503916 
1.519999999999849, -2.8833325365617886 
1.529999999999848, -2.882856554953337 
1.5399999999998468, -2.8823799690178147 
1.5499999999998457, -2.8819334683390876 
1.5599999999998446, -2.8815226559658087 
1.5699999999998435, -2.881121687363012 
1.5799999999998424, -2.88070133314187 
1.5899999999998413, -2.880249693954521 
1.5999999999998402, -2.879776645954279 
1.6099999999998391, -2.879315170408538 
1.619999999999838, -2.878899640932508 
1.629999999999837, -2.8785250556862545 
1.6399999999998358, -2.8781524500166173 
1.6499999999998347, -2.8777471253529536 
1.6599999999998336, -2.8772924086381115 
1.6699999999998325, -2.87678883426679 
1.6799999999998314, -2.876264062679677 
1.6899999999998303, -2.8757786921808117 
1.6999999999998292, -2.8753750067098367 
1.709999999999828, -2.875019668487248 
1.719999999999827, -2.874652165596188 
1.729999999999826, -2.874243562936292 
1.7399999999998248, -2.873794565600166 
1.7499999999998237, -2.8733229147064856 
1.7599999999998226, -2.8728576693657843 
1.7699999999998215, -2.8724236011729953 
1.7799999999998204, -2.8720184441032472 
1.7899999999998193, -2.8716151847433293 
1.7999999999998182, -2.8711881862607784 
1.809999999999817, -2.8707286285366096 
1.819999999999816, -2.8702500222418013 
1.8299999999998149, -2.869790856431448 
1.8399999999998138, -2.869386400699784 
1.8499999999998127, -2.869024007314888 
1.8599999999998116, -2.8686583068237708 
1.8699999999998105, -2.8682546445564023 
1.8799999999998094, -2.8677992164509924 
1.8899999999998083, -2.8672958133517907 
1.8999999999998072, -2.8667744517882054 
1.909999999999806, -2.866293569684947 
1.919999999999805, -2.865889236813191 
1.9299999999998039, -2.8655273698016823 
1.9399999999998028, -2.8651524865330678 
1.9499999999998017, -2.8647392748795744 
1.9599999999998006, -2.8642900112326153 
1.9699999999997995, -2.8638236327274735 
1.9799999999997984, -2.863368482112606 
1.9899999999997973, -2.8629442936485052 
1.9999999999997962, -2.8625436049885193 
2.0099999999998173, -2.8621392825181258 
2.0199999999998384, -2.8617078470163575 
2.0299999999998595, -2.86124174936288 
2.0399999999998806, -2.860756473125228 
2.0499999999999017, -2.860295313513845 
2.059999999999923, -2.85989696225064 
2.069999999999944, -2.8595447961583984 
2.079999999999965, -2.859187625405435 
2.089999999999986, -2.8587895863815227 
2.100000000000007, -2.858338817063493 
2.1100000000000283, -2.857841235263183 
2.1200000000000494, -2.85732633940843 
2.1300000000000705, -2.856847664151097 
2.1400000000000916, -2.8564380722266884 
2.1500000000001127, -2.856067904037351 
2.160000000000134, -2.8556868661794512 
2.170000000000155, -2.8552710318276873 
2.180000000000176, -2.854822622370466 
2.190000000000197, -2.8543609262775296 
2.2000000000002182, -2.853913852519111 
2.2100000000002393, -2.853497882640694 
2.2200000000002604, -2.8531021465157638 
2.2300000000002815, -2.8526992139248684 
2.2400000000003026, -2.8522663249934217 
2.2500000000003237, -2.851795602398924 
2.260000000000345, -2.8513022397736343 
2.270000000000366, -2.850832726377479 
2.280000000000387, -2.850432663560797 
2.290000000000408, -2.8500870903149003 
2.3000000000004293, -2.8497395774505234 
2.3100000000004504, -2.8493508811544412 
2.3200000000004715, -2.8489096422288953 
2.3300000000004926, -2.848422785154667 
2.3400000000005137, -2.847917327454177 
2.3500000000005348, -2.847440308946501 
2.360000000000556, -2.8470232590077753 
2.370000000000577, -2.8466441833942047 
2.380000000000598, -2.8462582035908244 
2.390000000000619, -2.8458411709254037 
2.4000000000006403, -2.8453937891691963 
2.4100000000006614, -2.8449349691631847 
2.4200000000006825, -2.8444932150545066 
2.4300000000007036, -2.8440842793442584 
2.4400000000007247, -2.8436951353721773 
2.450000000000746, -2.8432971591672236 
2.460000000000767, -2.8428669739691688 
2.470000000000788, -2.8423951144776045 
2.480000000000809, -2.8418938690665865 
2.49000000000083, -2.8414094389138946 
2.5000000000008513, -2.840996698768456 
2.5100000000008724, -2.8406505010845646 
2.5200000000008935, -2.8403116573125167 
2.5300000000009146, -2.839934752637691 
2.5400000000009357, -2.8395066071425408 
2.550000000000957, -2.8390339603866415 
2.560000000000978, -2.8385404887532157 
2.570000000000999, -2.8380662282777718 
2.58000000000102, -2.8376417478129103 
2.5900000000010412, -2.837254079372422 
2.6000000000010624, -2.8368643518206573 
2.6100000000010835, -2.836447293053427 
2.6200000000011046, -2.836000678061395 
2.6300000000011257, -2.8355420085161844 
2.6400000000011468, -2.8351015723268476 
2.650000000001168, -2.83469790322557 
2.660000000001189, -2.834317419773536 
2.67000000000121, -2.833928944699627 
2.680000000001231, -2.833507040509251 
2.6900000000012523, -2.833039915205379 
2.7000000000012734, -2.8325349073236556 
2.7100000000012945, -2.8320326713041757 
2.7200000000013156, -2.8315953175735697 
2.7300000000013367, -2.8312365376344757 
2.740000000001358, -2.8309014617583923 
2.750000000001379, -2.830536495189542 
2.7600000000014, -2.8301231884340408 
2.770000000001421, -2.829666448418895 
2.780000000001442, -2.8291864803165416 
2.7900000000014633, -2.828716865819227 
2.8000000000014844, -2.8282867085587755 
2.8100000000015055, -2.8278916416554294 
2.8200000000015266, -2.8274995279681145 
2.8300000000015477, -2.8270838204355178 
2.840000000001569, -2.8266380491625345 
2.85000000000159, -2.826176521648992 
2.860000000001611, -2.825731512322407 
2.870000000001632, -2.8253288734578392 
2.8800000000016532, -2.8249580578317857 
2.8900000000016743, -2.824584024104364 
2.9000000000016954, -2.824177136757983 
2.9100000000017165, -2.8237228024553858 
2.9200000000017377, -2.8232229839829346 
2.9300000000017588, -2.822708079651015 
2.94000000000178, -2.822239324779961 
2.950000000001801, -2.8218532833778194 
2.960000000001822, -2.8215120135980216 
2.970000000001843, -2.8211558629293325 
2.9800000000018643, -2.8207571387694155 
2.9900000000018854, -2.820316316686464 
3.0000000000019065, -2.8198499392394454 
3.0100000000019276, -2.8193864238688757 
3.0200000000019487, -2.8189531605353793 
3.03000000000197, -2.8185527259801795 
3.040000000001991, -2.8181600229427906 
3.050000000002012, -2.81774774539294 
3.060000000002033, -2.817304249037696 
3.070000000002054, -2.8168381061105774 
3.0800000000020753, -2.816381126198877 
3.0900000000020964, -2.815970350175758 
3.1000000000021175, -2.81560599949 
3.1100000000021386, -2.8152499717451005 
3.1200000000021597, -2.814864966169028 
3.130000000002181, -2.8144321953658356 
3.140000000002202, -2.813949263732284 
3.150000000002223, -2.813435265279895 
3.160000000002244, -2.8129404565241516 
3.1700000000022652, -2.8125169146239974 
3.1800000000022863, -2.8121558504069837 
3.1900000000023074, -2.8118015174032953 
3.2000000000023285, -2.8114150688456547 
3.2100000000023496, -2.8109889767006915 
3.2200000000023707, -2.8105350020699404 
3.230000000002392, -2.8100775588052143 
3.240000000002413, -2.809643161160996 
3.250000000002434, -2.809239803914501 
3.260000000002455, -2.8088489218810695 
3.2700000000024763, -2.808443219702846 
3.2800000000024974, -2.808005710716027 
3.2900000000025185, -2.8075369345291605 
3.3000000000025396, -2.8070624981549854 
3.3100000000025607, -2.806628921120197 
3.3200000000025818, -2.806258513001868 
3.330000000002603, -2.805918346887961 
3.340000000002624, -2.805559957326282 
3.350000000002645, -2.8051561548092736 
3.360000000002666, -2.8047005364583746 
3.3700000000026873, -2.8042036393174277 
3.3800000000027084, -2.8037001289592522 
3.3900000000027295, -2.803241977538314 
3.4000000000027506, -2.8028497716424794 
3.4100000000027717, -2.8024871281393 
3.420000000002793, -2.802108545478306 
3.430000000002814, -2.8016953655065864 
3.440000000002835, -2.801252129795296 
3.450000000002856, -2.8007990074774742 
3.460000000002877, -2.8003630813032685 
3.4700000000028983, -2.7999582488614387 
3.4800000000029194, -2.799571887892484 
3.4900000000029405, -2.7991769910341002 
3.5000000000029616, -2.7987516633760228 
3.5100000000029827, -2.798287869458519 
3.520000000003004, -2.7977990811081805 
3.530000000003025, -2.7973297642609065 
3.540000000003046, -2.7969288264410563 
3.550000000003067, -2.7965888523773565 
3.5600000000030882, -2.796254719662472 
3.5700000000031094, -2.7958835850450954 
3.5800000000031305, -2.7954615331180768 
3.5900000000031516, -2.7949933551649524 
3.6000000000031727, -2.794500863680157 
3.6100000000031938, -2.7940245858596056 
3.620000000003215, -2.793600127462669 
3.630000000003236, -2.793219424103811 
3.640000000003257, -2.7928424733751926 
3.650000000003278, -2.792440093693742 
3.6600000000032993, -2.792006663615697 
3.6700000000033204, -2.791555643538604 
3.6800000000033415, -2.791114326017615 
3.6900000000033626, -2.7907055103188236 
3.7000000000033837, -2.7903247794223387 
3.710000000003405, -2.7899452658999784 
3.720000000003426, -2.789539922911645 
3.730000000003447, -2.789093238528787 
3.740000000003468, -2.7886055979970066 
3.750000000003489, -2.7881052094539944 
3.7600000000035103, -2.7876504007399387 
3.7700000000035314, -2.7872768885669346 
3.7800000000035525, -2.786948637328562 
3.7900000000035736, -2.786605944312258 
3.8000000000035947, -2.7862184910161067 
3.810000000003616, -2.7857835758853464 
3.820000000003637, -2.785314597204244 
3.830000000003658, -2.784839667516399 
3.840000000003679, -2.7843938853800974 
3.8500000000037002, -2.783991306363709 
3.8600000000037213, -2.7836094330391203 
3.8700000000037424, -2.7832154816007835 
3.8800000000037635, -2.782792599479806 
3.8900000000037847, -2.7823438730529193 
3.9000000000038058, -2.7818919440500354 
3.910000000003827, -2.7814694838132956 
3.920000000003848, -2.78108864335628 
3.930000000003869, -2.7807264274914782 
3.94000000000389, -2.7803486323819517 
3.9500000000039113, -2.779931855196132 
3.9600000000039324, -2.7794670176010277 
3.9700000000039535, -2.7789635067263134 
3.9800000000039746, -2.778462266588981 
3.9900000000039957, -2.7780237935359944 
4.000000000004016, -2.777663006807666 
4.010000000003993, -2.777329015082567 
4.02000000000397, -2.7769698710383985 
4.030000000003946, -2.7765670927174755 
4.040000000003923, -2.7761255023803084 
4.0500000000039, -2.77566403695569 
4.0600000000038765, -2.7752115475372676 
4.070000000003853, -2.774791510961261 
4.08000000000383, -2.7744007507259942 
4.090000000003807, -2.7740127766095446 
4.100000000003783, -2.7736027397859884 
4.11000000000376, -2.7731614871855923 
4.120000000003737, -2.7726995838211086 
4.130000000003713, -2.772250191547523 
4.14000000000369, -2.7718492608582213 
4.150000000003667, -2.771494462351795 
4.1600000000036434, -2.7711468435870463 
4.17000000000362, -2.7707697385801984 
4.180000000003597, -2.770345133142384 
4.1900000000035735, -2.7698709216398245 
4.20000000000355, -2.769364831287586 
4.210000000003527, -2.768873429261216 
4.220000000003504, -2.7684480036811543 
4.23000000000348, -2.7680861677888657 
4.240000000003457, -2.7677367726903905 
4.250000000003434, -2.7673595656515984 
4.26000000000341, -2.766944260161444 
4.270000000003387, -2.76650027429986 
4.280000000003364, -2.7660499503015545 
4.2900000000033405, -2.7656194650801567 
4.300000000003317, -2.7652196938763725 
4.310000000003294, -2.7648358680886314 
4.320000000003271, -2.764441430936796 
4.330000000003247, -2.76401691942013 
4.340000000003224, -2.763557874405042 
4.350000000003201, -2.7630821101706187 
4.360000000003177, -2.7626339617368254 
4.370000000003154, -2.7622512594360407 
4.380000000003131, -2.7619170573236187 
4.390000000003107, -2.761580249659761 
4.400000000003084, -2.7612046307139098 
4.410000000003061, -2.760778296568128 
4.4200000000030375, -2.7603059592565793 
4.430000000003014, -2.759810740509579 
4.440000000002991, -2.7593366378420803 
4.450000000002968, -2.7589206777565023 
4.460000000002944, -2.7585512869730064 
4.470000000002921, -2.758184907236582 
4.480000000002898, -2.757791635896906 
4.490000000002874, -2.7573661252310786 
4.500000000002851, -2.7569211199933576 
4.510000000002828, -2.7564820334765288 
4.520000000002804, -2.756071735573085 
4.530000000002781, -2.7556897043578426 
4.540000000002758, -2.75531271544788 
4.5500000000027345, -2.7549143607113957 
4.560000000002711, -2.7544782179028657 
4.570000000002688, -2.7540027522730206 
4.580000000002665, -2.7535116908560178 
4.590000000002641, -2.753058610560753 
4.600000000002618, -2.752683149210739 
4.610000000002595, -2.752358439426537 
4.620000000002571, -2.7520261692741235 
4.630000000002548, -2.751651732898704 
4.640000000002525, -2.751228372676981 
4.6500000000025015, -2.7507658548451013 
4.660000000002478, -2.750289049522302 
4.670000000002455, -2.7498347335203346 
4.6800000000024315, -2.7494265561015827 
4.690000000002408, -2.7490497310200426 
4.700000000002385, -2.7486694076049374 
4.710000000002362, -2.7482629331951918 
4.720000000002338, -2.747827768971576 
4.730000000002315, -2.7473799349594143 
4.740000000002292, -2.746949436083096 
4.750000000002268, -2.7465576869687403 
4.760000000002245, -2.7461941874914833 
4.770000000002222, -2.74582770310093 
4.7800000000021985, -2.7454309646873094 
4.790000000002175, -2.7449895838859186 
4.800000000002152, -2.744504148066746 
4.810000000002129, -2.7440010346694055 
4.820000000002105, -2.7435370802654613 
4.830000000002082, -2.743153694240356 
4.840000000002059, -2.7428231810182995 
4.850000000002035, -2.742486577994778 
4.860000000002012, -2.7421106565550164 
4.870000000001989, -2.7416911529344428 
4.880000000001965, -2.741240223517915 
4.890000000001942, -2.7407822278426393 
4.900000000001919, -2.7403464342533956 
4.9100000000018955, -2.7399462435244706 
4.920000000001872, -2.739565682040199 
4.930000000001849, -2.739176154186438 
4.940000000001826, -2.7387590594071876 
4.950000000001802, -2.738312952109262 
4.960000000001779, -2.737856999153828 
