t, s[1].omega / s[0].omega 
0, -1.3499973470017166 
0.009999999999999995, -1.3497223395958735 
0.019999999999999934, -1.3494292057126678 
0.029999999999999874, -1.34912120206981 
0.04000000000000012, -1.3488036647127042 
0.050000000000000405, -1.3484836550826267 
0.06000000000000069, -1.3481690841837577 
0.07000000000000098, -1.347867238493393 
0.08000000000000126, -1.3475830208362862 
0.09000000000000155, -1.3473176107659413 
0.10000000000000184, -1.3470682355699526 
0.11000000000000212, -1.3468291722420072 
0.12000000000000241, -1.3465933970369015 
0.130000000000002, -1.3463540685394713 
0.1400000000000009, -1.34610537812818 
0.1499999999999998, -1.345842814701213 
0.1599999999999987, -1.3455631846785139 
0.1699999999999976, -1.34526474589418 
0.1799999999999965, -1.3449476693942577 
0.1899999999999954, -1.3446148085580494 
0.1999999999999943, -1.3442724342566201 
0.2099999999999932, -1.3439302564363282 
0.2199999999999921, -1.3435999790263495 
0.229999999999991, -1.343292231422837 
0.2399999999999899, -1.3430129634176624 
0.2499999999999888, -1.3427613060244092 
0.2599999999999877, -1.3425302675207136 
0.2699999999999866, -1.342309709586114 
0.2799999999999855, -1.3420896725258733 
0.2899999999999844, -1.3418624565687263 
0.2999999999999833, -1.3416231512137045 
0.3099999999999822, -1.3413692205036896 
0.3199999999999811, -1.3410998966477963 
0.32999999999998, -1.3408158640200996 
0.3399999999999789, -1.340519399449459 
0.3499999999999778, -1.3402148640563745 
0.35999999999997667, -1.339909157338551 
0.36999999999997557, -1.339611471715511 
0.37999999999997447, -1.3393316999531817 
0.38999999999997337, -1.339077518976906 
0.39999999999997227, -1.3388513517206433 
0.40999999999997117, -1.3386490435042244 
0.41999999999997006, -1.3384612099427156 
0.42999999999996896, -1.3382764252079071 
0.43999999999996786, -1.33808442097366 
0.44999999999996676, -1.3378779668985046 
0.45999999999996566, -1.3376532561381547 
0.46999999999996456, -1.337409377037273 
0.47999999999996346, -1.337147554637701 
0.48999999999996235, -1.3368705880187353 
0.49999999999996125, -1.3365825983724122 
0.5099999999999602, -1.3362889575550816 
0.519999999999959, -1.335996103718342 
0.529999999999958, -1.335710912739288 
0.5399999999999568, -1.335439478722106 
0.5499999999999557, -1.3351855747383297 
0.5599999999999546, -1.3349494625821197 
0.5699999999999535, -1.3347276982810548 
0.5799999999999524, -1.3345140526074002 
0.5899999999999513, -1.3343010609019774 
0.5999999999999502, -1.3340815230320902 
0.6099999999999491, -1.333849531378172 
0.619999999999948, -1.333600985948783 
0.6299999999999469, -1.3333337816700355 
0.6399999999999458, -1.3330478757852642 
0.6499999999999447, -1.3327453468221182 
0.6599999999999436, -1.3324304210551987 
0.6699999999999425, -1.3321093111307776 
0.6799999999999414, -1.331789632051669 
0.6899999999999403, -1.3314792200699457 
0.6999999999999392, -1.3311844594283113 
0.7099999999999381, -1.3309086390847082 
0.719999999999937, -1.3306510892318915 
0.7299999999999359, -1.3304075569974603 
0.7399999999999348, -1.330171589617358 
0.7499999999999337, -1.3299361730466106 
0.7599999999999326, -1.3296949350394847 
0.7699999999999315, -1.329442689706835 
0.7799999999999304, -1.3291755287507792 
0.7899999999999293, -1.3288908231753855 
0.7999999999999282, -1.3285874381313543 
0.8099999999999271, -1.3282662930416698 
0.819999999999926, -1.3279311527678976 
0.8299999999999249, -1.327589214395466 
0.8399999999999238, -1.3272507745130881 
0.8499999999999227, -1.3269273508507877 
0.8599999999999216, -1.3266284159965172 
0.8699999999999205, -1.326358114197443 
0.8799999999999194, -1.3261138670295523 
0.8899999999999183, -1.3258877378163065 
0.8999999999999172, -1.3256695673525554 
0.9099999999999161, -1.3254499833154856 
0.919999999999915, -1.325222040606816 
0.9299999999999139, -1.3249814625080885 
0.9399999999999128, -1.3247261427232577 
0.9499999999999117, -1.324455582065283 
0.9599999999999106, -1.3241706529428234 
0.9699999999999095, -1.3238738017470237 
0.9799999999999084, -1.3235695545764452 
0.9899999999999073, -1.3232649248689368 
0.9999999999999062, -1.322969079027643 
1.0099999999999052, -1.3226916768270847 
1.019999999999904, -1.3224399937438904 
1.029999999999903, -1.3222160443197928 
1.039999999999902, -1.3220154431100553 
1.0499999999999008, -1.3218288266534777 
1.0599999999998997, -1.3216449727386026 
1.0699999999998986, -1.321453867962673 
1.0799999999998975, -1.321248486292231 
1.0899999999998964, -1.3210251332827168 
1.0999999999998953, -1.3207829184168927 
1.1099999999998942, -1.3205230103811867 
1.119999999999893, -1.3202480853093161 
1.129999999999892, -1.3199620838218662 
1.1399999999998909, -1.3196701609488168 
1.1499999999998898, -1.3193785548378978 
1.1599999999998887, -1.3190940491279088 
1.1699999999998876, -1.3188228520397896 
1.1799999999998865, -1.3185690959045704 
1.1899999999998854, -1.3183335694247684 
1.1999999999998843, -1.3181133493645953 
1.2099999999998832, -1.317902548893582 
1.219999999999882, -1.3176937923795058 
1.229999999999881, -1.317479755066389 
1.2399999999998799, -1.3172542894922674 
1.2499999999998788, -1.3170130256480523 
1.2599999999998777, -1.3167535872880494 
1.2699999999998766, -1.316475628873114 
1.2799999999998755, -1.316180831064283 
1.2899999999998744, -1.3158728774333963 
1.2999999999998733, -1.3155573150293767 
1.3099999999998722, -1.3152411117546905 
1.319999999999871, -1.3149317302264003 
1.32999999999987, -1.3146357203276846 
1.3399999999998689, -1.3143571744424098 
1.3499999999998678, -1.314096669405108 
1.3599999999998666, -1.3138512239262874 
1.3699999999998655, -1.3136152825784047 
1.3799999999998644, -1.3133821869863296 
1.3899999999998633, -1.3131454617280043 
1.3999999999998622, -1.3128995541162576 
1.4099999999998611, -1.3126400832219274 
1.41999999999986, -1.3123638861725282 
1.429999999999859, -1.3120691608687938 
1.4399999999998578, -1.3117558824414917 
1.4499999999998567, -1.3114264749575946 
1.4599999999998556, -1.3110864605339767 
1.4699999999998545, -1.3107445402296318 
1.4799999999998534, -1.3104114873135944 
1.4899999999998523, -1.3100976494899104 
1.4999999999998512, -1.3098097941926508 
1.5099999999998501, -1.309548858814423 
1.519999999999849, -1.3093099317170371 
1.529999999999848, -1.3090844003002386 
1.5399999999998468, -1.308862874918497 
1.5499999999998457, -1.3086373924176409 
1.5599999999998446, -1.3084023085405805 
1.5699999999998435, -1.3081541854163001 
1.5799999999998424, -1.3078913006263606 
1.5899999999998413, -1.3076132799760576 
1.5999999999998402, -1.3073211072894886 
1.6099999999998391, -1.3070175371237005 
1.619999999999838, -1.3067077018040412 
1.629999999999837, -1.3063994217669932 
1.6399999999998358, -1.3061025246871423 
1.6499999999998347, -1.3058267039749432 
1.6599999999998336, -1.305578350204936 
1.6699999999998325, -1.3053578969807638 
1.6799999999998314, -1.305159373023083 
1.6899999999998303, -1.3049725242308994 
1.6999999999998292, -1.3047861875721332 
1.709999999999828, -1.304591112141453 
1.719999999999827, -1.3043812728649624 
1.729999999999826, -1.3041538326124216 
1.7399999999998248, -1.3039084410279367 
1.7499999999998237, -1.3036464964024557 
1.7599999999998226, -1.3033706979485065 
1.7699999999998215, -1.3030849341302715 
1.7799999999998204, -1.3027943470408652 
1.7899999999998193, -1.3025052681247762 
1.7999999999998182, -1.3022246743792525 
1.809999999999817, -1.3019589788270387 
1.819999999999816, -1.3017123897686442 
1.8299999999998149, -1.3014855248035826 
1.8399999999998138, -1.3012750225722587 
1.8499999999998127, -1.301074392987705 
1.8599999999998116, -1.3008756705565037 
1.8699999999998105, -1.3006711296820197 
1.8799999999998094, -1.3004545159346317 
1.8899999999998083, -1.3002216484030102 
1.8999999999998072, -1.2999705407122104 
1.909999999999806, -1.299701277374476 
1.919999999999805, -1.299415830339227 
1.9299999999998039, -1.299117890108731 
1.9399999999998028, -1.2988126636750734 
1.9499999999998017, -1.2985064914748952 
1.9599999999998006, -1.2982061132684024 
1.9699999999997995, -1.2979175373274856 
1.9799999999997984, -1.2976447385708536 
1.9899999999997973, -1.2973886685923812 
1.9999999999997962, -1.2971470480349654 
2.0099999999998173, -1.2969150457327019 
2.0199999999998384, -1.296686487466387 
2.0299999999998595, -1.2964550491002953 
2.0399999999998806, -1.2962150697696946 
2.0499999999999017, -1.295961949970131 
2.059999999999923, -1.2956923259053323 
2.069999999999944, -1.295404255849342 
2.079999999999965, -1.2950975666582412 
2.089999999999986, -1.294774351486808 
2.100000000000007, -1.2944394180719816 
2.1100000000000283, -1.2941003087305807 
2.1200000000000494, -1.2937664656414722 
2.1300000000000705, -1.293447365322654 
2.1400000000000916, -1.293150038607458 
2.1500000000001127, -1.2928770093995892 
2.160000000000134, -1.2926257266064236 
2.170000000000155, -1.2923897688637234 
2.180000000000176, -1.2921610535638917 
2.190000000000197, -1.291931878132161 
2.2000000000002182, -1.291696066852087 
2.2100000000002393, -1.2914492150165398 
2.2200000000002604, -1.2911884451220321 
2.2300000000002815, -1.2909121284420855 
2.2400000000003026, -1.2906198755876157 
2.2500000000003237, -1.290312916066978 
2.260000000000345, -1.2899947816651727 
2.270000000000366, -1.2896719350273382 
2.280000000000387, -1.2893536940608774 
2.290000000000408, -1.2890507713767776 
2.3000000000004293, -1.2887723528317163 
2.3100000000004504, -1.2885228068091834 
2.3200000000004715, -1.2882998919035566 
2.3300000000004926, -1.2880956514455604 
2.3400000000005137, -1.2878993990691787 
2.3500000000005348, -1.2877009802973638 
2.360000000000556, -1.2874928189836505 
2.370000000000577, -1.2872704310196075 
2.380000000000598, -1.2870319525464957 
2.390000000000619, -1.2867773968140355 
2.4000000000006403, -1.2865081125928133 
2.4100000000006614, -1.28622661884175 
2.4200000000006825, -1.2859367651333105 
2.4300000000007036, -1.285643989780916 
2.4400000000007247, -1.285355293189576 
2.450000000000746, -1.2850785003484861 
2.460000000000767, -1.2848206347491664 
2.470000000000788, -1.2845858130683852 
2.480000000000809, -1.2843736379023971 
2.49000000000083, -1.284179025780158 
2.5000000000008513, -1.283993625196471 
2.5100000000008724, -1.2838080813555848 
2.5200000000008935, -1.2836141143673856 
2.5300000000009146, -1.2834057621812724 
2.5400000000009357, -1.2831797253939912 
2.550000000000957, -1.282935121974468 
2.560000000000978, -1.2826730305709728 
2.570000000000999, -1.28239608782047 
2.58000000000102, -1.282108234866665 
2.5900000000010412, -1.281814548175047 
2.6000000000010624, -1.2815209728140213 
2.6100000000010835, -1.2812337480845661 
2.6200000000011046, -1.2809584359147117 
2.6300000000011257, -1.2806987311142923 
2.6400000000011468, -1.280455497248748 
2.650000000001168, -1.2802264894042172 
2.660000000001189, -1.2800069106119123 
2.67000000000121, -1.2797905269586578 
2.680000000001231, -1.2795708649506965 
2.6900000000012523, -1.2793421323172685 
2.7000000000012734, -1.2790997683326366 
2.7100000000012945, -1.278840728841164 
2.7200000000013156, -1.2785636643204807 
2.7300000000013367, -1.2782690934738445 
2.740000000001358, -1.277959573196163 
2.750000000001379, -1.2776397592863105 
2.7600000000014, -1.2773161697162938 
2.770000000001421, -1.276996451416841 
2.780000000001442, -1.2766880826313534 
2.7900000000014633, -1.276396740431084 
2.8000000000014844, -1.2761248929264482 
2.8100000000015055, -1.2758712491865707 
2.8200000000015266, -1.2756313324170414 
2.8300000000015477, -1.2753988446610838 
2.840000000001569, -1.2751671382592904 
2.85000000000159, -1.2749302408981844 
2.860000000001611, -1.274683290373424 
2.870000000001632, -1.2744225734223664 
2.8800000000016532, -1.27414547869195 
2.8900000000016743, -1.2738506215481689 
2.9000000000016954, -1.2735382686372279 
2.9100000000017165, -1.2732110103200356 
2.9200000000017377, -1.2728743904848805 
2.9300000000017588, -1.272536959599343 
2.94000000000178, -1.2722091699958729 
2.950000000001801, -1.2719009559434213 
2.960000000001822, -1.2716187315943877 
2.970000000001843, -1.2713632825096526 
2.9800000000018643, -1.271129767780808 
2.9900000000018854, -1.270909759657935 
3.0000000000019065, -1.2706940348067273 
3.0100000000019276, -1.2704747204089677 
3.0200000000019487, -1.2702462081432613 
3.03000000000197, -1.2700050810455086 
3.040000000001991, -1.2697496229123089 
3.050000000002012, -1.2694793876855446 
3.060000000002033, -1.269195084889445 
3.070000000002054, -1.2688988402232277 
3.0800000000020753, -1.2685947103070354 
3.0900000000020964, -1.268289114984156 
3.1000000000021175, -1.267990640239826 
3.1100000000021386, -1.2677086813752114 
3.1200000000021597, -1.2674509191156533 
3.130000000002181, -1.2672205584599836 
3.140000000002202, -1.2670148563137258 
3.150000000002223, -1.266825916634891 
3.160000000002244, -1.2666433093666982 
3.1700000000022652, -1.2664570372639654 
3.1800000000022863, -1.2662595376398253 
3.1900000000023074, -1.266046323798664 
3.2000000000023285, -1.2658156466015291 
3.2100000000023496, -1.2655677904845737 
3.2200000000023707, -1.2653044645694294 
3.230000000002392, -1.2650284913203702 
3.240000000002413, -1.2647437802798955 
3.250000000002434, -1.2644554173500822 
3.260000000002455, -1.2641695875720627 
3.2700000000024763, -1.2638930255551093 
3.2800000000024974, -1.2636318522371979 
3.2900000000025185, -1.2633900359787502 
3.3000000000025396, -1.263168105000958 
3.3100000000025607, -1.2629627784170758 
3.3200000000025818, -1.2627677426032828 
3.330000000002603, -1.2625752002336892 
3.340000000002624, -1.2623775230852599 
3.350000000002645, -1.262168480550562 
3.360000000002666, -1.2619438649806103 
3.3700000000026873, -1.2617016182922085 
3.3800000000027084, -1.261441676868263 
3.3900000000027295, -1.2611657300479608 
3.4000000000027506, -1.260877000034853 
3.4100000000027717, -1.2605800432015948 
3.420000000002793, -1.2602804733154813 
3.430000000002814, -1.2599844551836348 
3.440000000002835, -1.2596978681228672 
3.450000000002856, -1.2594252205700966 
3.460000000002877, -1.2591686341710262 
3.4700000000028983, -1.2589273209468907 
3.4800000000029194, -1.2586978051927171 
3.4900000000029405, -1.258474777851844 
3.5000000000029616, -1.258252191229704 
3.5100000000029827, -1.2580241995021195 
3.520000000003004, -1.2577857644682036 
3.530000000003025, -1.2575329765218581 
3.540000000003046, -1.2572632526377245 
3.550000000003067, -1.2569755570770416 
3.5600000000030882, -1.2566706983744298 
3.5700000000031094, -1.2563516353630662 
3.5800000000031305, -1.2560236076760531 
3.5900000000031516, -1.2556938336099193 
3.6000000000031727, -1.2553705605839618 
3.6100000000031938, -1.255061481219728 
3.620000000003215, -1.2547719117557834 
3.630000000003236, -1.2545034432868962 
3.640000000003257, -1.2542536988970752 
3.650000000003278, -1.2540172873054778 
3.6600000000032993, -1.2537874117420995 
3.6700000000033204, -1.2535573675224572 
3.6800000000033415, -1.2533214416759733 
3.6900000000033626, -1.253075184778479 
3.7000000000033837, -1.25281532103533 
3.710000000003405, -1.2525396202903205 
3.720000000003426, -1.25224697370709 
3.730000000003447, -1.251937785112324 
3.740000000003468, -1.2516146248707212 
3.750000000003489, -1.2512828692774787 
3.7600000000035103, -1.2509508070464297 
3.7700000000035314, -1.2506286289844524 
3.7800000000035525, -1.2503261067685432 
3.7900000000035736, -1.25004963549011 
3.8000000000035947, -1.249800080108607 
3.810000000003616, -1.249572672721078 
3.820000000003637, -1.2493589686925706 
3.830000000003658, -1.2491496366811883 
3.840000000003679, -1.2489366745272767 
3.8500000000037002, -1.2487144036687468 
3.8600000000037213, -1.2484794354402617 
3.8700000000037424, -1.248230162987258 
3.8800000000037635, -1.2479662638413054 
3.8900000000037847, -1.2476884817380003 
3.9000000000038058, -1.2473987633959875 
3.910000000003827, -1.2471006684539225 
3.920000000003848, -1.246799797430896 
3.930000000003869, -1.2465037965047159 
3.94000000000389, -1.2462214434322156 
3.9500000000039113, -1.245960637205218 
3.9600000000039324, -1.2457258519528198 
3.9700000000039535, -1.2455162988676989 
3.9800000000039746, -1.2453259209647822 
3.9900000000039957, -1.2451452935774625 
4.000000000004016, -1.2449643770865817 
4.010000000003993, -1.2447748047141152 
4.02000000000397, -1.2445710003885595 
4.030000000003946, -1.2443502106321407 
4.040000000003923, -1.2441119494971347 
4.0500000000039, -1.2438573517596405 
4.0600000000038765, -1.2435887278111164 
4.070000000003853, -1.2433094003301828 
4.08000000000383, -1.2430237392804497 
4.090000000003807, -1.2427371910347909 
4.100000000003783, -1.2424560278179606 
4.11000000000376, -1.24218659003554 
4.120000000003737, -1.2419340282089957 
4.130000000003713, -1.2417009168417592 
4.14000000000369, -1.2414863562075598 
4.150000000003667, -1.2412860373209564 
4.1600000000036434, -1.2410932643961814 
4.17000000000362, -1.2409004721474761 
4.180000000003597, -1.240700657750438 
4.1900000000035735, -1.240488354865048 
4.20000000000355, -1.2402600768198015 
4.210000000003527, -1.2400143581161358 
4.220000000003504, -1.23975158493456 
4.23000000000348, -1.2394737704836192 
4.240000000003457, -1.239184351097915 
4.250000000003434, -1.238887985217188 
4.26000000000341, -1.2385902545883578 
4.270000000003387, -1.2382971337770947 
4.280000000003364, -1.238014159234656 
4.2900000000033405, -1.2377454059237782 
4.300000000003317, -1.2374925833675894 
4.310000000003294, -1.237254626158392 
4.320000000003271, -1.237027971225648 
4.330000000003247, -1.2368073876527776 
4.340000000003224, -1.2365869973147343 
4.350000000003201, -1.2363611429012324 
4.360000000003177, -1.2361249541685693 
4.370000000003154, -1.2358746609351388 
4.380000000003131, -1.2356077929466074 
4.390000000003107, -1.2353233887836648 
4.400000000003084, -1.2350222549541807 
4.410000000003061, -1.2347072147730391 
4.4200000000030375, -1.2343831928450926 
4.430000000003014, -1.234056926401822 
4.440000000002991, -1.2337361300712322 
4.450000000002968, -1.233428118447941 
4.460000000002944, -1.2331381946695248 
4.470000000002921, -1.2328683811880408 
4.480000000002898, -1.232617049425185 
4.490000000002874, -1.232379602620644 
4.500000000002851, -1.232149831183582 
4.510000000002828, -1.2319212977313183 
4.520000000002804, -1.2316882709714503 
4.530000000002781, -1.2314461008805382 
4.540000000002758, -1.2311912187362686 
4.5500000000027345, -1.2309210409197273 
4.560000000002711, -1.23063401002672 
4.570000000002688, -1.2303299024054213 
4.580000000002665, -1.2300103941082912 
4.590000000002641, -1.2296796937498167 
4.600000000002618, -1.2293448387584278 
4.610000000002595, -1.2290151359225496 
4.620000000002571, -1.2287004286783973 
4.630000000002548, -1.2284085033588485 
4.640000000002525, -1.2281426980109127 
4.6500000000025015, -1.227900966144875 
4.660000000002478, -1.2276768910608002 
4.670000000002455, -1.2274619806198535 
4.6800000000024315, -1.227247986831503 
4.690000000002408, -1.2270283416171401 
4.700000000002385, -1.2267985564774433 
4.710000000002362, -1.226555955087523 
4.720000000002338, -1.2262992120494416 
4.730000000002315, -1.226028035346385 
4.740000000002292, -1.2257431549933837 
4.750000000002268, -1.2254466359300933 
4.760000000002245, -1.225142388824039 
4.770000000002222, -1.2248365686608667 
4.7800000000021985, -1.224537376948735 
4.790000000002175, -1.2242538127240399 
4.800000000002152, -1.2239933758014394 
4.810000000002129, -1.2237595274874233 
4.820000000002105, -1.2235502412378159 
4.830000000002082, -1.223358555572455 
4.840000000002059, -1.2231748395807582 
4.850000000002035, -1.222989520049088 
4.860000000002012, -1.222795050475101 
4.870000000001989, -1.2225866595252495 
4.880000000001965, -1.222362142032889 
4.890000000001942, -1.222121232329226 
4.900000000001919, -1.221865006304411 
4.9100000000018955, -1.2215955408933983 
4.920000000001872, -1.2213158695924098 
4.930000000001849, -1.2210301342978773 
4.940000000001826, -1.2207437209763063 
