t, s[1].omega / s[0].omega 
0, -5.2999905393843285 
0.009999999999999995, -5.298995311259473 
0.019999999999999934, -5.297978995884945 
0.029999999999999874, -5.297084531129424 
0.04000000000000012, -5.29619385479216 
0.050000000000000405, -5.29522329654653 
0.06000000000000069, -5.294230033721534 
0.07000000000000098, -5.2933093535447195 
0.08000000000000126, -5.292397809604266 
0.09000000000000155, -5.29143469393994 
0.10000000000000184, -5.290470999491586 
0.11000000000000212, -5.289551978100855 
0.12000000000000241, -5.28862125652381 
0.130000000000002, -5.287645679970789 
0.1400000000000009, -5.286698963781191 
0.1499999999999998, -5.2858019723799945 
0.1599999999999987, -5.284865826780388 
0.1699999999999976, -5.283863440263742 
0.1799999999999965, -5.2829099440865255 
0.1899999999999954, -5.2820461281089495 
0.1999999999999943, -5.281126316440701 
0.2099999999999932, -5.280114258948821 
0.2199999999999921, -5.279127927527148 
0.229999999999991, -5.278264438854788 
0.2399999999999899, -5.277363587780143 
0.2499999999999888, -5.276378078424694 
0.2599999999999877, -5.275392433016522 
0.2699999999999866, -5.274495126066761 
0.2799999999999855, -5.273585416849442 
0.2899999999999844, -5.272620157379 
0.2999999999999833, -5.271662019410095 
0.3099999999999822, -5.270751201138031 
0.3199999999999811, -5.269822140409323 
0.32999999999998, -5.26885425493734 
0.3399999999999789, -5.267919780470784 
0.3499999999999778, -5.267020588957355 
0.35999999999997667, -5.266078959141916 
0.36999999999997557, -5.265086995782427 
0.37999999999997447, -5.26416142130736 
0.38999999999997337, -5.26329380214519 
0.39999999999997227, -5.262359276189201 
0.40999999999997117, -5.261343916418073 
0.41999999999997006, -5.260390941020953 
0.42999999999996896, -5.259541712480689 
0.43999999999996786, -5.258630785187615 
0.44999999999996676, -5.257634586394898 
0.45999999999996566, -5.256661040814997 
0.46999999999996456, -5.255783397456877 
0.47999999999996346, -5.2548756439227455 
0.48999999999996235, -5.253908342218393 
0.49999999999996125, -5.2529538153470465 
0.5099999999999602, -5.252052020041388 
0.519999999999959, -5.251128127268037 
0.529999999999958, -5.250167326145844 
0.5399999999999568, -5.24923784831934 
0.5499999999999557, -5.248338572820735 
0.5599999999999546, -5.247399061836461 
0.5699999999999535, -5.24642042834063 
0.5799999999999524, -5.245508136283352 
0.5899999999999513, -5.244635141701573 
0.5999999999999502, -5.2436952265747 
0.6099999999999491, -5.242686351066536 
0.619999999999948, -5.241757876182754 
0.6299999999999469, -5.24091362801576 
0.6399999999999458, -5.239996994062084 
0.6499999999999447, -5.238995361356749 
0.6599999999999436, -5.238033469915976 
0.6699999999999425, -5.237171630144988 
0.6799999999999414, -5.236267879217862 
0.6899999999999403, -5.235299038259133 
0.6999999999999392, -5.234345749134978 
0.7099999999999381, -5.23345342632819 
0.719999999999937, -5.232537811066829 
0.7299999999999359, -5.231582647961855 
0.7399999999999348, -5.230653716191053 
0.7499999999999337, -5.2297568842607305 
0.7599999999999326, -5.22882501768799 
0.7699999999999315, -5.2278581243359 
0.7799999999999304, -5.2269491046043575 
0.7899999999999293, -5.22607336032973 
0.7999999999999282, -5.225136664920931 
0.8099999999999271, -5.224138734491867 
0.819999999999926, -5.223222065111322 
0.8299999999999249, -5.222379595462347 
0.8399999999999238, -5.221463812557755 
0.8499999999999227, -5.220462216026078 
0.8599999999999216, -5.219506749440386 
0.8699999999999205, -5.218657413249066 
0.8799999999999194, -5.217761428506762 
0.8899999999999183, -5.216792791817252 
0.8999999999999172, -5.215837088396955 
0.9099999999999161, -5.214953568056069 
0.919999999999915, -5.214049534550487 
0.9299999999999139, -5.213099678475578 
0.9399999999999128, -5.212167927326297 
0.9499999999999117, -5.211274677780717 
0.9599999999999106, -5.210354438921756 
0.9699999999999095, -5.20939739640717 
0.9799999999999084, -5.208485484012487 
0.9899999999999073, -5.207609556780151 
0.9999999999999062, -5.206682942018576 
1.0099999999999052, -5.20569742835067 
1.019999999999904, -5.204780975274625 
1.029999999999903, -5.203939445399914 
1.039999999999902, -5.203031823545654 
1.0499999999999008, -5.202036084595671 
1.0599999999998997, -5.201078871237842 
1.0699999999998986, -5.200238131092702 
1.0799999999998975, -5.199355075849423 
1.0899999999998964, -5.1983905237773484 
1.0999999999998953, -5.197427769991701 
1.1099999999998942, -5.196549956248402 
1.119999999999893, -5.1956613034627255 
1.129999999999892, -5.194718669799776 
1.1399999999998909, -5.193781206661805 
1.1499999999998898, -5.192890116062206 
1.1599999999998887, -5.191984539734841 
1.1699999999998876, -5.191037575653704 
1.1799999999998865, -5.19011888535426 
1.1899999999998854, -5.1892430820765725 
1.1999999999998843, -5.1883313770161195 
1.2099999999998832, -5.18736006483422 
1.219999999999882, -5.186435125173867 
1.229999999999881, -5.185592586875935 
1.2399999999998799, -5.1846998134094715 
1.2499999999998788, -5.183716995584107 
1.2599999999998777, -5.18275010097488 
1.2699999999998766, -5.1819109000512675 
1.2799999999998755, -5.181046442377024 
1.2899999999998744, -5.180092795859284 
1.2999999999998733, -5.17911952056445 
1.3099999999998722, -5.178239830803851 
1.319999999999871, -5.177370241289288 
1.32999999999987, -5.17643968825522 
1.3399999999998689, -5.175495213139046 
1.3499999999998678, -5.1746012184125 
1.3599999999998666, -5.173712079341181 
1.3699999999998655, -5.172778399046952 
1.3799999999998644, -5.171851411368055 
1.3899999999998633, -5.170972577661157 
1.3999999999998622, -5.170078163710272 
1.4099999999998611, -5.1691249745176995 
1.41999999999986, -5.168187406708312 
1.429999999999859, -5.167338113060231 
1.4399999999998578, -5.166464595182939 
1.4499999999998567, -5.16550331047904 
1.4599999999998556, -5.164523972876159 
1.4699999999998545, -5.163673290459803 
1.4799999999998534, -5.162831471356257 
1.4899999999998523, -5.161898397505622 
1.4999999999998512, -5.160916588960474 
1.5099999999998501, -5.160021434333578 
1.519999999999849, -5.159172024735199 
1.529999999999848, -5.158261321298772 
1.5399999999998468, -5.15731285367827 
1.5499999999998457, -5.1564072633653915 
1.5599999999998446, -5.155533093709694 
1.5699999999998435, -5.154618386508394 
1.5799999999998424, -5.153685838093713 
1.5899999999998413, -5.152797482671645 
1.5999999999998402, -5.151918964537524 
1.6099999999998391, -5.150989380821895 
1.619999999999838, -5.150042436880164 
1.629999999999837, -5.1491760759139735 
1.6399999999998358, -5.148321575455182 
1.6499999999998347, -5.147390463465846 
1.6599999999998336, -5.146406439732876 
1.6699999999998325, -5.145525695778454 
1.6799999999998314, -5.144704507471627 
1.6899999999998303, -5.143802743051056 
1.6999999999998292, -5.14282401451504 
1.709999999999828, -5.141897267891065 
1.719999999999827, -5.141060929009181 
1.729999999999826, -5.140179265723822 
1.7399999999998248, -5.139236734581254 
1.7499999999998237, -5.138311208905536 
1.7599999999998226, -5.137443322444962 
1.7699999999998215, -5.136553526527203 
1.7799999999998204, -5.13562441291244 
1.7899999999998193, -5.134719959965377 
1.7999999999998182, -5.133849855793234 
1.809999999999817, -5.132948109547221 
1.819999999999816, -5.1320040184837925 
1.8299999999998149, -5.131109957992079 
1.8399999999998138, -5.130266170509716 
1.8499999999998127, -5.1293707412728455 
1.8599999999998116, -5.128400638488559 
1.8699999999998105, -5.127475760736038 
1.8799999999998094, -5.126659700793496 
1.8899999999998083, -5.125797456151479 
1.8999999999998072, -5.124841784742343 
1.909999999999806, -5.123878512839379 
1.919999999999805, -5.123031927028096 
1.9299999999998039, -5.122185635014022 
1.9399999999998028, -5.121265178528053 
1.9499999999998017, -5.120321340645924 
1.9599999999998006, -5.119440782995565 
1.9699999999997995, -5.1185770319323165 
1.9799999999997984, -5.117665603995343 
1.9899999999997973, -5.116745822500257 
1.9999999999997962, -5.1158696223400515 
2.0099999999998173, -5.114994185765353 
2.0199999999998384, -5.114070078513249 
2.0299999999998595, -5.1131485931126495 
2.0399999999998806, -5.112296587867489 
2.0499999999999017, -5.111435181706981 
2.059999999999923, -5.1104996063969965 
2.069999999999944, -5.109540186216855 
2.079999999999965, -5.108695620188444 
2.089999999999986, -5.107871940758863 
2.100000000000007, -5.106959404202341 
2.1100000000000283, -5.105981711205989 
2.1200000000000494, -5.105088240457893 
2.1300000000000705, -5.1042699292426725 
2.1400000000000916, -5.103388818263044 
2.1500000000001127, -5.102445855672304 
2.160000000000134, -5.101532215228881 
2.170000000000155, -5.100681237283326 
2.180000000000176, -5.0998011500520315 
2.190000000000197, -5.0988806515704646 
2.2000000000002182, -5.097983771114341 
2.2100000000002393, -5.097121684506318 
2.2200000000002604, -5.096230005684883 
2.2300000000002815, -5.095301349301827 
2.2400000000003026, -5.094418777206411 
2.2500000000003237, -5.093576940692742 
2.260000000000345, -5.092686871256603 
2.270000000000366, -5.0917306478179665 
2.280000000000387, -5.090825709715885 
2.290000000000408, -5.090016951622402 
2.3000000000004293, -5.0891587882106295 
2.3100000000004504, -5.088207902972146 
2.3200000000004715, -5.087254067119122 
2.3300000000004926, -5.086424138367091 
2.3400000000005137, -5.0855918350521465 
2.3500000000005348, -5.084679534946357 
2.360000000000556, -5.08373725306373 
2.370000000000577, -5.0828644936878975 
2.380000000000598, -5.082017515949048 
2.390000000000619, -5.081120448883361 
2.4000000000006403, -5.080205189306161 
2.4100000000006614, -5.0793315698963735 
2.4200000000006825, -5.078469830919601 
2.4300000000007036, -5.0775638252459885 
2.4400000000007247, -5.076649633914543 
2.450000000000746, -5.075796555780621 
2.460000000000767, -5.074946454544604 
2.470000000000788, -5.074031093952822 
2.480000000000809, -5.073082525303874 
2.49000000000083, -5.072234176012684 
2.5000000000008513, -5.0714226291081435 
2.5100000000008724, -5.070530053944223 
2.5200000000008935, -5.069561970089345 
2.5300000000009146, -5.068660823353342 
2.5400000000009357, -5.067857380264948 
2.550000000000957, -5.06700003856143 
2.560000000000978, -5.06606817250857 
2.570000000000999, -5.065146387934699 
2.58000000000102, -5.064303351893594 
2.5900000000010412, -5.063447430501127 
2.6000000000010624, -5.062540723729086 
2.6100000000010835, -5.061639267110687 
2.6200000000011046, -5.06078225051276 
2.6300000000011257, -5.059914048244498 
2.6400000000011468, -5.059001988600922 
2.650000000001168, -5.058110481154957 
2.660000000001189, -5.057271977027084 
2.67000000000121, -5.056408446665338 
2.680000000001231, -5.055477556465657 
2.6900000000012523, -5.054556875039961 
2.7000000000012734, -5.053742752462449 
2.7100000000012945, -5.052914887139468 
2.7200000000013156, -5.051996085218287 
2.7300000000013367, -5.051033313569667 
2.740000000001358, -5.050182753015345 
2.750000000001379, -5.049380178012175 
2.7600000000014, -5.048501188231708 
2.770000000001421, -5.047562320879864 
2.780000000001442, -5.046668902967793 
2.7900000000014633, -5.04583999736707 
2.8000000000014844, -5.044973696655572 
2.8100000000015055, -5.044064968636202 
2.8200000000015266, -5.043179573902611 
2.8300000000015477, -5.042331877904706 
2.840000000001569, -5.0414567879707715 
2.85000000000159, -5.040546703386914 
2.860000000001611, -5.039676190604622 
2.870000000001632, -5.038842847929735 
2.8800000000016532, -5.037967485609512 
2.8900000000016743, -5.037031858998521 
2.9000000000016954, -5.036143120573302 
2.9100000000017165, -5.035343583323074 
2.9200000000017377, -5.034499708878349 
2.9300000000017588, -5.0335648274767655 
2.94000000000178, -5.032621084198868 
2.950000000001801, -5.031804347899023 
2.960000000001822, -5.030994347273091 
2.970000000001843, -5.0301009556608935 
2.9800000000018643, -5.029164641342925 
2.9900000000018854, -5.02829649475795 
3.0000000000019065, -5.027472333825083 
3.0100000000019276, -5.026599098850779 
3.0200000000019487, -5.025693401968169 
3.03000000000197, -5.0248222358944 
3.040000000001991, -5.0239793452792325 
3.050000000002012, -5.023100161585878 
3.060000000002033, -5.02219644729985 
3.070000000002054, -5.021341600992513 
3.0800000000020753, -5.0205099330177685 
3.0900000000020964, -5.0196271437427935 
3.1000000000021175, -5.018694213240721 
3.1100000000021386, -5.017830899616788 
3.1200000000021597, -5.017036598673078 
3.130000000002181, -5.01618215193365 
3.140000000002202, -5.015240366868384 
3.150000000002223, -5.014317380603966 
3.160000000002244, -5.013519402958788 
3.1700000000022652, -5.012703235659221 
3.1800000000022863, -5.011802900009263 
3.1900000000023074, -5.0108735792766055 
3.2000000000023285, -5.010023111196155 
3.2100000000023496, -5.009200828328891 
3.2200000000023707, -5.008325166982086 
3.230000000002392, -5.007424699147694 
3.240000000002413, -5.006564282541718 
3.250000000002434, -5.005724742050701 
3.260000000002455, -5.004845020850364 
3.2700000000024763, -5.003948404043349 
3.2800000000024974, -5.003104148342858 
3.2900000000025185, -5.002274385110513 
3.3000000000025396, -5.001389337501378 
3.3100000000025607, -5.000461743602054 
3.3200000000025818, -4.999614372717327 
3.330000000002603, -4.99882334312947 
3.340000000002624, -4.997965373484964 
3.350000000002645, -4.997023347123047 
3.360000000002666, -4.996114723665009 
3.3700000000026873, -4.995326430388983 
3.3800000000027084, -4.994509143872353 
3.3900000000027295, -4.993608490263467 
3.4000000000027506, -4.992686106160987 
3.4100000000027717, -4.991845641102552 
3.420000000002793, -4.991026071609349 
3.430000000002814, -4.990152230391746 
3.440000000002835, -4.989257159582052 
3.450000000002856, -4.988403827897135 
3.460000000002877, -4.987568145264676 
3.4700000000028983, -4.9866911954161885 
3.4800000000029194, -4.985800163153746 
3.4900000000029405, -4.984962495570753 
3.5000000000029616, -4.984136712316266 
3.5100000000029827, -4.983254532777953 
3.520000000003004, -4.982331531523492 
3.530000000003025, -4.981490841507047 
3.540000000003046, -4.980704564316416 
3.550000000003067, -4.979850537818336 
3.5600000000030882, -4.978912884554458 
3.5700000000031094, -4.978008924574012 
3.5800000000031305, -4.977224954553213 
3.5900000000031516, -4.976412720407935 
3.6000000000031727, -4.975517659708588 
3.6100000000031938, -4.97459996490181 
3.620000000003215, -4.973762623963597 
3.630000000003236, -4.972947915197286 
3.640000000003257, -4.972079793022417 
3.650000000003278, -4.971189420023025 
3.6600000000032993, -4.9703396917506195 
3.6700000000033204, -4.969509096258954 
3.6800000000033415, -4.968638013105429 
3.6900000000033626, -4.9677502985055035 
3.7000000000033837, -4.966915608940885 
3.710000000003405, -4.966096405766786 
3.720000000003426, -4.96522221300331 
3.730000000003447, -4.964302315868016 
3.740000000003468, -4.963459071910194 
3.750000000003489, -4.962679485693661 
3.7600000000035103, -4.961836915971614 
3.7700000000035314, -4.9609081421897345 
3.7800000000035525, -4.959999207132967 
3.7900000000035736, -4.959214079770236 
3.8000000000035947, -4.958412879306009 
3.810000000003616, -4.957529282721626 
3.820000000003637, -4.956614519639112 
3.830000000003658, -4.955773442284543 
3.840000000003679, -4.954965282570922 
3.8500000000037002, -4.954106776537544 
3.8600000000037213, -4.9532207073764365 
3.8700000000037424, -4.95237113740808 
3.8800000000037635, -4.951546463434559 
3.8900000000037847, -4.950684544179784 
3.9000000000038058, -4.949798500466907 
3.910000000003827, -4.948962481470015 
3.920000000003848, -4.948151830171264 
3.930000000003869, -4.947291001583684 
3.94000000000389, -4.946374839333103 
3.9500000000039113, -4.945519053204655 
3.9600000000039324, -4.944745712714644 
3.9700000000039535, -4.943921873028828 
3.9800000000039746, -4.943008355522222 
3.9900000000039957, -4.942088186485565 
4.000000000004016, -4.9412926113790325 
4.010000000003993, -4.940506855352052 
4.02000000000397, -4.93964113381699 
4.030000000003946, -4.938730480455833 
4.040000000003923, -4.937878507258465 
4.0500000000039, -4.9370762746500265 
4.0600000000038765, -4.936231478907885 
4.070000000003853, -4.935350726067477 
4.08000000000383, -4.9344979523927535 
4.090000000003807, -4.933678516868629 
4.100000000003783, -4.932829383721825 
4.11000000000376, -4.931945577982676 
4.120000000003737, -4.931102504535511 
4.130000000003713, -4.930300276434987 
4.14000000000369, -4.929458258010872 
4.150000000003667, -4.928550928386747 
4.1600000000036434, -4.927673382484498 
4.17000000000362, -4.9268996811116095 
4.180000000003597, -4.926100722008092 
4.1900000000035735, -4.925211301469938 
4.20000000000355, -4.924281623172261 
4.210000000003527, -4.923460738546621 
4.220000000003504, -4.922690433378012 
4.23000000000348, -4.92184943904912 
4.240000000003457, -4.920948527799713 
4.250000000003434, -4.92008021664781 
4.26000000000341, -4.919278667731101 
4.270000000003387, -4.9184513003805295 
4.280000000003364, -4.917579211119522 
4.2900000000033405, -4.916720742374606 
4.300000000003317, -4.915903304312715 
4.310000000003294, -4.915070106020005 
4.320000000003271, -4.914192928127248 
4.330000000003247, -4.91333664085034 
4.340000000003224, -4.912538341220984 
4.350000000003201, -4.911719527317318 
4.360000000003177, -4.910830899618797 
4.370000000003154, -4.9099294532012845 
4.380000000003131, -4.9091384491983785 
4.390000000003107, -4.908366713043078 
4.400000000003084, -4.907511373473222 
4.410000000003061, -4.906585379885965 
4.4200000000030375, -4.905723801444497 
4.430000000003014, -4.904958850003107 
4.440000000002991, -4.904148544927032 
4.450000000002968, -4.903266989476114 
4.460000000002944, -4.902383467655108 
4.470000000002921, -4.9015713453262455 
4.480000000002898, -4.900762515936616 
4.490000000002874, -4.899905102568384 
4.500000000002851, -4.899041029850958 
4.510000000002828, -4.898219558002771 
4.520000000002804, -4.897402913359937 
4.530000000002781, -4.896540664150967 
4.540000000002758, -4.8956692039480565 
4.5500000000027345, -4.894863211308966 
4.560000000002711, -4.894068474681896 
4.570000000002688, -4.893210207841401 
4.580000000002665, -4.892298254038909 
4.590000000002641, -4.891464898125691 
4.600000000002618, -4.890711718079675 
4.610000000002595, -4.889899060022522 
4.620000000002571, -4.888998175561491 
4.630000000002548, -4.888095907495229 
4.640000000002525, -4.8873099877373205 
4.6500000000025015, -4.886531203380863 
4.660000000002478, -4.8856800713033515 
4.670000000002455, -4.884792935368081 
4.6800000000024315, -4.883957208526584 
4.690000000002408, -4.883160783525638 
4.700000000002385, -4.882325344680426 
4.710000000002362, -4.881460699719321 
4.720000000002338, -4.880628059224509 
4.730000000002315, -4.879823283114338 
4.740000000002292, -4.878984851844075 
4.750000000002268, -4.878107606728308 
4.760000000002245, -4.877276263293345 
4.770000000002222, -4.87649778625544 
4.7800000000021985, -4.875678535051135 
4.790000000002175, -4.874783760647838 
4.800000000002152, -4.873896543026085 
4.810000000002129, -4.873129778279659 
4.820000000002105, -4.872362275932898 
4.830000000002082, -4.871506709069843 
4.840000000002059, -4.87059238026044 
4.850000000002035, -4.869752739581934 
4.860000000002012, -4.868990259308885 
4.870000000001989, -4.8681783702298 
4.880000000001965, -4.867306676028424 
4.890000000001942, -4.866445287549331 
4.900000000001919, -4.865643779791273 
4.9100000000018955, -4.864833992707134 
4.920000000001872, -4.863980277591609 
4.930000000001849, -4.8631325982923865 
4.940000000001826, -4.86232817263051 
4.950000000001802, -4.861516943255305 
4.960000000001779, -4.860654770414046 
4.970000000001756, -4.85978957643599 
4.980000000001732, -4.859002375915274 
4.990000000001709, -4.858222574171831 
5.000000000001686, -4.857371356796827 
5.0100000000016625, -4.8564609641631336 
5.020000000001639, -4.855630228580926 
5.030000000001616, -4.8548889526824945 
