t, s[1].omega / s[0].omega 
0, -3.7999940768154508 
0.009999999999999995, -3.7993706593121304 
0.019999999999999934, -3.7987071759263067 
0.029999999999999874, -3.7980755683729597 
0.04000000000000012, -3.797522221158477 
0.050000000000000405, -3.7969860079574445 
0.06000000000000069, -3.79641003629182 
0.07000000000000098, -3.7957931621725907 
0.08000000000000126, -3.7951683901501 
0.09000000000000155, -3.7945758746234746 
0.10000000000000184, -3.794012494693951 
0.11000000000000212, -3.7934369355904805 
0.12000000000000241, -3.792828149732646 
0.130000000000002, -3.7922071542722726 
0.1400000000000009, -3.7916198541786876 
0.1499999999999998, -3.7910696320441266 
0.1599999999999987, -3.790510784681176 
0.1699999999999976, -3.7899075032461496 
0.1799999999999965, -3.78925791233249 
0.1899999999999954, -3.788616691497708 
0.1999999999999943, -3.7880578964190716 
0.2099999999999932, -3.7875443476116892 
0.2199999999999921, -3.7869958054903443 
0.229999999999991, -3.7863866362746483 
0.2399999999999899, -3.7857342315605367 
0.2499999999999888, -3.7850994185425955 
0.2599999999999877, -3.7845339702672023 
0.2699999999999866, -3.7839944460203503 
0.2799999999999855, -3.7834233036674023 
0.2899999999999844, -3.7828141426792414 
0.2999999999999833, -3.782196499084433 
0.3099999999999822, -3.781607297451373 
0.3199999999999811, -3.7810451147468505 
0.32999999999998, -3.7804721491734363 
0.3399999999999789, -3.7798647826715523 
0.3499999999999778, -3.779240126097978 
0.35999999999997667, -3.7786501001810935 
0.36999999999997557, -3.778107670611559 
0.37999999999997447, -3.7775622956295565 
0.38999999999997337, -3.776971404663045 
0.39999999999997227, -3.77632682124712 
0.40999999999997117, -3.775672055160098 
0.41999999999997006, -3.775092483775601 
0.42999999999996896, -3.7745791054343427 
0.43999999999996786, -3.7740453408979393 
0.44999999999996676, -3.773454419745928 
0.45999999999996566, -3.7728175062911573 
0.46999999999996456, -3.772182667382195 
0.47999999999996346, -3.771603626917836 
0.48999999999996235, -3.7710590721739408 
0.49999999999996125, -3.7704931916563638 
0.5099999999999602, -3.7698914004053456 
0.519999999999959, -3.769278505333291 
0.529999999999958, -3.7686913787132035 
0.5399999999999568, -3.7681322098331074 
0.5499999999999557, -3.7675654238941214 
0.5599999999999546, -3.766962837870293 
0.5699999999999535, -3.7663329790881988 
0.5799999999999524, -3.765730650628074 
0.5899999999999513, -3.765190249837802 
0.5999999999999502, -3.764662020795169 
0.6099999999999491, -3.764091267899654 
0.619999999999948, -3.7634616934252945 
0.6299999999999469, -3.762800522828369 
0.6399999999999458, -3.7621904069870076 
0.6499999999999447, -3.7616635016896693 
0.6599999999999436, -3.7611416149948282 
0.6699999999999425, -3.7605706853280507 
0.6799999999999414, -3.7599523471085816 
0.6899999999999403, -3.759322575273159 
0.6999999999999392, -3.7587316935357364 
0.7099999999999381, -3.7581801801221433 
0.719999999999937, -3.7576194212755163 
0.7299999999999359, -3.7570249707536005 
0.7399999999999348, -3.756414063325041 
0.7499999999999337, -3.7558260347749646 
0.7599999999999326, -3.7552709565311786 
0.7699999999999315, -3.7547146134805978 
0.7799999999999304, -3.7541226999570783 
0.7899999999999293, -3.753491318417729 
0.7999999999999282, -3.752867486535101 
0.8099999999999271, -3.752314169509483 
0.819999999999926, -3.7518011577288286 
0.8299999999999249, -3.751257057999625 
0.8399999999999238, -3.750653106855183 
0.8499999999999227, -3.750000901735054 
0.8599999999999216, -3.7493634965292832 
0.8699999999999205, -3.7488066470719468 
0.8799999999999194, -3.748287065373899 
0.8899999999999183, -3.747734927334013 
0.8999999999999172, -3.747136332279969 
0.9099999999999161, -3.746516042941052 
0.919999999999915, -3.7459178057002527 
0.9299999999999139, -3.7453583541581543 
0.9399999999999128, -3.74480226584802 
0.9499999999999117, -3.7442163604239225 
0.9599999999999106, -3.7436058080783 
0.9699999999999095, -3.743010764646192 
0.9799999999999084, -3.7424573012466373 
0.9899999999999073, -3.7419152900111188 
0.9999999999999062, -3.7413419998899955 
1.0099999999999052, -3.740720033424659 
1.019999999999904, -3.740075957448046 
1.029999999999903, -3.739487483939707 
1.039999999999902, -3.7389740178494675 
1.0499999999999008, -3.7384576885640106 
1.0599999999998997, -3.7378870323433424 
1.0699999999998986, -3.7372597514156247 
1.0799999999998975, -3.7366139089875103 
1.0899999999998964, -3.7360202764877193 
1.0999999999998953, -3.7354872390045815 
1.1099999999998942, -3.7349485610677275 
1.119999999999893, -3.734369255152045 
1.129999999999892, -3.7337606739290328 
1.1399999999998909, -3.733159671812161 
1.1499999999998898, -3.7325929639066713 
1.1599999999998887, -3.732041058256123 
1.1699999999998876, -3.731466526801815 
1.1799999999998865, -3.730858874710397 
1.1899999999998854, -3.7302497464797995 
1.1999999999998843, -3.7296869773723578 
1.2099999999998832, -3.7291588654654695 
1.219999999999882, -3.728612120751381 
1.229999999999881, -3.7280146456670473 
1.2399999999998799, -3.7273696148582536 
1.2499999999998788, -3.72673654581381 
1.2599999999998777, -3.7261893336459773 
1.2699999999998766, -3.725687709201214 
1.2799999999998755, -3.7251520162297 
1.2899999999998744, -3.7245591788853645 
1.2999999999998733, -3.723927463419056 
1.3099999999998722, -3.723309543534822 
1.319999999999871, -3.7227493233867803 
1.32999999999987, -3.7222135533600693 
1.3399999999998689, -3.721651598466239 
1.3499999999998678, -3.721055739053919 
1.3599999999998666, -3.7204538667699523 
1.3699999999998655, -3.7198804443813978 
1.3799999999998644, -3.719332168365432 
1.3899999999998633, -3.7187727304896976 
1.3999999999998622, -3.718176550858094 
1.4099999999998611, -3.717554673645347 
1.41999999999986, -3.716963081609085 
1.429999999999859, -3.716434126586465 
1.4399999999998578, -3.7159167605219556 
1.4499999999998567, -3.7153568099468055 
1.4599999999998556, -3.7147382673215774 
1.4699999999998545, -3.7140862892630033 
1.4799999999998534, -3.713479916937108 
1.4899999999998523, -3.7129572362524237 
1.4999999999998512, -3.712446045695392 
1.5099999999998501, -3.711889311274976 
1.519999999999849, -3.711285310752473 
1.529999999999848, -3.7106659236792536 
1.5399999999998468, -3.7100792785036534 
1.5499999999998457, -3.7095334075063304 
1.5599999999998446, -3.708984330385975 
1.5699999999998435, -3.7084031363551295 
1.5799999999998424, -3.7078011442730565 
1.5899999999998413, -3.707217135334573 
1.5999999999998402, -3.7066692564183414 
1.6099999999998391, -3.7061276515022414 
1.619999999999838, -3.705554651507625 
1.629999999999837, -3.7049378404603375 
1.6399999999998358, -3.7043103011232184 
1.6499999999998347, -3.7037438067445008 
1.6599999999998336, -3.70323908270928 
1.6699999999998325, -3.7027215784926 
1.6799999999998314, -3.702148460614283 
1.6899999999998303, -3.7015196369330945 
1.6999999999998292, -3.7008779465061727 
1.709999999999828, -3.7002983568043724 
1.719999999999827, -3.699780332636152 
1.729999999999826, -3.6992517218301324 
1.7399999999998248, -3.698679090478259 
1.7499999999998237, -3.6980745462425135 
1.7599999999998226, -3.697475582099829 
1.7699999999998215, -3.6969127641463038 
1.7799999999998204, -3.6963688836417226 
1.7899999999998193, -3.695804990815585 
1.7999999999998182, -3.6952089123530234 
1.809999999999817, -3.6946082390256563 
1.819999999999816, -3.6940470028049135 
1.8299999999998149, -3.6935196417825225 
1.8399999999998138, -3.6929789561359456 
1.8499999999998127, -3.692392188804199 
1.8599999999998116, -3.6917590026194924 
1.8699999999998105, -3.691132514949609 
1.8799999999998094, -3.6905872366994523 
1.8899999999998083, -3.6900930340784797 
1.8999999999998072, -3.689569762256852 
1.909999999999806, -3.6889885418154096 
1.919999999999805, -3.688362154034499 
1.9299999999998039, -3.6877407318468913 
1.9399999999998028, -3.6871793838421945 
1.9499999999998017, -3.686654979114029 
1.9599999999998006, -3.686109712212523 
1.9699999999997995, -3.6855270735655203 
1.9799999999997984, -3.6849285852666904 
1.9899999999997973, -3.6843509945034767 
1.9999999999997962, -3.683804281826549 
2.0099999999998173, -3.6832577908641833 
2.0199999999998384, -3.682680224229263 
2.0299999999998595, -3.682071472884382 
2.0399999999998806, -3.6814750913875507 
2.0499999999999017, -3.6809364752938714 
2.059999999999923, -3.6804257763329327 
2.069999999999944, -3.679885640805449 
2.079999999999965, -3.6792898860135246 
2.089999999999986, -3.678648618748639 
2.100000000000007, -3.678026868279166 
2.1100000000000283, -3.677491488876991 
2.1200000000000494, -3.67699532358575 
2.1300000000000705, -3.676464282481818 
2.1400000000000916, -3.675880673427897 
2.1500000000001127, -3.6752652475541003 
2.160000000000134, -3.6746655877412495 
2.170000000000155, -3.6741145882916477 
2.180000000000176, -3.673581300002335 
2.190000000000197, -3.673022813993024 
2.2000000000002182, -3.672433726726708 
2.2100000000002393, -3.6718434611753255 
2.2200000000002604, -3.671285587094207 
2.2300000000002815, -3.670751468221353 
2.2400000000003026, -3.6702027829036714 
2.2500000000003237, -3.6696136606781358 
2.260000000000345, -3.6689924971090155 
2.270000000000366, -3.6683977235471033 
2.280000000000387, -3.6678764586753063 
2.290000000000408, -3.6673793080715145 
2.3000000000004293, -3.666842515852017 
2.3100000000004504, -3.6662463015035427 
2.3200000000004715, -3.6656082557621135 
2.3300000000004926, -3.664993778618638 
2.3400000000005137, -3.6644576404231466 
2.3500000000005348, -3.6639516750994607 
2.360000000000556, -3.6634127671938423 
2.370000000000577, -3.662830104877517 
2.380000000000598, -3.6622280947876265 
2.390000000000619, -3.66164738700546 
2.4000000000006403, -3.6611030850287554 
2.4100000000006614, -3.6605628909778174 
2.4200000000006825, -3.659994246517139 
2.4300000000007036, -3.6593989711310764 
2.4400000000007247, -3.6588150616416697 
2.450000000000746, -3.6582750814188865 
2.460000000000767, -3.657754406959932 
2.470000000000788, -3.6572076972264576 
2.480000000000809, -3.6566117555356064 
2.49000000000083, -3.6559794579375713 
2.5000000000008513, -3.655378943069516 
2.5100000000008724, -3.6548633473240137 
2.5200000000008935, -3.6543743361685657 
2.5300000000009146, -3.653843343722742 
2.5400000000009357, -3.653254787660581 
2.550000000000957, -3.6526298315059442 
2.560000000000978, -3.652025549285102 
2.570000000000999, -3.65148429351568 
2.58000000000102, -3.650966445595521 
2.5900000000010412, -3.6504204830215308 
2.6000000000010624, -3.649839084442821 
2.6100000000010835, -3.6492484785365704 
2.6200000000011046, -3.6486834899503555 
2.6300000000011257, -3.64814628550251 
2.6400000000011468, -3.6476033397194967 
2.650000000001168, -3.6470271258928846 
2.660000000001189, -3.6464230978193948 
2.67000000000121, -3.645838861732043 
2.680000000001231, -3.6453132161017003 
2.6900000000012523, -3.6448090804518607 
2.7000000000012734, -3.6442715812499364 
2.7100000000012945, -3.643678106760305 
2.7200000000013156, -3.6430420077210415 
2.7300000000013367, -3.6424305599076794 
2.740000000001358, -3.6419052068235174 
2.750000000001379, -3.6414149750217026 
2.7600000000014, -3.640888952306225 
2.770000000001421, -3.64031148970487 
2.780000000001442, -3.6397036751454075 
2.7900000000014633, -3.639111791398956 
2.8000000000014844, -3.6385670852265486 
2.8100000000015055, -3.6380398054114993 
2.8200000000015266, -3.637488127556304 
2.8300000000015477, -3.6369059512701747 
2.840000000001569, -3.636321714982878 
2.85000000000159, -3.635769723842203 
2.860000000001611, -3.6352431121437805 
2.870000000001632, -3.634703816434861 
2.8800000000016532, -3.6341244937473363 
2.8900000000016743, -3.6335095726629816 
2.9000000000016954, -3.632913137883668 
2.9100000000017165, -3.632390962888085 
2.9200000000017377, -3.631903411181856 
2.9300000000017588, -3.631382271339463 
2.94000000000178, -3.6308026466142898 
2.950000000001801, -3.6301762763873606 
2.960000000001822, -3.6295591693076714 
2.970000000001843, -3.6290146884739927 
2.9800000000018643, -3.6285134318932557 
2.9900000000018854, -3.6279886439116305 
3.0000000000019065, -3.6274206379210105 
3.0100000000019276, -3.6268278391889703 
3.0200000000019487, -3.6262483977055977 
3.03000000000197, -3.625704830861676 
3.040000000001991, -3.6251733833561643 
3.050000000002012, -3.624618306188207 
3.060000000002033, -3.6240322639756117 
3.070000000002054, -3.6234459749119656 
3.0800000000020753, -3.6229020579190547 
3.0900000000020964, -3.6223907797544266 
3.1000000000021175, -3.621864424860545 
3.1100000000021386, -3.621291448759957 
3.1200000000021597, -3.6206711641786895 
3.130000000002181, -3.6200531515642025 
3.140000000002202, -3.619513273865105 
3.150000000002223, -3.619031427359283 
3.160000000002244, -3.6185276341802335 
3.1700000000022652, -3.6179685405661646 
3.1800000000022863, -3.617362855495197 
3.1900000000023074, -3.6167524841697043 
3.2000000000023285, -3.6161923869404236 
3.2100000000023496, -3.6156760253456453 
3.2200000000023707, -3.615148947650033 
3.230000000002392, -3.6145864107821417 
3.240000000002413, -3.6140025374276283 
3.250000000002434, -3.613432658713088 
3.260000000002455, -3.612895208193136 
3.2700000000024763, -3.612367050963627 
3.2800000000024974, -3.611813589224301 
3.2900000000025185, -3.6112228745092203 
3.3000000000025396, -3.610623326849533 
3.3100000000025607, -3.610073822873995 
3.3200000000025818, -3.6095776112739193 
3.330000000002603, -3.6090739819008504 
3.340000000002624, -3.608520925702602 
3.350000000002645, -3.6079118824946868 
3.360000000002666, -3.6072813140085023 
3.3700000000026873, -3.6067072786969745 
3.3800000000027084, -3.6062089565828535 
3.3900000000027295, -3.605713395329878 
3.4000000000027506, -3.605173024131253 
3.4100000000027717, -3.604589455942534 
3.420000000002793, -3.6039936949374214 
3.430000000002814, -3.6034287043071513 
3.440000000002835, -3.6029010043948753 
3.450000000002856, -3.6023712854123078 
3.460000000002877, -3.601811152648318 
3.4700000000028983, -3.6012283924370627 
3.4800000000029194, -3.6006604076305413 
3.4900000000029405, -3.600131386945148 
3.5000000000029616, -3.599615871110373 
3.5100000000029827, -3.5990738964036018 
3.520000000003004, -3.59848597270449 
3.530000000003025, -3.597868817649617 
3.540000000003046, -3.5972897787164384 
3.550000000003067, -3.596790205780587 
3.5600000000030882, -3.596310013299135 
3.5700000000031094, -3.5957867310694214 
3.5800000000031305, -3.5952057082815267 
3.5900000000031516, -3.594587092261738 
3.6000000000031727, -3.5939894292993033 
3.6100000000031938, -3.593459311120175 
3.620000000003215, -3.5929574082488687 
3.630000000003236, -3.5924282541588566 
3.640000000003257, -3.5918609996920283 
3.650000000003278, -3.5912783876477383 
3.6600000000032993, -3.590716312993525 
3.6700000000033204, -3.5901857153571823 
3.6800000000033415, -3.589657693887852 
3.6900000000033626, -3.5891011934046375 
3.7000000000033837, -3.5885140126830875 
3.710000000003405, -3.5879334243264887 
3.720000000003426, -3.587404412245875 
3.730000000003447, -3.5869083889674824 
3.740000000003468, -3.5863916659575343 
3.750000000003489, -3.5858240027431614 
3.7600000000035103, -3.5852068879440466 
3.7700000000035314, -3.584590266362278 
3.7800000000035525, -3.584050636445439 
3.7900000000035736, -3.5835716248326532 
3.8000000000035947, -3.5830744380226127 
3.810000000003616, -3.5825256432928243 
3.820000000003637, -3.581934330045331 
3.830000000003658, -3.5813382459310836 
3.840000000003679, -3.5807837978181056 
3.8500000000037002, -3.5802671764207177 
3.8600000000037213, -3.5797420038051455 
3.8700000000037424, -3.5791843153472094 
3.8800000000037635, -3.57860706990404 
3.8900000000037847, -3.578046366341159 
3.9000000000038058, -3.5775200436858574 
3.910000000003827, -3.577002634652397 
3.920000000003848, -3.576458298305481 
3.930000000003869, -3.575872032994974 
3.94000000000389, -3.575267205172806 
3.9500000000039113, -3.5747093912863512 
3.9600000000039324, -3.5742203149233496 
3.9700000000039535, -3.5737367891590295 
3.9800000000039746, -3.5732065764129124 
3.9900000000039957, -3.572618837955319 
4.000000000004016, -3.571997625859562 
4.010000000003993, -3.571409244624083 
4.02000000000397, -3.570895189064406 
4.030000000003946, -3.570403466712065 
4.040000000003923, -3.5698785358039635 
4.0500000000039, -3.56931286049862 
4.0600000000038765, -3.5687305559929654 
4.070000000003853, -3.568169182191982 
4.08000000000383, -3.567641822630864 
4.090000000003807, -3.5671189555850615 
4.100000000003783, -3.5665689491995733 
4.11000000000376, -3.5659902657217857 
4.120000000003737, -3.5654177056008196 
4.130000000003713, -3.564890461384254 
4.14000000000369, -3.5643920338665893 
4.150000000003667, -3.563874757070182 
4.1600000000036434, -3.5633097551578414 
4.17000000000362, -3.562698227980152 
4.180000000003597, -3.562090202005872 
4.1900000000035735, -3.5615598542939333 
4.20000000000355, -3.5610880980816857 
4.210000000003527, -3.5605966385843146 
4.220000000003504, -3.560051706575167 
4.23000000000348, -3.559460757861067 
4.240000000003457, -3.5588617751817844 
4.250000000003434, -3.5583071275774927 
4.26000000000341, -3.5577974153483516 
4.270000000003387, -3.557282503042196 
4.280000000003364, -3.5567342170602614 
4.2900000000033405, -3.5561622119879046 
4.300000000003317, -3.555600087383076 
4.310000000003294, -3.5550705931419495 
4.320000000003271, -3.5545556648595977 
4.330000000003247, -3.5540200386260574 
4.340000000003224, -3.553445700187307 
4.350000000003201, -3.552849918335005 
4.360000000003177, -3.5522910784467205 
4.370000000003154, -3.5517978639896066 
4.380000000003131, -3.551317451189292 
4.390000000003107, -3.5507960062059474 
4.400000000003084, -3.5502173213130392 
4.410000000003061, -3.549598984748942 
4.4200000000030375, -3.5490046084820577 
4.430000000003014, -3.548488844113257 
4.440000000002991, -3.5480077614065317 
4.450000000002968, -3.547497152133264 
4.460000000002944, -3.5469417652211574 
4.470000000002921, -3.5463607417407546 
4.480000000002898, -3.54579250212259 
4.490000000002874, -3.5452619433582613 
4.500000000002851, -3.5447470972026935 
4.510000000002828, -3.5442113008130685 
4.520000000002804, -3.5436446021555286 
4.530000000002781, -3.543072213420879 
4.540000000002758, -3.5425351629411352 
4.5500000000027345, -3.5420336204284526 
4.560000000002711, -3.5415258827874503 
4.570000000002688, -3.5409778352109234 
4.580000000002665, -3.540381772133242 
4.590000000002641, -3.5397724818206626 
4.600000000002618, -3.539225536078014 
4.610000000002595, -3.5387514957064696 
4.620000000002571, -3.538275589299739 
4.630000000002548, -3.537749748033965 
4.640000000002525, -3.5371712283426104 
4.6500000000025015, -3.5365687027332355 
4.660000000002478, -3.5359983552406398 
4.670000000002455, -3.5354852856879497 
4.6800000000024315, -3.5349847697498378 
4.690000000002408, -3.5344546375491688 
4.700000000002385, -3.5338925761958864 
4.710000000002362, -3.5333255326433965 
4.720000000002338, -3.5327854624345525 
4.730000000002315, -3.5322714722126447 
4.740000000002292, -3.5317510853980374 
4.750000000002268, -3.531197393535751 
4.760000000002245, -3.5306121081972583 
4.770000000002222, -3.53003846612251 
4.7800000000021985, -3.529525788029141 
4.790000000002175, -3.5290496675540957 
4.800000000002152, -3.5285502403258695 
4.810000000002129, -3.5279974365781106 
4.820000000002105, -3.527393353643282 
4.830000000002082, -3.5267825367717074 
4.840000000002059, -3.5262389156123986 
4.850000000002035, -3.525760101112062 
4.860000000002012, -3.5252735198293914 
4.870000000001989, -3.524741924981806 
4.880000000001965, -3.5241712834870667 
4.890000000001942, -3.5235933480138604 
4.900000000001919, -3.5230470246806016 
4.9100000000018955, -3.5225343038743064 
4.920000000001872, -3.5220176754437285 
4.930000000001849, -3.5214710464981414 
4.940000000001826, -3.5209018766716476 
4.950000000001802, -3.5203471061477187 
4.960000000001779, -3.519833037518463 
