t, s[1].omega / s[0].omega 
0, -1.6499971134441445 
0.009999999999999995, -1.6496942014413598 
0.019999999999999934, -1.6493650298012177 
0.029999999999999874, -1.6490156868490655 
0.04000000000000012, -1.648656624143562 
0.050000000000000405, -1.6483017689230266 
0.06000000000000069, -1.6479653142351975 
0.07000000000000098, -1.6476565826884584 
0.08000000000000126, -1.6473759020324557 
0.09000000000000155, -1.6471148177442043 
0.10000000000000184, -1.6468605013561315 
0.11000000000000212, -1.6466007482364506 
0.12000000000000241, -1.6463266191318062 
0.130000000000002, -1.6460327567412167 
0.1400000000000009, -1.6457170483989831 
0.1499999999999998, -1.6453810627291587 
0.1599999999999987, -1.6450316237605436 
0.1699999999999976, -1.6446823629841543 
0.1799999999999965, -1.6443524207067515 
0.1899999999999954, -1.6440598060508265 
0.1999999999999943, -1.6438117503934422 
0.2099999999999932, -1.6435998089931458 
0.2199999999999921, -1.64340455379696 
0.229999999999991, -1.6432053530489295 
0.2399999999999899, -1.642987457386436 
0.2499999999999888, -1.6427436783637535 
0.2599999999999877, -1.6424728353035267 
0.2699999999999866, -1.6421777787314702 
0.2799999999999855, -1.6418642982550893 
0.2899999999999844, -1.6415408044269033 
0.2999999999999833, -1.641217840821223 
0.3099999999999822, -1.640906328880055 
0.3199999999999811, -1.640614348143481 
0.32999999999998, -1.6403439439813454 
0.3399999999999789, -1.6400902066771397 
0.3499999999999778, -1.6398433411476518 
0.35999999999997667, -1.6395921307783656 
0.36999999999997557, -1.639326652779355 
0.37999999999997447, -1.6390394644987325 
0.38999999999997337, -1.638725916738699 
0.39999999999997227, -1.6383846614919668 
0.40999999999997117, -1.638018979295501 
0.41999999999997006, -1.637638572748297 
0.42999999999996896, -1.6372600905725865 
0.43999999999996786, -1.6369037802642108 
0.44999999999996676, -1.6365855559095408 
0.45999999999996566, -1.636308848500906 
0.46999999999996456, -1.636063151495867 
0.47999999999996346, -1.6358305964200075 
0.48999999999996235, -1.6355944434125198 
0.49999999999996125, -1.635343628977585 
0.5099999999999602, -1.6350729555553474 
0.519999999999959, -1.6347815961891534 
0.529999999999958, -1.6344720991083936 
0.5399999999999568, -1.6341505259126752 
0.5499999999999557, -1.633827021573722 
0.5599999999999546, -1.6335151019725747 
0.5699999999999535, -1.633228013039893 
0.5799999999999524, -1.63297288511185 
0.5899999999999513, -1.632746627322216 
0.5999999999999502, -1.6325370974256834 
0.6099999999999491, -1.632328486157886 
0.619999999999948, -1.632106755973466 
0.6299999999999469, -1.6318624244004618 
0.6399999999999458, -1.63159088495907 
0.6499999999999447, -1.6312917346523357 
0.6599999999999436, -1.6309682515359032 
0.6699999999999425, -1.6306273285399873 
0.6799999999999414, -1.6302793732906473 
0.6899999999999403, -1.6299371491899695 
0.6999999999999392, -1.629612745944915 
0.7099999999999381, -1.6293133197081455 
0.719999999999937, -1.6290380951909764 
0.7299999999999359, -1.6287789893839961 
0.7399999999999348, -1.6285243819912263 
0.7499999999999337, -1.6282631518648223 
0.7599999999999326, -1.627986811551016 
0.7699999999999315, -1.6276898534892488 
0.7799999999999304, -1.6273696717746187 
0.7899999999999293, -1.6270272601559632 
0.7999999999999282, -1.6266690041002405 
0.8099999999999271, -1.6263084588093897 
0.819999999999926, -1.6259653200251936 
0.8299999999999249, -1.6256589452495944 
0.8399999999999238, -1.6253984021647299 
0.8499999999999227, -1.6251767710607776 
0.8599999999999216, -1.6249752262375137 
0.8699999999999205, -1.624772931166128 
0.8799999999999194, -1.624554625612238 
0.8899999999999183, -1.6243126267935526 
0.8999999999999172, -1.6240453065368619 
0.9099999999999161, -1.6237550278831716 
0.919999999999915, -1.6234470081835302 
0.9299999999999139, -1.6231290803263974 
0.9399999999999128, -1.6228114234161037 
0.9499999999999117, -1.622505058932416 
0.9599999999999106, -1.6222186814469226 
0.9699999999999095, -1.6219551679628252 
0.9799999999999084, -1.6217101814247947 
0.9899999999999073, -1.6214739456934215 
0.9999999999999062, -1.6212347833963006 
1.0099999999999052, -1.6209821602361238 
1.019999999999904, -1.6207081883431365 
1.029999999999903, -1.6204080216857637 
1.039999999999902, -1.6200801081045175 
1.0499999999999008, -1.6197269492037925 
1.0599999999998997, -1.6193562801183847 
1.0699999999998986, -1.6189816079014725 
1.0799999999998975, -1.6186202904822402 
1.0899999999998964, -1.6182880823875276 
1.0999999999998953, -1.6179922146560268 
1.1099999999998942, -1.6177280225547803 
1.119999999999893, -1.6174820922679665 
1.129999999999892, -1.6172390436271407 
1.1399999999998909, -1.6169867405267357 
1.1499999999998898, -1.6167178615227695 
1.1599999999998887, -1.616429231240322 
1.1699999999998876, -1.616121008294878 
1.1799999999998865, -1.6157968548785497 
1.1899999999998854, -1.6154649810860835 
1.1999999999998843, -1.6151386864085349 
1.2099999999998832, -1.6148341291589532 
1.219999999999882, -1.6145642577634565 
1.229999999999881, -1.6143318678630287 
1.2399999999998799, -1.6141274260730458 
1.2499999999998788, -1.6139337111566163 
1.2599999999998777, -1.6137332191731133 
1.2699999999998766, -1.6135132422504532 
1.2799999999998755, -1.613267173080282 
1.2899999999998744, -1.6129935601282863 
1.2999999999998733, -1.6126947882060965 
1.3099999999998722, -1.6123763120277577 
1.319999999999871, -1.612046383855342 
1.32999999999987, -1.6117155427633048 
1.3399999999998689, -1.6113949509451575 
1.3499999999998678, -1.6110933473459361 
1.3599999999998666, -1.6108138457151686 
1.3699999999998655, -1.6105526872816647 
1.3799999999998644, -1.6103009325565043 
1.3899999999998633, -1.6100478075929299 
1.3999999999998622, -1.6097835237271654 
1.4099999999998611, -1.6095005513736638 
1.41999999999986, -1.6091938686507443 
1.429999999999859, -1.6088612871151848 
1.4399999999998578, -1.6085046422888247 
1.4499999999998567, -1.6081317720655217 
1.4599999999998556, -1.6077578233670375 
1.4699999999998545, -1.607403136685603 
1.4799999999998534, -1.6070859825779464 
1.4899999999998523, -1.606813320319866 
1.4999999999998512, -1.606576981253324 
1.5099999999998501, -1.606358861111962 
1.519999999999849, -1.6061401584242827 
1.529999999999848, -1.6059075701299712 
1.5399999999998468, -1.6056544583891106 
1.5499999999998457, -1.6053793106354433 
1.5599999999998446, -1.6050841047618398 
1.5699999999998435, -1.6047737021283068 
1.5799999999998424, -1.6044560581221137 
1.5899999999998413, -1.6041421380711713 
1.5999999999998402, -1.603844091006568 
1.6099999999998391, -1.6035712378201876 
1.619999999999838, -1.603325781472203 
1.629999999999837, -1.603101418176879 
1.6399999999998358, -1.6028859773987623 
1.6499999999998347, -1.6026659627183217 
1.6599999999998336, -1.6024301340190792 
1.6699999999998325, -1.602171037034816 
1.6799999999998314, -1.6018851073112608 
1.6899999999998303, -1.6015724174088615 
1.6999999999998292, -1.6012367136752566 
1.709999999999828, -1.6008857135836503 
1.719999999999827, -1.600530962337124 
1.729999999999826, -1.6001861570383809 
1.7399999999998248, -1.5998633827557298 
1.7499999999998237, -1.59956852515133 
1.7599999999998226, -1.59929882471482 
1.7699999999998215, -1.5990445601374845 
1.7799999999998204, -1.5987934810348778 
1.7899999999998193, -1.5985347509054513 
1.7999999999998182, -1.5982606333476355 
1.809999999999817, -1.597966488772197 
1.819999999999816, -1.5976505417441884 
1.8299999999998149, -1.597314483036218 
1.8399999999998138, -1.5969650646613565 
1.8499999999998127, -1.5966155477106156 
1.8599999999998116, -1.5962844590118386 
1.8699999999998105, -1.5959894825127259 
1.8799999999998094, -1.5957385055688174 
1.8899999999998083, -1.5955246493978534 
1.8999999999998072, -1.5953299824917297 
1.909999999999806, -1.5951344698163183 
1.919999999999805, -1.5949230709236504 
1.9299999999998039, -1.5946878873874213 
1.9399999999998028, -1.5944269492392842 
1.9499999999998017, -1.5941422805489966 
1.9599999999998006, -1.5938386916523062 
1.9699999999997995, -1.5935234253578066 
1.9799999999997984, -1.5932059485589518 
1.9899999999997973, -1.5928968453005763 
1.9999999999997962, -1.5926052306801664 
2.0099999999998173, -1.592335496688025 
2.0199999999998384, -1.5920854112688154 
2.0299999999998595, -1.5918469815925904 
2.0399999999998806, -1.5916093990751716 
2.0499999999999017, -1.59136209619068 
2.059999999999923, -1.5910965688597445 
2.069999999999944, -1.5908069999415921 
2.079999999999965, -1.590490492082495 
2.089999999999986, -1.5901476521133764 
2.100000000000007, -1.5897837150889678 
2.1100000000000283, -1.5894095642399224 
2.1200000000000494, -1.5890411187502753 
2.1300000000000705, -1.5886955052125384 
2.1400000000000916, -1.5883844797088849 
2.1500000000001127, -1.588108973338076 
2.160000000000134, -1.5878591788190817 
2.170000000000155, -1.5876200508242893 
2.180000000000176, -1.5873775933057463 
2.190000000000197, -1.5871221326644238 
2.2000000000002182, -1.5868485045884193 
2.2100000000002393, -1.586555087437429 
2.2200000000002604, -1.5862433050844413 
2.2300000000002815, -1.585918156364169 
2.2400000000003026, -1.58558924215436 
2.2500000000003237, -1.5852706672317662 
2.260000000000345, -1.584977819909974 
2.270000000000366, -1.5847209940220541 
2.280000000000387, -1.584499647071295 
2.290000000000408, -1.5843021094201737 
2.3000000000004293, -1.5841110580847289 
2.3100000000004504, -1.583910283761593 
2.3200000000004715, -1.5836886861507342 
2.3300000000004926, -1.5834409305411519 
2.3400000000005137, -1.5831663769017443 
2.3500000000005348, -1.5828678726550893 
2.360000000000556, -1.582551098630005 
2.370000000000577, -1.5822243137618561 
2.380000000000598, -1.5818977896132558 
2.390000000000619, -1.5815821359116895 
2.4000000000006403, -1.5812854158001612 
2.4100000000006614, -1.5810102560797639 
2.4200000000006825, -1.5807528302845923 
2.4300000000007036, -1.5805044916342816 
2.4400000000007247, -1.580254853675346 
2.450000000000746, -1.5799943914972676 
2.460000000000767, -1.579715660343002 
2.470000000000788, -1.579413568191142 
2.480000000000809, -1.5790856665257074 
2.49000000000083, -1.578733176143109 
2.5000000000008513, -1.5783627495771562 
2.5100000000008724, -1.5779878306643103 
2.5200000000008935, -1.5776273089667225 
2.5300000000009146, -1.5772996469558787 
2.5400000000009357, -1.577014388324903 
2.550000000000957, -1.5767671835947805 
2.560000000000978, -1.5765427565687355 
2.570000000000999, -1.5763229836029262 
2.58000000000102, -1.5760935966729015 
2.5900000000010412, -1.5758464095352642 
2.6000000000010624, -1.5755784063962435 
2.6100000000010835, -1.5752901786913476 
2.6200000000011046, -1.5749851427971593 
2.6300000000011257, -1.5746697118842623 
2.6400000000011468, -1.574353655631992 
2.650000000001168, -1.574049248269743 
2.660000000001189, -1.5737680798535096 
2.67000000000121, -1.5735163085906543 
2.680000000001231, -1.57329139543576 
2.6900000000012523, -1.5730829400362307 
2.7000000000012734, -1.5728769177586739 
2.7100000000012945, -1.5726602537245273 
2.7200000000013156, -1.5724234910571186 
2.7300000000013367, -1.5721614250331841 
2.740000000001358, -1.5718727245907185 
2.750000000001379, -1.5715594976355625 
2.7600000000014, -1.5712271831051177 
2.770000000001421, -1.5708845330734482 
2.780000000001442, -1.5705429560309834 
2.7900000000014633, -1.5702144264005693 
2.8000000000014844, -1.5699079804004872 
2.8100000000015055, -1.56962634266538 
2.8200000000015266, -1.5693649537570598 
2.8300000000015477, -1.5691141804844366 
2.840000000001569, -1.568863025536503 
2.85000000000159, -1.568601968991011 
2.860000000001611, -1.5683240389812303 
2.870000000001632, -1.5680248008666866 
2.8800000000016532, -1.5677024213680122 
2.8900000000016743, -1.5673585876494707 
2.9000000000016954, -1.5670002727522436 
2.9100000000017165, -1.5666411250655183 
2.9200000000017377, -1.56630001084588 
2.9300000000017588, -1.5659948113726168 
2.94000000000178, -1.5657336776106705 
2.950000000001801, -1.5655103093139027 
2.960000000001822, -1.5653075891034376 
2.970000000001843, -1.565106206727762 
2.9800000000018643, -1.564891510936131 
2.9900000000018854, -1.5646556057496634 
3.0000000000019065, -1.564396199816631 
3.0100000000019276, -1.5641147614411648 
3.0200000000019487, -1.5638154073150243 
3.03000000000197, -1.5635046926389886 
3.040000000001991, -1.5631916452409111 
3.050000000002012, -1.5628869581520957 
3.060000000002033, -1.5626005404518477 
3.070000000002054, -1.562337982620793 
3.0800000000020753, -1.5620980268838767 
3.0900000000020964, -1.5618729126672237 
3.1000000000021175, -1.5616513017884222 
3.1100000000021386, -1.561421753246305 
3.1200000000021597, -1.5611750437921348 
3.130000000002181, -1.5609050507770745 
3.140000000002202, -1.560608866155062 
3.150000000002223, -1.5602868915030568 
3.160000000002244, -1.559943250668844 
3.1700000000022652, -1.5595862776221379 
3.1800000000022863, -1.5592282506880997 
3.1900000000023074, -1.5588833063158616 
3.2000000000023285, -1.558563261255187 
3.2100000000023496, -1.5582730293459188 
3.2200000000023707, -1.5580086952992207 
3.230000000002392, -1.5577597860519306 
3.240000000002413, -1.5575138913386932 
3.250000000002434, -1.5572604244290909 
3.260000000002455, -1.5569920569946805 
3.2700000000024763, -1.5567045413814757 
3.2800000000024974, -1.5563963235438476 
3.2900000000025185, -1.5560689123924891 
3.3000000000025396, -1.55572817793975 
3.3100000000025607, -1.5553857051603859 
3.3200000000025818, -1.5550581508850396 
3.330000000002603, -1.554762550496317 
3.340000000002624, -1.5545085207687488 
3.350000000002645, -1.5542926376425823 
3.360000000002666, -1.5540999528810897 
3.3700000000026873, -1.5539113393650006 
3.3800000000027084, -1.5537107653570852 
3.3900000000027295, -1.5534885726903633 
3.4000000000027506, -1.5532411411646405 
3.4100000000027717, -1.55296918013841 
3.420000000002793, -1.5526763174856506 
3.430000000002814, -1.5523684962388813 
3.440000000002835, -1.552053834198356 
3.450000000002856, -1.5517421244384173 
3.460000000002877, -1.551443175770585 
3.4700000000028983, -1.5511640077265083 
3.4800000000029194, -1.550906208665427 
3.4900000000029405, -1.5506652134606524 
3.5000000000029616, -1.5504320181828377 
3.5100000000029827, -1.5501961057115667 
3.520000000003004, -1.5499479056558498 
3.530000000003025, -1.549680049681899 
3.540000000003046, -1.5493877604984743 
3.550000000003067, -1.5490691092892521 
3.5600000000030882, -1.5487256589652563 
3.5700000000031094, -1.5483634755478604 
3.5800000000031305, -1.547993779628816 
3.5900000000031516, -1.5476318836060532 
3.6000000000031727, -1.5472933136162057 
3.6100000000031938, -1.5469879780817992 
3.620000000003215, -1.5467158522255786 
3.630000000003236, -1.5464675421933392 
3.640000000003257, -1.546229200234347 
3.650000000003278, -1.5459879022238945 
3.6600000000032993, -1.5457344634799455 
3.6700000000033204, -1.5454636571563198 
3.6800000000033415, -1.5451734192420379 
3.6900000000033626, -1.5448644292678237 
3.7000000000033837, -1.5445406269780921 
3.710000000003405, -1.5442103385854666 
3.720000000003426, -1.5438866962801985 
3.730000000003447, -1.5435854000208313 
3.740000000003468, -1.5433190553802554 
3.750000000003489, -1.5430907680361972 
3.7600000000035103, -1.5428919262670422 
3.7700000000035314, -1.5427061808847062 
3.7800000000035525, -1.5425163282775944 
3.7900000000035736, -1.5423094295962971 
3.8000000000035947, -1.5420784202252558 
3.810000000003616, -1.5418213299604566 
3.820000000003637, -1.541539877103075 
3.830000000003658, -1.5412384835819055 
3.840000000003679, -1.5409238806120362 
3.8500000000037002, -1.5406048491831175 
3.8600000000037213, -1.5402913387855317 
3.8700000000037424, -1.5399924457572498 
3.8800000000037635, -1.5397136628443286 
3.8900000000037847, -1.539454844044791 
3.9000000000038058, -1.539210264875952 
3.910000000003827, -1.538970733267979 
3.920000000003848, -1.5387263299087557 
3.930000000003869, -1.5384683725649606 
3.94000000000389, -1.5381902511056311 
3.9500000000039113, -1.5378876750881045 
3.9600000000039324, -1.537559076776066 
3.9700000000039535, -1.5372065946967148 
3.9800000000039746, -1.5368374377179443 
3.9900000000039957, -1.5364645757660598 
4.000000000004016, -1.5361050466562411 
4.010000000003993, -1.535774867101646 
4.02000000000397, -1.5354823420930752 
4.030000000003946, -1.5352242988370812 
4.040000000003923, -1.5349883287695714 
4.0500000000039, -1.534759022612562 
4.0600000000038765, -1.5345234556420202 
4.070000000003853, -1.5342733664081245 
4.08000000000383, -1.534004764575689 
4.090000000003807, -1.5337168412473474 
4.100000000003783, -1.5334114592673993 
4.11000000000376, -1.5330935615264436 
4.120000000003737, -1.5327719925860301 
4.130000000003713, -1.5324594219273613 
4.14000000000369, -1.5321697896799535 
4.150000000003667, -1.5319131183369827 
4.1600000000036434, -1.5316904326609042 
4.17000000000362, -1.5314926990675701 
4.180000000003597, -1.5313047288273458 
4.1900000000035735, -1.531110996613085 
4.20000000000355, -1.5308997907848307 
4.210000000003527, -1.5306645396976113 
4.220000000003504, -1.5304032595516106 
4.23000000000348, -1.5301174944071056 
4.240000000003457, -1.5298115647281452 
4.250000000003434, -1.5294922449036894 
4.26000000000341, -1.5291684552633105 
4.270000000003387, -1.528850287875704 
4.280000000003364, -1.528546925586833 
4.2900000000033405, -1.5282639004467256 
4.300000000003317, -1.5280011073284954 
4.310000000003294, -1.5277529078204686 
4.320000000003271, -1.5275102584463391 
4.330000000003247, -1.5272634332293973 
4.340000000003224, -1.5270039328105305 
4.350000000003201, -1.5267252421643862 
4.360000000003177, -1.5264230066299718 
4.370000000003154, -1.5260954017362214 
4.380000000003131, -1.5257441632191036 
4.390000000003107, -1.525376116616902 
4.400000000003084, -1.5250041337533187 
4.410000000003061, -1.524645654153137 
4.4200000000030375, -1.524317514332835 
4.430000000003014, -1.5240287962615988 
4.440000000002991, -1.5237765312933709 
4.450000000002968, -1.5235478066938126 
4.460000000002944, -1.5233263494756988 
4.470000000002921, -1.5230984938064718 
4.480000000002898, -1.522855626305188 
4.490000000002874, -1.5225937789252018 
4.500000000002851, -1.5223123514595776 
4.510000000002828, -1.5220133419019533 
4.520000000002804, -1.5217014791435453 
4.530000000002781, -1.5213848494298141 
4.540000000002758, -1.5210749138745405 
4.5500000000027345, -1.520784533615465 
4.560000000002711, -1.5205236503446729 
4.570000000002688, -1.5202946404415694 
4.580000000002665, -1.520090694909976 
4.590000000002641, -1.5198985676945667 
4.600000000002618, -1.5197035823873093 
4.610000000002595, -1.5194937439366631 
4.620000000002571, -1.5192615144674215 
4.630000000002548, -1.5190037435423442 
4.640000000002525, -1.5187208924554276 
4.6500000000025015, -1.5184163721074704 
4.660000000002478, -1.5180962313289852 
4.670000000002455, -1.5177689185356793 
4.6800000000024315, -1.5174445119137023 
4.690000000002408, -1.5171328883650772 
4.700000000002385, -1.5168410095083271 
4.710000000002362, -1.516570535165516 
4.720000000002338, -1.5163172772628388 
4.730000000002315, -1.5160728952265972 
4.740000000002292, -1.5158276584604604 
4.750000000002268, -1.5155726801740605 
4.760000000002245, -1.515300939922461 
4.770000000002222, -1.5150074845744208 
4.7800000000021985, -1.514689607499178 
4.790000000002175, -1.5143476206605737 
4.800000000002152, -1.5139863134337836 
4.810000000002129, -1.513616365151607 
4.820000000002105, -1.5132540175354083 
4.830000000002082, -1.5129172174845307 
4.840000000002059, -1.5126186356060205 
4.850000000002035, -1.512359632811028 
4.860000000002012, -1.5121299581402157 
4.870000000001989, -1.511913358375577 
4.880000000001965, -1.511694439823541 
4.890000000001942, -1.5114625573247567 
4.900000000001919, -1.5112122309803369 
4.9100000000018955, -1.5109419087463727 
4.920000000001872, -1.5106528060453086 
4.930000000001849, -1.510348576838521 
4.940000000001826, -1.5100357172388292 
