t, s[1].omega / s[0].omega 
0, -0.00999782023716677 
0.009999999999999995, -0.009782470756837022 
0.019999999999999934, -0.00957197496787578 
0.029999999999999874, -0.009365369328519 
0.04000000000000012, -0.009161273612842677 
0.050000000000000405, -0.008958145657305478 
0.06000000000000069, -0.008754516013060733 
0.07000000000000098, -0.008549147888485755 
0.08000000000000126, -0.008341105621886438 
0.09000000000000155, -0.008129748743305512 
0.10000000000000184, -0.007914686039149315 
0.11000000000000212, -0.007695724574229368 
0.12000000000000241, -0.007472839192963597 
0.130000000000002, -0.007246175389493849 
0.1400000000000009, -0.0070160855843801485 
0.1499999999999998, -0.006783185699347763 
0.1599999999999987, -0.006548405581295881 
0.1699999999999976, -0.006312996784811432 
0.1799999999999965, -0.006078461945119267 
0.1899999999999954, -0.00584638867163775 
0.1999999999999943, -0.005618206669016702 
0.2099999999999932, -0.00539492581771315 
0.2199999999999921, -0.005176933896595712 
0.229999999999991, -0.004963920672801174 
0.2399999999999899, -0.004754952963462443 
0.2499999999999888, -0.004548672364883884 
0.2599999999999877, -0.004343548429290781 
0.2699999999999866, -0.004138111744547749 
0.2799999999999855, -0.00393111349564806 
0.2899999999999844, -0.003721595348170007 
0.2999999999999833, -0.003508886427553434 
0.3099999999999822, -0.003292561049411607 
0.3199999999999811, -0.003072391492662883 
0.32999999999998, -0.0028483210493511105 
0.3399999999999789, -0.002620470231848837 
0.3499999999999778, -0.002389176126324223 
0.35999999999997667, -0.0021550513718594424 
0.36999999999997557, -0.0019190354375958833 
0.37999999999997447, -0.0016824006748499543 
0.38999999999997337, -0.001446676925014047 
0.39999999999997227, -0.0012134784977487867 
0.40999999999997117, -0.000984254509298467 
0.41999999999997006, -0.0007600229715074363 
0.42999999999996896, -0.0005411687790812596 
0.43999999999996786, -0.00032737167090989553 
0.44999999999996676, -0.00011768647740325294 
0.45999999999996566, -8.514978542963574e-7 
0.46999999999996456, -3.5359815296651794e-8 
0.47999999999996346, -4.0301431462456423e-7 
0.48999999999996235, 7.514093194191432e-7 
0.49999999999996125, 2.9669123889279435e-8 
0.5099999999999602, -4.401029811125768e-7 
0.519999999999959, -2.281174489167423e-7 
0.529999999999958, 8.964120087531027e-7 
0.5399999999999568, 8.38122870337846e-8 
0.5499999999999557, 1.1594640381617614e-7 
0.5599999999999546, 6.455814702462947e-7 
0.5699999999999535, -4.0926615494407596e-7 
0.5799999999999524, 3.5209362322743315e-7 
0.5899999999999513, 1.8475059673372588e-7 
0.5999999999999502, 4.5315113655265114e-7 
0.6099999999999491, -4.56390556909064e-7 
0.619999999999948, 3.841469969585096e-7 
0.6299999999999469, 5.35932644871328e-7 
0.6399999999999458, -3.440219542628847e-7 
0.6499999999999447, -4.3975583317380215e-7 
0.6599999999999436, -2.2534088806326865e-7 
0.6699999999999425, 2.3441353896033646e-7 
0.6799999999999414, -4.251740036357105e-7 
0.6899999999999403, 7.152372178956263e-7 
0.6999999999999392, -9.204404443300577e-7 
0.7099999999999381, -2.7155261470638857e-8 
0.719999999999937, -3.051313760930659e-7 
0.7299999999999359, 1.1648610456030183e-7 
0.7399999999999348, 5.018684451049214e-9 
0.7499999999999337, -5.921861269262343e-7 
0.7599999999999326, -3.5772898941168273e-7 
0.7699999999999315, 3.470053316410039e-7 
0.7799999999999304, 8.758742596591251e-7 
0.7899999999999293, 2.5035257899249603e-7 
0.7999999999999282, 6.841977639624816e-8 
0.8099999999999271, 2.3156787621088796e-7 
0.819999999999926, 5.824804500760479e-7 
0.8299999999999249, -2.9252704054038e-7 
0.8399999999999238, -4.404484183430369e-7 
0.8499999999999227, -1.6496089319605305e-7 
0.8599999999999216, -5.18508058341014e-7 
0.8699999999999205, -4.925958498574757e-7 
0.8799999999999194, -1.3659568119022597e-7 
0.8899999999999183, -8.139302372158581e-7 
0.8999999999999172, 3.8511552695835364e-7 
0.9099999999999161, 3.223018456011546e-7 
0.919999999999915, -7.399448203787662e-8 
0.9299999999999139, -1.5887607231455823e-7 
0.9399999999999128, 4.730600366293529e-7 
0.9499999999999117, 5.790820172880524e-7 
0.9599999999999106, 1.9685811856322279e-7 
0.9699999999999095, 6.325211218578373e-7 
0.9799999999999084, 5.700721923875548e-8 
0.9899999999999073, -7.40145245457546e-7 
0.9999999999999062, 1.499872016511507e-7 
1.0099999999999052, -5.1456938097290504e-8 
1.019999999999904, 1.3124270626141028e-9 
1.029999999999903, 1.5483580639461376e-7 
1.039999999999902, 4.679050904024073e-7 
1.0499999999999008, 1.9311133883046604e-8 
1.0599999999998997, -1.8030602830794979e-9 
1.0699999999998986, 8.433995038971201e-7 
1.0799999999998975, -7.68041092687187e-7 
1.0899999999998964, -5.108832892256236e-7 
1.0999999999998953, 2.51985082258423e-7 
1.1099999999998942, 6.018690616049727e-8 
1.119999999999893, 1.1981838652336145e-7 
1.129999999999892, -1.1071107755618898e-7 
1.1399999999998909, -1.2353656250336672e-9 
1.1499999999998898, -6.116573535533982e-7 
1.1599999999998887, -2.880245986163738e-7 
1.1699999999998876, -4.557181480150661e-7 
1.1799999999998865, 1.799867295477793e-7 
1.1899999999998854, -2.245142992625301e-7 
1.1999999999998843, 5.558436856010186e-7 
1.2099999999998832, 5.077543377231005e-8 
1.219999999999882, -1.751343441958113e-7 
1.229999999999881, -2.3786187820976808e-7 
1.2399999999998799, -2.861803001082634e-7 
1.2499999999998788, -2.413124060890392e-7 
1.2599999999998777, 4.6191111015011773e-7 
1.2699999999998766, 1.456009769998232e-7 
1.2799999999998755, -7.137985214118677e-7 
1.2899999999998744, 4.019322444803024e-7 
1.2999999999998733, 5.651556030010567e-7 
1.3099999999998722, -1.3386002096355496e-7 
1.319999999999871, -2.5936768406717727e-7 
1.32999999999987, -7.443242711622706e-8 
1.3399999999998689, -1.372294367855944e-7 
1.3499999999998678, 1.6782605840527835e-7 
1.3599999999998666, -2.309970257474325e-7 
1.3699999999998655, 3.103374926754465e-7 
1.3799999999998644, 3.5668773546559044e-7 
1.3899999999998633, -2.6210871193726164e-7 
1.3999999999998622, 9.556074908866377e-7 
1.4099999999998611, 4.036121360840043e-7 
1.41999999999986, -4.756602646316393e-8 
1.429999999999859, -3.029247362611667e-7 
1.4399999999998578, 9.67078762639897e-7 
1.4499999999998567, -7.408059070223548e-7 
1.4599999999998556, 4.863527213526834e-7 
1.4699999999998545, 8.873420255824045e-7 
1.4799999999998534, 2.77361946323084e-7 
1.4899999999998523, -8.299013867856974e-7 
1.4999999999998512, 1.1090241390231872e-7 
1.5099999999998501, 1.8509806147091952e-7 
1.519999999999849, -5.179227862769995e-7 
1.529999999999848, -5.733896110352095e-7 
1.5399999999998468, -2.6034448941218534e-7 
1.5499999999998457, -1.53488594760716e-7 
1.5599999999998446, 3.4833313723490176e-7 
1.5699999999998435, 1.617028997402652e-7 
1.5799999999998424, -5.325323354666787e-7 
1.5899999999998413, -2.726595993092048e-7 
1.5999999999998402, -6.938793624609042e-7 
1.6099999999998391, -7.627975817782693e-7 
1.619999999999838, 2.562634776294238e-7 
1.629999999999837, -1.4531745907426483e-7 
1.6399999999998358, 0.0000010182017741611126 
1.6499999999998347, -7.441480329129175e-7 
1.6599999999998336, 2.440812387650465e-7 
1.6699999999998325, -2.558642054278999e-7 
1.6799999999998314, -1.576940062974909e-7 
1.6899999999998303, 3.936383823290016e-7 
1.6999999999998292, 4.953381663281306e-7 
1.709999999999828, 5.391598270928476e-7 
1.719999999999827, 5.29233707838074e-7 
1.729999999999826, -1.732802999027748e-7 
1.7399999999998248, -1.5500508669572295e-7 
1.7499999999998237, 2.889049754938353e-7 
1.7599999999998226, -8.860435215445973e-7 
1.7699999999998215, -1.863044715490787e-7 
1.7799999999998204, -1.601784698602794e-7 
1.7899999999998193, 8.167131421189974e-7 
1.7999999999998182, -1.6378457627629972e-7 
1.809999999999817, -3.887315588389841e-7 
1.819999999999816, -2.93194663908916e-7 
1.8299999999998149, -6.130642709294742e-7 
1.8399999999998138, 4.839382783482993e-7 
1.8499999999998127, 1.546352598686703e-7 
1.8599999999998116, -2.851375833187694e-7 
1.8699999999998105, 4.882821768011593e-7 
1.8799999999998094, -2.8805913882061436e-7 
1.8899999999998083, -4.931724057552296e-7 
1.8999999999998072, -2.321000720789301e-7 
1.909999999999806, -3.7119805628905145e-7 
1.919999999999805, 2.3361938597254668e-7 
1.9299999999998039, 1.4446673520661443e-7 
1.9399999999998028, -5.530696757985252e-7 
1.9499999999998017, -4.574065935509546e-7 
1.9599999999998006, 1.2006833853223339e-7 
1.9699999999997995, -8.81522621591759e-7 
1.9799999999997984, 1.7246400135895818e-8 
1.9899999999997973, 2.5666089863324294e-7 
1.9999999999997962, -1.986766506993912e-9 
2.0099999999998173, -7.70116691356505e-7 
2.0199999999998384, -8.001410047463888e-7 
2.0299999999998595, 9.108836024097056e-7 
2.0399999999998806, -7.51296792852777e-7 
2.0499999999999017, 3.865595796533353e-7 
2.059999999999923, 1.2713761094587012e-8 
2.069999999999944, 8.904721383824751e-7 
2.079999999999965, -8.434186829146787e-9 
2.089999999999986, 3.8965036016938825e-7 
2.100000000000007, -1.1907967823207226e-7 
2.1100000000000283, -1.4638447676183144e-7 
2.1200000000000494, -5.226199162507771e-7 
2.1300000000000705, -7.878761153247944e-8 
2.1400000000000916, -2.4227447815108527e-7 
2.1500000000001127, 5.229370574722376e-7 
2.160000000000134, -7.537476734118593e-7 
2.170000000000155, -4.005664011426263e-8 
2.180000000000176, -8.665027724186354e-7 
2.190000000000197, 2.3237630633937684e-7 
2.2000000000002182, 6.855834681534289e-7 
2.2100000000002393, -8.086327240255366e-7 
2.2200000000002604, 8.8306642664839e-8 
2.2300000000002815, 2.518074542543395e-7 
2.2400000000003026, -7.840384420071186e-7 
2.2500000000003237, 5.68029953665141e-7 
2.260000000000345, 2.889622652572577e-7 
2.270000000000366, -1.344988333952874e-7 
2.280000000000387, 6.024383098014041e-7 
2.290000000000408, -5.195684416126815e-7 
2.3000000000004293, -4.027888891507384e-7 
2.3100000000004504, 2.3799343929774273e-7 
2.3200000000004715, -7.569363006240087e-8 
2.3300000000004926, 7.68001602202874e-7 
2.3400000000005137, -3.977708644027103e-7 
2.3500000000005348, -6.307143674602357e-7 
2.360000000000556, 1.4830520810116222e-7 
2.370000000000577, 4.094813082773977e-7 
2.380000000000598, -1.913482785315032e-7 
2.390000000000619, -8.409087439489204e-7 
2.4000000000006403, 4.591230355758657e-7 
2.4100000000006614, -3.267381316322464e-7 
2.4200000000006825, -1.4991758038580336e-7 
2.4300000000007036, 9.580868546736323e-7 
2.4400000000007247, -1.3966815322553147e-7 
2.450000000000746, 4.351974588950457e-7 
2.460000000000767, 4.380126773206661e-7 
2.470000000000788, 1.9086131576434224e-7 
2.480000000000809, -2.873049106460607e-7 
2.49000000000083, 3.038199341923543e-7 
2.5000000000008513, 4.0801534427569643e-7 
2.5100000000008724, 2.4120659967650375e-7 
2.5200000000008935, -8.752415273987761e-7 
2.5300000000009146, -1.9865185902736103e-8 
2.5400000000009357, 5.942438027356339e-7 
2.550000000000957, 7.302819967208514e-7 
2.560000000000978, 4.3275211393021936e-7 
2.570000000000999, -2.23396664561775e-7 
2.58000000000102, 1.2579988154067473e-7 
2.5900000000010412, -3.336686670536912e-7 
2.6000000000010624, 6.486902327463112e-7 
2.6100000000010835, -7.557813409203173e-7 
2.6200000000011046, 1.2640056135023345e-7 
2.6300000000011257, 5.208338235998627e-7 
2.6400000000011468, 3.85862466003906e-7 
2.650000000001168, -5.213098672109192e-7 
2.660000000001189, 2.0845904390124218e-7 
2.67000000000121, 3.1179370896498596e-7 
2.680000000001231, 9.201940218875153e-8 
2.6900000000012523, 0.0000010073765590970188 
2.7000000000012734, -5.60495530268997e-9 
2.7100000000012945, -1.3249210307281074e-7 
2.7200000000013156, -5.850560974553126e-7 
2.7300000000013367, 9.01317681536966e-7 
2.740000000001358, 2.1311641362253956e-8 
2.750000000001379, 4.097211926443371e-7 
2.7600000000014, 3.9900948735222014e-7 
2.770000000001421, 4.174574192595892e-8 
2.780000000001442, -5.919260122694332e-7 
2.7900000000014633, -1.5127172159952942e-7 
2.8000000000014844, -4.6688448336702966e-7 
2.8100000000015055, -7.576179311354037e-7 
2.8200000000015266, -5.056189599128637e-7 
2.8300000000015477, -8.616487139780467e-7 
2.840000000001569, -2.49728013842944e-7 
2.85000000000159, -1.7509167421810452e-7 
2.860000000001611, 5.601031761154612e-7 
2.870000000001632, -1.1096333216869153e-8 
2.8800000000016532, 1.8913284800156485e-7 
2.8900000000016743, -7.8530476840767e-9 
2.9000000000016954, -6.107611106549522e-7 
2.9100000000017165, -3.2611439563747245e-7 
2.9200000000017377, 7.653738846986873e-7 
2.9300000000017588, 2.4998245853533398e-8 
2.94000000000178, -2.45632412763174e-7 
2.950000000001801, 4.797566982079751e-8 
2.960000000001822, 2.1464321683201613e-7 
2.970000000001843, 6.197778317299774e-8 
2.9800000000018643, -3.50184881270219e-7 
2.9900000000018854, 4.962218253771439e-7 
3.0000000000019065, -4.2161617990492934e-7 
3.0100000000019276, -5.909299968783545e-7 
3.0200000000019487, 7.535231936670465e-7 
3.03000000000197, -2.4373406447015225e-7 
3.040000000001991, -3.8425798549814566e-7 
3.050000000002012, 4.449958590147394e-7 
3.060000000002033, -7.248801364208934e-7 
3.070000000002054, 1.9775226738722836e-7 
3.0800000000020753, -2.2367721229430906e-7 
3.0900000000020964, 6.976519690087086e-8 
3.1000000000021175, -1.0906125949296395e-7 
3.1100000000021386, 6.713038773255032e-7 
3.1200000000021597, -6.579782167604021e-7 
3.130000000002181, 1.9476747897224983e-7 
3.140000000002202, -8.353502063928682e-7 
3.150000000002223, 4.399001850754858e-8 
3.160000000002244, 6.032150388594683e-8 
3.1700000000022652, 9.277436492525766e-9 
3.1800000000022863, -2.805195636131354e-7 
3.1900000000023074, 7.105721256418499e-7 
3.2000000000023285, 1.3461759631788277e-7 
3.2100000000023496, 7.682863604554265e-7 
3.2200000000023707, -7.056670000280463e-7 
3.230000000002392, -6.311217112357832e-7 
3.240000000002413, 2.993919838404856e-8 
3.250000000002434, 1.0527457461554015e-7 
3.260000000002455, -3.0165993593303505e-7 
3.2700000000024763, 1.8978957317152994e-7 
3.2800000000024974, -1.5512376499537782e-7 
3.2900000000025185, -4.2944057268089985e-7 
3.3000000000025396, -4.6527968995196415e-8 
3.3100000000025607, -2.1186910193901022e-7 
3.3200000000025818, 4.932970314215522e-7 
3.330000000002603, 4.5189827522000236e-7 
3.340000000002624, -3.9113323073710385e-7 
3.350000000002645, -2.594744122047343e-7 
3.360000000002666, 3.1693519872184315e-7 
3.3700000000026873, 5.8536737814477026e-8 
3.3800000000027084, -2.061250086456007e-7 
3.3900000000027295, -6.282141567762055e-7 
3.4000000000027506, 3.1759609951807624e-7 
3.4100000000027717, -2.2320625888956777e-7 
3.420000000002793, -9.414200859106499e-7 
3.430000000002814, 6.423305712777304e-7 
3.440000000002835, -5.515021812580818e-7 
3.450000000002856, 3.15417411800728e-7 
3.460000000002877, -8.463954212657332e-7 
3.4700000000028983, 4.1693050611133994e-7 
3.4800000000029194, -3.3782803189963846e-7 
3.4900000000029405, -4.986525880282008e-7 
3.5000000000029616, -6.285712555771353e-7 
3.5100000000029827, -1.5998748299669034e-7 
3.520000000003004, -3.1655639393793045e-7 
3.530000000003025, 3.0826831385135024e-7 
3.540000000003046, 9.660934425337719e-8 
3.550000000003067, 4.608568701870612e-7 
3.5600000000030882, 2.992674831087192e-7 
3.5700000000031094, 5.733077808260936e-7 
3.5800000000031305, 4.2834034850677296e-8 
3.5900000000031516, -4.3128402837096367e-7 
3.6000000000031727, 4.725275782462733e-7 
3.6100000000031938, -7.54985280865739e-8 
3.620000000003215, -5.77011681751584e-7 
3.630000000003236, 2.627850074023786e-7 
3.640000000003257, 5.465355975629278e-7 
3.650000000003278, -4.608513087961201e-7 
3.6600000000032993, -8.405641340503503e-7 
3.6700000000033204, -3.3256385326483185e-7 
3.6800000000033415, -3.0589672974170906e-7 
3.6900000000033626, 5.988929528225349e-7 
3.7000000000033837, 6.204033330156319e-7 
3.710000000003405, 6.321050630780082e-7 
3.720000000003426, -2.708331242456465e-7 
3.730000000003447, 0.0000010299485642929166 
3.740000000003468, 1.1595021531386614e-7 
3.750000000003489, -2.707371928087968e-7 
3.7600000000035103, -1.5606515873564828e-7 
3.7700000000035314, -6.124750111699143e-7 
3.7800000000035525, 8.132133205461467e-7 
3.7900000000035736, 1.3417104904754167e-8 
3.8000000000035947, 7.873936900323535e-7 
3.810000000003616, 1.1530890199139338e-7 
3.820000000003637, -4.6847009012465855e-7 
3.830000000003658, 5.267255132490572e-7 
3.840000000003679, 2.103498027713509e-8 
3.8500000000037002, 4.6036220697764493e-7 
3.8600000000037213, -3.591311530305578e-7 
3.8700000000037424, -5.313355408432017e-7 
3.8800000000037635, 1.9340911105622363e-7 
3.8900000000037847, 4.3646504180621083e-7 
3.9000000000038058, 9.318377550941059e-8 
3.910000000003827, 2.952219281653277e-7 
3.920000000003848, 4.4570515896594494e-7 
3.930000000003869, -3.7933976552713714e-7 
3.94000000000389, 9.206655521713555e-7 
3.9500000000039113, -8.397154641494111e-8 
3.9600000000039324, 8.029255119638744e-7 
3.9700000000039535, -7.887386350780774e-7 
3.9800000000039746, -8.808388836618305e-8 
3.9900000000039957, -4.1660260605701335e-7 
4.000000000004016, -2.9529126999377752e-8 
4.010000000003993, 5.434897445285721e-7 
4.02000000000397, -2.4627197466713105e-7 
4.030000000003946, -8.610749742491781e-7 
4.040000000003923, 1.815385605557096e-7 
4.0500000000039, -2.1318712422994304e-7 
4.0600000000038765, 3.839141631068798e-7 
4.070000000003853, -2.4627555704011493e-7 
4.08000000000383, -2.1019420269528011e-7 
4.090000000003807, 7.31532150567158e-7 
4.100000000003783, -2.6267342073273345e-7 
4.11000000000376, -4.0168508108299106e-7 
4.120000000003737, -2.0977538591504405e-8 
4.130000000003713, 2.653900364620825e-7 
4.14000000000369, 9.675996122576176e-7 
4.150000000003667, -6.446647378759507e-7 
4.1600000000036434, -2.9175141238194493e-7 
4.17000000000362, 4.1072991070381843e-7 
4.180000000003597, 1.6068442202227605e-8 
4.1900000000035735, 4.191331125205775e-7 
4.20000000000355, -2.0932045168307825e-7 
4.210000000003527, -8.575304609066336e-8 
4.220000000003504, 2.906447779766416e-7 
4.23000000000348, -6.118983755191749e-7 
4.240000000003457, 2.0030912309837813e-7 
4.250000000003434, -1.5899851885410504e-7 
4.26000000000341, -4.396940851630201e-7 
4.270000000003387, 3.173303549204434e-7 
4.280000000003364, -1.221847365549254e-7 
4.2900000000033405, 1.2292766616631178e-7 
4.300000000003317, -1.7149265761663155e-7 
4.310000000003294, 5.033534059925707e-7 
4.320000000003271, 5.675722664728388e-7 
4.330000000003247, -3.283003641038746e-7 
4.340000000003224, 9.098930771257979e-8 
4.350000000003201, -5.902470043114787e-7 
4.360000000003177, -7.596485770856014e-7 
4.370000000003154, 9.456683968468358e-7 
4.380000000003131, 5.77910930838932e-9 
4.390000000003107, -6.484511888844164e-7 
4.400000000003084, 9.091519164636353e-7 
4.410000000003061, -1.818094637216386e-8 
4.4200000000030375, -1.5507004964251117e-7 
4.430000000003014, 2.909210763181975e-8 
4.440000000002991, 4.7199910980522657e-7 
4.450000000002968, -1.9078143719258744e-7 
4.460000000002944, -4.947355794307387e-7 
4.470000000002921, 7.949404608286356e-7 
4.480000000002898, 2.606525677287875e-7 
4.490000000002874, 1.3141158935162617e-8 
4.500000000002851, 4.6799601703931547e-7 
4.510000000002828, 3.9093914115184806e-7 
4.520000000002804, -1.7221586927053874e-7 
4.530000000002781, 9.415253608569489e-8 
4.540000000002758, 8.263975507302807e-7 
4.5500000000027345, -7.774483669531084e-8 
4.560000000002711, -6.931797711332791e-7 
4.570000000002688, 5.75384756699912e-7 
4.580000000002665, -7.32030418012071e-7 
4.590000000002641, -4.121839922242508e-7 
4.600000000002618, 1.2421837118460755e-7 
4.610000000002595, -7.137960770946831e-8 
4.620000000002571, 1.5692671748124983e-7 
4.630000000002548, -2.3726900322588028e-7 
4.640000000002525, -2.4090114562727355e-7 
4.6500000000025015, 9.903106977665747e-8 
4.660000000002478, -5.807616594303445e-7 
4.670000000002455, -8.254660646379388e-7 
4.6800000000024315, 5.842069096578085e-7 
4.690000000002408, 2.1399404283856338e-7 
