t, s[1].omega / s[0].omega 
0, -0.15999781352648737 
0.009999999999999995, -0.1597807256955727 
0.019999999999999934, -0.15956643288914682 
0.029999999999999874, -0.159354125471111 
0.04000000000000012, -0.15914265071209072 
0.050000000000000405, -0.1589307274895839 
0.06000000000000069, -0.15871713200962564 
0.07000000000000098, -0.15850080949735607 
0.08000000000000126, -0.15828090339422288 
0.09000000000000155, -0.15805672204851748 
0.10000000000000184, -0.15782767481814275 
0.11000000000000212, -0.15759320815792194 
0.12000000000000241, -0.15735276551990887 
0.130000000000002, -0.15710578856489793 
0.1400000000000009, -0.15685177220540356 
0.1499999999999998, -0.15659037889896343 
0.1599999999999987, -0.15632160297835668 
0.1699999999999976, -0.15604595094806856 
0.1799999999999965, -0.15576457501708388 
0.1899999999999954, -0.15547928352095572 
0.1999999999999943, -0.1551923759016839 
0.2099999999999932, -0.1549063158039185 
0.2199999999999921, -0.15462333301121442 
0.229999999999991, -0.15434508330817173 
0.2399999999999899, -0.15407246728641671 
0.2499999999999888, -0.1538056347622094 
0.2599999999999877, -0.15354412917197582 
0.2699999999999866, -0.15328709208254696 
0.2799999999999855, -0.15303345535799118 
0.2899999999999844, -0.1527820785048789 
0.2999999999999833, -0.15253181981356972 
0.3099999999999822, -0.15228155047008435 
0.3199999999999811, -0.152030129845872 
0.32999999999998, -0.1517763625375143 
0.3399999999999789, -0.1515189591781592 
0.3499999999999778, -0.15125652712851115 
0.35999999999997667, -0.15098762322686432 
0.36999999999997557, -0.15071090214723326 
0.37999999999997447, -0.1504253777054521 
0.38999999999997337, -0.15013076820105054 
0.39999999999997227, -0.14982782573049508 
0.40999999999997117, -0.14951849337979417 
0.41999999999997006, -0.14920575531710378 
0.42999999999996896, -0.14889316832448238 
0.43999999999996786, -0.148584225037649 
0.44999999999996676, -0.14828178252734797 
0.45999999999996566, -0.1479877362486648 
0.46999999999996456, -0.14770298231912235 
0.47999999999996346, -0.14742759205596417 
0.48999999999996235, -0.1471610786577144 
0.49999999999996125, -0.14690265642760802 
0.5099999999999602, -0.1466514380055079 
0.519999999999959, -0.14640655359934296 
0.529999999999958, -0.14616719731379063 
0.5399999999999568, -0.14593261217773018 
0.5499999999999557, -0.14570202501427856 
0.5599999999999546, -0.14547454263506915 
0.5699999999999535, -0.1452490284092515 
0.5799999999999524, -0.1450239966637627 
0.5899999999999513, -0.1447975879158988 
0.5999999999999502, -0.1445677028202266 
0.6099999999999491, -0.14433234486513785 
0.619999999999948, -0.14409012740168325 
0.6299999999999469, -0.1438407686505685 
0.6399999999999458, -0.1435853288430121 
0.6499999999999447, -0.14332603297407936 
0.6599999999999436, -0.1430657404361232 
0.6699999999999425, -0.14280730603539266 
0.6799999999999414, -0.1425530902490402 
0.6899999999999403, -0.14230474378602326 
0.6999999999999392, -0.1420632398051484 
0.7099999999999381, -0.14182904919055142 
0.719999999999937, -0.14160235503602137 
0.7299999999999359, -0.14138324013090614 
0.7399999999999348, -0.14117181845228927 
0.7499999999999337, -0.14096830317375686 
0.7599999999999326, -0.14077301011655388 
0.7699999999999315, -0.14058629368199765 
0.7799999999999304, -0.14040841019043449 
0.7899999999999293, -0.14023930966082315 
0.7999999999999282, -0.14007837933274994 
0.8099999999999271, -0.13992420312911477 
0.819999999999926, -0.1397744474006627 
0.8299999999999249, -0.13962599737017165 
0.8399999999999238, -0.13947540396114455 
0.8499999999999227, -0.13931955102520033 
0.8599999999999216, -0.13915630007446078 
0.8699999999999205, -0.13898484376897893 
0.8799999999999194, -0.13880564813770077 
0.8899999999999183, -0.13862007871945062 
0.8999999999999172, -0.13842992709525884 
0.9099999999999161, -0.13823702606588334 
0.919999999999915, -0.13804303355282843 
0.9299999999999139, -0.13784937057344496 
0.9399999999999128, -0.13765725704267168 
0.9499999999999117, -0.13746778945712249 
0.9599999999999106, -0.13728202081927454 
0.9699999999999095, -0.13710101786016338 
0.9799999999999084, -0.13692587790524813 
0.9899999999999073, -0.13675768929110366 
0.9999999999999062, -0.13659742052284657 
1.0099999999999052, -0.13644573170593396 
1.019999999999904, -0.13630272427721252 
1.029999999999903, -0.1361676833742131 
1.039999999999902, -0.13603890940820323 
1.0499999999999008, -0.13591375165752473 
1.0599999999998997, -0.1357889119880619 
1.0699999999998986, -0.1356609761670831 
1.0799999999998975, -0.1355270081496778 
1.0899999999998964, -0.13538499753122432 
1.0999999999998953, -0.1352340243306424 
1.1099999999998942, -0.1350741457008087 
1.119999999999893, -0.13490611768553368 
1.129999999999892, -0.13473108791391725 
1.1399999999998909, -0.13455035156485717 
1.1499999999998898, -0.13436520337616228 
1.1599999999998887, -0.13417687694537037 
1.1699999999998876, -0.13398654521521075 
1.1799999999998865, -0.13379535381421423 
1.1899999999998854, -0.13360446143055837 
1.1999999999998843, -0.13341506300259945 
1.2099999999998832, -0.13322837203026294 
1.219999999999882, -0.13304554174107514 
1.229999999999881, -0.13286751702155414 
1.2399999999998799, -0.132694833584939 
1.2499999999998788, -0.13252741385289812 
1.2599999999998777, -0.1323644356471692 
1.2699999999998766, -0.13220434853180235 
1.2799999999998755, -0.13204506990341042 
1.2899999999998744, -0.13188432031361644 
1.2999999999998733, -0.13171999391581904 
1.3099999999998722, -0.13155044645291375 
1.319999999999871, -0.13137462834745017 
1.32999999999987, -0.13119206204765782 
1.3399999999998689, -0.13100271698374075 
1.3499999999998678, -0.13080685099441086 
1.3599999999998666, -0.1306048719756139 
1.3699999999998655, -0.13039724803629987 
1.3799999999998644, -0.13018447334634878 
1.3899999999998633, -0.1299670840053363 
1.3999999999998622, -0.1297457104745336 
1.4099999999998611, -0.12952114587922997 
1.41999999999986, -0.12929440114139454 
1.429999999999859, -0.12906671182009227 
1.4399999999998578, -0.12883946545838038 
1.4499999999998567, -0.12861403925834397 
1.4599999999998556, -0.12839157436374254 
1.4699999999998545, -0.1281727497923757 
1.4799999999998534, -0.12795763371871588 
1.4899999999998523, -0.1277456683600768 
1.4999999999998512, -0.12753579429400813 
1.5099999999998501, -0.12732666655004146 
1.519999999999849, -0.12711688620674294 
1.529999999999848, -0.12690517911034646 
1.5399999999998468, -0.1266904873245805 
1.5499999999998457, -0.12647197698754753 
1.5599999999998446, -0.12624899094184133 
1.5699999999998435, -0.12602098153475547 
1.5799999999998424, -0.12578745429524354 
1.5899999999998413, -0.12554794487440954 
1.5999999999998402, -0.12530204405632642 
1.6099999999998391, -0.1250494780106512 
1.619999999999838, -0.12479023906929236 
1.629999999999837, -0.1245247424685512 
1.6399999999998358, -0.12425395910003341 
1.6499999999998347, -0.12397945636142058 
1.6599999999998336, -0.12370328890539903 
1.6699999999998325, -0.12342772982509183 
1.6799999999998314, -0.12315490431779337 
1.6899999999998303, -0.1228864401078924 
1.6999999999998292, -0.12262324529097175 
1.709999999999828, -0.12236546620673698 
1.719999999999827, -0.12211260332977747 
1.729999999999826, -0.12186371360463574 
1.7399999999998248, -0.12161761991611697 
1.7499999999998237, -0.12137307214136721 
1.7599999999998226, -0.12112883804506062 
1.7699999999998215, -0.12088372943717589 
1.7799999999998204, -0.12063658363397549 
1.7899999999998193, -0.12038622499484138 
1.7999999999998182, -0.12013143193723937 
1.809999999999817, -0.11987093575734416 
1.819999999999816, -0.11960347912787976 
1.8299999999998149, -0.11932795923874832 
1.8399999999998138, -0.11904366345628256 
1.8499999999998127, -0.11875056553459022 
1.8599999999998116, -0.11844959341516717 
1.8699999999998105, -0.11814273744899835 
1.8799999999998094, -0.11783288855374172 
1.8899999999998083, -0.1175233994002973 
1.8999999999998072, -0.11721749853653345 
1.909999999999806, -0.11691776256536872 
1.919999999999805, -0.11662581094029334 
1.9299999999998039, -0.11634226923038979 
1.9399999999998028, -0.11606693573793878 
1.9499999999998017, -0.11579903911387834 
1.9599999999998006, -0.11553748886293698 
1.9699999999997995, -0.11528106263058376 
1.9799999999997984, -0.11502851361605915 
1.9899999999997973, -0.1147786055338256 
1.9999999999997962, -0.11453009238987708 
2.0099999999998173, -0.11428166297248121 
2.0199999999998384, -0.11403187271144724 
2.0299999999998595, -0.11377909334900065 
2.0399999999998806, -0.11352152388223927 
2.0499999999999017, -0.11325731638624703 
2.059999999999923, -0.11298485870496237 
2.069999999999944, -0.11270320014646165 
2.079999999999965, -0.11241250609592168 
2.089999999999986, -0.11211433604861591 
2.100000000000007, -0.11181155019392326 
2.1100000000000283, -0.11150780707582778 
2.1200000000000494, -0.11120683167571488 
2.1300000000000705, -0.11091174542232926 
2.1400000000000916, -0.11062467968912974 
2.1500000000001127, -0.11034672123672881 
2.160000000000134, -0.11007809600610932 
2.170000000000155, -0.1098184518956139 
2.180000000000176, -0.10956713031390423 
2.190000000000197, -0.1093233691047347 
2.2000000000002182, -0.10908642109609316 
2.2100000000002393, -0.10885559350626503 
2.2200000000002604, -0.108630218886376 
2.2300000000002815, -0.10840956756929217 
2.2400000000003026, -0.10819271377825915 
2.2500000000003237, -0.10797838010655865 
2.260000000000345, -0.10776481146927108 
2.270000000000366, -0.10754976243048128 
2.280000000000387, -0.10733069415611134 
2.290000000000408, -0.10710522715161253 
2.3000000000004293, -0.1068717634589216 
2.3100000000004504, -0.1066300360436065 
2.3200000000004715, -0.10638129939324839 
2.3300000000004926, -0.10612803273915528 
2.3400000000005137, -0.10587329453731589 
2.3500000000005348, -0.10562003385392556 
2.360000000000556, -0.10537061995597126 
2.370000000000577, -0.10512667770257489 
2.380000000000598, -0.10488916419837542 
2.390000000000619, -0.1046585654969702 
2.4000000000006403, -0.10443511105457459 
2.4100000000006614, -0.10421894760644397 
2.4200000000006825, -0.10401024946137274 
2.4300000000007036, -0.10380925946092105 
2.4400000000007247, -0.10361625829417061 
2.450000000000746, -0.10343145810973124 
2.460000000000767, -0.10325481892273145 
2.470000000000788, -0.10308580277003714 
2.480000000000809, -0.10292311742110212 
2.49000000000083, -0.10276455263361306 
2.5000000000008513, -0.10260704618963293 
2.5100000000008724, -0.10244708035058929 
2.5200000000008935, -0.10228136829738857 
2.5300000000009146, -0.1021075998982988 
2.5400000000009357, -0.10192492474617129 
2.550000000000957, -0.10173396803693475 
2.560000000000978, -0.10153643033271142 
2.570000000000999, -0.1013345152498983 
2.58000000000102, -0.10113043732249719 
2.5900000000010412, -0.10092613769203558 
2.6000000000010624, -0.10072320337776489 
2.6100000000010835, -0.10052291909182498 
2.6200000000011046, -0.100326375371974 
2.6300000000011257, -0.1001345789132678 
2.6400000000011468, -0.09994853343431362 
2.650000000001168, -0.09976927190406923 
2.660000000001189, -0.09959782442778778 
2.67000000000121, -0.09943510672643194 
2.680000000001231, -0.09928172060639354 
2.6900000000012523, -0.099137679499162 
2.7000000000012734, -0.0990021143206559 
2.7100000000012945, -0.09887306841278387 
2.7200000000013156, -0.09874752153278278 
2.7300000000013367, -0.09862174208132814 
2.740000000001358, -0.09849193221593586 
2.750000000001379, -0.09835496170952515 
2.7600000000014, -0.09820890937095729 
2.770000000001421, -0.09805322437411754 
2.780000000001442, -0.09788851974595139 
2.7900000000014633, -0.09771616679541917 
2.8000000000014844, -0.09753788461209553 
2.8100000000015055, -0.09735544442545294 
2.8200000000015266, -0.09717051682236019 
2.8300000000015477, -0.09698463280755093 
2.840000000001569, -0.09679921238950534 
2.85000000000159, -0.09661561899284825 
2.860000000001611, -0.09643520750846438 
2.870000000001632, -0.09625934006377354 
2.8800000000016532, -0.09608934634369193 
2.8900000000016743, -0.09592640923227533 
2.9000000000016954, -0.0957713689571838 
2.9100000000017165, -0.0956244662442011 
2.9200000000017377, -0.09548508659504736 
2.9300000000017588, -0.09535160821395833 
2.94000000000178, -0.09522146363733722 
2.950000000001801, -0.09509146901021603 
2.960000000001822, -0.09495836046759981 
2.970000000001843, -0.09481936594423211 
2.9800000000018643, -0.0946726147202298 
2.9900000000018854, -0.09451727153247225 
3.0000000000019065, -0.09435341551681087 
3.0100000000019276, -0.09418177669651868 
3.0200000000019487, -0.09400345470064571 
3.03000000000197, -0.09381970056148392 
3.040000000001991, -0.0936317884562233 
3.050000000002012, -0.09344096780217062 
3.060000000002033, -0.09324847055993442 
3.070000000002054, -0.0930555453865792 
3.0800000000020753, -0.0928634906949579 
3.0900000000020964, -0.09267365887580449 
3.1000000000021175, -0.09248740542121232 
3.1100000000021386, -0.09230596463510649 
3.1200000000021597, -0.0921302535258667 
3.130000000002181, -0.09196063796543606 
3.140000000002202, -0.09179673078537955 
3.150000000002223, -0.09163730991020301 
3.160000000002244, -0.0914804239491114 
3.1700000000022652, -0.09132368773634107 
3.1800000000022863, -0.09116468781460221 
3.1900000000023074, -0.09100136695180604 
3.2000000000023285, -0.09083227216138286 
3.2100000000023496, -0.09065662080564184 
3.2200000000023707, -0.0904742164015954 
3.230000000002392, -0.09028528757523896 
3.240000000002413, -0.09009032210667972 
3.250000000002434, -0.08988994191578582 
3.260000000002455, -0.08968483626110911 
3.2700000000024763, -0.08947575040776817 
3.2800000000024974, -0.0892635155831029 
3.2900000000025185, -0.08904909864366779 
3.3000000000025396, -0.08883364325166831 
3.3100000000025607, -0.08861846958311245 
3.3200000000025818, -0.08840500222251152 
3.330000000002603, -0.08819461257535707 
3.340000000002624, -0.08798839407277882 
3.350000000002645, -0.08778692583383826 
3.360000000002666, -0.08759010381938988 
3.3700000000026873, -0.08739710942087829 
3.3800000000027084, -0.0872065405429575 
3.3900000000027295, -0.08701666807444394 
3.4000000000027506, -0.08682573339868659 
3.4100000000027717, -0.08663219562827557 
3.420000000002793, -0.08643487096838284 
3.430000000002814, -0.08623295736656814 
3.440000000002835, -0.08602597719236704 
3.450000000002856, -0.0858136855171855 
3.460000000002877, -0.08559598575446145 
3.4700000000028983, -0.08537287977692073 
3.4800000000029194, -0.08514446512384223 
3.4900000000029405, -0.08491097989391762 
3.5000000000029616, -0.08467288409961729 
3.5100000000029827, -0.08443095207629507 
3.520000000003004, -0.08418633562604141 
3.530000000003025, -0.08394055017583525 
3.540000000003046, -0.08369534823046929 
3.550000000003067, -0.0834524814417806 
3.5600000000030882, -0.08321340338821681 
3.5700000000031094, -0.08297900247253107 
3.5800000000031305, -0.08274945282261012 
3.5900000000031516, -0.08252422768815096 
3.6000000000031727, -0.08230225748246077 
3.6100000000031938, -0.08208216586596447 
3.620000000003215, -0.08186250322358989 
3.630000000003236, -0.08164191706731037 
3.640000000003257, -0.0814192360922002 
3.650000000003278, -0.08119347854681512 
3.6600000000032993, -0.08096381465615937 
3.6700000000033204, -0.08072951695849641 
3.6800000000033415, -0.08048992793246393 
3.6900000000033626, -0.08024446720435817 
3.7000000000033837, -0.07999269266953504 
3.710000000003405, -0.07973441830546646 
3.720000000003426, -0.07946987203623614 
3.730000000003447, -0.07919984956242812 
3.740000000003468, -0.07892579479968427 
3.750000000003489, -0.0786497353999025 
3.7600000000035103, -0.07837404112795496 
3.7700000000035314, -0.07810104700600198 
3.7800000000035525, -0.07783265253200021 
3.7900000000035736, -0.07757002615951533 
3.8000000000035947, -0.07731349707946611 
3.810000000003616, -0.07706263573402618 
3.820000000003637, -0.07681645831303312 
3.830000000003658, -0.07657366688212915 
3.840000000003679, -0.076332853049741 
3.8500000000037002, -0.07609262852539804 
3.8600000000037213, -0.07585167986167449 
3.8700000000037424, -0.07560876634049754 
3.8800000000037635, -0.07536268895377421 
3.8900000000037847, -0.0751122598711958 
3.9000000000038058, -0.07485630090436031 
3.910000000003827, -0.07459369786343197 
3.920000000003848, -0.07432353176472314 
3.930000000003869, -0.07404528982341832 
3.94000000000389, -0.07375912268789857 
3.9500000000039113, -0.07346606548908582 
3.9600000000039324, -0.07316810685314919 
3.9700000000039535, -0.07286801218728435 
3.9800000000039746, -0.07256890073270604 
3.9900000000039957, -0.07227369666319576 
4.000000000004016, -0.07198464104930687 
4.010000000003993, -0.07170301562568021 
4.02000000000397, -0.07142912172218292 
4.030000000003946, -0.071162453904448 
4.040000000003923, -0.07090196053866801 
4.0500000000039, -0.07064629441144482 
4.0600000000038765, -0.07039399672099486 
4.070000000003853, -0.07014359831829702 
4.08000000000383, -0.0698936489175726 
4.090000000003807, -0.0696426975864919 
4.100000000003783, -0.06938925221591073 
4.11000000000376, -0.06913174841684618 
4.120000000003737, -0.06886856270857501 
4.130000000003713, -0.06859810846796724 
4.14000000000369, -0.06831904605885922 
4.150000000003667, -0.0680306061305009 
4.1600000000036434, -0.0677329600192048 
4.17000000000362, -0.06742749505365853 
4.180000000003597, -0.0671168241152474 
4.1900000000035735, -0.06680443628693752 
4.20000000000355, -0.06649406393235686 
4.210000000003527, -0.06618899197359232 
4.220000000003504, -0.06589155429529495 
4.23000000000348, -0.06560294478867118 
4.240000000003457, -0.06532331536009575 
4.250000000003434, -0.06505203888763393 
4.26000000000341, -0.06478800666438399 
4.270000000003387, -0.06452987313315882 
4.280000000003364, -0.0642762122490039 
4.2900000000033405, -0.06402558594141239 
4.300000000003317, -0.06377654270347657 
4.310000000003294, -0.06352757038226549 
4.320000000003271, -0.06327703067389313 
4.330000000003247, -0.06302311004695248 
4.340000000003224, -0.0627638340105505 
4.350000000003201, -0.0624972012026324 
4.360000000003177, -0.06222148165071487 
4.370000000003154, -0.06193566604757711 
4.380000000003131, -0.06163994775650446 
4.390000000003107, -0.061336019672555454 
4.400000000003084, -0.06102697339916722 
4.410000000003061, -0.06071675283997391 
4.4200000000030375, -0.060409351340578996 
4.430000000003014, -0.060108071447048536 
4.440000000002991, -0.05981509549393856 
4.450000000002968, -0.05953142434032229 
4.460000000002944, -0.05925708085708018 
4.470000000002921, -0.05899142134427106 
4.480000000002898, -0.058733430342046325 
4.490000000002874, -0.05848193460040759 
4.500000000002851, -0.05823572042954607 
4.510000000002828, -0.05799356426181207 
4.520000000002804, -0.05775419501817358 
4.530000000002781, -0.05751620953760813 
4.540000000002758, -0.05727796845289178 
4.5500000000027345, -0.05703751529424515 
4.560000000002711, -0.05679258458168853 
4.570000000002688, -0.056540779494030934 
4.580000000002665, -0.05627997393441675 
4.590000000002641, -0.05600889641683252 
4.600000000002618, -0.05572770243618526 
4.610000000002595, -0.05543824208960196 
4.620000000002571, -0.05514381048930378 
4.630000000002548, -0.05484843104240648 
4.640000000002525, -0.05455597858965868 
4.6500000000025015, -0.05426949778156107 
4.660000000002478, -0.05399090479914644 
4.670000000002455, -0.05372104292997794 
4.6800000000024315, -0.05345994091179479 
4.690000000002408, -0.05320711927783012 
4.700000000002385, -0.05296184635558774 
4.710000000002362, -0.05272330428784824 
4.720000000002338, -0.05249066156025143 
4.730000000002315, -0.052263062741789136 
4.740000000002292, -0.052039549114915276 
4.750000000002268, -0.05181892718950111 
4.760000000002245, -0.05159961533275591 
4.770000000002222, -0.051379526672358955 
4.7800000000021985, -0.05115608170136794 
4.790000000002175, -0.05092645719800187 
4.800000000002152, -0.050688120935067374 
4.810000000002129, -0.050439548508712816 
