t, s[1].omega / s[0].omega 
0, -4.099993463162559 
0.009999999999999995, -4.099310763887787 
0.019999999999999934, -4.098595908516797 
0.029999999999999874, -4.097923772943613 
0.04000000000000012, -4.0973165782737 
0.050000000000000405, -4.0967028447907765 
0.06000000000000069, -4.0960452395385145 
0.07000000000000098, -4.095359498713132 
0.08000000000000126, -4.094689569253106 
0.09000000000000155, -4.094057101317933 
0.10000000000000184, -4.09342645366326 
0.11000000000000212, -4.092766130322243 
0.12000000000000241, -4.09208897079243 
0.130000000000002, -4.091436419821891 
0.1400000000000009, -4.090814734475751 
0.1499999999999998, -4.090183590015082 
0.1599999999999987, -4.089512384406298 
0.1699999999999976, -4.088812413601228 
0.1799999999999965, -4.088149707675604 
0.1899999999999954, -4.087551215112356 
0.1999999999999943, -4.086948431028299 
0.2099999999999932, -4.086293146883486 
0.2199999999999921, -4.085587448481265 
0.229999999999991, -4.084888133759193 
0.2399999999999899, -4.0842619349911455 
0.2499999999999888, -4.083665363969706 
0.2599999999999877, -4.083032688360403 
0.2699999999999866, -4.082357632198094 
0.2799999999999855, -4.081674486541175 
0.2899999999999844, -4.081026999079255 
0.2999999999999833, -4.0804055547655 
0.3099999999999822, -4.079765687125944 
0.3199999999999811, -4.079096568643694 
0.32999999999998, -4.078429469611226 
0.3399999999999789, -4.077796191935077 
0.3499999999999778, -4.077176731960334 
0.35999999999997667, -4.076530763849979 
0.36999999999997557, -4.075845172787583 
0.37999999999997447, -4.075158897421267 
0.38999999999997337, -4.074534688889161 
0.39999999999997227, -4.073944621694122 
0.40999999999997117, -4.073320667955751 
0.41999999999997006, -4.072639984014611 
0.42999999999996896, -4.0719286164472575 
0.43999999999996786, -4.07126473066236 
0.44999999999996676, -4.070668379884305 
0.45999999999996566, -4.070063678369927 
0.46999999999996456, -4.069412050726283 
0.47999999999996346, -4.06872823608917 
0.48999999999996235, -4.068058404978707 
0.49999999999996125, -4.0674308672442265 
0.5099999999999602, -4.066809982337114 
0.519999999999959, -4.066159960196698 
0.529999999999958, -4.065489482537712 
0.5399999999999568, -4.064837215251804 
0.5499999999999557, -4.064216031088594 
0.5599999999999546, -4.063591643035531 
0.5699999999999535, -4.062931840296646 
0.5799999999999524, -4.06224254259621 
0.5899999999999513, -4.061581879978042 
0.5999999999999502, -4.060982548704599 
0.6099999999999491, -4.060385712415142 
0.619999999999948, -4.059740586072607 
0.6299999999999469, -4.059043049120788 
0.6399999999999458, -4.058343524791402 
0.6499999999999447, -4.057716747513598 
0.6599999999999436, -4.057130581128681 
0.6699999999999425, -4.05651176033306 
0.6799999999999414, -4.055845743425995 
0.6899999999999403, -4.055161900784486 
0.6999999999999392, -4.054510252419355 
0.7099999999999381, -4.0538951428798224 
0.719999999999937, -4.053269440090494 
0.7299999999999359, -4.052612190877155 
0.7399999999999348, -4.051946318294499 
0.7499999999999337, -4.051308261083042 
0.7599999999999326, -4.05069268141697 
0.7699999999999315, -4.050060855394795 
0.7799999999999304, -4.049391251078536 
0.7899999999999293, -4.048708042610317 
0.7999999999999282, -4.0480734776957 
0.8099999999999271, -4.047484855552151 
0.819999999999926, -4.046876381143126 
0.8299999999999249, -4.046213986571437 
0.8399999999999238, -4.04550939082277 
0.8499999999999227, -4.04483224956886 
0.8599999999999216, -4.044232432349543 
0.8699999999999205, -4.043644790175151 
0.8799999999999194, -4.043012641192417 
0.8899999999999183, -4.042337827788595 
0.8999999999999172, -4.041660451680057 
0.9099999999999161, -4.041026071159448 
0.919999999999915, -4.040416520298186 
0.9299999999999139, -4.039785015679145 
0.9399999999999128, -4.0391243858132055 
0.9499999999999117, -4.038466139959004 
0.9599999999999106, -4.037839309004946 
0.9699999999999095, -4.037225331366277 
0.9799999999999084, -4.036586522972202 
0.9899999999999073, -4.0359119969255906 
0.9999999999999062, -4.035240403723882 
1.0099999999999052, -4.034625988169563 
1.019999999999904, -4.034039688554641 
1.029999999999903, -4.033420123282218 
1.039999999999902, -4.032745626545209 
1.0499999999999008, -4.032042193095357 
1.0599999999998997, -4.031388947587479 
1.0699999999998986, -4.030804677684515 
1.0799999999998975, -4.0302115952736 
1.0899999999998964, -4.029569434797088 
1.0999999999998953, -4.028890834027875 
1.1099999999998942, -4.028222999096904 
1.119999999999893, -4.027601969779104 
1.129999999999892, -4.026994065841668 
1.1399999999998909, -4.026358097033147 
1.1499999999998898, -4.025697240431137 
1.1599999999998887, -4.025047105402941 
1.1699999999998876, -4.024428352397157 
1.1799999999998865, -4.02381433569993 
1.1899999999998854, -4.023170518239981 
1.1999999999998843, -4.022495118615453 
1.2099999999998832, -4.0218360028449975 
1.219999999999882, -4.021234988153675 
1.229999999999881, -4.020647882874163 
1.2399999999998799, -4.0200200982027035 
1.2499999999998788, -4.019338598966602 
1.2599999999998777, -4.018640932477391 
1.2699999999998766, -4.018007194587623 
1.2799999999998755, -4.0174308018246006 
1.2899999999998744, -4.016832725289002 
1.2999999999998733, -4.0161844699131635 
1.3099999999998722, -4.015505697381 
1.319999999999871, -4.01484732572084 
1.32999999999987, -4.014235426821771 
1.3399999999998689, -4.0136279287470575 
1.3499999999998678, -4.012989645977172 
1.3599999999998666, -4.012330500591931 
1.3699999999998655, -4.011687438723488 
1.3799999999998644, -4.011074358677465 
1.3899999999998633, -4.010460345359401 
1.3999999999998622, -4.009814019060034 
1.4099999999998611, -4.009140158759309 
1.41999999999986, -4.008491287630127 
1.429999999999859, -4.0078986246293296 
1.4399999999998578, -4.007310802373605 
1.4499999999998567, -4.006678552557563 
1.4599999999998556, -4.005994330775494 
1.4699999999998545, -4.005303210933829 
1.4799999999998534, -4.004682543445526 
1.4899999999998523, -4.004110279529353 
1.4999999999998512, -4.0035096832097485 
1.5099999999998501, -4.002859111221107 
1.519999999999849, -4.00218223034136 
1.529999999999848, -4.001531209183723 
1.5399999999998468, -4.000925121442215 
1.5499999999998457, -4.000318444448141 
1.5599999999998446, -3.9996800708807796 
1.5699999999998435, -3.9990234905856283 
1.5799999999998424, -3.9983857704529706 
1.5899999999998413, -3.99777679632338 
1.5999999999998402, -3.997163833167945 
1.6099999999998391, -3.996517511642158 
1.619999999999838, -3.99584606450001 
1.629999999999837, -3.9952037670145417 
1.6399999999998358, -3.9946162119321675 
1.6499999999998347, -3.9940294010672908 
1.6599999999998336, -3.9933967144306974 
1.6699999999998325, -3.992713096203353 
1.6799999999998314, -3.992026641599812 
1.6899999999998303, -3.9914125683591477 
1.6999999999998292, -3.990843133695578 
1.709999999999828, -3.9902432768562868 
1.719999999999827, -3.9895938585842243 
1.729999999999826, -3.98891978606529 
1.7399999999998248, -3.988273076081498 
1.7499999999998237, -3.9876703723179707 
1.7599999999998226, -3.9870657174428894 
1.7699999999998215, -3.9864293367695742 
1.7799999999998204, -3.9857755051061803 
1.7899999999998193, -3.9851411550612506 
1.7999999999998182, -3.9845352689853533 
1.809999999999817, -3.9839248843253414 
1.819999999999816, -3.9832809823722912 
1.8299999999998149, -3.982611941389396 
1.8399999999998138, -3.9819720515459984 
1.8499999999998127, -3.9813873060787754 
1.8599999999998116, -3.9808038775419012 
1.8699999999998105, -3.980174846330571 
1.8799999999998094, -3.9794946459611884 
1.8899999999998083, -3.9788099123426193 
1.8999999999998072, -3.9781962223121616 
1.909999999999806, -3.9776291787861937 
1.919999999999805, -3.9770334926180952 
1.9299999999998039, -3.9763885152962146 
1.9399999999998028, -3.9757177552699074 
1.9499999999998017, -3.975072152551204 
1.9599999999998006, -3.974470741055169 
1.9699999999997995, -3.97386947854831 
1.9799999999997984, -3.973237096572005 
1.9899999999997973, -3.9725860154707022 
1.9999999999997962, -3.9719530113083543 
2.0099999999998173, -3.9713493118898584 
2.0199999999998384, -3.970743121675965 
2.0299999999998595, -3.970104079287258 
2.0399999999998806, -3.96943743893072 
2.0499999999999017, -3.968795719859931 
2.059999999999923, -3.9682113179655447 
2.069999999999944, -3.9676335615195333 
2.079999999999965, -3.967012291440563 
2.089999999999986, -3.9663385345058435 
2.100000000000007, -3.96565311868092 
2.1100000000000283, -3.965033504798593 
2.1200000000000494, -3.9644678122053456 
2.1300000000000705, -3.9638794892193223 
2.1400000000000916, -3.963242278102972 
2.1500000000001127, -3.9625757253563583 
2.160000000000134, -3.9619284432215296 
2.170000000000155, -3.9613259181818075 
2.180000000000176, -3.960729068335353 
2.190000000000197, -3.960102740968457 
2.2000000000002182, -3.959454728169579 
2.2100000000002393, -3.9588211081711706 
2.2200000000002604, -3.9582183467278313 
2.2300000000002815, -3.957617683606576 
2.2400000000003026, -3.956986108122172 
2.2500000000003237, -3.95632276846208 
2.260000000000345, -3.9556753925341903 
2.270000000000366, -3.9550875722673213 
2.280000000000387, -3.954516910964808 
2.290000000000408, -3.9539074310398377 
2.3000000000004293, -3.953243955535234 
2.3100000000004504, -3.952557577724685 
2.3200000000004715, -3.9519256818697057 
2.3300000000004926, -3.951358209641692 
2.3400000000005137, -3.9507796518969855 
2.3500000000005348, -3.950153697430577 
2.360000000000556, -3.9494932874208706 
2.370000000000577, -3.9488426593413015 
2.380000000000598, -3.948235881524883 
2.390000000000619, -3.947643504616168 
2.4000000000006403, -3.947025342275011 
2.4100000000006614, -3.9463815119011505 
2.4200000000006825, -3.9457456331810263 
2.4300000000007036, -3.9451417951307604 
2.4400000000007247, -3.9445472426059025 
2.450000000000746, -3.9439258513389013 
2.460000000000767, -3.9432683274898097 
2.470000000000788, -3.942612990074236 
2.480000000000809, -3.9420158612038305 
2.49000000000083, -3.9414516521031318 
2.5000000000008513, -3.940857584148153 
2.5100000000008724, -3.9402091725390265 
2.5200000000008935, -3.9395249988561845 
2.5300000000009146, -3.938875872944675 
2.5400000000009357, -3.9383000126526633 
2.550000000000957, -3.9377317590006706 
2.560000000000978, -3.937120569539892 
2.570000000000999, -3.9364695724969883 
2.58000000000102, -3.935815958077106 
2.5900000000010412, -3.935201278516144 
2.6000000000010624, -3.9346116918141147 
2.6100000000010835, -3.9340035342498845 
2.6200000000011046, -3.9333661545489798 
2.6300000000011257, -3.932727301500757 
2.6400000000011468, -3.9321193761014035 
2.650000000001168, -3.9315301238840497 
2.660000000001189, -3.930921326371904 
2.67000000000121, -3.930273892484969 
2.680000000001231, -3.929611699638214 
2.6900000000012523, -3.9289976547194683 
2.7000000000012734, -3.9284352777359333 
2.7100000000012945, -3.92785897773335 
2.7200000000013156, -3.9272308903191786 
2.7300000000013367, -3.926555821044649 
2.740000000001358, -3.9258891996199887 
2.750000000001379, -3.925294741861392 
2.7600000000014, -3.9247334571497285 
2.770000000001421, -3.9241398988431433 
2.780000000001442, -3.9235027174651846 
2.7900000000014633, -3.9228492466962885 
2.8000000000014844, -3.922223821225349 
2.8100000000015055, -3.9216329090005027 
2.8200000000015266, -3.921035457148789 
2.8300000000015477, -3.9204079046214906 
2.840000000001569, -3.9197673271960918 
2.85000000000159, -3.9191516253823457 
2.860000000001611, -3.9185646438616124 
2.870000000001632, -3.9179696890997064 
2.8800000000016532, -3.9173376087063203 
2.8900000000016743, -3.9166747294910715 
2.9000000000016954, -3.9160377734857255 
2.9100000000017165, -3.9154664446692613 
2.9200000000017377, -3.9149070003481854 
2.9300000000017588, -3.9143040116362946 
2.94000000000178, -3.9136472542357823 
2.950000000001801, -3.9129708965977072 
2.960000000001822, -3.912347784879026 
2.970000000001843, -3.9117835027497483 
2.9800000000018643, -3.9112081155026672 
2.9900000000018854, -3.9105895516666798 
3.0000000000019065, -3.909942079703807 
3.0100000000019276, -3.909306111508312 
3.0200000000019487, -3.908707672420679 
3.03000000000197, -3.9081190111327624 
3.040000000001991, -3.907504908879961 
3.050000000002012, -3.906866854096441 
3.060000000002033, -3.9062405807227556 
3.070000000002054, -3.9056498576745846 
3.0800000000020753, -3.9050674894033173 
3.0900000000020964, -3.9044554171578234 
3.1000000000021175, -3.9038024317038875 
3.1100000000021386, -3.9031446966786176 
3.1200000000021597, -3.9025481180603827 
3.130000000002181, -3.9019972559385345 
3.140000000002202, -3.9014219944072805 
3.150000000002223, -3.900792513193804 
3.160000000002244, -3.900121648012765 
3.1700000000022652, -3.899468845755833 
3.1800000000022863, -3.898884467914061 
3.1900000000023074, -3.898321913342515 
3.2000000000023285, -3.897725717642671 
3.2100000000023496, -3.897091753949123 
3.2200000000023707, -3.8964502054956514 
3.230000000002392, -3.895838607101207 
3.240000000002413, -3.895252739833232 
3.250000000002434, -3.894653994834757 
3.260000000002455, -3.8940254809785615 
3.2700000000024763, -3.8933900269995005 
3.2800000000024974, -3.892787002644232 
3.2900000000025185, -3.892211485930109 
3.3000000000025396, -3.891621470404755 
3.3100000000025607, -3.890989659690594 
3.3200000000025818, -3.890325737386733 
3.330000000002603, -3.8896918277273556 
3.340000000002624, -3.8891288910243715 
3.350000000002645, -3.8885778753607725 
3.360000000002666, -3.8879821042314395 
3.3700000000026873, -3.887333661736765 
3.3800000000027084, -3.8866662104433494 
3.3900000000027295, -3.88604631519922 
3.4000000000027506, -3.8854806422462396 
3.4100000000027717, -3.88490637786515 
3.420000000002793, -3.884293266944824 
3.430000000002814, -3.8836553885612597 
3.440000000002835, -3.8830299632660017 
3.450000000002856, -3.8824374522488947 
3.460000000002877, -3.881851446690966 
3.4700000000028983, -3.8812396033176144 
3.4800000000029194, -3.880603519433317 
3.4900000000029405, -3.8799815769308537 
3.5000000000029616, -3.87940055854815 
3.5100000000029827, -3.878829425441898 
3.520000000003004, -3.878226412703782 
3.530000000003025, -3.8775778131310985 
3.540000000003046, -3.8769155502238726 
3.550000000003067, -3.876312219088912 
3.5600000000030882, -3.875767190001846 
3.5700000000031094, -3.8752061001132274 
3.5800000000031305, -3.874592705129225 
3.5900000000031516, -3.873935778009826 
3.6000000000031727, -3.8732843701834954 
3.6100000000031938, -3.8726913484335777 
3.620000000003215, -3.872128222378884 
3.630000000003236, -3.871540163823481 
3.640000000003257, -3.870917052623144 
3.650000000003278, -3.870284629564833 
3.6600000000032993, -3.8696775116153903 
3.6700000000033204, -3.8690951403854554 
3.6800000000033415, -3.868502689000837 
3.6900000000033626, -3.8678793778928693 
3.7000000000033837, -3.8672431269366476 
3.710000000003405, -3.8666398564496838 
3.720000000003426, -3.8660747309290984 
3.730000000003447, -3.8655013517069783 
3.740000000003468, -3.864885033025538 
3.750000000003489, -3.864225444093548 
3.7600000000035103, -3.863574262165168 
3.7700000000035314, -3.8629969631326686 
3.7800000000035525, -3.8624570651832526 
3.7900000000035736, -3.8618841476498753 
3.8000000000035947, -3.8612591190906747 
3.810000000003616, -3.86060339951021 
3.820000000003637, -3.859971995729116 
3.830000000003658, -3.859394680569127 
3.840000000003679, -3.8588265579808025 
3.8500000000037002, -3.858227370862943 
3.8600000000037213, -3.8576007979973297 
3.8700000000037424, -3.85697912224781 
3.8800000000037635, -3.856387441008755 
3.8900000000037847, -3.8558085177010546 
3.9000000000038058, -3.855208018906958 
3.910000000003827, -3.8545762791443665 
3.920000000003848, -3.8539451297518923 
3.930000000003869, -3.853360424363951 
3.94000000000389, -3.852805419650666 
3.9500000000039113, -3.8522276564949864 
3.9600000000039324, -3.8516007371467547 
3.9700000000039535, -3.850936360906103 
3.9800000000039746, -3.850299443255378 
3.9900000000039957, -3.849739016865106 
4.000000000004016, -3.8491975464830297 
4.010000000003993, -3.848615163689078 
4.02000000000397, -3.847984947867256 
4.030000000003946, -3.8473367705750805 
4.040000000003923, -3.8467228787026757 
4.0500000000039, -3.846152380075945 
4.0600000000038765, -3.845577571356857 
4.070000000003853, -3.8449709454593206 
4.08000000000383, -3.8443455429942204 
4.090000000003807, -3.8437361073802143 
4.100000000003783, -3.8431559160876114 
4.11000000000376, -3.842577296328025 
4.120000000003737, -3.841969545799718 
4.130000000003713, -3.8413320506888438 
4.14000000000369, -3.8407078633604783 
4.150000000003667, -3.84013876410188 
4.1600000000036434, -3.839590570628773 
4.17000000000362, -3.83900952030515 
4.180000000003597, -3.838376338756645 
4.1900000000035735, -3.837712034845402 
4.20000000000355, -3.837087221974143 
4.210000000003527, -3.8365350351171634 
4.220000000003504, -3.8359898428898043 
4.23000000000348, -3.835401756641596 
4.240000000003457, -3.8347716617685172 
4.250000000003434, -3.8341335936135814 
4.26000000000341, -3.8335324736650356 
4.270000000003387, -3.8329639181745137 
4.280000000003364, -3.8323834290305805 
4.2900000000033405, -3.8317724712185246 
4.300000000003317, -3.8311504996662356 
4.310000000003294, -3.8305524825157073 
4.320000000003271, -3.8299810321153998 
4.330000000003247, -3.8294024079121263 
4.340000000003224, -3.8287893288549006 
4.350000000003201, -3.8281476094911504 
4.360000000003177, -3.827528824065041 
4.370000000003154, -3.8269713170538937 
4.380000000003131, -3.8264289748703426 
4.390000000003107, -3.8258477060722718 
4.400000000003084, -3.8252133049329027 
4.410000000003061, -3.8245521964756364 
4.4200000000030375, -3.8239347581288308 
4.430000000003014, -3.823384422387801 
4.440000000002991, -3.8228357145453544 
4.450000000002968, -3.822245582431769 
4.460000000002944, -3.8216191049710675 
4.470000000002921, -3.820991085152289 
4.480000000002898, -3.820398531270489 
4.490000000002874, -3.8198301547979376 
4.500000000002851, -3.819245903821023 
4.510000000002828, -3.8186326238431385 
4.520000000002804, -3.8180141281594318 
4.530000000002781, -3.81742566196895 
4.540000000002758, -3.816861950641851 
4.5500000000027345, -3.816285018899687 
4.560000000002711, -3.8156693420295595 
4.570000000002688, -3.8150239786775244 
4.580000000002665, -3.8144062666976652 
4.590000000002641, -3.8138555991485577 
4.600000000002618, -3.813319419659803 
4.610000000002595, -3.812741904758515 
4.620000000002571, -3.8121113874542076 
4.630000000002548, -3.8114555782077417 
4.640000000002525, -3.8108407580496424 
4.6500000000025015, -3.810287923694152 
4.660000000002478, -3.8097366795244065 
4.670000000002455, -3.8091473663899635 
4.6800000000024315, -3.808526240520096 
4.690000000002408, -3.807906937334643 
4.700000000002385, -3.807320197516918 
4.710000000002362, -3.806752140666481 
4.720000000002338, -3.806166303896538 
4.730000000002315, -3.805551742196797 
4.740000000002292, -3.80493488958502 
4.750000000002268, -3.8043533891399166 
4.760000000002245, -3.80379776138896 
4.770000000002222, -3.8032257114425336 
4.7800000000021985, -3.8026112390104485 
4.790000000002175, -3.801963039782833 
4.800000000002152, -3.8013404849890806 
4.810000000002129, -3.8007904070161636 
4.820000000002105, -3.8002604967238085 
4.830000000002082, -3.799690625327758 
4.840000000002059, -3.799068642784822 
4.850000000002035, -3.7984201458250686 
4.860000000002012, -3.7978047866012807 
4.870000000001989, -3.7972465282509473 
4.880000000001965, -3.7966936198035937 
4.890000000001942, -3.796107055710487 
4.900000000001919, -3.7954916567738217 
4.9100000000018955, -3.794879242589065 
4.920000000001872, -3.7942968614038435 
4.930000000001849, -3.793730387152241 
4.940000000001826, -3.7931454220051415 
4.950000000001802, -3.792530297941051 
4.960000000001779, -3.79191179528314 
4.970000000001756, -3.7913332575462215 
4.980000000001732, -3.7907863688376318 
4.990000000001709, -3.7902234477870964 
