t, s[1].omega / s[0].omega 
0, -1.939996843490794 
0.009999999999999995, -1.9396638994787279 
0.019999999999999934, -1.9392996775203073 
0.029999999999999874, -1.9389137383625503 
0.04000000000000012, -1.938523039125911 
0.050000000000000405, -1.9381491292657718 
0.06000000000000069, -1.9378091764413665 
0.07000000000000098, -1.937505699520089 
0.08000000000000126, -1.9372254046610777 
0.09000000000000155, -1.9369487114783148 
0.10000000000000184, -1.9366597633071372 
0.11000000000000212, -1.936349946840744 
0.12000000000000241, -1.936017234583702 
0.130000000000002, -1.9356658600436685 
0.1400000000000009, -1.9353076043195536 
0.1499999999999998, -1.9349616775619836 
0.1599999999999987, -1.9346480930105945 
0.1699999999999976, -1.9343753207218994 
0.1799999999999965, -1.934133416910257 
0.1899999999999954, -1.933900476582392 
0.1999999999999943, -1.933654815694694 
0.2099999999999932, -1.9333820944222577 
0.2199999999999921, -1.9330759648237277 
0.229999999999991, -1.9327364585069682 
0.2399999999999899, -1.9323693119947567 
0.2499999999999888, -1.9319865744320044 
0.2599999999999877, -1.9316063014485656 
0.2699999999999866, -1.9312479551038986 
0.2799999999999855, -1.9309231952241486 
0.2899999999999844, -1.9306288207296345 
0.2999999999999833, -1.930349493348968 
0.3099999999999822, -1.9300674035844 
0.3199999999999811, -1.9297695597085815 
0.32999999999998, -1.9294494641742883 
0.3399999999999789, -1.9291065990857992 
0.3499999999999778, -1.9287471653452932 
0.35999999999997667, -1.9283859421355918 
0.36999999999997557, -1.9280448734481124 
0.37999999999997447, -1.92774345202048 
0.38999999999997337, -1.927485243168166 
0.39999999999997227, -1.9272543711391203 
0.40999999999997117, -1.927026075246064 
0.41999999999997006, -1.9267794289675653 
0.42999999999996896, -1.9265025758289371 
0.43999999999996786, -1.9261918331838335 
0.44999999999996676, -1.925849617386903 
0.45999999999996566, -1.9254837521746335 
0.46999999999996456, -1.925107711603091 
0.47999999999996346, -1.9247392556719027 
0.48999999999996235, -1.9243948716020682 
0.49999999999996125, -1.9240815031567873 
0.5099999999999602, -1.9237924776155317 
0.519999999999959, -1.9235121960902952 
0.529999999999958, -1.9232247426821452 
0.5399999999999568, -1.9229190898509838 
0.5499999999999557, -1.922589955619322 
0.5599999999999546, -1.922237812213778 
0.5699999999999535, -1.9218705737822248 
0.5799999999999524, -1.921505756426124 
0.5899999999999513, -1.9211676261232395 
0.5999999999999502, -1.9208749624759451 
0.6099999999999491, -1.9206271182272066 
0.619999999999948, -1.9204036933803708 
0.6299999999999469, -1.9201781635764525 
0.6399999999999458, -1.9199305913518874 
0.6499999999999447, -1.9196512508790395 
0.6599999999999436, -1.9193385882336778 
0.6699999999999425, -1.918996812211763 
0.6799999999999414, -1.9186351094770084 
0.6899999999999403, -1.9182674773058594 
0.6999999999999392, -1.9179105881172949 
0.7099999999999381, -1.9175779750620054 
0.719999999999937, -1.9172731056248715 
0.7299999999999359, -1.9169874799576534 
0.7399999999999348, -1.9167059752327507 
0.7499999999999337, -1.9164141684783882 
0.7599999999999326, -1.9161021838153398 
0.7699999999999315, -1.915765292733791 
0.7799999999999304, -1.9154044993110837 
0.7899999999999293, -1.9150289936095626 
0.7999999999999282, -1.9146585162584429 
0.8099999999999271, -1.9143193432337504 
0.819999999999926, -1.914030031056626 
0.8299999999999249, -1.9137871445892138 
0.8399999999999238, -1.913567250537304 
0.8499999999999227, -1.9133427075801148 
0.8599999999999216, -1.9130943491684618 
0.8699999999999205, -1.9128139738142813 
0.8799999999999194, -1.9125014950929322 
0.8899999999999183, -1.9121622702393055 
0.8999999999999172, -1.9118061994422813 
0.9099999999999161, -1.9114472267525369 
0.919999999999915, -1.9111007393891923 
0.9299999999999139, -1.910777867174924 
0.9399999999999128, -1.910479771218954 
0.9499999999999117, -1.910197089203794 
0.9599999999999106, -1.9099152803465151 
0.9699999999999095, -1.9096208715836451 
0.9799999999999084, -1.9093045048767092 
0.9899999999999073, -1.908961519767199 
0.9999999999999062, -1.9085929874265797 
1.0099999999999052, -1.9082087013568156 
1.019999999999904, -1.9078297883480055 
1.029999999999903, -1.907484181795373 
1.039999999999902, -1.9071911885542168 
1.0499999999999008, -1.90694662070602 
1.0599999999998997, -1.9067256793009715 
1.0699999999998986, -1.9065000165596586 
1.0799999999998975, -1.906250708368686 
1.0899999999998964, -1.905970259494937 
1.0999999999998953, -1.9056592832051589 
1.1099999999998942, -1.9053236342918705 
1.119999999999893, -1.9049734153467455 
1.129999999999892, -1.9046222786912366 
1.1399999999998909, -1.904284581511946 
1.1499999999998898, -1.903969845666607 
1.1599999999998887, -1.903677855839073 
1.1699999999998876, -1.903398833249764 
1.1799999999998865, -1.903118597453992 
1.1899999999998854, -1.9028240985968554 
1.1999999999998843, -1.9025060479442064 
1.2099999999998832, -1.9021595332202932 
1.219999999999882, -1.9017852646133655 
1.229999999999881, -1.9013927985546246 
1.2399999999998799, -1.9010034451169446 
1.2499999999998788, -1.9006461096556677 
1.2599999999998777, -1.9003418587324645 
1.2699999999998766, -1.9000881846944104 
1.2799999999998755, -1.8998609448271808 
1.2899999999998744, -1.8996315540150657 
1.2999999999998733, -1.8993806703716227 
1.3099999999998722, -1.8991005421300884 
1.319999999999871, -1.898791635248496 
1.32999999999987, -1.8984596564192817 
1.3399999999998689, -1.8981145133428519 
1.3499999999998678, -1.897769573990201 
1.3599999999998666, -1.8974387250697926 
1.3699999999998655, -1.8971308171223278 
1.3799999999998644, -1.896845017141262 
1.3899999999998633, -1.8965712634201268 
1.3999999999998622, -1.8962953431552645 
1.4099999999998611, -1.8960041414698097 
1.41999999999986, -1.8956881431381412 
1.429999999999859, -1.8953420458531585 
1.4399999999998578, -1.8949659259574676 
1.4499999999998567, -1.8945682996229347 
1.4599999999998556, -1.89416921993138 
1.4699999999998545, -1.8937972901247604 
1.4799999999998534, -1.8934757182004023 
1.4899999999998523, -1.8932059911965449 
1.4999999999998512, -1.8929670511138426 
1.5099999999998501, -1.892730963941919 
1.519999999999849, -1.8924774690323758 
1.529999999999848, -1.8921975901652286 
1.5399999999998468, -1.8918907651504664 
1.5499999999998457, -1.8915618931842946 
1.5599999999998446, -1.8912203092957838 
1.5699999999998435, -1.8908791894332695 
1.5799999999998424, -1.8905526844126257 
1.5899999999998413, -1.8902500971775442 
1.5999999999998402, -1.889970788185146 
1.6099999999998391, -1.8897044484845005 
1.619999999999838, -1.8894363221253965 
1.629999999999837, -1.8891527009010176 
1.6399999999998358, -1.8888436019883101 
1.6499999999998347, -1.8885033417663468 
1.6599999999998336, -1.888131334880767 
1.6699999999998325, -1.8877345593297625 
1.6799999999998314, -1.8873305070819562 
1.6899999999998303, -1.8869457225006419 
1.6999999999998292, -1.8866047616771557 
1.709999999999828, -1.8863144553225477 
1.719999999999827, -1.8860593251399365 
1.729999999999826, -1.8858136598770503 
1.7399999999998248, -1.8855563234929509 
1.7499999999998237, -1.8852763730207367 
1.7599999999998226, -1.8849713848146283 
1.7699999999998215, -1.8846447551418795 
1.7799999999998204, -1.884304758030964 
1.7899999999998193, -1.8839643238930044 
1.7999999999998182, -1.8836385869235368 
1.809999999999817, -1.8833386947083675 
1.819999999999816, -1.8830654175325754 
1.8299999999998149, -1.8828084475833655 
1.8399999999998138, -1.8825519003956983 
1.8499999999998127, -1.882280749112017 
1.8599999999998116, -1.8819841543383629 
1.8699999999998105, -1.8816560468437717 
1.8799999999998094, -1.8812953380804913 
1.8899999999998083, -1.8809074241936556 
1.8999999999998072, -1.8805065366911837 
1.909999999999806, -1.88011554426526 
1.919999999999805, -1.8797585141361854 
1.9299999999998039, -1.8794472785748568 
1.9399999999998028, -1.8791736698239234 
1.9499999999998017, -1.8789162946278093 
1.9599999999998006, -1.8786540234392592 
1.9699999999997995, -1.8783737101923639 
1.9799999999997984, -1.878070417652379 
1.9899999999997973, -1.8777453285940404 
1.9999999999997962, -1.8774049545934477 
2.0099999999998173, -1.8770614917808337 
2.0199999999998384, -1.8767313638694325 
2.0299999999998595, -1.8764290925061438 
2.0399999999998806, -1.8761588808836471 
2.0499999999999017, -1.8759114699429609 
2.059999999999923, -1.8756694422531681 
2.069999999999944, -1.875415395482356 
2.079999999999965, -1.8751368038888476 
2.089999999999986, -1.8748269079245343 
2.100000000000007, -1.8744842307469043 
2.1100000000000283, -1.8741128893496128 
2.1200000000000494, -1.8737239711437816 
2.1300000000000705, -1.8733359447896283 
2.1400000000000916, -1.8729704634335742 
2.1500000000001127, -1.8726424626287965 
2.160000000000134, -1.872351184828584 
2.170000000000155, -1.8720814141928037 
2.180000000000176, -1.8718136552462414 
2.190000000000197, -1.8715330317093213 
2.2000000000002182, -1.8712317974277084 
2.2100000000002393, -1.8709083077794582 
2.2200000000002604, -1.870566435423862 
2.2300000000002815, -1.870216514826748 
2.2400000000003026, -1.8698755076686306 
2.2500000000003237, -1.8695622119320165 
2.260000000000345, -1.8692870900933176 
2.270000000000366, -1.8690446989442773 
2.280000000000387, -1.868816766509293 
2.290000000000408, -1.8685823611447145 
2.3000000000004293, -1.8683257563082694 
2.3100000000004504, -1.868038541477541 
2.3200000000004715, -1.8677185907484908 
2.3300000000004926, -1.867369060803543 
2.3400000000005137, -1.8669985695375069 
2.3500000000005348, -1.8666215647609437 
2.360000000000556, -1.8662563159719643 
2.370000000000577, -1.8659185551621007 
2.380000000000598, -1.8656133621567037 
2.390000000000619, -1.865332387192834 
2.4000000000006403, -1.8650595292194072 
2.4100000000006614, -1.864779310201864 
2.4200000000006825, -1.864481383265525 
2.4300000000007036, -1.8641609574112 
2.4400000000007247, -1.8638184963630149 
2.450000000000746, -1.8634609301945297 
2.460000000000767, -1.8631035248751562 
2.470000000000788, -1.8627681065449775 
2.480000000000809, -1.862473532693926 
2.49000000000083, -1.8622230374377455 
2.5000000000008513, -1.8620010878715771 
2.5100000000008724, -1.8617833542488142 
2.5200000000008935, -1.8615489856588803 
2.5300000000009146, -1.861286001534618 
2.5400000000009357, -1.860990582152208 
2.550000000000957, -1.860664808407066 
2.560000000000978, -1.860315479314813 
2.570000000000999, -1.8599539775709484 
2.58000000000102, -1.8595953915651051 
2.5900000000010412, -1.8592547930993153 
2.6000000000010624, -1.8589409295304828 
2.6100000000010835, -1.8586516020207378 
2.6200000000011046, -1.8583751996337703 
2.6300000000011257, -1.8580970185350427 
2.6400000000011468, -1.8578048015701742 
2.650000000001168, -1.857490746634916 
2.660000000001189, -1.8571516638098973 
2.67000000000121, -1.856789964540157 
2.680000000001231, -1.8564163234610223 
2.6900000000012523, -1.856051355103821 
2.7000000000012734, -1.855720436284064 
2.7100000000012945, -1.8554396740214192 
2.7200000000013156, -1.8552037984522278 
2.7300000000013367, -1.8549895502748153 
2.740000000001358, -1.8547705716671952 
2.750000000001379, -1.8545287668042296 
2.7600000000014, -1.8542564112751054 
2.770000000001421, -1.8539534400038993 
2.780000000001442, -1.8536248322623377 
2.7900000000014633, -1.853279603973163 
2.8000000000014844, -1.852930335847962 
2.8100000000015055, -1.8525911345557582 
2.8200000000015266, -1.8522729805621605 
2.8300000000015477, -1.8519785997315306 
2.840000000001569, -1.8517010545672417 
2.85000000000159, -1.8514274730506226 
2.860000000001611, -1.8511445521023098 
2.870000000001632, -1.8508419656872583 
2.8800000000016532, -1.8505132876703303 
2.8900000000016743, -1.8501565622801983 
2.9000000000016954, -1.849776426144354 
2.9100000000017165, -1.8493874250069582 
2.9200000000017377, -1.8490143396707712 
2.9300000000017588, -1.8486834003499044 
2.94000000000178, -1.84840607136324 
2.950000000001801, -1.8481703248919228 
2.960000000001822, -1.8479496416285994 
2.970000000001843, -1.8477192067090624 
2.9800000000018643, -1.8474645464510586 
2.9900000000018854, -1.8471811207922717 
3.0000000000019065, -1.8468709732365216 
3.0100000000019276, -1.8465405620182378 
3.0200000000019487, -1.846200139703782 
3.03000000000197, -1.845862863221192 
3.040000000001991, -1.8455415740185157 
3.050000000002012, -1.84524351155581 
3.060000000002033, -1.8449665488114448 
3.070000000002054, -1.8447002992547308 
3.0800000000020753, -1.8444310007037519 
3.0900000000020964, -1.8441461562539394 
3.1000000000021175, -1.843836665017545 
3.1100000000021386, -1.84349732924495 
3.1200000000021597, -1.8431278104167412 
3.130000000002181, -1.8427351919163943 
3.140000000002202, -1.8423368282771186 
3.150000000002223, -1.8419587402521604 
3.160000000002244, -1.8416248560657664 
3.1700000000022652, -1.8413419463077574 
3.1800000000022863, -1.841095072064127 
3.1900000000023074, -1.8408588486106354 
3.2000000000023285, -1.8406118296948955 
3.2100000000023496, -1.840342455610377 
3.2200000000023707, -1.8400476956846468 
3.230000000002392, -1.8397302233916868 
3.240000000002413, -1.8393971362646748 
3.250000000002434, -1.8390597782204519 
3.260000000002455, -1.8387322932899486 
3.2700000000024763, -1.8384269697314664 
3.2800000000024974, -1.8381480828992651 
3.2900000000025185, -1.837889269693223 
3.3000000000025396, -1.8376368568169692 
3.3100000000025607, -1.8373758577951904 
3.3200000000025818, -1.837094198607558 
3.330000000002603, -1.8367840769821613 
3.340000000002624, -1.8364421125343724 
3.350000000002645, -1.8360701773834296 
3.360000000002666, -1.8356774467560986 
3.3700000000026873, -1.8352819311991209 
3.3800000000027084, -1.8349074390969826 
3.3900000000027295, -1.8345733763486867 
3.4000000000027506, -1.8342830962564238 
3.4100000000027717, -1.8340222851972694 
3.420000000002793, -1.833769231820677 
3.430000000002814, -1.8335060859605903 
3.440000000002835, -1.8332230721079257 
3.450000000002856, -1.8329173918302835 
3.460000000002877, -1.8325914919425599 
3.4700000000028983, -1.8322528567071625 
3.4800000000029194, -1.8319143896705785 
3.4900000000029405, -1.831592388027644 
3.5000000000029616, -1.8313000229237208 
3.5100000000029827, -1.8310395933678172 
3.520000000003004, -1.830800616809571 
3.530000000003025, -1.8305655970711772 
3.540000000003046, -1.8303177397908936 
3.550000000003067, -1.8300452605080288 
3.5600000000030882, -1.8297420400766011 
3.5700000000031094, -1.8294070479815185 
3.5800000000031305, -1.8290444248569115 
3.5900000000031516, -1.8286644500864853 
3.6000000000031727, -1.8282837638649414 
3.6100000000031938, -1.8279219728030527 
3.620000000003215, -1.8275935742182405 
3.630000000003236, -1.827299949165265 
3.640000000003257, -1.8270290604401296 
3.650000000003278, -1.826763305219322 
3.6600000000032993, -1.826487787490242 
3.6700000000033204, -1.8261935933896332 
3.6800000000033415, -1.825877399327825 
3.6900000000033626, -1.825540905732104 
3.7000000000033837, -1.8251917713591475 
3.710000000003405, -1.8248448446360748 
3.720000000003426, -1.8245198786489412 
3.730000000003447, -1.8242328882937524 
3.740000000003468, -1.823985774382584 
3.750000000003489, -1.823764294475827 
3.7600000000035103, -1.8235465621053049 
3.7700000000035314, -1.8233133517507134 
3.7800000000035525, -1.8230529415609769 
3.7900000000035736, -1.8227609009698038 
3.8000000000035947, -1.8224383829895168 
3.810000000003616, -1.8220911957052768 
3.820000000003637, -1.8217298036136356 
3.830000000003658, -1.8213687959060245 
3.840000000003679, -1.821023780084576 
3.8500000000037002, -1.8207053807584466 
3.8600000000037213, -1.8204138717050409 
3.8700000000037424, -1.820139308598193 
3.8800000000037635, -1.8198671919628384 
3.8900000000037847, -1.819584521890155 
3.9000000000038058, -1.8192825270571085 
3.910000000003827, -1.8189568806789702 
3.920000000003848, -1.8186080273614222 
3.930000000003869, -1.8182430990412013 
3.94000000000389, -1.8178782286827346 
3.9500000000039113, -1.817536787524227 
3.9600000000039324, -1.8172393450906086 
3.9700000000039535, -1.8169901359109921 
3.9800000000039746, -1.8167733397511765 
3.9900000000039957, -1.8165634756126188 
4.000000000004016, -1.8163386874524783 
4.010000000003993, -1.8160866949336172 
4.02000000000397, -1.815803909883229 
4.030000000003946, -1.8154926495169499 
4.040000000003923, -1.815159411069941 
4.0500000000039, -1.8148143707659539 
4.0600000000038765, -1.8144706019094958 
4.070000000003853, -1.8141412424018362 
4.08000000000383, -1.8138346062156487 
4.090000000003807, -1.8135501860782657 
4.100000000003783, -1.813278995589562 
4.11000000000376, -1.8130080061353298 
4.120000000003737, -1.8127249412233328 
4.130000000003713, -1.8124206895958477 
4.14000000000369, -1.8120898383720707 
4.150000000003667, -1.8117313932301555 
4.1600000000036434, -1.8113510811602147 
4.17000000000362, -1.8109643708405294 
4.180000000003597, -1.810595931306715 
4.1900000000035735, -1.8102703550473849 
4.20000000000355, -1.8099970756260255 
4.210000000003527, -1.8097634605981134 
4.220000000003504, -1.8095439886921185 
4.23000000000348, -1.809315151397001 
4.240000000003457, -1.809063185667426 
4.250000000003434, -1.8087836428561914 
4.26000000000341, -1.8084782950940597 
4.270000000003387, -1.8081531107268578 
4.280000000003364, -1.8078177017913226 
4.2900000000033405, -1.8074846370040363 
4.300000000003317, -1.8071666392345527 
4.310000000003294, -1.806871617056176 
4.320000000003271, -1.8065986653276869 
4.330000000003247, -1.8063384706526264 
4.340000000003224, -1.8060776666990779 
4.350000000003201, -1.8058035120845979 
4.360000000003177, -1.8055063532822762 
4.370000000003154, -1.8051802371455934 
4.380000000003131, -1.8048234592628956 
4.390000000003107, -1.8044403616066933 
4.400000000003084, -1.804043964556913 
4.410000000003061, -1.8036563315540028 
4.4200000000030375, -1.8033020924381724 
4.430000000003014, -1.8029954707084965 
4.440000000002991, -1.8027311176695302 
4.450000000002968, -1.8024886019397333 
4.460000000002944, -1.802245450258018 
4.470000000002921, -1.8019863343043039 
4.480000000002898, -1.801704494552494 
4.490000000002874, -1.8013995244064696 
4.500000000002851, -1.801075636159306 
4.510000000002828, -1.8007414544254718 
4.520000000002804, -1.8004098867732008 
4.530000000002781, -1.8000954981062869 
4.540000000002758, -1.799808515881994 
4.5500000000027345, -1.799549047107081 
4.560000000002711, -1.7993066971151301 
4.570000000002688, -1.7990658168950393 
4.580000000002665, -1.79881161334997 
4.590000000002641, -1.7985334376428856 
4.600000000002618, -1.7982253782998838 
4.610000000002595, -1.7978861058152926 
4.620000000002571, -1.7975194445670826 
4.630000000002548, -1.797135719577901 
4.640000000002525, -1.796752130839646 
4.6500000000025015, -1.7963891572628223 
4.660000000002478, -1.7960619766359418 
4.670000000002455, -1.795772036779684 
4.6800000000024315, -1.79550678102427 
4.690000000002408, -1.7952478872284707 
4.700000000002385, -1.7949799230314898 
4.710000000002362, -1.79469375684434 
4.720000000002338, -1.7943860102145284 
4.730000000002315, -1.7940580948419664 
4.740000000002292, -1.7937166434579659 
4.750000000002268, -1.7933745652019542 
4.760000000002245, -1.793049665124732 
4.770000000002222, -1.7927579622920828 
4.7800000000021985, -1.7925043138902694 
4.790000000002175, -1.7922786274924878 
4.800000000002152, -1.7920615901340533 
4.810000000002129, -1.791834039350783 
4.820000000002105, -1.7915827341044803 
4.830000000002082, -1.791301289063869 
4.840000000002059, -1.7909889500350793 
4.850000000002035, -1.7906496157001441 
4.860000000002012, -1.7902917843389847 
4.870000000001989, -1.7899285248864634 
4.880000000001965, -1.7895755895145051 
4.890000000001942, -1.7892464300709403 
4.900000000001919, -1.7889460278186575 
4.9100000000018955, -1.7886683978673354 
4.920000000001872, -1.7884002872427658 
4.930000000001849, -1.7881276213082913 
4.940000000001826, -1.7878397417644443 
