t, s[1].omega / s[0].omega 
0, -2.0999966761488724 
0.009999999999999995, -2.0996477950117214 
0.019999999999999934, -2.099269626215372 
0.029999999999999874, -2.0988731097052984 
0.04000000000000012, -2.098477278481188 
0.050000000000000405, -2.098104292335414 
0.06000000000000069, -2.0977672850174702 
0.07000000000000098, -2.0974609757751583 
0.08000000000000126, -2.0971666118449237 
0.09000000000000155, -2.0968652250605624 
0.10000000000000184, -2.096545490230527 
0.11000000000000212, -2.0962042479054426 
0.12000000000000241, -2.0958454938327646 
0.130000000000002, -2.0954806886678177 
0.1400000000000009, -2.095127521160789 
0.1499999999999998, -2.094802311006352 
0.1599999999999987, -2.094508726050238 
0.1699999999999976, -2.094234437159174 
0.1799999999999965, -2.093959501153127 
0.1899999999999954, -2.093666540962957 
0.1999999999999943, -2.0933449955539336 
0.2099999999999932, -2.092991015142928 
0.2199999999999921, -2.092607353032567 
0.229999999999991, -2.0922050502390115 
0.2399999999999899, -2.09180450029325 
0.2499999999999888, -2.0914299430009784 
0.2599999999999877, -2.0910955043912787 
0.2699999999999866, -2.0907947041032364 
0.2799999999999855, -2.090506615804764 
0.2899999999999844, -2.0902108806364654 
0.2999999999999833, -2.089895954690191 
0.3099999999999822, -2.089559058816655 
0.3199999999999811, -2.0892044548583413 
0.32999999999998, -2.0888431393745295 
0.3399999999999789, -2.0884914262110224 
0.3499999999999778, -2.0881642654421553 
0.35999999999997667, -2.0878655118337437 
0.36999999999997557, -2.087584745487531 
0.37999999999997447, -2.087304083270282 
0.38999999999997337, -2.087007082223969 
0.39999999999997227, -2.0866829555624857 
0.40999999999997117, -2.0863269893601646 
0.41999999999997006, -2.0859409674104645 
0.42999999999996896, -2.085535450037538 
0.43999999999996786, -2.085131503955639 
0.44999999999996676, -2.084755249156433 
0.45999999999996566, -2.0844225457941246 
0.46999999999996456, -2.0841268434515925 
0.47999999999996346, -2.083845545269921 
0.48999999999996235, -2.0835566116006587 
0.49999999999996125, -2.0832477077175318 
0.5099999999999602, -2.082915918702295 
0.519999999999959, -2.0825653513658695 
0.529999999999958, -2.082206278755914 
0.5399999999999568, -2.0818538274658076 
0.5499999999999557, -2.0815224061416084 
0.5599999999999546, -2.0812170932090743 
0.5699999999999535, -2.08092989083785 
0.5799999999999524, -2.0806448249713085 
0.5899999999999513, -2.0803460014297466 
0.5999999999999502, -2.08002213794758 
0.6099999999999491, -2.0796674971928213 
0.619999999999948, -2.0792825925858502 
0.6299999999999469, -2.0788767956373073 
0.6399999999999458, -2.0784708381015813 
0.6499999999999447, -2.078092227985236 
0.6599999999999436, -2.077759427493396 
0.6699999999999425, -2.077467441496664 
0.6799999999999414, -2.0771928641382167 
0.6899999999999403, -2.0769116926623075 
0.6999999999999392, -2.0766100890902544 
0.7099999999999381, -2.076284404623827 
0.719999999999937, -2.075938202734845 
0.7299999999999359, -2.075580851187897 
0.7399999999999348, -2.075226416325287 
0.7499999999999337, -2.0748892731704767 
0.7599999999999326, -2.0745764094135146 
0.7699999999999315, -2.0742827292335817 
0.7799999999999304, -2.0739942504200872 
0.7899999999999293, -2.073695454377966 
0.7999999999999282, -2.0733743837137744 
0.8099999999999271, -2.0730241640222604 
0.819999999999926, -2.0726437973525624 
0.8299999999999249, -2.072240767599022 
0.8399999999999238, -2.071834264507245 
0.8499999999999227, -2.0714522923497922 
0.8599999999999216, -2.0711166081623515 
0.8699999999999205, -2.0708257841147346 
0.8799999999999194, -2.070557010517343 
0.8899999999999183, -2.0702842281349425 
0.8999999999999172, -2.0699912744617466 
0.9099999999999161, -2.0696730378921306 
0.919999999999915, -2.0693321143638483 
0.9299999999999139, -2.0689767773342944 
0.9399999999999128, -2.0686200133340376 
0.9499999999999117, -2.0682763188009274 
0.9599999999999106, -2.0679549687930887 
0.9699999999999095, -2.0676542984257393 
0.9799999999999084, -2.0673627082323773 
0.9899999999999073, -2.067065119200269 
0.9999999999999062, -2.066748775532353 
1.0099999999999052, -2.066405552275566 
1.019999999999904, -2.066032780339902 
1.029999999999903, -2.0656355152079913 
1.039999999999902, -2.065230196280045 
1.0499999999999008, -2.0648439807045262 
1.0599999999998997, -2.064502011637212 
1.0699999999998986, -2.064208521197938 
1.0799999999998975, -2.0639434279300937 
1.0899999999998964, -2.0636790276732926 
1.0999999999998953, -2.063396016224382 
1.1099999999998942, -2.063086914937676 
1.119999999999893, -2.0627528148757417 
1.129999999999892, -2.0624006461713056 
1.1399999999998909, -2.062042139435311 
1.1499999999998898, -2.0616917185276695 
1.1599999999998887, -2.0613609691172896 
1.1699999999998876, -2.06105217417382 
1.1799999999998865, -2.0607568491871002 
1.1899999999998854, -2.0604607476268377 
1.1999999999998843, -2.060150285092848 
1.2099999999998832, -2.059815940843799 
1.219999999999882, -2.059453275168413 
1.229999999999881, -2.05906462846572 
1.2399999999998799, -2.0586627189937237 
1.2499999999998788, -2.058272175280917 
1.2599999999998777, -2.057920612643419 
1.2699999999998766, -2.0576195124406502 
1.2799999999998755, -2.0573543886532897 
1.2899999999998744, -2.0570972496493645 
1.2999999999998733, -2.056825107159569 
1.3099999999998722, -2.0565270386438437 
1.319999999999871, -2.056201895665712 
1.32999999999987, -2.0558549125800836 
1.3399999999998689, -2.055496268484433 
1.3499999999998678, -2.0551398204793143 
1.3599999999998666, -2.0547990427780864 
1.3699999999998655, -2.0544804672275196 
1.3799999999998644, -2.0541797340483727 
1.3899999999998633, -2.053884290673831 
1.3999999999998622, -2.0535799257591654 
1.4099999999998611, -2.053255557811762 
1.41999999999986, -2.052904873523201 
1.429999999999859, -2.0525274598807943 
1.4399999999998578, -2.05213178625565 
1.4499999999998567, -2.0517382680881746 
1.4599999999998556, -2.0513749390868186 
1.4699999999998545, -2.0510608018996423 
1.4799999999998534, -2.050790130312536 
1.4899999999998523, -2.0505373797440534 
1.4999999999998512, -2.0502761238540765 
1.5099999999998501, -2.0499908818880703 
1.519999999999849, -2.049677256299492 
1.529999999999848, -2.0493382640597595 
1.5399999999998468, -2.048982165086137 
1.5499999999998457, -2.048621570352128 
1.5599999999998446, -2.0482709376659516 
1.5699999999998435, -2.0479408254354814 
1.5799999999998424, -2.047632023182031 
1.5899999999998413, -2.0473350936983 
1.5999999999998402, -2.0470358895585843 
1.6099999999998391, -2.046721701632737 
1.619999999999838, -2.046384169945726 
1.629999999999837, -2.0460202192066297 
1.6399999999998358, -2.0456340556941806 
1.6499999999998347, -2.0452406629168935 
1.6599999999998336, -2.0448656736308064 
1.6699999999998325, -2.0445338549850804 
1.6799999999998314, -2.044250594984561 
1.6899999999998303, -2.043996958243352 
1.6999999999998292, -2.0437448784633214 
1.709999999999828, -2.043473582517012 
1.719999999999827, -2.0431741304298625 
1.729999999999826, -2.042846521048821 
1.7399999999998248, -2.042496658004774 
1.7499999999998237, -2.0421352049829213 
1.7599999999998226, -2.0417763368114086 
1.7699999999998215, -2.041433628118841 
1.7799999999998204, -2.0411135384226338 
1.7899999999998193, -2.0408115671546136 
1.7999999999998182, -2.040515118370251 
1.809999999999817, -2.040210190219036 
1.819999999999816, -2.0398861565921083 
1.8299999999998149, -2.03953731546257 
1.8399999999998138, -2.0391639724131747 
1.8499999999998127, -2.0387752863530455 
1.8599999999998116, -2.038391788479393 
1.8699999999998105, -2.0380402174082657 
1.8799999999998094, -2.037737032203445 
1.8899999999998083, -2.037474566216976 
1.8999999999998072, -2.037227188788989 
1.909999999999806, -2.036969358797864 
1.919999999999805, -2.0366862464338364 
1.9299999999998039, -2.0363736259662653 
1.9399999999998028, -2.0360344356970344 
1.9499999999998017, -2.035676792342786 
1.9599999999998006, -2.03531326305754 
1.9699999999997995, -2.0349586591217323 
1.9799999999997984, -2.034624507361131 
1.9899999999997973, -2.034312824578764 
1.9999999999997962, -2.034014940690239 
2.0099999999998173, -2.033716801819763 
2.0199999999998384, -2.0334055133907687 
2.0299999999998595, -2.0330725993894396 
2.0399999999998806, -2.0327148865716325 
2.0499999999999017, -2.032336137503023 
2.059999999999923, -2.0319501807115343 
2.069999999999944, -2.0315810379183734 
2.079999999999965, -2.031252694649008 
2.089999999999986, -2.0309716285652892 
2.100000000000007, -2.030720819614089 
2.1100000000000283, -2.030473045337687 
2.1200000000000494, -2.030206968633344 
2.1300000000000705, -2.0299125421805 
2.1400000000000916, -2.029588736515017 
2.1500000000001127, -2.0292405740957866 
2.160000000000134, -2.0288779692142387 
2.170000000000155, -2.0285148722728428 
2.180000000000176, -2.0281658815723635 
2.190000000000197, -2.0278398059770586 
2.2000000000002182, -2.0275345649874863 
2.2100000000002393, -2.02723863893139 
2.2200000000002604, -2.026937715450603 
2.2300000000002815, -2.026620364064838 
2.2400000000003026, -2.0262800822513976 
2.2500000000003237, -2.0259160525738795 
2.260000000000345, -2.0255353294233625 
2.270000000000366, -2.0251555316468606 
2.280000000000387, -2.02480187650488 
2.290000000000408, -2.0244933379996577 
2.3000000000004293, -2.0242274701910916 
2.3100000000004504, -2.023981907863649 
2.3200000000004715, -2.0237305521273905 
2.3300000000004926, -2.0234561086492273 
2.3400000000005137, -2.023151980352388 
2.3500000000005348, -2.0228192997296603 
2.360000000000556, -2.022464656036277 
2.370000000000577, -2.0220994067551494 
2.380000000000598, -2.0217383597729692 
2.390000000000619, -2.0213952797080945 
2.4000000000006403, -2.0210761177806402 
2.4100000000006614, -2.0207754630112884 
2.4200000000006825, -2.020480114908587 
2.4300000000007036, -2.0201761695242295 
2.4400000000007247, -2.0198536381021435 
2.450000000000746, -2.0195077078781978 
2.460000000000767, -2.019139654271492 
2.470000000000788, -2.018759374489618 
2.480000000000809, -2.0183871164089195 
2.49000000000083, -2.018047552179403 
2.5000000000008513, -2.0177541793413076 
2.5100000000008724, -2.0174978871895908 
2.5200000000008935, -2.017253882504782 
2.5300000000009146, -2.0169981020929137 
2.5400000000009357, -2.0167164634351282 
2.550000000000957, -2.01640472911605 
2.560000000000978, -2.016065510218143 
2.570000000000999, -2.015706586149521 
2.58000000000102, -2.0153403981853066 
2.5900000000010412, -2.0149821540032056 
2.6000000000010624, -2.0146444822013834 
2.6100000000010835, -2.014330779073533 
2.6200000000011046, -2.0140332150720117 
2.6300000000011257, -2.0137377596777943 
2.6400000000011468, -2.013431163641372 
2.650000000001168, -2.0131046541010655 
2.660000000001189, -2.0127547649752318 
2.67000000000121, -2.0123844826179975 
2.680000000001231, -2.0120058953385844 
2.6900000000012523, -2.0116407954658895 
2.7000000000012734, -2.0113124658398496 
2.7100000000012945, -2.0110297213658455 
2.7200000000013156, -2.0107790927708207 
2.7300000000013367, -2.0105350138901783 
2.740000000001358, -2.010275374031764 
2.750000000001379, -2.009988365830846 
2.7600000000014, -2.0096712929121536 
2.770000000001421, -2.009327758739837 
2.780000000001442, -2.008966395140242 
2.7900000000014633, -2.008600366053692 
2.8000000000014844, -2.0082449529199327 
2.8100000000015055, -2.007911667838303 
2.8200000000015266, -2.007601945422215 
2.8300000000015477, -2.0073064025568446 
2.840000000001569, -2.007010701883144 
2.85000000000159, -2.0067022195623148 
2.860000000001611, -2.006373074935021 
2.870000000001632, -2.00602075970147 
2.8800000000016532, -2.005649481162075 
2.8900000000016743, -2.0052727855197503 
2.9000000000016954, -2.0049132129675393 
2.9100000000017165, -2.0045926382100623 
2.9200000000017377, -2.0043166130818206 
2.9300000000017588, -2.004069184924303 
2.94000000000178, -2.0038247387768724 
2.950000000001801, -2.0035625878835774 
2.960000000001822, -2.0032723432994857 
2.970000000001843, -2.0029522257191186 
2.9800000000018643, -2.002606439212745 
2.9900000000018854, -2.0022441327616685 
3.0000000000019065, -2.0018788520740936 
3.0100000000019276, -2.0015257764615617 
3.0200000000019487, -2.001195576753253 
3.03000000000197, -2.0008884639174336 
3.040000000001991, -2.0005942404472075 
3.050000000002012, -2.000298533870383 
3.060000000002033, -1.999989161561794 
3.070000000002054, -1.999658769172274 
3.0800000000020753, -1.999305382232049 
3.0900000000020964, -1.998933866246435 
3.1000000000021175, -1.998558495724986 
3.1100000000021386, -1.9982020700604117 
3.1200000000021597, -1.997885596767949 
3.130000000002181, -1.9976129951743835 
3.140000000002202, -1.9973672584423525 
3.150000000002223, -1.9971229059056372 
3.160000000002244, -1.9968599831557792 
3.1700000000022652, -1.9965687595584742 
3.1800000000022863, -1.9962478613545174 
3.1900000000023074, -1.9959017420791791 
3.2000000000023285, -1.995539731340095 
3.2100000000023496, -1.9951754477953707 
3.2200000000023707, -1.9948239124032043 
3.230000000002392, -1.9944953850595986 
3.240000000002413, -1.9941896356746618 
3.250000000002434, -1.9938962756216732 
3.260000000002455, -1.993601020621061 
3.2700000000024763, -1.9932918753159483 
3.2800000000024974, -1.9929616336201288 
3.2900000000025185, -1.9926084134411823 
3.3000000000025396, -1.9922371421645626 
3.3100000000025607, -1.9918621191371286 
3.3200000000025818, -1.9915061036564556 
3.330000000002603, -1.9911900422197515 
3.340000000002624, -1.9909178860294492 
3.350000000002645, -1.9906727531527415 
3.360000000002666, -1.9904292532991665 
3.3700000000026873, -1.9901674312714193 
3.3800000000027084, -1.98987750880071 
3.3900000000027295, -1.989558053905426 
3.4000000000027506, -1.9892134351030202 
3.4100000000027717, -1.988852832193246 
3.420000000002793, -1.9884896544383086 
3.430000000002814, -1.9881387646008803 
3.440000000002835, -1.987810490823594 
3.450000000002856, -1.9875049345838458 
3.460000000002877, -1.9872120811243907 
3.4700000000028983, -1.986917810911007 
3.4800000000029194, -1.9866100520033512 
3.4900000000029405, -1.9862813763070732 
3.5000000000029616, -1.9859295584527679 
3.5100000000029827, -1.9855589931697544 
3.520000000003004, -1.9851833061869233 
3.530000000003025, -1.9848249236887923 
3.540000000003046, -1.9845055294307543 
3.550000000003067, -1.9842307561394859 
3.5600000000030882, -1.9839850356743685 
3.5700000000031094, -1.9837430525436612 
3.5800000000031305, -1.9834841331455242 
3.5900000000031516, -1.9831977430481325 
3.6000000000031727, -1.9828819226182428 
3.6100000000031938, -1.9825406244392698 
3.620000000003215, -1.9821825619922542 
3.630000000003236, -1.98182066341696 
3.640000000003257, -1.9814696165669452 
3.650000000003278, -1.981140246881027 
3.6600000000032993, -1.980833717688465 
3.6700000000033204, -1.9805409637445925 
3.6800000000033415, -1.9802481539106267 
3.6900000000033626, -1.979942915518351 
3.7000000000033837, -1.9796172532869705 
3.710000000003405, -1.9792681938463534 
3.720000000003426, -1.9788990428499702 
3.730000000003447, -1.9785220365488492 
3.740000000003468, -1.9781587985415416 
3.750000000003489, -1.9778322686000513 
3.7600000000035103, -1.9775513396533693 
3.7700000000035314, -1.9773032057276563 
3.7800000000035525, -1.977062898283009 
3.7900000000035736, -1.97680839183526 
3.8000000000035947, -1.9765276335502413 
3.810000000003616, -1.9762176058127732 
3.820000000003637, -1.975881499515959 
3.830000000003658, -1.9755272625977511 
3.840000000003679, -1.9751670669653905 
3.8500000000037002, -1.9748153298826583 
3.8600000000037213, -1.97448366478381 
3.8700000000037424, -1.9741749460713778 
3.8800000000037635, -1.9738816956266079 
3.8900000000037847, -1.9735906280678148 
3.9000000000038058, -1.9732889389819697 
3.910000000003827, -1.9729677647433963 
3.920000000003848, -1.9726230321503628 
3.930000000003869, -1.972256482606293 
3.94000000000389, -1.9718782495028109 
3.9500000000039113, -1.9715083906375515 
3.9600000000039324, -1.971171053900591 
3.9700000000039535, -1.9708797033379906 
3.9800000000039746, -1.9706261606909359 
3.9900000000039957, -1.9703866813326818 
4.000000000004016, -1.9701374961685443 
4.010000000003993, -1.9698641982813883 
4.02000000000397, -1.969562054360436 
4.030000000003946, -1.9692330943313643 
4.040000000003923, -1.9688842117104755 
4.0500000000039, -1.968526539528309 
4.0600000000038765, -1.9681740145159292 
4.070000000003853, -1.9678391176985912 
4.08000000000383, -1.9675269386761234 
4.090000000003807, -1.9672322944100031 
4.100000000003783, -1.9669429108370111 
4.11000000000376, -1.966645582156103 
4.120000000003737, -1.966330345635154 
4.130000000003713, -1.965991742303416 
4.14000000000369, -1.9656295995749236 
4.150000000003667, -1.9652513219669085 
4.1600000000036434, -1.9648743669350388 
4.17000000000362, -1.9645232312644498 
4.180000000003597, -1.9642165635796611 
4.1900000000035735, -1.9639529999626926 
4.20000000000355, -1.9637118588382307 
4.210000000003527, -1.963467816850854 
4.220000000003504, -1.963203278206447 
4.23000000000348, -1.962910938472304 
4.240000000003457, -1.9625911411207286 
4.250000000003434, -1.9622494176896528 
4.26000000000341, -1.9618955756018444 
4.270000000003387, -1.961542745548059 
4.280000000003364, -1.9612040978245733 
4.2900000000033405, -1.9608872066336454 
4.300000000003317, -1.9605899075718098 
4.310000000003294, -1.9603016556866304 
4.320000000003271, -1.9600091226369654 
4.330000000003247, -1.9597011312211177 
4.340000000003224, -1.959370618123648 
4.350000000003201, -1.9590152958203226 
4.360000000003177, -1.9586394290684457 
4.370000000003154, -1.958256783488292 
4.380000000003131, -1.9578905029587657 
4.390000000003107, -1.9575637346178987 
4.400000000003084, -1.9572838442146103 
4.410000000003061, -1.9570362081936097 
4.4200000000030375, -1.956795305961143 
4.430000000003014, -1.9565398200874742 
4.440000000002991, -1.956258801488832 
4.450000000002968, -1.9559501445923098 
4.460000000002944, -1.95561762260898 
4.470000000002921, -1.955269422311763 
4.480000000002898, -1.9549174558636833 
4.490000000002874, -1.954575136895265 
4.500000000002851, -1.954252461853042 
4.510000000002828, -1.9539509010576637 
4.520000000002804, -1.9536625918620942 
4.530000000002781, -1.953374705794267 
4.540000000002758, -1.953074930978401 
4.5500000000027345, -1.9527544482065302 
4.560000000002711, -1.9524087792807658 
4.570000000002688, -1.952038949027265 
4.580000000002665, -1.9516542425871772 
4.590000000002641, -1.9512742934881206 
4.600000000002618, -1.950924355139577 
4.610000000002595, -1.9506209691901677 
4.620000000002571, -1.9503592465781647 
4.630000000002548, -1.9501166788809854 
4.640000000002525, -1.949868717898784 
4.6500000000025015, -1.9495996660775492 
4.660000000002478, -1.949303856760348 
4.670000000002455, -1.9489826892184383 
4.6800000000024315, -1.9486423858198219 
4.690000000002408, -1.948293182853914 
4.700000000002385, -1.947948056494008 
4.710000000002362, -1.9476189501648395 
4.720000000002338, -1.9473113003501994 
4.730000000002315, -1.9470210098649665 
4.740000000002292, -1.9467367877156014 
4.750000000002268, -1.946445589516569 
4.760000000002245, -1.9461367838856347 
4.770000000002222, -1.945803678191894 
4.7800000000021985, -1.9454442398474765 
4.790000000002175, -1.9450630985928121 
4.800000000002152, -1.9446745623443396 
4.810000000002129, -1.9443022883097067 
4.820000000002105, -1.943969681365528 
4.830000000002082, -1.9436842204143487 
4.840000000002059, -1.94343153364369 
4.850000000002035, -1.9431865367182453 
4.860000000002012, -1.9429283615342086 
4.870000000001989, -1.9426463636949667 
4.880000000001965, -1.9423385551169274 
4.890000000001942, -1.942008687056629 
4.900000000001919, -1.9416648422106397 
4.9100000000018955, -1.9413187210255862 
4.920000000001872, -1.9409832812910905 
4.930000000001849, -1.9406677557267646 
4.940000000001826, -1.9403728154906734 
4.950000000001802, -1.940090164664899 
4.960000000001779, -1.9398069222586156 
