t, s[1].omega / s[0].omega 
0, -1.2598079948389511 
0.009999999999999995, -1.2386901108010495 
0.019999999999999934, -1.21348666321135 
0.029999999999999874, -1.1834384625186962 
0.04000000000000012, -1.1480084079389894 
0.050000000000000405, -1.108687457481135 
0.06000000000000069, -1.0711220767871477 
0.07000000000000098, -1.0434135646431366 
0.08000000000000126, -1.0291565398948372 
0.09000000000000155, -1.0247525384761926 
0.10000000000000184, -1.024650446950005 
0.11000000000000212, -1.0254552804385648 
0.12000000000000241, -1.025829581677345 
0.130000000000002, -1.0252521291991452 
0.1400000000000009, -1.0231781409426435 
0.1499999999999998, -1.0184794033553772 
0.1599999999999987, -1.0088677820958663 
0.1699999999999976, -0.9905747500076943 
0.1799999999999965, -0.9597883016915226 
0.1899999999999954, -0.9168832867406305 
0.1999999999999943, -0.8685216408456984 
0.2099999999999932, -0.8226044918128791 
0.2199999999999921, -0.7831380079836415 
0.229999999999991, -0.7505558350790664 
0.2399999999999899, -0.7239243761505161 
0.2499999999999888, -0.7022172942538988 
0.2599999999999877, -0.6846823773730303 
0.2699999999999866, -0.6708244085647974 
0.2799999999999855, -0.6602780789485581 
0.2899999999999844, -0.6526799903591183 
0.2999999999999833, -0.6475915096882358 
0.3099999999999822, -0.6444935630370224 
0.3199999999999811, -0.6428395153868169 
0.32999999999998, -0.642126097315309 
0.3399999999999789, -0.6419440221630308 
0.3499999999999778, -0.6419944774840547 
0.35999999999997667, -0.6420821856410663 
0.36999999999997557, -0.6421040079612726 
0.37999999999997447, -0.6420431157101525 
0.38999999999997337, -0.641961646347765 
0.39999999999997227, -0.6419767072474322 
0.40999999999997117, -0.6422180784977858 
0.41999999999997006, -0.6427836524735853 
0.42999999999996896, -0.643704029374975 
0.43999999999996786, -0.6449150414830132 
0.44999999999996676, -0.6462481920737211 
0.45999999999996566, -0.6474686597438539 
0.46999999999996456, -0.6483637468423944 
0.47999999999996346, -0.6488230869451586 
0.48999999999996235, -0.648856024812559 
0.49999999999996125, -0.6485674632221048 
0.5099999999999602, -0.6481546229987383 
0.519999999999959, -0.6479710278374957 
0.529999999999958, -0.648684729105904 
0.5399999999999568, -0.6515473794830053 
0.5499999999999557, -0.6587496451793374 
0.5599999999999546, -0.6737134629911232 
0.5699999999999535, -0.7009461184339205 
0.5799999999999524, -0.7449053127383227 
0.5899999999999513, -0.8077195597373491 
0.5999999999999502, -0.8870508022642725 
0.6099999999999491, -0.9763534518801664 
0.619999999999948, -1.067443278280082 
0.6299999999999469, -1.1523612747969139 
0.6399999999999458, -1.223595454256768 
0.6499999999999447, -1.2755303159962255 
0.6599999999999436, -1.307685410453321 
0.6699999999999425, -1.3248224145357828 
0.6799999999999414, -1.332965439987015 
0.6899999999999403, -1.336419312049982 
0.6999999999999392, -1.3375196927318678 
0.7099999999999381, -1.3374420746146742 
0.719999999999937, -1.3369838861762045 
0.7299999999999359, -1.3370598330177235 
0.7399999999999348, -1.3385363973074718 
0.7499999999999337, -1.3414419855428235 
0.7599999999999326, -1.3449208514890425 
0.7699999999999315, -1.3481622523706953 
0.7799999999999304, -1.3508685709597843 
0.7899999999999293, -1.353040738809979 
0.7999999999999282, -1.354710950065196 
0.8099999999999271, -1.355875390321026 
0.819999999999926, -1.356531378461391 
0.8299999999999249, -1.3566991426254642 
0.8399999999999238, -1.3564058437498314 
0.8499999999999227, -1.3556596940766268 
0.8599999999999216, -1.3544415756144281 
0.8699999999999205, -1.352720779940273 
0.8799999999999194, -1.3504763726607856 
0.8899999999999183, -1.34769304683701 
0.8999999999999172, -1.3443280505737683 
0.9099999999999161, -1.3403359073109125 
0.919999999999915, -1.335887539961481 
0.9299999999999139, -1.3316913790707032 
0.9399999999999128, -1.3288090508331987 
0.9499999999999117, -1.3276474272828118 
0.9599999999999106, -1.3274974920503104 
0.9699999999999095, -1.3273261889467516 
0.9799999999999084, -1.3263068475944648 
0.9899999999999073, -1.323497190235161 
0.9999999999999062, -1.3171030074157748 
1.0099999999999052, -1.3035177232538167 
1.019999999999904, -1.2767382658679287 
1.029999999999903, -1.230186435745148 
1.039999999999902, -1.161769582319612 
1.0499999999999008, -1.07674461322299 
1.0599999999998997, -0.9842683967407465 
1.0699999999998986, -0.8932818551500074 
1.0799999999998975, -0.8114360719902425 
1.0899999999998964, -0.7445056288661938 
1.0999999999998953, -0.6950758517274497 
1.1099999999998942, -0.6621072979311029 
1.119999999999893, -0.6421644112887822 
1.129999999999892, -0.6312020336938873 
1.1399999999998909, -0.625766137598297 
1.1499999999998898, -0.6234000372862615 
1.1599999999998887, -0.6225585325664792 
1.1699999999998876, -0.6223487269437069 
1.1799999999998865, -0.6222784170742455 
1.1899999999998854, -0.622077663740445 
1.1999999999998843, -0.6216007473358025 
1.2099999999998832, -0.6207944826507139 
1.219999999999882, -0.6197045941391318 
1.229999999999881, -0.6184747054519434 
1.2399999999998799, -0.6173015279816829 
1.2499999999998788, -0.616361345403344 
1.2599999999998777, -0.6157563421743388 
1.2699999999998766, -0.6154996329226112 
1.2799999999998755, -0.615521952386408 
1.2899999999998744, -0.6156898458126119 
1.2999999999998733, -0.6158438345224242 
1.3099999999998722, -0.61585371148396 
1.319999999999871, -0.6156634094198625 
1.32999999999987, -0.6153068402653977 
1.3399999999998689, -0.6149108154998778 
1.3499999999998678, -0.6147155359395579 
1.3599999999998666, -0.6151301929750549 
1.3699999999998655, -0.6168210333619111 
1.3799999999998644, -0.6208081789666842 
1.3899999999998633, -0.6285242462900598 
1.3999999999998622, -0.6417734688227809 
1.4099999999998611, -0.6625481526980241 
1.41999999999986, -0.6927237511711333 
1.429999999999859, -0.733738549696295 
1.4399999999998578, -0.7863835610449443 
1.4499999999998567, -0.8506612589226524 
1.4599999999998556, -0.92527798288933 
1.4699999999998545, -1.0060690105019985 
1.4799999999998534, -1.0839513063056407 
1.4899999999998523, -1.146829703534447 
1.4999999999998512, -1.1879311629823686 
1.5099999999998501, -1.210230151778134 
1.519999999999849, -1.220891470153926 
1.529999999999848, -1.225534031659674 
1.5399999999998468, -1.2272119287805603 
1.5499999999998457, -1.2273659505744852 
1.5599999999998446, -1.2267795126806669 
1.5699999999998435, -1.2263179989944224 
1.5799999999998424, -1.2273977172880426 
1.5899999999998413, -1.2314459985560433 
1.5999999999998402, -1.238379297624464 
1.6099999999998391, -1.2465057386278522 
1.619999999999838, -1.2542041200764786 
1.629999999999837, -1.2608140987804093 
1.6399999999998358, -1.2663274753296072 
1.6499999999998347, -1.2709302510652516 
1.6599999999998336, -1.27479560930292 
1.6699999999998325, -1.278035635809937 
1.6799999999998314, -1.2806917819529806 
1.6899999999998303, -1.2827361901772572 
1.6999999999998292, -1.284103468443223 
1.709999999999828, -1.2847530756531678 
1.719999999999827, -1.2847232740888592 
1.729999999999826, -1.2841455208940373 
1.7399999999998248, -1.2832263324655153 
1.7499999999998237, -1.2821929621927628 
1.7599999999998226, -1.2811940425020796 
1.7699999999998215, -1.2802490136210611 
1.7799999999998204, -1.2793541507000783 
1.7899999999998193, -1.2786235311398166 
1.7999999999998182, -1.278231549130418 
1.809999999999817, -1.2781791497847597 
1.819999999999816, -1.2781983346820938 
1.8299999999998149, -1.2778959507144323 
1.8399999999998138, -1.276887579455519 
1.8499999999998127, -1.2748206299097065 
1.8599999999998116, -1.2714053407660768 
1.8699999999998105, -1.2665040082366348 
1.8799999999998094, -1.2601703496729784 
1.8899999999998083, -1.2525435929386817 
1.8999999999998072, -1.2436754417425817 
1.909999999999806, -1.2334218965154036 
1.919999999999805, -1.2214394336138779 
1.9299999999998039, -1.2073191928419496 
1.9399999999998028, -1.191027891657395 
1.9499999999998017, -1.1738102009242195 
1.9599999999998006, -1.158807065882981 
1.9699999999997995, -1.1493460095308192 
1.9799999999997984, -1.1457115537724305 
1.9899999999997973, -1.145357430925332 
1.9999999999997962, -1.1458234998156083 
2.0099999999998173, -1.1458554083913208 
2.0199999999998384, -1.1448038903943494 
2.0299999999998595, -1.1418203809249214 
2.0399999999998806, -1.135050795880521 
2.0499999999999017, -1.1205338250249237 
2.059999999999923, -1.091363922483041 
2.069999999999944, -1.0403460305014738 
2.079999999999965, -0.9685898443543627 
2.089999999999986, -0.8890830512688177 
2.100000000000007, -0.8158102831403419 
2.1100000000000283, -0.7549496785301243 
2.1200000000000494, -0.7067023544641574 
2.1300000000000705, -0.669271993330973 
2.1400000000000916, -0.6407389577443363 
2.1500000000001127, -0.6194913808368145 
2.160000000000134, -0.6041822175968367 
2.170000000000155, -0.5936238908339093 
2.180000000000176, -0.5867352555797277 
2.190000000000197, -0.5825457237322256 
2.2000000000002182, -0.5802260901324441 
2.2100000000002393, -0.5791138044165469 
2.2200000000002604, -0.5787155352584732 
2.2300000000002815, -0.5786881433907102 
2.2400000000003026, -0.5788104640645687 
2.2500000000003237, -0.5789595546877306 
2.260000000000345, -0.5790979457648551 
2.270000000000366, -0.5792665165488429 
2.280000000000387, -0.5795694217910429 
2.290000000000408, -0.5801438668408199 
2.3000000000004293, -0.5811223983885869 
2.3100000000004504, -0.5825955773557929 
2.3200000000004715, -0.5845683683940537 
2.3300000000004926, -0.5869088670902314 
2.3400000000005137, -0.589330911758556 
2.3500000000005348, -0.5914734407372961 
2.360000000000556, -0.59305245139823 
2.370000000000577, -0.5939569886568311 
2.380000000000598, -0.5942236861994072 
2.390000000000619, -0.593960521782902 
2.4000000000006403, -0.5933125126482219 
2.4100000000006614, -0.592522363674512 
2.4200000000006825, -0.5921619658762538 
2.4300000000007036, -0.5937656148426246 
2.4400000000007247, -0.6015303978839955 
2.450000000000746, -0.6268783658024701 
2.460000000000767, -0.6995999038474041 
2.470000000000788, -0.8805309789013714 
2.480000000000809, -1.192399308061757 
2.49000000000083, -1.476874946640136 
2.5000000000008513, -1.634263234768594 
2.5100000000008724, -1.710904353606124 
2.5200000000008935, -1.749507659547461 
2.5300000000009146, -1.7694216000086764 
2.5400000000009357, -1.779424694079146 
2.550000000000957, -1.7840426856513427 
2.560000000000978, -1.7857542843592935 
2.570000000000999, -1.7859037172502972 
2.58000000000102, -1.7852710752337853 
2.5900000000010412, -1.7843455286329195 
2.6000000000010624, -1.7832195306631895 
2.6100000000010835, -1.7817018171112153 
2.6200000000011046, -1.7800112538104773 
2.6300000000011257, -1.7789464883810073 
2.6400000000011468, -1.77868758506613 
2.650000000001168, -1.7783152115923673 
2.660000000001189, -1.7765639531629265 
2.67000000000121, -1.7710635939543091 
2.680000000001231, -1.7539458544537567 
2.6900000000012523, -1.6933204660491683 
2.7000000000012734, -1.455250530488695 
2.7100000000012945, -0.79434676667379 
2.7200000000013156, -0.2165827462714382 
2.7300000000013367, -0.015593533678572327 
2.740000000001358, 0.049241501219060534 
2.750000000001379, 0.0742405429669464 
2.7600000000014, 0.08548364239013839 
2.770000000001421, 0.0910649246288245 
2.780000000001442, 0.09396484671219359 
2.7900000000014633, 0.09543463173047112 
2.8000000000014844, 0.09603904898855123 
2.8100000000015055, 0.09601639458260966 
2.8200000000015266, 0.09539887982639936 
2.8300000000015477, 0.09401380415484917 
2.840000000001569, 0.09136230046247057 
2.85000000000159, 0.08625421017778105 
2.860000000001611, 0.07584143040168037 
2.870000000001632, 0.05356318562173271 
2.8800000000016532, 0.014166191605770382 
2.8900000000016743, 0.13726794920289773 
2.9000000000016954, 1.2198006457678567 
2.9100000000017165, 1.485040279465986 
2.9200000000017377, 1.510348064788372 
2.9300000000017588, 1.5148694080908562 
2.94000000000178, 1.515015188610372 
2.950000000001801, 1.5118265397848114 
2.960000000001822, 1.4982556745366657 
2.970000000001843, 1.4191582316683502 
2.9800000000018643, 1.109719533234791 
2.9900000000018854, 1.0919563259027982 
3.0000000000019065, 1.1353132872186102 
3.0100000000019276, 1.1483487136279558 
3.0200000000019487, 1.1521886275888955 
3.03000000000197, 1.1528473670901316 
3.040000000001991, 1.1516709601812907 
3.050000000002012, 1.1486032106152382 
3.060000000002033, 1.1440459966036562 
3.070000000002054, 1.1465569624625764 
3.0800000000020753, 1.1754139028725468 
3.0900000000020964, 1.21038252697105 
3.1000000000021175, 1.2275330423126805 
3.1100000000021386, 1.2337482357077296 
3.1200000000021597, 1.235531954392429 
3.130000000002181, 1.2349183633451986 
3.140000000002202, 1.2310039858554418 
3.150000000002223, 1.2150295087116079 
3.160000000002244, 1.0998896009458012 
3.1700000000022652, -0.45771563927944536 
3.1800000000022863, -1.9300720838514696 
3.1900000000023074, -2.0845430877743367 
3.2000000000023285, -2.1074122452080357 
3.2100000000023496, -2.1122082858483187 
3.2200000000023707, -2.112871829950923 
3.230000000002392, -2.1124130969559336 
3.240000000002413, -2.11242594054009 
3.250000000002434, -2.1132243912688193 
3.260000000002455, -2.113786214316842 
3.2700000000024763, -2.1138555757801814 
3.2800000000024974, -2.113836356347186 
3.2900000000025185, -2.1134651287798736 
3.3000000000025396, -2.111627879977826 
3.3100000000025607, -2.105628841324636 
3.3200000000025818, -2.085782689949094 
3.330000000002603, -2.0082195701377374 
3.340000000002624, -1.6502286300713709 
3.350000000002645, -0.6350198658546791 
3.360000000002666, -0.014875334655298228 
3.3700000000026873, 0.1428375560414992 
3.3800000000027084, 0.18888947075043666 
3.3900000000027295, 0.20603038150450245 
3.4000000000027506, 0.21352347739960056 
3.4100000000027717, 0.21707792370721077 
3.420000000002793, 0.21874703248821042 
3.430000000002814, 0.21936553649229884 
3.440000000002835, 0.2192728157861515 
3.450000000002856, 0.21854543815643734 
3.460000000002877, 0.21704638423309547 
3.4700000000028983, 0.21436768458420835 
3.4800000000029194, 0.20972427632023843 
3.4900000000029405, 0.20245870271794733 
3.5000000000029616, 0.19955950907303477 
3.5100000000029827, 0.2726034956476965 
3.520000000003004, 0.5926802289894805 
3.530000000003025, 0.8244850007749582 
3.540000000003046, 0.881538129649878 
3.550000000003067, 0.8959317747492935 
3.5600000000030882, 0.9002116818377115 
3.5700000000031094, 0.9010743722229388 
3.5800000000031305, 0.8998546078378359 
3.5900000000031516, 0.8958834120637823 
3.6000000000031727, 0.8862052607175098 
3.6100000000031938, 0.8643377425109824 
3.620000000003215, 0.8267795857963373 
3.630000000003236, 0.7933089747029827 
3.640000000003257, 0.7816613225054561 
3.650000000003278, 0.7814524946406765 
3.6600000000032993, 0.7832081665043652 
3.6700000000033204, 0.7844084180765839 
3.6800000000033415, 0.784674528725103 
3.6900000000033626, 0.7837773140213968 
3.7000000000033837, 0.7808582571149948 
3.710000000003405, 0.7728024966266347 
3.720000000003426, 0.7457708755575249 
3.730000000003447, 0.6015160231997365 
3.740000000003468, -0.8131174972188173 
3.750000000003489, -2.9248756139912 
3.7600000000035103, -3.0703485510571813 
3.7700000000035314, -3.0889898232917075 
3.7800000000035525, -3.093158001240954 
3.7900000000035736, -3.093396764371114 
3.8000000000035947, -3.0911225279815095 
3.810000000003616, -3.083737900056367 
3.820000000003637, -3.05277959522049 
3.830000000003658, -2.978143449246843 
3.840000000003679, -2.9966400975447955 
3.8500000000037002, -3.0056143150048906 
3.8600000000037213, -3.0062692248237566 
3.8700000000037424, -3.0054499277395 
3.8800000000037635, -3.0063699853650547 
3.8900000000037847, -3.007298107373871 
3.9000000000038058, -3.007176162218058 
3.910000000003827, -3.00681974733883 
3.920000000003848, -3.0046243942797535 
3.930000000003869, -2.990836554967661 
3.94000000000389, -2.802811713241669 
3.9500000000039113, 0.08869616444163403 
3.9600000000039324, 3.6077652656088417 
3.9700000000039535, 3.622533958827142 
3.9800000000039746, 3.6213764242828823 
3.9900000000039957, 3.5863247610501516 
4.000000000004016, -5.000606193734745 
4.010000000003993, -5.163259653258136 
4.02000000000397, -5.165079544235469 
4.030000000003946, -5.16131783646818 
4.040000000003923, -5.126883564035156 
4.0500000000039, -5.13770422812536 
4.0600000000038765, -5.1398467205216125 
4.070000000003853, -5.138920163446437 
4.08000000000383, -5.13670806278929 
4.090000000003807, -5.135852540541171 
4.100000000003783, -5.133260534581293 
4.11000000000376, -5.13370506416871 
4.120000000003737, -5.137921140122786 
4.130000000003713, -5.137412134292224 
4.14000000000369, -5.129037174863199 
4.150000000003667, -4.920837149094456 
4.1600000000036434, -5.343985194994532 
4.17000000000362, -5.35015341172864 
4.180000000003597, -5.347560304454939 
4.1900000000035735, -5.288903988660249 
4.20000000000355, 3.2520646252880674 
4.210000000003527, 3.3418428246286433 
4.220000000003504, 3.343945172409511 
4.23000000000348, 3.340654281580884 
4.240000000003457, 3.306051485826361 
4.250000000003434, 3.2680714154829515 
4.26000000000341, 3.289243503087873 
4.270000000003387, 3.29063110087977 
4.280000000003364, 3.2903159922672125 
4.2900000000033405, 3.2902339835287755 
4.300000000003317, 3.289095467844747 
4.310000000003294, 3.2882179137112715 
4.320000000003271, 3.2871443208175437 
4.330000000003247, 3.2779280758006877 
4.340000000003224, 3.2710355165450116 
4.350000000003201, 3.3188591015386004 
4.360000000003177, 3.324081021817773 
4.370000000003154, 3.3229898742160437 
4.380000000003131, 3.3048177402887466 
4.390000000003107, -4.523594383449702 
4.400000000003084, -5.328357587298946 
4.410000000003061, -5.333429603378171 
4.4200000000030375, -5.330272456851923 
4.430000000003014, -5.2579269966738025 
4.440000000002991, -4.955238704635815 
4.450000000002968, -5.008593500512033 
4.460000000002944, -5.0090203901962935 
4.470000000002921, -5.006335750726904 
4.480000000002898, -4.997508885410489 
4.490000000002874, -5.000235382911086 
4.500000000002851, -4.999323577413637 
4.510000000002828, -4.999526808242526 
4.520000000002804, -4.999221692269275 
4.530000000002781, -4.998297844725405 
4.540000000002758, -4.990175055097899 
4.5500000000027345, -4.9956127094886025 
4.560000000002711, -5.0185952078279 
4.570000000002688, -5.019508546545867 
4.580000000002665, -5.014332887117996 
4.590000000002641, -4.699805671806558 
4.600000000002618, 3.3102820411796188 
4.610000000002595, 3.3391214652755195 
4.620000000002571, 3.3394737775319294 
4.630000000002548, 3.329258284943201 
4.640000000002525, 2.5250356574346062 
4.6500000000025015, 2.602638676082278 
4.660000000002478, 2.651606257043653 
4.670000000002455, 2.6547555583432554 
4.6800000000024315, 2.654739394808529 
4.690000000002408, 2.6538513602097726 
4.700000000002385, 2.6514623251067313 
4.710000000002362, 2.648583852375432 
4.720000000002338, 2.648147564594797 
4.730000000002315, 2.647827915036484 
4.740000000002292, 2.643583492157318 
4.750000000002268, 2.6269915715870242 
4.760000000002245, 2.6599695501035105 
4.770000000002222, 2.6846834930945835 
4.7800000000021985, 2.6883610301218512 
4.790000000002175, 2.6875542975297853 
4.800000000002152, 2.6782398041034776 
4.810000000002129, 2.1707994660854224 
4.820000000002105, -4.6407644825814405 
4.830000000002082, -4.681760666771562 
4.840000000002059, -4.683342679028242 
4.850000000002035, -4.679632262775731 
4.860000000002012, -4.635253973458751 
4.870000000001989, -4.546720400500489 
4.880000000001965, -4.581155813614703 
4.890000000001942, -4.581865659356289 
4.900000000001919, -4.580666471750545 
4.9100000000018955, -4.577092640459961 
4.920000000001872, -4.5762345381543765 
4.930000000001849, -4.575404213935942 
4.940000000001826, -4.57297659729508 
4.950000000001802, -4.577907964611121 
4.960000000001779, -4.578547876654505 
4.970000000001756, -4.577051544306818 
4.980000000001732, -4.555694516289946 
