t, s[1].omega / s[0].omega 
0, -1.3607435752350194 
0.009999999999999995, -1.421678975528797 
0.019999999999999934, -1.4598549863751105 
0.029999999999999874, -1.4813922057043531 
0.04000000000000012, -1.4923078551072506 
0.050000000000000405, -1.4972712494131504 
0.06000000000000069, -1.4991453841082643 
0.07000000000000098, -1.499456913845632 
0.08000000000000126, -1.4990983995582636 
0.09000000000000155, -1.49880902098785 
0.10000000000000184, -1.499112173330494 
0.11000000000000212, -1.4999319877593447 
0.12000000000000241, -1.5008141361634448 
0.130000000000002, -1.5015198093702513 
0.1400000000000009, -1.5020918692274727 
0.1499999999999998, -1.5025235567515984 
0.1599999999999987, -1.5025972455264038 
0.1699999999999976, -1.5019888449672585 
0.1799999999999965, -1.5003624304644885 
0.1899999999999954, -1.497392917139044 
0.1999999999999943, -1.4927896091636337 
0.2099999999999932, -1.486282071822309 
0.2199999999999921, -1.4774908661315407 
0.229999999999991, -1.4656810237312161 
0.2399999999999899, -1.4494398467359966 
0.2499999999999888, -1.426477796434157 
0.2599999999999877, -1.3946888901099235 
0.2699999999999866, -1.3572313412988 
0.2799999999999855, -1.3276882642668055 
0.2899999999999844, -1.3162528768732833 
0.2999999999999833, -1.316156198748565 
0.3099999999999822, -1.3182895400815313 
0.3199999999999811, -1.319455740917962 
0.32999999999998, -1.3190755389250095 
0.3399999999999789, -1.3164471438614271 
0.3499999999999778, -1.308887345147935 
0.35999999999997667, -1.2865780112269447 
0.36999999999997557, -1.2087576557260546 
0.37999999999997447, -0.8848276292947552 
0.38999999999997337, 0.045301329653463174 
0.39999999999997227, 0.5536129196257149 
0.40999999999997117, 0.646325103510718 
0.41999999999997006, 0.6677580578198068 
0.42999999999996896, 0.6743987258926619 
0.43999999999996786, 0.6765646911122133 
0.44999999999996676, 0.676786112951554 
0.45999999999996566, 0.6757256824958006 
0.46999999999996456, 0.6734709729698649 
0.47999999999996346, 0.6700147390324084 
0.48999999999996235, 0.6656206329489679 
0.49999999999996125, 0.6610088331176552 
0.5099999999999602, 0.6570681229850832 
0.519999999999959, 0.6543113895148258 
0.529999999999958, 0.6526989177237709 
0.5399999999999568, 0.6518819846273695 
0.5499999999999557, 0.6514637059940057 
0.5599999999999546, 0.6510909025898277 
0.5699999999999535, 0.6504134647273486 
0.5799999999999524, 0.6489275159892831 
0.5899999999999513, 0.6455294779671898 
0.5999999999999502, 0.6368771031578125 
0.6099999999999491, 0.6089809338011091 
0.619999999999948, 0.467615264132102 
0.6299999999999469, -0.737419112019085 
0.6399999999999458, -2.352445920599076 
0.6499999999999447, -2.549326100323163 
0.6599999999999436, -2.578414066070704 
0.6699999999999425, -2.58465713073253 
0.6799999999999414, -2.585701457940162 
0.6899999999999403, -2.585022807890817 
0.6999999999999392, -2.5834219755483354 
0.7099999999999381, -2.5802221779537655 
0.719999999999937, -2.5753959638427872 
0.7299999999999359, -2.5734976179672264 
0.7399999999999348, -2.5741981053855483 
0.7499999999999337, -2.5732337158849594 
0.7599999999999326, -2.56717472955595 
0.7699999999999315, -2.552643508646575 
0.7799999999999304, -2.586555158545324 
0.7899999999999293, -2.632546508327298 
0.7999999999999282, -2.647534101364257 
0.8099999999999271, -2.6522957240182086 
0.819999999999926, -2.6536747806552503 
0.8299999999999249, -2.653062646491567 
0.8399999999999238, -2.6501248497996786 
0.8499999999999227, -2.64242112306131 
0.8599999999999216, -2.619019617731733 
0.8699999999999205, -2.5098379849994146 
0.8799999999999194, -1.9975461390309293 
0.8899999999999183, -1.8096987200833294 
0.8999999999999172, -1.8833979807946784 
0.9099999999999161, -1.9069577216368365 
0.919999999999915, -1.9128432424752553 
0.9299999999999139, -1.9137875880726987 
0.9399999999999128, -1.9127484075064136 
0.9499999999999117, -1.9115931585286248 
0.9599999999999106, -1.9140901495249931 
0.9699999999999095, -1.9205998906537096 
0.9799999999999084, -1.926519222617585 
0.9899999999999073, -1.930168730014514 
0.9999999999999062, -1.93219158707493 
1.0099999999999052, -1.9331280683092302 
1.019999999999904, -1.9330416985728474 
1.029999999999903, -1.9317375404309498 
1.039999999999902, -1.9288185561780427 
1.0499999999999008, -1.9235454994648566 
1.0599999999998997, -1.9143916714385032 
1.0699999999998986, -1.8977058280573957 
1.0799999999998975, -1.8638021010330061 
1.0899999999998964, -1.7894976566836551 
1.0999999999998953, -1.6655836449929289 
1.1099999999998942, -1.5945301191748062 
1.119999999999893, -1.5980190266416139 
1.129999999999892, -1.6084810313926599 
1.1399999999998909, -1.6130508243976298 
1.1499999999998898, -1.614070390057566 
1.1599999999998887, -1.6127060190009943 
1.1699999999998876, -1.6084384002022674 
1.1799999999998865, -1.6012568318306333 
1.1899999999998854, -1.605262494292895 
1.1999999999998843, -1.6532125706435814 
1.2099999999998832, -1.7191357902154945 
1.219999999999882, -1.761708705831488 
1.229999999999881, -1.7842694485143569 
1.2399999999998799, -1.7966673997299627 
1.2499999999998788, -1.8039394082839357 
1.2599999999998777, -1.808271196855469 
1.2699999999998766, -1.810653363253645 
1.2799999999998755, -1.8115918310546462 
1.2899999999998744, -1.81138455447087 
1.2999999999998733, -1.8102216745522621 
1.3099999999998722, -1.8081805855520898 
1.319999999999871, -1.8050860498709835 
1.32999999999987, -1.8004657618054356 
1.3399999999998689, -1.7944153831825957 
1.3499999999998678, -1.789324115967501 
1.3599999999998666, -1.7877918082158064 
1.3699999999998655, -1.7882335289854943 
1.3799999999998644, -1.7881162475469086 
1.3899999999998633, -1.7858624708052075 
1.3999999999998622, -1.77770972491438 
1.4099999999998611, -1.7458767316359771 
1.41999999999986, -1.5853183279024172 
1.429999999999859, -0.7003970323489617 
1.4399999999998578, 1.960338181968534 
1.4499999999998567, 2.129498280917779 
1.4599999999998556, 2.1395037439119267 
1.4699999999998545, 2.1401960227586625 
1.4799999999998534, 2.136381059452027 
1.4899999999998523, 2.1067639419038358 
1.4999999999998512, 1.3605914819202445 
1.5099999999998501, 0.678878490330015 
1.519999999999849, 0.9137028331309901 
1.529999999999848, 0.961716701035758 
1.5399999999998468, 0.9735128780575145 
1.5499999999998457, 0.9770170546151535 
1.5599999999998446, 0.9776804457743916 
1.5699999999998435, 0.9767668775307017 
1.5799999999998424, 0.9744093034182395 
1.5899999999998413, 0.9708416637629712 
1.5999999999998402, 0.9703375439846729 
1.6099999999998391, 0.988823796475736 
1.619999999999838, 1.028299597102766 
1.629999999999837, 1.0571527299828398 
1.6399999999998358, 1.0696372664022822 
1.6499999999998347, 1.0742171166492638 
1.6599999999998336, 1.075383523174635 
1.6699999999998325, 1.0743269626245662 
1.6799999999998314, 1.0697331112586297 
1.6899999999998303, 1.0528997379286307 
1.6999999999998292, 0.9599882248806025 
1.709999999999828, 0.2780639756710188 
1.719999999999827, -0.6096040965779108 
1.729999999999826, -0.8404427967150717 
1.7399999999998248, -0.9056685066369784 
1.7499999999998237, -0.9286281199528723 
1.7599999999998226, -0.9377460843210154 
1.7699999999998215, -0.9414379413560334 
1.7799999999998204, -0.9425136650265973 
1.7899999999998193, -0.9417705156393545 
1.7999999999998182, -0.938837219755866 
1.809999999999817, -0.9317242394463834 
1.819999999999816, -0.9142545421698356 
1.8299999999998149, -0.8663315662485571 
1.8399999999998138, -0.7187138057726816 
1.8499999999998127, -0.31883198434256055 
1.8599999999998116, 0.1328028469634194 
1.8699999999998105, 0.30425925631968037 
1.8799999999998094, 0.3532143400520011 
1.8899999999998083, 0.3695928474524217 
1.8999999999998072, 0.3759923823905379 
1.909999999999806, 0.37860737016528945 
1.919999999999805, 0.37946403295527 
1.9299999999998039, 0.3793419096522146 
1.9399999999998028, 0.37861736331290563 
1.9499999999998017, 0.37755733419932885 
1.9599999999998006, 0.37642114682373395 
1.9699999999997995, 0.3754712031148699 
1.9799999999997984, 0.3749494355839449 
1.9899999999997973, 0.3750596132719056 
1.9999999999997962, 0.3759553676907799 
2.0099999999998173, 0.37769942718485555 
2.0199999999998384, 0.38017808579823253 
2.0299999999998595, 0.38303824995973124 
2.0399999999998806, 0.3857670897821307 
2.0499999999999017, 0.38790282557470257 
2.059999999999923, 0.3891786196175854 
2.069999999999944, 0.3894678543755576 
2.079999999999965, 0.38858328456685715 
2.089999999999986, 0.3859604752277533 
2.100000000000007, 0.37999292649650085 
2.1100000000000283, 0.36613916895901066 
2.1200000000000494, 0.33130830484915863 
2.1300000000000705, 0.2443066609253483 
2.1400000000000916, 0.09083539393473508 
2.1500000000001127, -0.037804946708502526 
2.160000000000134, -0.09404033346531142 
2.170000000000155, -0.11388124807529021 
2.180000000000176, -0.12128217233376604 
2.190000000000197, -0.12439953977509785 
2.2000000000002182, -0.12581931258359574 
2.2100000000002393, -0.12642776111641651 
2.2200000000002604, -0.12656442198226886 
2.2300000000002815, -0.12638354762644635 
2.2400000000003026, -0.12598895228187507 
2.2500000000003237, -0.12549715201242623 
2.260000000000345, -0.1250659652665049 
2.270000000000366, -0.12489674886426631 
2.280000000000387, -0.12522756745653066 
2.290000000000408, -0.1263492908527127 
2.3000000000004293, -0.12867023789164228 
2.3100000000004504, -0.132828712151754 
2.3200000000004715, -0.1397956396818552 
2.3300000000004926, -0.15074116678736896 
2.3400000000005137, -0.16618340071087273 
2.3500000000005348, -0.1844564847793214 
2.360000000000556, -0.2016740539269795 
2.370000000000577, -0.2146439291763737 
2.380000000000598, -0.22289008783952907 
2.390000000000619, -0.2275628043127742 
2.4000000000006403, -0.2298981764897053 
2.4100000000006614, -0.23067936181452806 
2.4200000000006825, -0.2302535354286302 
2.4300000000007036, -0.22864647099276642 
2.4400000000007247, -0.2256681898171476 
2.450000000000746, -0.22107591391034323 
2.460000000000767, -0.21488259622033254 
2.470000000000788, -0.20768731863588324 
2.480000000000809, -0.2005930922009612 
2.49000000000083, -0.1946027013499873 
2.5000000000008513, -0.19014380724704222 
2.5100000000008724, -0.18714395255983657 
2.5200000000008935, -0.18533790957697655 
2.5300000000009146, -0.184464243715354 
2.5400000000009357, -0.1843091265104549 
2.550000000000957, -0.18467401026618627 
2.560000000000978, -0.18533834027637633 
2.570000000000999, -0.1860620854177431 
2.58000000000102, -0.18662787843708825 
2.5900000000010412, -0.18687775028902512 
2.6000000000010624, -0.18670438029891975 
2.6100000000010835, -0.18599445828915984 
2.6200000000011046, -0.1845266011682565 
2.6300000000011257, -0.181768601975474 
2.6400000000011468, -0.17635647869176202 
2.650000000001168, -0.1645747839935176 
2.660000000001189, -0.13617742460798912 
2.67000000000121, -0.0686015747598382 
2.680000000001231, 0.05001582768595146 
2.6900000000012523, 0.16312300191152868 
2.7000000000012734, 0.22475950937574957 
2.7100000000012945, 0.25140549613124236 
2.7200000000013156, 0.2628345371115222 
2.7300000000013367, 0.26791681627729547 
2.740000000001358, 0.270081432877002 
2.750000000001379, 0.27067840758814915 
2.7600000000014, 0.27027181141620016 
2.770000000001421, 0.26914670684553393 
2.780000000001442, 0.2675384612140307 
2.7900000000014633, 0.26572694202461655 
2.8000000000014844, 0.26402644879526616 
2.8100000000015055, 0.2627205697481524 
2.8200000000015266, 0.26201897077030517 
2.8300000000015477, 0.2620676416340779 
2.840000000001569, 0.2629747726151529 
2.85000000000159, 0.26479299325068106 
2.860000000001611, 0.26743244415032746 
2.870000000001632, 0.2705651715289184 
2.8800000000016532, 0.2736611451247942 
2.8900000000016743, 0.27619822779777803 
2.9000000000016954, 0.2778565569093889 
2.9100000000017165, 0.27851130824791637 
2.9200000000017377, 0.27806176085481793 
2.9300000000017588, 0.27619707653817877 
2.94000000000178, 0.2720600694405987 
2.950000000001801, 0.2635972016384033 
2.960000000001822, 0.24638113605620576 
2.970000000001843, 0.21321541523926602 
2.9800000000018643, 0.161582951440502 
2.9900000000018854, 0.10811408126111391 
3.0000000000019065, 0.07287673628420695 
3.0100000000019276, 0.05553001700464062 
3.0200000000019487, 0.0477214628470342 
3.03000000000197, 0.044095215648136364 
3.040000000001991, 0.04229262228513494 
3.050000000002012, 0.04135012205299971 
3.060000000002033, 0.040853568767988555 
3.070000000002054, 0.04058971718962065 
3.0800000000020753, 0.040401405509293366 
3.0900000000020964, 0.04012251770950426 
3.1000000000021175, 0.03954557411059248 
3.1100000000021386, 0.038390965484913345 
3.1200000000021597, 0.03623488590185216 
3.130000000002181, 0.03232378411322228 
3.140000000002202, 0.02512816511671618 
3.150000000002223, 0.011301972813487425 
3.160000000002244, -0.016240075576149628 
3.1700000000022652, -0.07057472109621427 
3.1800000000022863, -0.15964040491132742 
3.1900000000023074, -0.2555482486192427 
3.2000000000023285, -0.3194880564481469 
3.2100000000023496, -0.3512211653121086 
3.2200000000023707, -0.36574378610846425 
3.230000000002392, -0.37250585612553605 
3.240000000002413, -0.3756716290989582 
3.250000000002434, -0.3769433943123908 
3.260000000002455, -0.3769762027678636 
3.2700000000024763, -0.3759356416677547 
3.2800000000024974, -0.3737252653940999 
3.2900000000025185, -0.37014742091415387 
3.3000000000025396, -0.3651403035660571 
3.3100000000025607, -0.3590626391550992 
3.3200000000025818, -0.3527352813972932 
3.330000000002603, -0.34705019644583107 
3.340000000002624, -0.3425250785082003 
3.350000000002645, -0.3392349918612399 
3.360000000002666, -0.337011373697127 
3.3700000000026873, -0.3356216543427547 
3.3800000000027084, -0.3348400149639107 
3.3900000000027295, -0.33445508700294047 
3.4000000000027506, -0.334271265709741 
3.4100000000027717, -0.33412630357112766 
3.420000000002793, -0.3339139582665138 
3.430000000002814, -0.3335939819393151 
3.440000000002835, -0.33319185822683445 
3.450000000002856, -0.33281131998450414 
3.460000000002877, -0.33269791855832975 
3.4700000000028983, -0.333434686020406 
3.4800000000029194, -0.3365119566660374 
3.4900000000029405, -0.3461276255029523 
3.5000000000029616, -0.3757736859635939 
3.5100000000029827, -0.4778150018790373 
3.520000000003004, -0.9026099752804839 
3.530000000003025, -2.030007790420271 
3.540000000003046, -2.4517656339733156 
3.550000000003067, -2.521013844238943 
3.5600000000030882, -2.53892763438682 
3.5700000000031094, -2.544955664026704 
3.5800000000031305, -2.5467634710553897 
3.5900000000031516, -2.5464132130934494 
3.6000000000031727, -2.5443002936032078 
3.6100000000031938, -2.5393780693144072 
3.620000000003215, -2.52722870059626 
3.630000000003236, -2.503658119820158 
3.640000000003257, -2.4954239498879374 
3.650000000003278, -2.500966517213986 
3.6600000000032993, -2.5027761440837706 
3.6700000000033204, -2.501430018579941 
3.6800000000033415, -2.498711095407124 
3.6900000000033626, -2.502865452997111 
3.7000000000033837, -2.511940540484839 
3.710000000003405, -2.516868912019553 
3.720000000003426, -2.518757473731576 
3.730000000003447, -2.5191156258593885 
3.740000000003468, -2.5178428387132312 
3.750000000003489, -2.513396981182177 
3.7600000000035103, -2.5003340462154537 
3.7700000000035314, -2.455195237666631 
3.7800000000035525, -2.2218031370208178 
3.7900000000035736, -0.831208244782065 
3.8000000000035947, 0.2629473237620298 
3.810000000003616, 0.43575453215109156 
3.820000000003637, 0.4734624080725064 
3.830000000003658, 0.4854474192705496 
3.840000000003679, 0.490027281803718 
3.8500000000037002, 0.49175008021132827 
3.8600000000037213, 0.4920297300955506 
3.8700000000037424, 0.4912879818842925 
3.8800000000037635, 0.4894765262055354 
3.8900000000037847, 0.4861835372066309 
3.9000000000038058, 0.4808797658046594 
3.910000000003827, 0.4758115243477617 
3.920000000003848, 0.49473854464615846 
3.930000000003869, 0.6062743548048953 
3.94000000000389, 0.7457170652828979 
3.9500000000039113, 0.8047680827991093 
3.9600000000039324, 0.8232427272681655 
3.9700000000039535, 0.8293149422610544 
3.9800000000039746, 0.8310950767682013 
3.9900000000039957, 0.8306653701292976 
4.000000000004016, 0.8279540562976303 
4.010000000003993, 0.8209264154100578 
4.02000000000397, 0.8036820394464221 
4.030000000003946, 0.7655917515548815 
4.040000000003923, 0.7117511702671759 
4.0500000000039, 0.6790388954089042 
4.0600000000038765, 0.6722342378221313 
4.070000000003853, 0.6735238657653292 
4.08000000000383, 0.6754183111659533 
4.090000000003807, 0.6765239091711317 
4.100000000003783, 0.6767146686195424 
4.11000000000376, 0.6758240516996642 
4.120000000003737, 0.6731304066791204 
4.130000000003713, 0.6661873161124657 
4.14000000000369, 0.6453508757377299 
4.150000000003667, 0.5545943414026848 
4.1600000000036434, -0.17955817038109237 
4.17000000000362, -2.3992413789214324 
4.180000000003597, -2.745403192919958 
4.1900000000035735, -2.7884452210648343 
4.20000000000355, -2.798603163589818 
4.210000000003527, -2.8012697810066896 
4.220000000003504, -2.8010950446023832 
4.23000000000348, -2.7988987909170198 
4.240000000003457, -2.7930719230052405 
4.250000000003434, -2.776207446083373 
4.26000000000341, -2.7500676979726526 
4.270000000003387, -2.753319051210547 
4.280000000003364, -2.7581206171263517 
4.2900000000033405, -2.7581836588749082 
4.300000000003317, -2.756276503789399 
4.310000000003294, -2.757847934360722 
4.320000000003271, -2.762750512700462 
4.330000000003247, -2.7651969859467327 
4.340000000003224, -2.765871941891206 
4.350000000003201, -2.765399215638831 
4.360000000003177, -2.7623069024480857 
4.370000000003154, -2.7490495278266938 
4.380000000003131, -2.66586500810692 
4.390000000003107, -1.5527111537153435 
4.400000000003084, 0.6199110380529447 
4.410000000003061, 0.8225564126978784 
4.4200000000030375, 0.8511418545778693 
4.430000000003014, 0.8584102666730289 
4.440000000002991, 0.8606528226398316 
4.450000000002968, 0.8611409752476282 
4.460000000002944, 0.8608104776155627 
4.470000000002921, 0.8600253970292278 
4.480000000002898, 0.8590159904227728 
4.490000000002874, 0.858006559588581 
4.500000000002851, 0.8572110820745298 
4.510000000002828, 0.8567602571272396 
4.520000000002804, 0.8566419426725206 
4.530000000002781, 0.8567133949227875 
4.540000000002758, 0.8567609748990426 
4.5500000000027345, 0.8565311890584288 
4.560000000002711, 0.8556554881006045 
4.570000000002688, 0.8533150310725162 
4.580000000002665, 0.8468992571891875 
4.590000000002641, 0.8245230972225073 
4.600000000002618, 0.6903954019611035 
4.610000000002595, -0.9627689414462312 
4.620000000002571, -2.6520374659993484 
4.630000000002548, -2.7809266308749807 
4.640000000002525, -2.7987864634042476 
4.6500000000025015, -2.802250690608663 
4.660000000002478, -2.802257740302636 
4.670000000002455, -2.8008384059238187 
4.6800000000024315, -2.7976020574980702 
4.690000000002408, -2.790918390064351 
4.700000000002385, -2.786294158692211 
4.710000000002362, -2.7876933171107257 
4.720000000002338, -2.787763012063706 
4.730000000002315, -2.7841588975690046 
4.740000000002292, -2.779587146021341 
4.750000000002268, -2.7949430391029386 
4.760000000002245, -2.8083859909708884 
4.770000000002222, -2.812894804744258 
4.7800000000021985, -2.8141101981511336 
4.790000000002175, -2.81341622399216 
4.800000000002152, -2.8097359475609665 
4.810000000002129, -2.7973623043985114 
4.820000000002105, -2.742966623558721 
4.830000000002082, -2.251005477569152 
4.840000000002059, 0.21910183193725122 
4.850000000002035, 0.712449417339031 
4.860000000002012, 0.7693783590493738 
4.870000000001989, 0.7824686789161502 
4.880000000001965, 0.7865691930042535 
4.890000000001942, 0.7878653300600418 
4.900000000001919, 0.7880343449745194 
4.9100000000018955, 0.7877484606675502 
4.920000000001872, 0.7875659769189072 
4.930000000001849, 0.7884375021073573 
4.940000000001826, 0.7920387217064135 
4.950000000001802, 0.7999294168873969 
4.960000000001779, 0.810923971445147 
