t, s[1].omega / s[0].omega 
0, -0.43947104488217936 
0.009999999999999995, -0.3984465536745062 
0.019999999999999934, -0.3737979776413184 
0.029999999999999874, -0.3583652141639725 
0.04000000000000012, -0.3482706163438433 
0.050000000000000405, -0.3414274531684927 
0.06000000000000069, -0.33668120921882366 
0.07000000000000098, -0.33337632617087776 
0.08000000000000126, -0.3311392947396072 
0.09000000000000155, -0.3297676769474961 
0.10000000000000184, -0.32917347160298394 
0.11000000000000212, -0.3293575812977103 
0.12000000000000241, -0.3304058030065531 
0.130000000000002, -0.3325047387717076 
0.1400000000000009, -0.3359831155301034 
0.1499999999999998, -0.34139401757880694 
0.1599999999999987, -0.34967224042484957 
0.1699999999999976, -0.36244031442255364 
0.1799999999999965, -0.3826211511188927 
0.1899999999999954, -0.41567714248153226 
0.1999999999999943, -0.471934463825431 
0.2099999999999932, -0.5692753259560515 
0.2199999999999921, -0.7267100649112757 
0.229999999999991, -0.9250512221809822 
0.2399999999999899, -1.0864191805828773 
0.2499999999999888, -1.1721667006875087 
0.2599999999999877, -1.208200470125997 
0.2699999999999866, -1.222348612715438 
0.2799999999999855, -1.227794614229817 
0.2899999999999844, -1.229598980700732 
0.2999999999999833, -1.2296262230533963 
0.3099999999999822, -1.2286676318723733 
0.3199999999999811, -1.2276185490842448 
0.32999999999998, -1.2286213107077304 
0.3399999999999789, -1.2350608686922844 
0.3499999999999778, -1.2482035071877107 
0.35999999999997667, -1.2647563395561785 
0.36999999999997557, -1.2805062227985091 
0.37999999999997447, -1.2936341920639092 
0.38999999999997337, -1.3041736684417355 
0.39999999999997227, -1.312690233152758 
0.40999999999997117, -1.319673725413125 
0.41999999999997006, -1.3254032299338327 
0.42999999999996896, -1.3299675195494562 
0.43999999999996786, -1.3333454389872328 
0.44999999999996676, -1.3355254253495876 
0.45999999999996566, -1.3365999277134504 
0.46999999999996456, -1.3367746782741576 
0.47999999999996346, -1.33632860967239 
0.48999999999996235, -1.3355823540971241 
0.49999999999996125, -1.33483421147633 
0.5099999999999602, -1.3342279959516976 
0.519999999999959, -1.3337185034790728 
0.529999999999958, -1.333251966110573 
0.5399999999999568, -1.332921060551841 
0.5499999999999557, -1.3328477714907674 
0.5599999999999546, -1.3329452314903334 
0.5699999999999535, -1.332896277748442 
0.5799999999999524, -1.332312281515028 
0.5899999999999513, -1.330819268524611 
0.5999999999999502, -1.3280725128954285 
0.6099999999999491, -1.3238144014135071 
0.619999999999948, -1.3179477579706043 
0.6299999999999469, -1.3104995062541476 
0.6399999999999458, -1.301460279142093 
0.6499999999999447, -1.2906186927929328 
0.6599999999999436, -1.2774798936297285 
0.6699999999999425, -1.2613408819233118 
0.6799999999999414, -1.24178850126409 
0.6899999999999403, -1.2200518564416016 
0.6999999999999392, -1.2004347271812277 
0.7099999999999381, -1.1881405892261143 
0.719999999999937, -1.1838049217987323 
0.7299999999999359, -1.1836936974448276 
0.7399999999999348, -1.1844680691822025 
0.7499999999999337, -1.184664265498871 
0.7599999999999326, -1.1836355611474756 
0.7699999999999315, -1.1804423452328783 
0.7799999999999304, -1.1726759338733224 
0.7899999999999293, -1.1541158546432624 
0.7999999999999282, -1.110322702213824 
0.8099999999999271, -1.0179690849257326 
0.819999999999926, -0.870942163454296 
0.8299999999999249, -0.713694902574367 
0.8399999999999238, -0.593548117292239 
0.8499999999999227, -0.5159298804762462 
0.8599999999999216, -0.46774071114105065 
0.8699999999999205, -0.4373570138773317 
0.8799999999999194, -0.4176277947415888 
0.8899999999999183, -0.40446720120198354 
0.8999999999999172, -0.3955261496518846 
0.9099999999999161, -0.3894132618518503 
0.919999999999915, -0.3852759544287803 
0.9299999999999139, -0.3825758449999248 
0.9399999999999128, -0.3809662184443821 
0.9499999999999117, -0.3802244528893085 
0.9599999999999106, -0.3802156792577548 
0.9699999999999095, -0.38087598827152214 
0.9799999999999084, -0.3822101713160177 
0.9899999999999073, -0.3843032860024438 
0.9999999999999062, -0.3873490914303811 
1.0099999999999052, -0.39170368742066997 
1.019999999999904, -0.39798277466266274 
1.029999999999903, -0.4072382871870235 
1.039999999999902, -0.42126329829555864 
1.0499999999999008, -0.4430003751448634 
1.0599999999998997, -0.47652945364099003 
1.0699999999998986, -0.5246211101921772 
1.0799999999998975, -0.581979177918609 
1.0899999999998964, -0.633334478589197 
1.0999999999998953, -0.6676097643977216 
1.1099999999998942, -0.6863043355548808 
1.119999999999893, -0.6955406979508716 
1.129999999999892, -0.6998240941752676 
1.1399999999998909, -0.7014669729063618 
1.1499999999998898, -0.7014228730800146 
1.1599999999998887, -0.6998134875443836 
1.1699999999998876, -0.6959525980657194 
1.1799999999998865, -0.687657759595052 
1.1899999999998854, -0.6686892627746702 
1.1999999999998843, -0.619580770570711 
1.2099999999998832, -0.47770714508642537 
1.219999999999882, -0.13778170964384687 
1.229999999999881, 0.20037883916479235 
1.2399999999998799, 0.3303997239002666 
1.2499999999998788, 0.3701559215401501 
1.2599999999998777, 0.38403333821838037 
1.2699999999998766, 0.38953105598939847 
1.2799999999998755, 0.39171254916019305 
1.2899999999998744, 0.3922737713546147 
1.2999999999998733, 0.3918634006437963 
1.3099999999998722, 0.39079373012375684 
1.319999999999871, 0.38930981795747815 
1.32999999999987, 0.38768771932375035 
1.3399999999998689, 0.3862271224621969 
1.3499999999998678, 0.38519320866600654 
1.3599999999998666, 0.3847721592311225 
1.3699999999998655, 0.3850603737742676 
1.3799999999998644, 0.3860565554354284 
1.3899999999998633, 0.38763247511955307 
1.3999999999998622, 0.38951310851391024 
1.4099999999998611, 0.39132692142106285 
1.41999999999986, 0.3927214365869097 
1.429999999999859, 0.39344234913148335 
1.4399999999998578, 0.3932892166390856 
1.4499999999998567, 0.39193701640382683 
1.4599999999998556, 0.3885630601003897 
1.4699999999998545, 0.380881469326614 
1.4799999999998534, 0.3619942605950285 
1.4899999999998523, 0.3093886064794024 
1.4999999999998512, 0.16208020177030297 
1.5099999999998501, -0.09281093371997166 
1.519999999999849, -0.2694662238409015 
1.529999999999848, -0.3373145898397745 
1.5399999999998468, -0.36181216512830316 
1.5499999999998457, -0.371854366519637 
1.5599999999998446, -0.3764882214878034 
1.5699999999998435, -0.37870519933507313 
1.5799999999998424, -0.3796005004297574 
1.5899999999998413, -0.37958096594041624 
1.5999999999998402, -0.3787580494086813 
1.6099999999998391, -0.3771158034587084 
1.619999999999838, -0.37464200700209915 
1.629999999999837, -0.3714682714036393 
1.6399999999998358, -0.3679476841679711 
1.6499999999998347, -0.36456258397820096 
1.6599999999998336, -0.36171637358153397 
1.6699999999998325, -0.3596067037948213 
1.6799999999998314, -0.35825210479026715 
1.6899999999998303, -0.3575749203733984 
1.6999999999998292, -0.3574504907919933 
1.709999999999828, -0.357714558152226 
1.719999999999827, -0.3581667242951435 
1.729999999999826, -0.35860174297140407 
1.7399999999998248, -0.3588585888364407 
1.7499999999998237, -0.3588491960235398 
1.7599999999998226, -0.3585512083676106 
1.7699999999998215, -0.3579861373612365 
1.7799999999998204, -0.3572150009241607 
1.7899999999998193, -0.35638518194092234 
1.7999999999998182, -0.3559028971407164 
1.809999999999817, -0.3569786482763164 
1.819999999999816, -0.3634493713020787 
1.8299999999998149, -0.38848818302150623 
1.8399999999998138, -0.4830723860904135 
1.8499999999998127, -1.0302039322361387 
1.8599999999998116, -4.12275767374222 
1.8699999999998105, -4.235703659228655 
1.8799999999998094, -4.241744921015083 
1.8899999999998083, -4.241066003649268 
1.8999999999998072, -4.233705475304654 
1.909999999999806, -4.12132763082887 
1.919999999999805, -1.2530103811025899 
1.9299999999998039, -1.216069718496847 
1.9399999999998028, -1.3936464710987233 
1.9499999999998017, -1.4529387655980446 
1.9599999999998006, -1.470555094662788 
1.9699999999997995, -1.4760306857676042 
1.9799999999997984, -1.4773085188602721 
1.9899999999997973, -1.4764352079052416 
1.9999999999997962, -1.4738266488851721 
2.0099999999998173, -1.470897515852744 
2.0199999999998384, -1.4752202724951962 
2.0299999999998595, -1.4976478917655032 
2.0399999999998806, -1.5305628766180832 
2.0499999999999017, -1.5578830944220978 
2.059999999999923, -1.576087997776267 
2.069999999999944, -1.5878810058286956 
2.079999999999965, -1.595775402957878 
2.089999999999986, -1.6011907214284915 
2.100000000000007, -1.6048444682940832 
2.1100000000000283, -1.6071028632654976 
2.1200000000000494, -1.6081840262886182 
2.1300000000000705, -1.6082656626955774 
2.1400000000000916, -1.6075282080805464 
2.1500000000001127, -1.6061526893192526 
2.160000000000134, -1.604250137169067 
2.170000000000155, -1.601757606133183 
2.180000000000176, -1.5985951398565645 
2.190000000000197, -1.595245644642369 
2.2000000000002182, -1.592929056001818 
2.2100000000002393, -1.5922225946620199 
2.2200000000002604, -1.5921911142642118 
2.2300000000002815, -1.591569021980743 
2.2400000000003026, -1.589091395732295 
2.2500000000003237, -1.5819385872625378 
2.260000000000345, -1.5608755627585342 
2.270000000000366, -1.4927305685478118 
2.280000000000387, -1.270638973938692 
2.290000000000408, -0.7840400084151743 
2.3000000000004293, -0.3549638675226305 
2.3100000000004504, -0.16796111025574226 
2.3200000000004715, -0.095694431249497 
2.3300000000004926, -0.06449915749881086 
2.3400000000005137, -0.04923389221152728 
2.3500000000005348, -0.04099224224650781 
2.360000000000556, -0.03622897824515685 
2.370000000000577, -0.03337844908867919 
2.380000000000598, -0.03170567240764774 
2.390000000000619, -0.030880110810929468 
2.4000000000006403, -0.03081866899345117 
2.4100000000006614, -0.03166071258871943 
2.4200000000006825, -0.033862287951659624 
2.4300000000007036, -0.0385089501638812 
2.4400000000007247, -0.04821693863364031 
2.450000000000746, -0.06997089295903396 
2.460000000000767, -0.12553395569267972 
2.470000000000788, -0.29564226658105774 
2.480000000000809, -0.8563976520948338 
2.49000000000083, -1.723781206778353 
2.5000000000008513, -2.0604913860175555 
2.5100000000008724, -2.149271681685164 
2.5200000000008935, -2.1787525517105175 
2.5300000000009146, -2.190228782845744 
2.5400000000009357, -2.1947397884050903 
2.550000000000957, -2.196072201104196 
2.560000000000978, -2.195721547906533 
2.570000000000999, -2.194284010957129 
2.58000000000102, -2.1916880673739194 
2.5900000000010412, -2.187111131376849 
2.6000000000010624, -2.1808021077729363 
2.6100000000010835, -2.1772878399359437 
2.6200000000011046, -2.177793240454568 
2.6300000000011257, -2.178108704348161 
2.6400000000011468, -2.175930836974701 
2.650000000001168, -2.1669397280107283 
2.660000000001189, -2.1406712611825465 
2.67000000000121, -2.1791679656231797 
2.680000000001231, -2.3241674207107135 
2.6900000000012523, -2.381385119669913 
2.7000000000012734, -2.3988706113508997 
2.7100000000012945, -2.4053797529711494 
2.7200000000013156, -2.40789906923155 
2.7300000000013367, -2.408318242630421 
2.740000000001358, -2.407085552548366 
2.750000000001379, -2.403822965156099 
2.7600000000014, -2.3965971844407807 
2.770000000001421, -2.378331510555621 
2.780000000001442, -2.332177924332634 
2.7900000000014633, -2.2917338246514474 
2.8000000000014844, -2.3009013444250552 
2.8100000000015055, -2.3077797927385917 
2.8200000000015266, -2.3089957672272674 
2.8300000000015477, -2.3075659488363414 
2.840000000001569, -2.305957237387198 
2.85000000000159, -2.310208808650978 
2.860000000001611, -2.3174808804323646 
2.870000000001632, -2.321800133002871 
2.8800000000016532, -2.3236987921845547 
2.8900000000016743, -2.3242687102620083 
2.9000000000016954, -2.323508951444052 
2.9100000000017165, -2.320547908895686 
2.9200000000017377, -2.3129160524580095 
2.9300000000017588, -2.2931289508677564 
2.94000000000178, -2.232434756779515 
2.950000000001801, -1.9757796510432737 
2.960000000001822, -0.9636534028712169 
2.970000000001843, -0.1197773415426675 
2.9800000000018643, 0.09432251056529448 
2.9900000000018854, 0.15313581094082013 
3.0000000000019065, 0.1741232595933782 
3.0100000000019276, 0.18303367287017377 
3.0200000000019487, 0.18712728729905465 
3.03000000000197, 0.18888502834079213 
3.040000000001991, 0.18921848889255816 
3.050000000002012, 0.18835840873475046 
3.060000000002033, 0.18604963592661378 
3.070000000002054, 0.18134631976338889 
3.0800000000020753, 0.17170916729609167 
3.0900000000020964, 0.1497847569656654 
3.1000000000021175, 0.08991813378021919 
3.1100000000021386, -0.11991192348093074 
3.1200000000021597, -0.882138259589588 
3.130000000002181, -1.8089652898675486 
3.140000000002202, -2.0974390005940426 
3.150000000002223, -2.1729542775575927 
3.160000000002244, -2.197205788334846 
3.1700000000022652, -2.2058204451364913 
3.1800000000022863, -2.208672745981687 
3.1900000000023074, -2.209054768939223 
3.2000000000023285, -2.208209002810151 
3.2100000000023496, -2.206549039778198 
3.2200000000023707, -2.203699887321959 
3.230000000002392, -2.199302985112715 
3.240000000002413, -2.1956769883835947 
3.250000000002434, -2.195306428430966 
3.260000000002455, -2.195609266467682 
3.2700000000024763, -2.193970115158364 
3.2800000000024974, -2.1864108422048436 
3.2900000000025185, -2.1558271411981207 
3.3000000000025396, -2.130129644355561 
3.3100000000025607, -2.3981275885779216 
3.3200000000025818, -2.527318345854296 
3.330000000002603, -2.556644852147804 
3.340000000002624, -2.565591163726192 
3.350000000002645, -2.5687268825750125 
3.360000000002666, -2.5692870227077313 
3.3700000000026873, -2.567993954806481 
3.3800000000027084, -2.5643405767138407 
3.3900000000027295, -2.555324222217392 
3.4000000000027506, -2.5285014624421285 
3.4100000000027717, -2.462948347655681 
3.420000000002793, -2.4458549703684627 
3.430000000002814, -2.4601575672567035 
3.440000000002835, -2.4642214683466332 
3.450000000002856, -2.4640479892168474 
3.460000000002877, -2.4625312683813165 
3.4700000000028983, -2.4639896633201297 
3.4800000000029194, -2.4685284690546103 
3.4900000000029405, -2.4714197980797192 
3.5000000000029616, -2.4725458557921294 
3.5100000000029827, -2.4726854148632307 
3.520000000003004, -2.471401401244083 
3.530000000003025, -2.4666447398018803 
3.540000000003046, -2.4506196652426318 
3.550000000003067, -2.384002940020216 
3.5600000000030882, -1.9752472062963797 
3.5700000000031094, -0.3340204761269211 
3.5800000000031305, 0.3435584981665019 
3.5900000000031516, 0.4506719065532806 
3.6000000000031727, 0.4769552484616302 
3.6100000000031938, 0.48586605333127525 
3.620000000003215, 0.4893850108800694 
3.630000000003236, 0.49076237636228004 
3.640000000003257, 0.49112074861668165 
3.650000000003278, 0.49093026990279326 
3.6600000000032993, 0.49046728953915625 
3.6700000000033204, 0.4900985296478229 
3.6800000000033415, 0.49078571221069767 
3.6900000000033626, 0.49528226435010475 
3.7000000000033837, 0.5095472652037231 
3.710000000003405, 0.5381809159328872 
3.720000000003426, 0.5716615163297756 
3.730000000003447, 0.5954020856823115 
3.740000000003468, 0.607828378999505 
3.750000000003489, 0.6135066951527465 
3.7600000000035103, 0.6157264831023894 
3.7700000000035314, 0.6159167516953216 
3.7800000000035525, 0.6142888620195734 
3.7900000000035736, 0.6099008222568358 
3.8000000000035947, 0.599788930179582 
3.810000000003616, 0.5771340019837372 
3.820000000003637, 0.5335907694590047 
3.830000000003658, 0.47983280939971246 
3.840000000003679, 0.44558177041736924 
3.8500000000037002, 0.43359373239289756 
3.8600000000037213, 0.43104752366747173 
3.8700000000037424, 0.4310197661639893 
3.8800000000037635, 0.43135942583767994 
3.8900000000037847, 0.4314924563892399 
3.9000000000038058, 0.4312140615539632 
3.910000000003827, 0.43030283215260157 
3.920000000003848, 0.4282923037891696 
3.930000000003869, 0.4240329712613103 
3.94000000000389, 0.4142605743772667 
3.9500000000039113, 0.38745607078049693 
3.9600000000039324, 0.2872775245377829 
3.9700000000039535, -0.27222942619831586 
3.9800000000039746, -1.7951201932526366 
3.9900000000039957, -2.2906478322559463 
4.000000000004016, -2.3742241150624297 
4.010000000003993, -2.3934303064672404 
4.02000000000397, -2.398578888255723 
4.030000000003946, -2.399562368314891 
4.040000000003923, -2.3989575113426924 
4.0500000000039, -2.3975372070271947 
4.0600000000038765, -2.394945639571606 
4.070000000003853, -2.3907685523308393 
4.08000000000383, -2.387803065756155 
4.090000000003807, -2.387955669402055 
4.100000000003783, -2.3878612029516533 
4.11000000000376, -2.3846930658849956 
4.120000000003737, -2.371176230417341 
4.130000000003713, -2.344865181473658 
4.14000000000369, -2.4486510403943615 
4.150000000003667, -2.5356075003478167 
4.1600000000036434, -2.5592982209487487 
4.17000000000362, -2.5667519322038403 
4.180000000003597, -2.56933876695603 
4.1900000000035735, -2.569627853647605 
4.20000000000355, -2.5680580393131 
4.210000000003527, -2.5638342386489583 
4.220000000003504, -2.553231414157389 
4.23000000000348, -2.5193917488280877 
4.240000000003457, -2.4074760018279617 
4.250000000003434, -2.3441552083462374 
4.26000000000341, -2.3717744950345203 
4.270000000003387, -2.380535641147482 
4.280000000003364, -2.3818652658694934 
4.2900000000033405, -2.3808637888199264 
4.300000000003317, -2.3805110026275793 
4.310000000003294, -2.383496973978478 
4.320000000003271, -2.386711785810402 
4.330000000003247, -2.3882519690211215 
4.340000000003224, -2.3887794570225083 
4.350000000003201, -2.388408744704172 
4.360000000003177, -2.386123006258495 
4.370000000003154, -2.37865841789016 
4.380000000003131, -2.3531248059752254 
4.390000000003107, -2.2420997787476473 
4.400000000003084, -1.598315732212026 
4.410000000003061, -0.13753786290893122 
4.4200000000030375, 0.2922088610869843 
4.430000000003014, 0.374244640551593 
4.440000000002991, 0.39736073398040894 
4.450000000002968, 0.4058456925034438 
4.460000000002944, 0.40937816215296274 
4.470000000002921, 0.4108180327138867 
4.480000000002898, 0.4111911119628962 
4.490000000002874, 0.41090148201328186 
4.500000000002851, 0.4101072251792928 
4.510000000002828, 0.4089156189204197 
4.520000000002804, 0.4077654404595047 
4.530000000002781, 0.40890872275472406 
4.540000000002758, 0.4214524029107177 
4.5500000000027345, 0.4663813197983421 
4.560000000002711, 0.5417395030906988 
4.570000000002688, 0.5985850561601156 
4.580000000002665, 0.6247260297390439 
4.590000000002641, 0.6351812304275265 
4.600000000002618, 0.6392359518170446 
4.610000000002595, 0.6404010028684965 
4.620000000002571, 0.6397224984970629 
4.630000000002548, 0.6370082849678835 
4.640000000002525, 0.6308788121989485 
4.6500000000025015, 0.6183447516100439 
4.660000000002478, 0.5959139999652405 
4.670000000002455, 0.5664403165000386 
4.6800000000024315, 0.5425408870644932 
4.690000000002408, 0.5307571237686219 
4.700000000002385, 0.5268295349153644 
4.710000000002362, 0.5259518092155127 
4.720000000002338, 0.5258986089391372 
4.730000000002315, 0.5258594555735354 
4.740000000002292, 0.5254841680928352 
4.750000000002268, 0.5244452716723009 
4.760000000002245, 0.5221128747202816 
4.770000000002222, 0.5168619050618958 
4.7800000000021985, 0.5035040349182147 
4.790000000002175, 0.4598536990232514 
4.800000000002152, 0.2387523923901677 
4.810000000002129, -1.1202101345483453 
4.820000000002105, -2.288140529079013 
4.830000000002082, -2.4619863032111873 
4.840000000002059, -2.4950294097037657 
4.850000000002035, -2.5034612875396745 
4.860000000002012, -2.505483106342529 
4.870000000001989, -2.50522042279245 
4.880000000001965, -2.5038021675019237 
4.890000000001942, -2.500983681928279 
4.900000000001919, -2.4956672021256483 
4.9100000000018955, -2.490515394641796 
4.920000000001872, -2.490441731584341 
4.930000000001849, -2.491110226825274 
4.940000000001826, -2.4891865413454353 
4.950000000001802, -2.4810824883336893 
