t, s[1].omega / s[0].omega 
0, -1.440031794407004 
0.009999999999999995, -1.442711837190719 
0.019999999999999934, -1.4444354329496236 
0.029999999999999874, -1.4452496691010086 
0.04000000000000012, -1.445243159207752 
0.050000000000000405, -1.4445661015686724 
0.06000000000000069, -1.4434161487215245 
0.07000000000000098, -1.4419749517889435 
0.08000000000000126, -1.4403069840029068 
0.09000000000000155, -1.438391297164885 
0.10000000000000184, -1.4363858383164132 
0.11000000000000212, -1.4347860816528186 
0.12000000000000241, -1.4340088396813173 
0.130000000000002, -1.4338224040025378 
0.1400000000000009, -1.4335269976370864 
0.1499999999999998, -1.4323663842772871 
0.1599999999999987, -1.429387887993473 
0.1699999999999976, -1.4229052094216659 
0.1799999999999965, -1.409934198106441 
0.1899999999999954, -1.3861846260964472 
0.1999999999999943, -1.3472390767451559 
0.2099999999999932, -1.290088926646336 
0.2199999999999921, -1.213316983550514 
0.229999999999991, -1.117212808474354 
0.2399999999999899, -1.0071987887258689 
0.2499999999999888, -0.8984544743827649 
0.2599999999999877, -0.8107566918130951 
0.2699999999999866, -0.753847777471371 
0.2799999999999855, -0.723414560098854 
0.2899999999999844, -0.7096968627107738 
0.2999999999999833, -0.7045771122385875 
0.3099999999999822, -0.7032037325701856 
0.3199999999999811, -0.7031524173597198 
0.32999999999998, -0.7033328265332864 
0.3399999999999789, -0.7032618351942477 
0.3499999999999778, -0.7026823487788015 
0.35999999999997667, -0.7014009938512707 
0.36999999999997557, -0.6992681503711295 
0.37999999999997447, -0.696260946411609 
0.38999999999997337, -0.6925852841036891 
0.39999999999997227, -0.6886526995662507 
0.40999999999997117, -0.6848968828401761 
0.41999999999997006, -0.681594224824684 
0.42999999999996896, -0.6788249320159372 
0.43999999999996786, -0.6765354156934426 
0.44999999999996676, -0.6746141566166414 
0.45999999999996566, -0.6729478196740707 
0.46999999999996456, -0.6714592106476396 
0.47999999999996346, -0.6701288705285412 
0.48999999999996235, -0.6689992074312511 
0.49999999999996125, -0.6681636944228007 
0.5099999999999602, -0.6677461218844419 
0.519999999999959, -0.6678748074550444 
0.529999999999958, -0.6686579988399493 
0.5399999999999568, -0.6701683096878163 
0.5499999999999557, -0.6724417307756405 
0.5599999999999546, -0.6754909729087282 
0.5699999999999535, -0.6793285465531002 
0.5799999999999524, -0.6839949252436252 
0.5899999999999513, -0.6895891664044761 
0.5999999999999502, -0.6962995253566757 
0.6099999999999491, -0.7044269874233188 
0.619999999999948, -0.7143795946129416 
0.6299999999999469, -0.7265766353642108 
0.6399999999999458, -0.7411449142607911 
0.6499999999999447, -0.7573574862531263 
0.6599999999999436, -0.773267548937054 
0.6699999999999425, -0.7864711447572728 
0.6799999999999414, -0.7956745020398639 
0.6899999999999403, -0.8011778157718586 
0.6999999999999392, -0.8040096298868298 
0.7099999999999381, -0.805091237039596 
0.719999999999937, -0.804981754509023 
0.7299999999999359, -0.8039447795475464 
0.7399999999999348, -0.8021425041724244 
0.7499999999999337, -0.8000920635367674 
0.7599999999999326, -0.8000511850409963 
0.7699999999999315, -0.8101443464022818 
0.7799999999999304, -0.8543208882358415 
0.7899999999999293, -0.9818076918051274 
0.7999999999999282, -1.213759582710203 
0.8099999999999271, -1.4405808237610067 
0.819999999999926, -1.5780412426309147 
0.8299999999999249, -1.6502210378398428 
0.8399999999999238, -1.689055508994435 
0.8499999999999227, -1.710560801576488 
0.8599999999999216, -1.722256843540953 
0.8699999999999205, -1.7281830757787362 
0.8799999999999194, -1.7307608787971631 
0.8899999999999183, -1.731439220036556 
0.8999999999999172, -1.731083054153078 
0.9099999999999161, -1.7302720626568349 
0.919999999999915, -1.729313237967308 
0.9299999999999139, -1.728123539369017 
0.9399999999999128, -1.7266122270919044 
0.9499999999999117, -1.7252443000076796 
0.9599999999999106, -1.7246256785492264 
0.9699999999999095, -1.7244576174699322 
0.9799999999999084, -1.7237525402387406 
0.9899999999999073, -1.721218317811703 
0.9999999999999062, -1.7139754348362726 
1.0099999999999052, -1.6929951890679213 
1.019999999999904, -1.6279015023557097 
1.029999999999903, -1.427693606283439 
1.039999999999902, -0.9807020221878366 
1.0499999999999008, -0.5154533673593271 
1.0599999999998997, -0.2754998157421515 
1.0699999999998986, -0.17576164358331028 
1.0799999999998975, -0.13185169405540897 
1.0899999999998964, -0.11034864104511614 
1.0999999999998953, -0.09880249840339732 
1.1099999999998942, -0.09217676799802654 
1.119999999999893, -0.08823810711354442 
1.129999999999892, -0.08593072445242186 
1.1399999999998909, -0.08475686335772967 
1.1499999999998898, -0.08453178313524398 
1.1599999999998887, -0.08530452920063926 
1.1699999999998876, -0.08738607810194626 
1.1799999999998865, -0.09150880966860479 
1.1899999999998854, -0.09925241453867004 
1.1999999999998843, -0.11415543947107007 
1.2099999999998832, -0.14482784962007947 
1.219999999999882, -0.21429534442133794 
1.229999999999881, -0.38594137361586345 
1.2399999999998799, -0.7791316866344571 
1.2499999999998788, -1.3170382429495908 
1.2599999999998777, -1.659762064730792 
1.2699999999998766, -1.8012430445660859 
1.2799999999998755, -1.854285548040237 
1.2899999999998744, -1.874081303863321 
1.2999999999998733, -1.881376284589297 
1.3099999999998722, -1.8837677169210998 
1.319999999999871, -1.8840931520350703 
1.32999999999987, -1.88359427005987 
1.3399999999998689, -1.882973707460629 
1.3499999999998678, -1.8823360545498633 
1.3599999999998666, -1.8813763535038839 
1.3699999999998655, -1.880268240689416 
1.3799999999998644, -1.879667438919941 
1.3899999999998633, -1.8794776631536956 
1.3999999999998622, -1.878686621056835 
1.4099999999998611, -1.8757321382173155 
1.41999999999986, -1.8664717595709408 
1.429999999999859, -1.8346930780409838 
1.4399999999998578, -1.7049877154688446 
1.4499999999998567, -1.1814823044546805 
1.4599999999998556, -0.33964528006286326 
1.4699999999998545, 0.008628320488175122 
1.4799999999998534, 0.10581268441871443 
1.4899999999998523, 0.1385846905546927 
1.4999999999998512, 0.15202094450938913 
1.5099999999998501, 0.15827897442943514 
1.519999999999849, 0.1613860381938682 
1.529999999999848, 0.16291649329624538 
1.5399999999998468, 0.16356019366864546 
1.5499999999998457, 0.16362970305956198 
1.5599999999998446, 0.1632398004541145 
1.5699999999998435, 0.16236540194067825 
1.5799999999998424, 0.16084538818031902 
1.5899999999998413, 0.1584007421033162 
1.5999999999998402, 0.15506356195042967 
1.6099999999998391, 0.1548254816237107 
1.619999999999838, 0.18944724563902346 
1.629999999999837, 0.37826371364422295 
1.6399999999998358, 0.6451849092874516 
1.6499999999998347, 0.7472924874332123 
1.6599999999998336, 0.7745423022516164 
1.6699999999998325, 0.782845606073032 
1.6799999999998314, 0.7854667101853037 
1.6899999999998303, 0.7856431679680711 
1.6999999999998292, 0.783923529857349 
1.709999999999828, 0.7795133742246995 
1.719999999999827, 0.7702048533093037 
1.729999999999826, 0.752967298570203 
1.7399999999998248, 0.7290756676803029 
1.7499999999998237, 0.7088960115964797 
1.7599999999998226, 0.6993437414354429 
1.7699999999998215, 0.6968557891040026 
1.7799999999998204, 0.6968102600169688 
1.7899999999998193, 0.6971369308602102 
1.7999999999998182, 0.6971279502327578 
1.809999999999817, 0.6963984740311311 
1.819999999999816, 0.6943002926815863 
1.8299999999998149, 0.6889949434810995 
1.8399999999998138, 0.6737353520063065 
1.8499999999998127, 0.612509035067957 
1.8599999999998116, 0.15323730117684448 
1.8699999999998105, -2.074185135193622 
1.8799999999998094, -2.6410195631609112 
1.8899999999998083, -2.7068574345285996 
1.8999999999998072, -2.7213708168636614 
1.909999999999806, -2.7252787199832946 
1.919999999999805, -2.725695602092299 
1.9299999999998039, -2.7242403674246356 
1.9399999999998028, -2.7204950520742806 
1.9499999999998017, -2.7109793175116943 
1.9599999999998006, -2.6942104502063398 
1.9699999999997995, -2.6917572897439905 
1.9799999999997984, -2.6956126582185265 
1.9899999999997973, -2.6958644564055914 
1.9999999999997962, -2.6932822495831283 
2.0099999999998173, -2.6929866234274153 
2.0199999999998384, -2.7012361819248984 
2.0299999999998595, -2.70707530644152 
2.0399999999998806, -2.709173734854216 
2.0499999999999017, -2.709569074142723 
2.059999999999923, -2.708259990385103 
2.069999999999944, -2.7030208215007407 
2.079999999999965, -2.683544732340958 
2.089999999999986, -2.5804250541361964 
2.100000000000007, -1.5747664385458302 
2.1100000000000283, 0.4089447669227413 
2.1200000000000494, 0.6638557411029209 
2.1300000000000705, 0.7026776892402933 
2.1400000000000916, 0.7129511514501017 
2.1500000000001127, 0.7164195940917845 
2.160000000000134, 0.7176034614535705 
2.170000000000155, 0.7178694296714998 
2.180000000000176, 0.7178144752269046 
2.190000000000197, 0.7178897621685111 
2.2000000000002182, 0.7186617351978791 
2.2100000000002393, 0.7209045878083098 
2.2200000000002604, 0.7253097672525297 
2.2300000000002815, 0.7316614527982865 
2.2400000000003026, 0.738431879651148 
2.2500000000003237, 0.7439099667963089 
2.260000000000345, 0.747423325040699 
2.270000000000366, 0.7491556652675913 
2.280000000000387, 0.7494051986985079 
2.290000000000408, 0.7480461665821477 
2.3000000000004293, 0.7438003505916323 
2.3100000000004504, 0.7313600739515393 
2.3200000000004715, 0.6844168111352675 
2.3300000000004926, 0.4255320065331826 
2.3400000000005137, -0.4885054718877635 
2.3500000000005348, -1.0297264850080485 
2.360000000000556, -1.165119760301168 
2.370000000000577, -1.2023444177062408 
2.380000000000598, -1.214390865990611 
2.390000000000619, -1.2185217816732137 
2.4000000000006403, -1.2194739586349201 
2.4100000000006614, -1.2185274589567805 
2.4200000000006825, -1.2157178373457493 
2.4300000000007036, -1.210951084812395 
2.4400000000007247, -1.2076770001330512 
2.450000000000746, -1.2242520789178866 
2.460000000000767, -1.294620417433897 
2.470000000000788, -1.4070821918344758 
2.480000000000809, -1.5013690783769191 
2.49000000000083, -1.5597184308506908 
2.5000000000008513, -1.594195510162167 
2.5100000000008724, -1.615407495072001 
2.5200000000008935, -1.6288487625080112 
2.5300000000009146, -1.6372242973079856 
2.5400000000009357, -1.6420704217888038 
2.550000000000957, -1.6444635993641143 
2.560000000000978, -1.6452197857531892 
2.570000000000999, -1.644946168035234 
2.58000000000102, -1.6441133242631782 
2.5900000000010412, -1.6430432000101312 
2.6000000000010624, -1.6417707611597567 
2.6100000000010835, -1.6401842812729424 
2.6200000000011046, -1.6385305600585789 
2.6300000000011257, -1.6374640099386926 
2.6400000000011468, -1.63715737253756 
2.650000000001168, -1.6369068739701202 
2.660000000001189, -1.6357235749758547 
2.67000000000121, -1.6321962826518512 
2.680000000001231, -1.6229486995223872 
2.6900000000012523, -1.5986525570478582 
2.7000000000012734, -1.5348195946366185 
2.7100000000012945, -1.3812526851471998 
2.7200000000013156, -1.0971759574410425 
2.7300000000013367, -0.76443572796872 
2.740000000001358, -0.5218138140217653 
2.750000000001379, -0.38743212632724566 
2.7600000000014, -0.318148983700233 
2.770000000001421, -0.2815700360372207 
2.780000000001442, -0.26130223657354823 
2.7900000000014633, -0.24955382805377857 
2.8000000000014844, -0.2425252458725721 
2.8100000000015055, -0.23827762361243096 
2.8200000000015266, -0.23578100142316988 
2.8300000000015477, -0.23447841421317644 
2.840000000001569, -0.2340803950625645 
2.85000000000159, -0.2344695546455001 
2.860000000001611, -0.2356651077367602 
2.870000000001632, -0.23782997195193994 
2.8800000000016532, -0.24132383280753528 
2.8900000000016743, -0.24682989775305245 
2.9000000000016954, -0.25563092965597145 
2.9100000000017165, -0.2702237433923446 
2.9200000000017377, -0.29573193008966586 
2.9300000000017588, -0.34307082252561616 
2.94000000000178, -0.4341765845489694 
2.950000000001801, -0.5967938105488897 
2.960000000001822, -0.8067946595774463 
2.970000000001843, -0.96543173513882 
2.9800000000018643, -1.042075280496312 
2.9900000000018854, -1.0727752766232412 
3.0000000000019065, -1.084776786723659 
3.0100000000019276, -1.0894335581687615 
3.0200000000019487, -1.090897524196704 
3.03000000000197, -1.0906141850083089 
3.040000000001991, -1.0890050266173117 
3.050000000002012, -1.0863444857964963 
3.060000000002033, -1.084348305693875 
3.070000000002054, -1.090193413690336 
3.0800000000020753, -1.1201680485869976 
3.0900000000020964, -1.186102538304234 
3.1000000000021175, -1.2699111059519732 
3.1100000000021386, -1.3424108232102208 
3.1200000000021597, -1.3945875897484266 
3.130000000002181, -1.4306572712675059 
3.140000000002202, -1.4558787245775313 
3.150000000002223, -1.4735309846144269 
3.160000000002244, -1.4854310698881845 
3.1700000000022652, -1.492832662377852 
3.1800000000022863, -1.4969031678718356 
3.1900000000023074, -1.4987207658556214 
3.2000000000023285, -1.4991357474803073 
3.2100000000023496, -1.4987822256256014 
3.2200000000023707, -1.498189999325745 
3.230000000002392, -1.4977409353303972 
3.240000000002413, -1.4974744019441097 
3.250000000002434, -1.4972001622166817 
3.260000000002455, -1.496887126727193 
3.2700000000024763, -1.4967231508099332 
3.2800000000024974, -1.4967501876221547 
3.2900000000025185, -1.4966502003682307 
3.3000000000025396, -1.495913263536684 
3.3100000000025607, -1.4939392781824457 
3.3200000000025818, -1.489940053715921 
3.330000000002603, -1.482891503204253 
3.340000000002624, -1.471658179850667 
3.350000000002645, -1.455075305740609 
3.360000000002666, -1.431616030449838 
3.3700000000026873, -1.398593686251351 
3.3800000000027084, -1.351455189825536 
3.3900000000027295, -1.285346876058649 
3.4000000000027506, -1.2042658528627574 
3.4100000000027717, -1.132335974149255 
3.420000000002793, -1.0934914066484542 
3.430000000002814, -1.082687467108405 
3.440000000002835, -1.0830485418165474 
3.450000000002856, -1.0852552938829227 
3.460000000002877, -1.0866591732151298 
3.4700000000028983, -1.086808084638768 
3.4800000000029194, -1.0853980738444888 
3.4900000000029405, -1.0813741578978706 
3.5000000000029616, -1.071660561295149 
3.5100000000029827, -1.0478928573349533 
3.520000000003004, -0.9894329015645384 
3.530000000003025, -0.8626801099980217 
3.540000000003046, -0.6718751709885504 
3.550000000003067, -0.5000774199459614 
3.5600000000030882, -0.39415365886484877 
3.5700000000031094, -0.3368190261566189 
3.5800000000031305, -0.30538028313663523 
3.5900000000031516, -0.28715454674775603 
3.6000000000031727, -0.27596491401705164 
3.6100000000031938, -0.2687669844386781 
3.620000000003215, -0.263989304456143 
3.630000000003236, -0.26078684484181236 
3.640000000003257, -0.2587000193941963 
3.650000000003278, -0.2574939467319083 
3.6600000000032993, -0.2570837931847366 
3.6700000000033204, -0.2575079950470306 
3.6800000000033415, -0.25893686022666745 
3.6900000000033626, -0.26172013410132144 
3.7000000000033837, -0.2664951213281376 
3.710000000003405, -0.27440925692045826 
3.720000000003426, -0.28758159406864686 
3.730000000003447, -0.31009040328268667 
3.740000000003468, -0.3501273207455139 
3.750000000003489, -0.4244383931291008 
3.7600000000035103, -0.5644548543622514 
3.7700000000035314, -0.8060824580131017 
3.7800000000035525, -1.1144782982795038 
3.7900000000035736, -1.3537661380984005 
3.8000000000035947, -1.4717589535163618 
3.810000000003616, -1.517775130927844 
3.820000000003637, -1.5345972942522443 
3.830000000003658, -1.5406512273713644 
3.840000000003679, -1.5425611110846504 
3.8500000000037002, -1.5427124190693076 
3.8600000000037213, -1.542252172833494 
3.8700000000037424, -1.5422497979149914 
3.8800000000037635, -1.5435207647255331 
3.8900000000037847, -1.545745911285303 
3.9000000000038058, -1.547966561212522 
3.910000000003827, -1.5497009697306123 
3.920000000003848, -1.5509642833641177 
3.930000000003869, -1.5517990167776479 
3.94000000000389, -1.5520910690119187 
3.9500000000039113, -1.5516547980766648 
3.9600000000039324, -1.550316577273048 
3.9700000000039535, -1.5479321134925235 
3.9800000000039746, -1.544363803115128 
3.9900000000039957, -1.5394109119461572 
4.000000000004016, -1.5326866779174995 
4.010000000003993, -1.5234306188283426 
4.02000000000397, -1.510265583397977 
4.030000000003946, -1.4912824328621312 
4.040000000003923, -1.4661301015480805 
4.0500000000039, -1.4415048850279013 
4.0600000000038765, -1.4287173026802233 
4.070000000003853, -1.4273817364312356 
4.08000000000383, -1.4292836351669171 
4.090000000003807, -1.4304277343847898 
4.100000000003783, -1.4299686448454794 
4.11000000000376, -1.4270281158047924 
4.120000000003737, -1.418201659797777 
4.130000000003713, -1.3900575546924137 
4.14000000000369, -1.2810099919650053 
4.150000000003667, -0.7567012000579143 
4.1600000000036434, 0.8366677646395987 
4.17000000000362, 1.2278993907636908 
4.180000000003597, 1.2654074817099912 
4.1900000000035735, 1.2724903711527868 
4.20000000000355, 1.2738216350925107 
4.210000000003527, 1.2725649188934889 
4.220000000003504, 1.267571258004459 
4.23000000000348, 1.2518110096830344 
4.240000000003457, 1.203741143276911 
4.250000000003434, 1.1315351567626937 
4.26000000000341, 1.1179971611738684 
4.270000000003387, 1.1274796318796976 
4.280000000003364, 1.1330782881138728 
4.2900000000033405, 1.1351302438946491 
4.300000000003317, 1.1350469634601097 
4.310000000003294, 1.1327903599977855 
4.320000000003271, 1.1262934782374443 
4.330000000003247, 1.1093559111975517 
4.340000000003224, 1.092069785492167 
4.350000000003201, 1.2102325475084597 
4.360000000003177, 1.32221056697738 
4.370000000003154, 1.3498943861773136 
4.380000000003131, 1.3565568937529655 
4.390000000003107, 1.3578758717361892 
4.400000000003084, 1.3564367281765166 
4.410000000003061, 1.3498217747484476 
4.4200000000030375, 1.3172448731149067 
4.430000000003014, 1.0126090839092714 
4.440000000002991, -0.08361214040727075 
4.450000000002968, -0.3462300173103029 
4.460000000002944, -0.38142631575904173 
4.470000000002921, -0.39094511534362314 
4.480000000002898, -0.39547610626581414 
4.490000000002874, -0.3981469187287224 
4.500000000002851, -0.39976794628443846 
4.510000000002828, -0.40066310184686904 
4.520000000002804, -0.40097910889094546 
4.530000000002781, -0.4007679667726996 
4.540000000002758, -0.4000318953843209 
4.5500000000027345, -0.39877478370786756 
4.560000000002711, -0.3970680729371817 
4.570000000002688, -0.3950997659337178 
4.580000000002665, -0.39315240010053304 
4.590000000002641, -0.39150855928108175 
4.600000000002618, -0.3903633772410749 
4.610000000002595, -0.3898055088223334 
4.620000000002571, -0.3898419057906404 
4.630000000002548, -0.390412465187031 
4.640000000002525, -0.3913790617281578 
4.6500000000025015, -0.39252174349389696 
4.660000000002478, -0.3935835121341029 
4.670000000002455, -0.39435148437392203 
4.6800000000024315, -0.3947093822507378 
4.690000000002408, -0.3946261602609084 
4.700000000002385, -0.39410958490222175 
4.710000000002362, -0.3931670779490519 
4.720000000002338, -0.3917947114736589 
4.730000000002315, -0.3900101811867051 
4.740000000002292, -0.3879800003340753 
4.750000000002268, -0.38634813657854017 
4.760000000002245, -0.3862295385321264 
4.770000000002222, -0.373158816828529 
4.7800000000021985, 0.07852860323709758 
4.790000000002175, 1.7948962381407043 
4.800000000002152, 1.9176800282283526 
4.810000000002129, 1.9277930442055369 
4.820000000002105, 1.9288558181955895 
4.830000000002082, 1.926092172857779 
4.840000000002059, 1.9094914286997144 
4.850000000002035, 1.6897572058530972 
4.860000000002012, 0.7936570775947055 
4.870000000001989, 1.0062233088443604 
4.880000000001965, 1.0668775757771192 
4.890000000001942, 1.0805461558533147 
4.900000000001919, 1.0843450324843826 
4.9100000000018955, 1.0850405622250432 
4.920000000001872, 1.0841480483074772 
4.930000000001849, 1.0820173998340172 
4.940000000001826, 1.0796470828733666 
