t, s[1].omega / s[0].omega 
0, -0.9799975680694123 
0.009999999999999995, -0.9797199461523448 
0.019999999999999934, -0.9793498931295561 
0.029999999999999874, -0.9788308394547626 
0.04000000000000012, -0.9781124489003143 
0.050000000000000405, -0.977190012790299 
0.06000000000000069, -0.9761245098826923 
0.07000000000000098, -0.9750360383896185 
0.08000000000000126, -0.974071509487515 
0.09000000000000155, -0.9733562110155198 
0.10000000000000184, -0.9729573321181959 
0.11000000000000212, -0.9728861580217355 
0.12000000000000241, -0.9731261173319344 
0.130000000000002, -0.9736466982625582 
0.1400000000000009, -0.9743902103981246 
0.1499999999999998, -0.9752600039605376 
0.1599999999999987, -0.9761375777015381 
0.1699999999999976, -0.9769205240333338 
0.1799999999999965, -0.9775543596564337 
0.1899999999999954, -0.978040599861193 
0.1999999999999943, -0.9784177606805036 
0.2099999999999932, -0.9787242221171082 
0.2199999999999921, -0.9789624434335416 
0.229999999999991, -0.9790851440589406 
0.2399999999999899, -0.9790139784286216 
0.2499999999999888, -0.9786829097546874 
0.2599999999999877, -0.9780810967991428 
0.2699999999999866, -0.9772733342336917 
0.2799999999999855, -0.9763950775936939 
0.2899999999999844, -0.975624135201126 
0.2999999999999833, -0.9751279555449857 
0.3099999999999822, -0.975005851380291 
0.3199999999999811, -0.9752686467583302 
0.32999999999998, -0.9758693650393422 
0.3399999999999789, -0.9767445426626302 
0.3499999999999778, -0.9778258336362929 
0.35999999999997667, -0.9790298992866671 
0.36999999999997557, -0.9802598011076814 
0.37999999999997447, -0.9814287990592223 
0.38999999999997337, -0.9824878955211906 
0.39999999999997227, -0.9834350511516069 
0.40999999999997117, -0.9842981742277643 
0.41999999999997006, -0.9850997293872137 
0.42999999999996896, -0.9858219701682026 
0.43999999999996786, -0.9863944289697864 
0.44999999999996676, -0.9867170072851159 
0.45999999999996566, -0.9867101163491643 
0.46999999999996456, -0.9863607684701199 
0.47999999999996346, -0.9857406266342401 
0.48999999999996235, -0.9849996362582394 
0.49999999999996125, -0.9843419279388892 
0.5099999999999602, -0.9839743144403703 
0.519999999999959, -0.9840335645434225 
0.529999999999958, -0.9845422727181988 
0.5399999999999568, -0.9854333342621466 
0.5499999999999557, -0.9866106122703033 
0.5599999999999546, -0.987984412762794 
0.5699999999999535, -0.9894692911068628 
0.5799999999999524, -0.9909774611081261 
0.5899999999999513, -0.9924315995092025 
0.5999999999999502, -0.9937870235958479 
0.6099999999999491, -0.995040347285644 
0.619999999999948, -0.9962133006157442 
0.6299999999999469, -0.9973180780048724 
0.6399999999999458, -0.9983232782737661 
0.6499999999999447, -0.9991434643703997 
0.6599999999999436, -0.9996669826425715 
0.6699999999999425, -0.9998110250459111 
0.6799999999999414, -0.9995680575365318 
0.6899999999999403, -0.9990199105391662 
0.6999999999999392, -0.9983286639640905 
0.7099999999999381, -0.99771323377462 
0.719999999999937, -0.9973971231997083 
0.7299999999999359, -0.9975287020677873 
0.7399999999999348, -0.998129259747432 
0.7499999999999337, -0.9991190947876734 
0.7599999999999326, -1.0003879197583216 
0.7699999999999315, -1.0018377152211655 
0.7799999999999304, -1.0033808889830953 
0.7899999999999293, -1.0049305010188039 
0.7999999999999282, -1.0064106040927765 
0.8099999999999271, -1.0077775026601885 
0.819999999999926, -1.009027956508119 
0.8299999999999249, -1.0101825623049268 
0.8399999999999238, -1.0112512394493707 
0.8499999999999227, -1.0122006174789244 
0.8599999999999216, -1.0129462831142715 
0.8699999999999205, -1.0133827170600722 
0.8799999999999194, -1.0134374057702535 
0.8899999999999183, -1.013113835685767 
0.8999999999999172, -1.0125030981108218 
0.9099999999999161, -1.0117732323708695 
0.919999999999915, -1.0111409753942016 
0.9299999999999139, -1.0108125038803053 
0.9399999999999128, -1.0109065380629816 
0.9499999999999117, -1.011420864296849 
0.9599999999999106, -1.0122745899906782 
0.9699999999999095, -1.0133735458616004 
0.9799999999999084, -1.0146347890381215 
0.9899999999999073, -1.0159734717692832 
0.9999999999999062, -1.0172962052437309 
1.0099999999999052, -1.0185203119265949 
1.019999999999904, -1.0195999815008625 
1.029999999999903, -1.020534190721666 
1.039999999999902, -1.0213481394668986 
1.0499999999999008, -1.0220580343041485 
1.0599999999998997, -1.0226400749990814 
1.0699999999998986, -1.0230248777518365 
1.0799999999998975, -1.0231262556423317 
1.0899999999998964, -1.0228898071569368 
1.0999999999998953, -1.022331043265061 
1.1099999999998942, -1.0215462038886258 
1.119999999999893, -1.020699039062867 
1.129999999999892, -1.0199827891819913 
1.1399999999998909, -1.01955625511464 
1.1499999999998898, -1.019488033398368 
1.1599999999998887, -1.0197587788727192 
1.1699999999998876, -1.020312435926699 
1.1799999999998865, -1.0210926406937695 
1.1899999999998854, -1.0220339861074985 
1.1999999999998843, -1.0230424709275092 
1.2099999999998832, -1.0240056423752493 
1.219999999999882, -1.0248283591659166 
1.229999999999881, -1.0254633699119138 
1.2399999999998799, -1.0259163059826213 
1.2499999999998788, -1.0262232472380546 
1.2599999999998777, -1.0264134048716043 
1.2699999999998766, -1.0264786849853667 
1.2799999999998755, -1.0263694209366727 
1.2899999999998744, -1.0260211549564837 
1.2999999999998733, -1.0253976087950931 
1.3099999999998722, -1.0245244238411053 
1.319999999999871, -1.02349791031259 
1.32999999999987, -1.0224661646463926 
1.3399999999998689, -1.021583815400821 
1.3499999999998678, -1.0209580419115503 
1.3599999999998666, -1.020626586077735 
1.3699999999998655, -1.020584518331262 
1.3799999999998644, -1.0208180615274192 
1.3899999999998633, -1.0212991723657574 
1.3999999999998622, -1.0219546063826843 
1.4099999999998611, -1.0226603358294797 
1.41999999999986, -1.0232778289656075 
1.429999999999859, -1.023701681278347 
1.4399999999998578, -1.0238879854372336 
1.4499999999998567, -1.0238540809354573 
1.4599999999998556, -1.0236516593301854 
1.4699999999998545, -1.0233261294688787 
1.4799999999998534, -1.022885444801382 
1.4899999999998523, -1.0222968011323004 
1.4999999999998512, -1.021512627787294 
1.5099999999998501, -1.0205100823110729 
1.519999999999849, -1.0193210609166745 
1.529999999999848, -1.018037128797358 
1.5399999999998468, -1.0167857352010148 
1.5499999999998457, -1.015686892952964 
1.5599999999998446, -1.0148187526197443 
1.5699999999998435, -1.014220536981338 
1.5799999999998424, -1.0139189447918222 
1.5899999999998413, -1.0139306905799284 
1.5999999999998402, -1.0142267846235946 
1.6099999999998391, -1.0147033160087364 
1.619999999999838, -1.0152021271296006 
1.629999999999837, -1.0155662353947483 
1.6399999999998358, -1.0156879773928948 
1.6499999999998347, -1.0155312873703166 
1.6599999999998336, -1.015127156540905 
1.6699999999998325, -1.0145429571074671 
1.6799999999998314, -1.0138381634280695 
1.6899999999998303, -1.0130321100415853 
1.6999999999998292, -1.0121019775335756 
1.709999999999828, -1.0110094579306823 
1.719999999999827, -1.0097388382426682 
1.729999999999826, -1.0083243964570563 
1.7399999999998248, -1.0068523321914418 
1.7499999999998237, -1.0054356521603882 
1.7599999999998226, -1.0041767921412206 
1.7699999999998215, -1.0031469258486896 
1.7799999999998204, -1.0023969185736008 
1.7899999999998193, -1.0019730880590316 
1.7999999999998182, -1.001898691908433 
1.809999999999817, -1.0021293223809118 
1.819999999999816, -1.002536108214293 
1.8299999999998149, -1.002943886823917 
1.8399999999998138, -1.003191866734412 
1.8499999999998127, -1.0031773155746257 
1.8599999999998116, -1.0028732339712403 
1.8699999999998105, -1.0023209549824004 
1.8799999999998094, -1.00159658500787 
1.8899999999998083, -1.0007647433582634 
1.8999999999998072, -0.9998467858461805 
1.909999999999806, -0.9988207402137339 
1.919999999999805, -0.9976493900813186 
1.9299999999998039, -0.9963183936854895 
1.9399999999998028, -0.9948627783391318 
1.9499999999998017, -0.9933679205459258 
1.9599999999998006, -0.9919444366186554 
1.9699999999997995, -0.9906923128551106 
1.9799999999997984, -0.9896816436839059 
1.9899999999997973, -0.9889623267980593 
1.9999999999997962, -0.9885768577834039 
2.0099999999998173, -0.9885417977225416 
2.0199999999998384, -0.9888077391407707 
2.0299999999998595, -0.9892468054414124 
2.0399999999998806, -0.9896903065499434 
2.0499999999999017, -0.9899861576002532 
2.059999999999923, -0.9900401900665576 
2.069999999999944, -0.9898320222607937 
2.079999999999965, -0.9894053471807768 
2.089999999999986, -0.9888330680149334 
2.100000000000007, -0.9881722905766539 
2.1100000000000283, -0.9874351499725845 
2.1200000000000494, -0.9865909255565903 
2.1300000000000705, -0.985595686504149 
2.1400000000000916, -0.9844315613408428 
2.1500000000001127, -0.9831339995787106 
2.160000000000134, -0.9817936170248194 
2.170000000000155, -0.9805312595010849 
2.180000000000176, -0.9794580001552383 
2.190000000000197, -0.9786464040810909 
2.2000000000002182, -0.9781334494923992 
2.2100000000002393, -0.9779394682355875 
2.2200000000002604, -0.9780667641296767 
2.2300000000002815, -0.9784722048344919 
2.2400000000003026, -0.9790504290267835 
2.2500000000003237, -0.9796570947316919 
2.260000000000345, -0.9801572426781103 
2.270000000000366, -0.9804659524076964 
2.280000000000387, -0.9805649084421694 
2.290000000000408, -0.9804919162747231 
2.3000000000004293, -0.9803067946979154 
2.3100000000004504, -0.9800496161865968 
2.3200000000004715, -0.9797145922783065 
2.3300000000004926, -0.9792540715801625 
2.3400000000005137, -0.9786104198257544 
2.3500000000005348, -0.9777578976327514 
2.360000000000556, -0.9767316915522363 
2.370000000000577, -0.9756316506740415 
2.380000000000598, -0.9745993627421013 
2.390000000000619, -0.9737736452842739 
2.4000000000006403, -0.9732455549796839 
2.4100000000006614, -0.9730449755684987 
2.4200000000006825, -0.9731631845205173 
2.4300000000007036, -0.9735759042617737 
2.4400000000007247, -0.9742383768272896 
2.450000000000746, -0.975068381352336 
2.460000000000767, -0.9759514080490993 
2.470000000000788, -0.9767738616302669 
2.480000000000809, -0.9774602843793201 
2.49000000000083, -0.9779915958997483 
2.5000000000008513, -0.9783960441270914 
2.5100000000008724, -0.9787171276038238 
2.5200000000008935, -0.9789746094023618 
2.5300000000009146, -0.9791402797514005 
2.5400000000009357, -0.9791439396009272 
2.550000000000957, -0.9789095034943163 
2.560000000000978, -0.9784013476233332 
2.570000000000999, -0.9776546737166518 
2.58000000000102, -0.9767797780244265 
2.5900000000010412, -0.975942794373806 
2.6000000000010624, -0.9753217041802665 
2.6100000000010835, -0.9750462579749113 
2.6200000000011046, -0.9751593095145334 
2.6300000000011257, -0.9756306931174246 
2.6400000000011468, -0.9764006336737099 
2.650000000001168, -0.9774039905061089 
2.660000000001189, -0.9785643422065122 
2.67000000000121, -0.9797878578421699 
2.680000000001231, -0.980979897083091 
2.6900000000012523, -0.9820743732134203 
2.7000000000012734, -0.9830518664525109 
2.7100000000012945, -0.9839324859592568 
2.7200000000013156, -0.9847456853854218 
2.7300000000013367, -0.9854926168251239 
2.740000000001358, -0.9861228012530481 
2.750000000001379, -0.9865430607428778 
2.7600000000014, -0.9866599516450293 
2.770000000001421, -0.9864313510122186 
2.780000000001442, -0.9858962092096736 
2.7900000000014633, -0.9851761173492596 
2.8000000000014844, -0.9844583559943807 
2.8100000000015055, -0.9839559970343366 
2.8200000000015266, -0.9838396759454392 
2.8300000000015477, -0.9841758075857102 
2.840000000001569, -0.9849249369932386 
2.85000000000159, -0.9859962127716771 
2.860000000001611, -0.9872969667322966 
2.870000000001632, -0.988741893108358 
2.8800000000016532, -0.9902436732609774 
2.8900000000016743, -0.9917181163086394 
2.9000000000016954, -0.9931056881434095 
2.9100000000017165, -0.9943877002535529 
2.9200000000017377, -0.995579786208183 
2.9300000000017588, -0.9967025638035683 
2.94000000000178, -0.9977446259675892 
2.950000000001801, -0.9986405127983708 
2.960000000001822, -0.9992833568834081 
2.970000000001843, -0.9995727583009779 
2.9800000000018643, -0.9994688957351799 
2.9900000000018854, -0.9990194903542354 
3.0000000000019065, -0.9983575489145606 
3.0100000000019276, -0.9976840599746837 
3.0200000000019487, -0.9972288113938432 
3.03000000000197, -0.9971775823277893 
3.040000000001991, -0.9976012988901706 
3.050000000002012, -0.998451402736323 
3.060000000002033, -0.9996220283412676 
3.070000000002054, -1.001009227702197 
3.0800000000020753, -1.0025233378842957 
3.0900000000020964, -1.004077187022696 
3.1000000000021175, -1.0055880729031306 
3.1100000000021386, -1.0069977533623307 
3.1200000000021597, -1.008288082742943 
3.130000000002181, -1.0094740289203248 
3.140000000002202, -1.0105741670062716 
3.150000000002223, -1.011574546788653 
3.160000000002244, -1.012408962064208 
3.1700000000022652, -1.012974281638154 
3.1800000000022863, -1.013178832249194 
3.1900000000023074, -1.0129937751320308 
3.2000000000023285, -1.0124768989752782 
3.2100000000023496, -1.0117688048124402 
3.2200000000023707, -1.0110725134025456 
3.230000000002392, -1.0106073490483802 
3.240000000002413, -1.010533515621613 
3.250000000002434, -1.0108941312506343 
3.260000000002455, -1.0116302573141724 
3.2700000000024763, -1.0126468972095268 
3.2800000000024974, -1.0138570764932968 
3.2900000000025185, -1.015178682358751 
3.3000000000025396, -1.016520671705443 
3.3100000000025607, -1.017792990360816 
3.3200000000025818, -1.018933447043051 
3.330000000002603, -1.0199246775529822 
3.340000000002624, -1.0207854455345986 
3.350000000002645, -1.021539745635101 
3.360000000002666, -1.022181419833068 
3.3700000000026873, -1.0226567896414038 
3.3800000000027084, -1.0228805769631126 
3.3900000000027295, -1.022780221674187 
3.4000000000027506, -1.0223414372199435 
3.4100000000027717, -1.0216298220262772 
3.420000000002793, -1.0207862491730164 
3.430000000002814, -1.019999315387755 
3.440000000002835, -1.0194499036895728 
3.450000000002856, -1.0192454693037878 
3.460000000002877, -1.0193960913286613 
3.4700000000028983, -1.0198529276471542 
3.4800000000029194, -1.0205579291586961 
3.4900000000029405, -1.021451754645046 
3.5000000000029616, -1.0224523715423977 
3.5100000000029827, -1.023451335611069 
3.520000000003004, -1.0243426194079226 
3.530000000003025, -1.0250585434630255 
3.540000000003046, -1.0255857236772234 
3.550000000003067, -1.0259524302532852 
3.5600000000030882, -1.0261947559872628 
3.5700000000031094, -1.0263208436921438 
3.5800000000031305, -1.0262950209916004 
3.5900000000031516, -1.0260533890530805 
3.6000000000031727, -1.0255435244623883 
3.6100000000031938, -1.0247646052812 
3.620000000003215, -1.0237865626409361 
3.630000000003236, -1.0227418905888073 
3.640000000003257, -1.0217899622292363 
3.650000000003278, -1.0210622455716765 
3.6600000000032993, -1.0206227373372074 
3.6700000000033204, -1.0204775875047498 
3.6800000000033415, -1.0206136443474674 
3.6900000000033626, -1.0210110720018932 
3.7000000000033837, -1.0216171263451483 
3.710000000003405, -1.0223255536319371 
3.720000000003426, -1.0229981286394765 
3.730000000003447, -1.0235122973068125 
3.740000000003468, -1.0237990781422461 
3.750000000003489, -1.023854053446739 
3.7600000000035103, -1.0237199542200843 
3.7700000000035314, -1.0234489619964857 
3.7800000000035525, -1.0230651400063262 
3.7900000000035736, -1.022549258067926 
3.8000000000035947, -1.0218546134807476 
3.810000000003616, -1.0209440645249814 
3.820000000003637, -1.019826248767354 
3.830000000003658, -1.018571224858044 
3.840000000003679, -1.0172975265734054 
3.8500000000037002, -1.0161340338230433 
3.8600000000037213, -1.0151774715811004 
3.8700000000037424, -1.0144791564136089 
3.8800000000037635, -1.0140672932526809 
3.8900000000037847, -1.0139642671384719 
3.9000000000038058, -1.014163698782381 
3.910000000003827, -1.0145916831744313 
3.920000000003848, -1.0151061240783332 
3.930000000003869, -1.0155433445644162 
3.94000000000389, -1.0157728804393091 
3.9500000000039113, -1.015730260506412 
3.9600000000039324, -1.0154228380831742 
3.9700000000039535, -1.0149086745652558 
3.9800000000039746, -1.0142549117701858 
3.9900000000039957, -1.0134979580750654 
4.000000000004016, -1.012628990191978 
4.010000000003993, -1.0116110010215071 
4.02000000000397, -1.0104151672377886 
4.030000000003946, -1.0090547525455837 
4.040000000003923, -1.0075978044767382 
4.0500000000039, -1.0061516783953055 
4.0600000000038765, -1.004827313122386 
4.070000000003853, -1.0037083748519486 
4.08000000000383, -1.002850612723851 
4.090000000003807, -1.0023012873585715 
4.100000000003783, -1.0020969154566768 
4.11000000000376, -1.002224002164262 
4.120000000003737, -1.0025850005077106 
4.130000000003713, -1.00301604545577 
4.14000000000369, -1.0033445570660313 
4.150000000003667, -1.003442161804712 
4.1600000000036434, -1.0032521959535046 
4.17000000000362, -1.0027922065003436 
4.180000000003597, -1.002130027998358 
4.1900000000035735, -1.0013395485643233 
4.20000000000355, -1.0004603577162698 
4.210000000003527, -0.9994848565031761 
4.220000000003504, -0.9983771065676839 
4.23000000000348, -0.9971097435827767 
4.240000000003457, -0.9956972101995584 
4.250000000003434, -0.994207371187764 
4.26000000000341, -0.99274552231356 
4.270000000003387, -0.9914196852386523 
4.280000000003364, -0.9903117463655493 
4.2900000000033405, -0.9894769605829543 
4.300000000003317, -0.9889605606243441 
4.310000000003294, -0.9887934637504655 
4.320000000003271, -0.9889557505250087 
4.330000000003247, -0.9893478666031174 
4.340000000003224, -0.9898101448107433 
4.350000000003201, -0.9901779012830623 
4.360000000003177, -0.9903314567004798 
4.370000000003154, -0.9902217616955656 
4.380000000003131, -0.989870733525209 
4.390000000003107, -0.9893453442650516 
4.400000000003084, -0.9887135937931495 
4.410000000003061, -0.9880064476892336 
4.4200000000030375, -0.9872073804870638 
4.430000000003014, -0.9862729825868307 
4.440000000002991, -0.9851711709513715 
4.450000000002968, -0.9839152684430333 
4.460000000002944, -0.9825763577836331 
4.470000000002921, -0.98126800072079 
4.480000000002898, -0.980109577164008 
4.490000000002874, -0.9791897720874461 
4.500000000002851, -0.9785570482868821 
4.510000000002828, -0.9782367207245002 
4.520000000002804, -0.9782405691698577 
4.530000000002781, -0.9785465220429372 
4.540000000002758, -0.9790724327692985 
4.5500000000027345, -0.9796834409388213 
4.560000000002711, -0.9802348834089303 
4.570000000002688, -0.9806190938653246 
4.580000000002665, -0.9807919348611538 
4.590000000002641, -0.980772697389623 
4.600000000002618, -0.980617943657981 
4.610000000002595, -0.9803799405817213 
4.620000000002571, -0.9800720235290269 
4.630000000002548, -0.9796603544005125 
4.640000000002525, -0.9790864637735412 
4.6500000000025015, -0.9783080538783899 
4.660000000002478, -0.9773351715996539 
4.670000000002455, -0.9762441629809491 
4.6800000000024315, -0.9751647115064636 
4.690000000002408, -0.9742422160501742 
4.700000000002385, -0.9735893443994229 
4.710000000002362, -0.9732579477109485 
4.720000000002338, -0.9732506584191365 
4.730000000002315, -0.9735486360960026 
4.740000000002292, -0.9741174895333777 
4.750000000002268, -0.9748903816365548 
4.760000000002245, -0.9757619617029503 
4.770000000002222, -0.9766129976870941 
4.7800000000021985, -0.9773496432140132 
4.790000000002175, -0.9779307288470683 
4.800000000002152, -0.9783692676854484 
4.810000000002129, -0.9787078657136712 
4.820000000002105, -0.9789798298626222 
4.830000000002082, -0.9791768619796946 
4.840000000002059, -0.9792424462827249 
4.850000000002035, -0.979097666057368 
4.860000000002012, -0.9786868232815884 
4.870000000001989, -0.9780162384728402 
4.880000000001965, -0.9771684326628405 
4.890000000001942, -0.9762916333881886 
4.900000000001919, -0.975565328316023 
4.9100000000018955, -0.9751434902244481 
4.920000000001872, -0.9751027636935253 
4.930000000001849, -0.9754362063343427 
