t, s[1].omega / s[0].omega 
0, -1.1099974891381141 
0.009999999999999995, -1.1096272442369473 
0.019999999999999934, -1.109015990017347 
0.029999999999999874, -1.1081560631788294 
0.04000000000000012, -1.107054256978653 
0.050000000000000405, -1.1057473402363445 
0.06000000000000069, -1.1043074924106924 
0.07000000000000098, -1.1028339548852584 
0.08000000000000126, -1.101434216968021 
0.09000000000000155, -1.1002088513575488 
0.10000000000000184, -1.0992497616503356 
0.11000000000000212, -1.098633214964996 
0.12000000000000241, -1.098383438962268 
0.130000000000002, -1.0984310212897754 
0.1400000000000009, -1.098619682637156 
0.1499999999999998, -1.0987611889421731 
0.1599999999999987, -1.0986852655712305 
0.1699999999999976, -1.0982578841350532 
0.1799999999999965, -1.0973861903387738 
0.1899999999999954, -1.0960287293989877 
0.1999999999999943, -1.0942028821115066 
0.2099999999999932, -1.0919709677595775 
0.2199999999999921, -1.0894075072887417 
0.229999999999991, -1.0865721243085795 
0.2399999999999899, -1.0835057079627932 
0.2499999999999888, -1.0802460506639444 
0.2599999999999877, -1.0768496610663152 
0.2699999999999866, -1.0734127566222174 
0.2799999999999855, -1.070092357310049 
0.2899999999999844, -1.0671179920158809 
0.2999999999999833, -1.064755832340694 
0.3099999999999822, -1.0631946651876292 
0.3199999999999811, -1.0624173598507705 
0.32999999999998, -1.0621903593166384 
0.3399999999999789, -1.0621874198582892 
0.3499999999999778, -1.062113518318064 
0.35999999999997667, -1.0617364486078262 
0.36999999999997557, -1.060855149255786 
0.37999999999997447, -1.059272250256087 
0.38999999999997337, -1.0568133571707352 
0.39999999999997227, -1.0533914298835612 
0.40999999999997117, -1.0490615972753417 
0.41999999999997006, -1.0440020522111277 
0.42999999999996896, -1.0384297834805403 
0.43999999999996786, -1.032526305395892 
0.44999999999996676, -1.0264227083158406 
0.45999999999996566, -1.0202347641534604 
0.46999999999996456, -1.0141188974382984 
0.47999999999996346, -1.008324435022247 
0.48999999999996235, -1.0032083257658306 
0.49999999999996125, -0.999160771166767 
0.5099999999999602, -0.9964299740954612 
0.519999999999959, -0.9949600595547967 
0.529999999999958, -0.994406559227771 
0.5399999999999568, -0.9943200192282765 
0.5499999999999557, -0.9943163341915164 
0.5599999999999546, -0.9941216889799941 
0.5699999999999535, -0.9935285224879523 
0.5799999999999524, -0.9923405320319562 
0.5899999999999513, -0.9903577751049996 
0.5999999999999502, -0.9874229549631192 
0.6099999999999491, -0.9835067187370841 
0.619999999999948, -0.9787548064575979 
0.6299999999999469, -0.9734339377137677 
0.6399999999999458, -0.9678177333160368 
0.6499999999999447, -0.962109176537717 
0.6599999999999436, -0.9564370645482718 
0.6699999999999425, -0.9508970479732406 
0.6799999999999414, -0.9455991147736652 
0.6899999999999403, -0.9407007469360602 
0.6999999999999392, -0.9364125314421576 
0.7099999999999381, -0.9329600476822606 
0.719999999999937, -0.9304984899700438 
0.7299999999999359, -0.9290217892725368 
0.7399999999999348, -0.928340959893435 
0.7499999999999337, -0.92815786142809 
0.7599999999999326, -0.9281715665919904 
0.7699999999999315, -0.9281406367795333 
0.7799999999999304, -0.9278871435169223 
0.7899999999999293, -0.9272771555260662 
0.7999999999999282, -0.9262139866670231 
0.8099999999999271, -0.9246565359959202 
0.819999999999926, -0.9226438515122766 
0.8299999999999249, -0.9202902602933072 
0.8399999999999238, -0.9177398584254524 
0.8499999999999227, -0.9151126509219578 
0.8599999999999216, -0.9124799952633131 
0.8699999999999205, -0.9098748753188695 
0.8799999999999194, -0.9073183952240926 
0.8899999999999183, -0.9048431880943438 
0.8999999999999172, -0.902504260659974 
0.9099999999999161, -0.9003771318023404 
0.919999999999915, -0.8985478804249631 
0.9299999999999139, -0.897098752653138 
0.9399999999999128, -0.8960891326633129 
0.9499999999999117, -0.8955328075042462 
0.9599999999999106, -0.8953814866818647 
0.9699999999999095, -0.8955290261431106 
0.9799999999999084, -0.8958383137216279 
0.9899999999999073, -0.8961753092465699 
0.9999999999999062, -0.8964338150084771 
1.0099999999999052, -0.8965476500730208 
1.019999999999904, -0.8964945385028766 
1.029999999999903, -0.8962918079298279 
1.039999999999902, -0.8959799533694313 
1.0499999999999008, -0.8955968847627951 
1.0599999999998997, -0.8951559875647135 
1.0699999999998986, -0.8946411456277155 
1.0799999999998975, -0.8940211804112075 
1.0899999999998964, -0.8932743251585868 
1.0999999999998953, -0.8924091157459275 
1.1099999999998942, -0.8914740421860413 
1.119999999999893, -0.8905563267493151 
1.129999999999892, -0.8897710483571334 
1.1399999999998909, -0.8892395823655483 
1.1499999999998898, -0.8890608922968706 
1.1599999999998887, -0.889288080635781 
1.1699999999998876, -0.889921960124609 
1.1799999999998865, -0.8909207877768074 
1.1899999999998854, -0.8922161719669948 
1.1999999999998843, -0.8937284976259597 
1.2099999999998832, -0.8953815182945503 
1.219999999999882, -0.8971155180446727 
1.229999999999881, -0.8988945422643757 
1.2399999999998799, -0.9007020791407113 
1.2499999999998788, -0.9025231124445657 
1.2599999999998777, -0.9043178542915964 
1.2699999999998766, -0.9060017004852353 
1.2799999999998755, -0.9074507707150838 
1.2899999999998744, -0.9085407524546364 
1.2999999999998733, -0.9091973163439002 
1.3099999999998722, -0.9094212246250623 
1.319999999999871, -0.909277962569174 
1.32999999999987, -0.9088773383197793 
1.3399999999998689, -0.9083698935294974 
1.3499999999998678, -0.9079618065007257 
1.3599999999998666, -0.9079237206144534 
1.3699999999998655, -0.9085580334136456 
1.3799999999998644, -0.9101136938112981 
1.3899999999998633, -0.9126947632741039 
1.3999999999998622, -0.9162345942829153 
1.4099999999998611, -0.920552909926631 
1.41999999999986, -0.925442959957229 
1.429999999999859, -0.9307313532046063 
1.4399999999998578, -0.9362929275209435 
1.4499999999998567, -0.9420291225162257 
1.4599999999998556, -0.9478215308772662 
1.4699999999998545, -0.9534767934786279 
1.4799999999998534, -0.958699374331057 
1.4899999999998523, -0.963142779910102 
1.4999999999998512, -0.9665415670558513 
1.5099999999998501, -0.9688269295711704 
1.519999999999849, -0.9701225448825845 
1.529999999999848, -0.9706454304643153 
1.5399999999998468, -0.9706158204984439 
1.5499999999998457, -0.9702345913951262 
1.5599999999998446, -0.9697250443734381 
1.5699999999998435, -0.9694106664315022 
1.5799999999998424, -0.9697729986476873 
1.5899999999998413, -0.9713953142294491 
1.5999999999998402, -0.9747422786505296 
1.6099999999998391, -0.9799121862750004 
1.619999999999838, -0.9865988190779245 
1.629999999999837, -0.9942916158366073 
1.6399999999998358, -1.0025075615137244 
1.6499999999998347, -1.010893656462421 
1.6599999999998336, -1.019201916826932 
1.6699999999998325, -1.027206129523387 
1.6799999999998314, -1.0346231275328206 
1.6899999999998303, -1.0410973178064693 
1.6999999999998292, -1.0462909850769848 
1.709999999999828, -1.0500361931835132 
1.719999999999827, -1.052411629695292 
1.729999999999826, -1.053672369749429 
1.7399999999998248, -1.054117498345654 
1.7499999999998237, -1.0540102895621044 
1.7599999999998226, -1.0535834196496359 
1.7699999999998215, -1.0531027259466825 
1.7799999999998204, -1.05293626313179 
1.7899999999998193, -1.05353989902631 
1.7999999999998182, -1.055289733349302 
1.809999999999817, -1.0582625011608742 
1.819999999999816, -1.0621969879170987 
1.8299999999998149, -1.0666778345040526 
1.8399999999998138, -1.0713384547909803 
1.8499999999998127, -1.0759391938827298 
1.8599999999998116, -1.0803464703862953 
1.8699999999998105, -1.0844821588263784 
1.8799999999998094, -1.0882764362896662 
1.8899999999998083, -1.0916352686197992 
1.8999999999998072, -1.0944365928581008 
1.909999999999806, -1.0965655774855534 
1.919999999999805, -1.0979696624256525 
1.9299999999998039, -1.0986879099818159 
1.9399999999998028, -1.0988335814899848 
1.9499999999998017, -1.0985591343319165 
1.9599999999998006, -1.0980422717176812 
1.9699999999997995, -1.0974956440720542 
1.9799999999997984, -1.0971621962677767 
1.9899999999997973, -1.0972553649000703 
1.9999999999997962, -1.0978689356679605 
2.0099999999998173, -1.0989468799045112 
2.0199999999998384, -1.1003449995734715 
2.0299999999998595, -1.1019100290523394 
2.0399999999998806, -1.1035129044694525 
2.0499999999999017, -1.1050491082323177 
2.059999999999923, -1.1064384897556003 
2.069999999999944, -1.1076295432622658 
2.079999999999965, -1.1085976028392606 
2.089999999999986, -1.1093325625638308 
2.100000000000007, -1.1098222678520524 
2.1100000000000283, -1.110043262415158 
2.1200000000000494, -1.1099672283619393 
2.1300000000000705, -1.1095798229715106 
2.1400000000000916, -1.1088993175886745 
2.1500000000001127, -1.107985774537037 
2.160000000000134, -1.106939699558552 
2.170000000000155, -1.10588830535039 
2.180000000000176, -1.1049566955368364 
2.190000000000197, -1.1042373653876507 
2.2000000000002182, -1.1037822039866079 
2.2100000000002393, -1.103613017977628 
2.2200000000002604, -1.103718242410611 
2.2300000000002815, -1.1040316856473735 
2.2400000000003026, -1.1044297521163213 
2.2500000000003237, -1.1047636062421822 
2.260000000000345, -1.1048986934416605 
2.270000000000366, -1.104736959852556 
2.280000000000387, -1.1042248656515423 
2.290000000000408, -1.1033545565595886 
2.3000000000004293, -1.1021544435976476 
2.3100000000004504, -1.1006676100310546 
2.3200000000004715, -1.0989302708590272 
2.3300000000004926, -1.0969651585152151 
2.3400000000005137, -1.0947918531300573 
2.3500000000005348, -1.0924437836991228 
2.360000000000556, -1.0899805868029506 
2.370000000000577, -1.0874930834013727 
2.380000000000598, -1.0851076019991128 
2.390000000000619, -1.0829908280581566 
2.4000000000006403, -1.0813302088127112 
2.4100000000006614, -1.0802597151930131 
2.4200000000006825, -1.0797655210990729 
2.4300000000007036, -1.0796682049216917 
2.4400000000007247, -1.0797067329941157 
2.450000000000746, -1.0796329032216785 
2.460000000000767, -1.0792424483233212 
2.470000000000788, -1.078360805786677 
2.480000000000809, -1.0768360448728314 
2.49000000000083, -1.0745658919896852 
2.5000000000008513, -1.0715400006652227 
2.5100000000008724, -1.0678491183240928 
2.5200000000008935, -1.0636399325255077 
2.5300000000009146, -1.059052838068079 
2.5400000000009357, -1.054191487598773 
2.550000000000957, -1.0491349362585982 
2.560000000000978, -1.043975062299841 
2.570000000000999, -1.0388625107074165 
2.58000000000102, -1.0340467650091507 
2.5900000000010412, -1.0298759588278006 
2.6000000000010624, -1.0267029655993807 
2.6100000000010835, -1.024703963979995 
2.6200000000011046, -1.0237503429676278 
2.6300000000011257, -1.023475526773344 
2.6400000000011468, -1.0234661960915432 
2.650000000001168, -1.0233921681239344 
2.660000000001189, -1.0230122152775136 
2.67000000000121, -1.0221191574061412 
2.680000000001231, -1.020497733883102 
2.6900000000012523, -1.0179374603671552 
2.7000000000012734, -1.0143075675147615 
2.7100000000012945, -1.0096429978637502 
2.7200000000013156, -1.004151730558109 
2.7300000000013367, -0.9981206858947805 
2.740000000001358, -0.9918051846166017 
2.750000000001379, -0.9853851190974551 
2.7600000000014, -0.9789902963013766 
2.770000000001421, -0.9727551418724708 
2.780000000001442, -0.9668698444551422 
2.7900000000014633, -0.9616035690014766 
2.8000000000014844, -0.9572696165083988 
2.8100000000015055, -0.954114701902052 
2.8200000000015266, -0.9521815015318437 
2.8300000000015477, -0.9512594455997807 
2.840000000001569, -0.950979585309895 
2.85000000000159, -0.950966197052181 
2.860000000001611, -0.9509253979674362 
2.870000000001632, -0.9506460380348687 
2.8800000000016532, -0.9499623748145976 
2.8900000000016743, -0.9487305037626914 
2.9000000000016954, -0.9468443732640738 
2.9100000000017165, -0.9442830956835733 
2.9200000000017377, -0.9411433788631381 
2.9300000000017588, -0.9376103623065216 
2.94000000000178, -0.9338809349059417 
2.950000000001801, -0.9301017217895404 
2.960000000001822, -0.9263574740767233 
2.970000000001843, -0.9226961767940738 
2.9800000000018643, -0.9191619059897533 
2.9900000000018854, -0.9158177780109721 
3.0000000000019065, -0.9127548077642069 
3.0100000000019276, -0.9100876337662264 
3.0200000000019487, -0.907935462918727 
3.03000000000197, -0.906385782085508 
3.040000000001991, -0.905450795921805 
3.050000000002012, -0.9050444318086697 
3.060000000002033, -0.90500214164111 
3.070000000002054, -0.9051313771573379 
3.0800000000020753, -0.9052577564022487 
3.0900000000020964, -0.905246855922799 
3.1000000000021175, -0.9050088950261979 
3.1100000000021386, -0.90450168715492 
3.1200000000021597, -0.9037345788064254 
3.130000000002181, -0.9027617215488586 
3.140000000002202, -0.9016567152019794 
3.150000000002223, -0.9004799665730662 
3.160000000002244, -0.8992595713878548 
3.1700000000022652, -0.8979952769976747 
3.1800000000022863, -0.8966788602961053 
3.1900000000023074, -0.8953171324565012 
3.2000000000023285, -0.8939464715056487 
3.2100000000023496, -0.8926345442200532 
3.2200000000023707, -0.8914698963446481 
3.230000000002392, -0.890543182591581 
3.240000000002413, -0.8899271941502194 
3.250000000002434, -0.8896633279549835 
3.260000000002455, -0.8897565446707845 
3.2700000000024763, -0.8901755201969086 
3.2800000000024974, -0.8908567083642499 
3.2900000000025185, -0.8917151623234887 
3.3000000000025396, -0.8926625003772999 
3.3100000000025607, -0.8936261898579426 
3.3200000000025818, -0.8945624684760093 
3.330000000002603, -0.8954578647369444 
3.340000000002624, -0.8963175653400848 
3.350000000002645, -0.8971434738615123 
3.360000000002666, -0.8979115947094737 
3.3700000000026873, -0.8985629349723132 
3.3800000000027084, -0.8990179847412367 
3.3900000000027295, -0.899209518814992 
3.4000000000027506, -0.8991128103722682 
3.4100000000027717, -0.8987564645662582 
3.420000000002793, -0.8982183350473191 
3.430000000002814, -0.897621524937402 
3.440000000002835, -0.8971339719411497 
3.450000000002856, -0.8969576733282952 
3.460000000002877, -0.8972915345299193 
3.4700000000028983, -0.898274571799037 
3.4800000000029194, -0.8999442593082714 
3.4900000000029405, -0.9022401179397634 
3.5000000000029616, -0.9050450584367689 
3.5100000000029827, -0.908232320596585 
3.520000000003004, -0.9116955898799766 
3.530000000003025, -0.9153590611445301 
3.540000000003046, -0.919170500692611 
3.550000000003067, -0.9230779475856761 
3.5600000000030882, -0.9269927680913612 
3.5700000000031094, -0.9307547580779069 
3.5800000000031305, -0.9341324397294539 
3.5900000000031516, -0.9368858645624366 
3.6000000000031727, -0.9388647347855814 
3.6100000000031938, -0.9400627822517194 
3.620000000003215, -0.9405887455188168 
3.630000000003236, -0.9406003087740672 
3.640000000003257, -0.9402657771315294 
3.650000000003278, -0.9397768278763208 
3.6600000000032993, -0.9393986925338849 
3.6700000000033204, -0.939517438051411 
3.6800000000033415, -0.9406169091382758 
3.6900000000033626, -0.943136248663645 
3.7000000000033837, -0.9472731864068595 
3.710000000003405, -0.9528990394283886 
3.720000000003426, -0.9596603759214115 
3.730000000003447, -0.9671591548171208 
3.740000000003468, -0.9750704527317969 
3.750000000003489, -0.9831569562040772 
3.7600000000035103, -0.9912130680487501 
3.7700000000035314, -0.9989846219106602 
3.7800000000035525, -1.0061165260569234 
3.7900000000035736, -1.0121924813579501 
3.8000000000035947, -1.0168849810529341 
3.810000000003616, -1.0201090316589507 
3.820000000003637, -1.0220332271111212 
3.830000000003658, -1.0229535174928097 
3.840000000003679, -1.0231632550240577 
3.8500000000037002, -1.0229066201419563 
3.8600000000037213, -1.0224138478616343 
3.8700000000037424, -1.0219837986147429 
3.8800000000037635, -1.0220573098949142 
3.8900000000037847, -1.0231805778948446 
3.9000000000038058, -1.0257893499975252 
3.910000000003827, -1.0299508560000081 
3.920000000003848, -1.0353320638279138 
3.930000000003869, -1.0414232537451467 
3.94000000000389, -1.047776475280312 
3.9500000000039113, -1.054095545630433 
3.9600000000039324, -1.0602051692020547 
3.9700000000039535, -1.0659792522081444 
3.9800000000039746, -1.0712761111772422 
3.9900000000039957, -1.0759088641625336 
4.000000000004016, -1.0796756700412202 
4.010000000003993, -1.0824423132338163 
4.02000000000397, -1.08421203977246 
4.030000000003946, -1.0851183643295517 
4.040000000003923, -1.0853585400147008 
4.0500000000039, -1.0851383750437453 
4.0600000000038765, -1.0846687886266957 
4.070000000003853, -1.0841997061013775 
4.08000000000383, -1.0840359859147306 
4.090000000003807, -1.0844712372701253 
4.100000000003783, -1.0856526431076188 
4.11000000000376, -1.087506476385291 
4.120000000003737, -1.0898100477292803 
4.130000000003713, -1.0923232057449466 
4.14000000000369, -1.0948621726405947 
4.150000000003667, -1.0973056967018104 
4.1600000000036434, -1.0995789342374538 
4.17000000000362, -1.1016384272206394 
4.180000000003597, -1.103456234842001 
4.1900000000035735, -1.1050014321549817 
4.20000000000355, -1.106227665850556 
4.210000000003527, -1.107078650822075 
4.220000000003504, -1.1075121653760012 
4.23000000000348, -1.1075260175484822 
4.240000000003457, -1.107168542302992 
4.250000000003434, -1.1065349029775906 
4.26000000000341, -1.1057607286980002 
4.270000000003387, -1.1050103205776856 
4.280000000003364, -1.1044432765956498 
4.2900000000033405, -1.104165228045945 
4.300000000003317, -1.104203311547476 
4.310000000003294, -1.1045268807922717 
4.320000000003271, -1.1050776239763291 
4.330000000003247, -1.1057750203954333 
4.340000000003224, -1.1065129967337328 
4.350000000003201, -1.1071743191042986 
4.360000000003177, -1.1076571520485583 
4.370000000003154, -1.107894202726857 
4.380000000003131, -1.1078575393921146 
4.390000000003107, -1.107550911972288 
4.400000000003084, -1.106992801849732 
4.410000000003061, -1.1061984187969558 
4.4200000000030375, -1.1051722270655637 
4.430000000003014, -1.1039157943263147 
4.440000000002991, -1.1024445364610946 
4.450000000002968, -1.1008019310952215 
4.460000000002944, -1.0990627581803452 
4.470000000002921, -1.0973242399382195 
4.480000000002898, -1.0956940644761706 
4.490000000002874, -1.0942867163852485 
4.500000000002851, -1.0932185650378572 
4.510000000002828, -1.0925725796745351 
4.520000000002804, -1.0923376176137338 
4.530000000002781, -1.0923837300267256 
4.540000000002758, -1.0925090440243765 
4.5500000000027345, -1.0925094880353883 
4.560000000002711, -1.0922137141334625 
4.570000000002688, -1.0914862172371282 
4.580000000002665, -1.090231942177064 
4.590000000002641, -1.0884144976594312 
4.600000000002618, -1.0860673674050596 
4.610000000002595, -1.0832746093610217 
4.620000000002571, -1.0801299533738111 
4.630000000002548, -1.0767065910676257 
4.640000000002525, -1.0730556696625098 
4.6500000000025015, -1.069226339603145 
4.660000000002478, -1.0652932519782063 
4.670000000002455, -1.0613854341809184 
4.6800000000024315, -1.0577120755710392 
4.690000000002408, -1.0545590129245832 
4.700000000002385, -1.0522086315290342 
4.710000000002362, -1.0507883481073663 
4.720000000002338, -1.0501701909845316 
4.730000000002315, -1.0500357429204736 
4.740000000002292, -1.0500350527522584 
4.750000000002268, -1.0498844295638072 
4.760000000002245, -1.049362460375794 
4.770000000002222, -1.048265518947727 
4.7800000000021985, -1.046387618180327 
4.790000000002175, -1.0435564296566704 
4.800000000002152, -1.0397103756478598 
4.810000000002129, -1.03494778523033 
4.820000000002105, -1.0294868185740234 
4.830000000002082, -1.0235667799129449 
4.840000000002059, -1.0173769987484858 
4.850000000002035, -1.011053136506628 
4.860000000002012, -1.0047206036679754 
4.870000000001989, -0.9985522427091093 
4.880000000001965, -0.9928139394406527 
4.890000000001942, -0.9878625632877449 
4.900000000001919, -0.9840526104892241 
4.9100000000018955, -0.9815637016183711 
4.920000000001872, -0.9802752258909292 
4.930000000001849, -0.9798191530877036 
