t, s[1].omega / s[0].omega 
0, -1.540281529752043 
0.009999999999999995, -1.5628037907861647 
0.019999999999999934, -1.5766291384263813 
0.029999999999999874, -1.5844988622664407 
0.04000000000000012, -1.58847156501399 
0.050000000000000405, -1.5900598575377292 
0.06000000000000069, -1.5902703170781625 
0.07000000000000098, -1.5897888952495207 
0.08000000000000126, -1.589146628246918 
0.09000000000000155, -1.588614069413602 
0.10000000000000184, -1.5880847025672495 
0.11000000000000212, -1.587423246728942 
0.12000000000000241, -1.5868320096074124 
0.130000000000002, -1.5865836686208588 
0.1400000000000009, -1.586490492215726 
0.1499999999999998, -1.585951591666959 
0.1599999999999987, -1.584185945831012 
0.1699999999999976, -1.5799840043407334 
0.1799999999999965, -1.5711204892682378 
0.1899999999999954, -1.5537802873908064 
0.1999999999999943, -1.5223171667389983 
0.2099999999999932, -1.4690880209573711 
0.2199999999999921, -1.3834676300924886 
0.229999999999991, -1.252394452300667 
0.2399999999999899, -1.074674671652447 
0.2499999999999888, -0.8899099260680478 
0.2599999999999877, -0.7550709779975342 
0.2699999999999866, -0.6817768329641746 
0.2799999999999855, -0.6486236141462269 
0.2899999999999844, -0.6354150911384897 
0.2999999999999833, -0.6308797928087262 
0.3099999999999822, -0.6297480864718963 
0.3199999999999811, -0.6297434105951896 
0.32999999999998, -0.629917130464537 
0.3399999999999789, -0.6298619693331677 
0.3499999999999778, -0.6293681543252073 
0.35999999999997667, -0.6282949581746939 
0.36999999999997557, -0.6265624320966603 
0.37999999999997447, -0.6242124409594292 
0.38999999999997337, -0.6214601102340692 
0.39999999999997227, -0.6186428798226756 
0.40999999999997117, -0.6160776769432067 
0.41999999999997006, -0.6139484444999657 
0.42999999999996896, -0.6122928262052547 
0.43999999999996786, -0.6110465809184407 
0.44999999999996676, -0.6100921534287274 
0.45999999999996566, -0.609299847131597 
0.46999999999996456, -0.6085666680235444 
0.47999999999996346, -0.6078479901612934 
0.48999999999996235, -0.607174164475113 
0.49999999999996125, -0.6066556257473891 
0.5099999999999602, -0.606486423712911 
0.519999999999959, -0.6069491248960054 
0.529999999999958, -0.6084141320229206 
0.5399999999999568, -0.6113242586485532 
0.5499999999999557, -0.6161636855955592 
0.5599999999999546, -0.6234247597300433 
0.5699999999999535, -0.6335966567624955 
0.5799999999999524, -0.6471984595813091 
0.5899999999999513, -0.6648665638896669 
0.5999999999999502, -0.6874883610946524 
0.6099999999999491, -0.7163417839029091 
0.619999999999948, -0.7530963913447952 
0.6299999999999469, -0.7992299798763886 
0.6399999999999458, -0.853995732862366 
0.6499999999999447, -0.9111725378464394 
0.6599999999999436, -0.9597285214903867 
0.6699999999999425, -0.9923091637555886 
0.6799999999999414, -1.010339980338187 
0.6899999999999403, -1.0191736719479123 
0.6999999999999392, -1.0231087850290668 
0.7099999999999381, -1.024496438922292 
0.719999999999937, -1.0244205903581372 
0.7299999999999359, -1.0233782624024264 
0.7399999999999348, -1.0218866401063296 
0.7499999999999337, -1.021465214293865 
0.7599999999999326, -1.0262402427593524 
0.7699999999999315, -1.0432983440263703 
0.7799999999999304, -1.0774050548819072 
0.7899999999999293, -1.1236298457762577 
0.7999999999999282, -1.1710122729161276 
0.8099999999999271, -1.2123860359804324 
0.819999999999926, -1.2463171203678374 
0.8299999999999249, -1.2738361608329183 
0.8399999999999238, -1.2960602147274258 
0.8499999999999227, -1.3134918349200146 
0.8599999999999216, -1.3262512967281284 
0.8699999999999205, -1.3346535105345656 
0.8799999999999194, -1.339503647704848 
0.8899999999999183, -1.3418528202796698 
0.8999999999999172, -1.342624291431397 
0.9099999999999161, -1.3425065807651433 
0.919999999999915, -1.3420825339070972 
0.9299999999999139, -1.3419223422297946 
0.9399999999999128, -1.3423861479636456 
0.9499999999999117, -1.3433704407177787 
0.9599999999999106, -1.3445069186703074 
0.9699999999999095, -1.3455597689086 
0.9799999999999084, -1.346492728026078 
0.9899999999999073, -1.3472796508617504 
0.9999999999999062, -1.3477900487961283 
1.0099999999999052, -1.3478422412692679 
1.019999999999904, -1.3472898110634075 
1.029999999999903, -1.3460596510799154 
1.039999999999902, -1.3441487545752828 
1.0499999999999008, -1.34158742144073 
1.0599999999998997, -1.3383857099525247 
1.0699999999998986, -1.3344948286793934 
1.0799999999998975, -1.329792119607846 
1.0899999999998964, -1.3240719564118317 
1.0999999999998953, -1.3170609757028398 
1.1099999999998942, -1.308597302356705 
1.119999999999893, -1.2991811669051718 
1.129999999999892, -1.2906107792053145 
1.1399999999998909, -1.2851971885387161 
1.1499999999998898, -1.2833645974691414 
1.1599999999998887, -1.2834060315155413 
1.1699999999998876, -1.283588299363955 
1.1799999999998865, -1.2829319223434694 
1.1899999999998854, -1.2805504199233162 
1.1999999999998843, -1.2745711593146842 
1.2099999999998832, -1.2602659415322006 
1.219999999999882, -1.2265007966984516 
1.229999999999881, -1.153183308016378 
1.2399999999998799, -1.025139742985711 
1.2499999999998788, -0.8651956691717262 
1.2599999999998777, -0.7213848655756312 
1.2699999999998766, -0.6165880107752594 
1.2799999999998755, -0.5467542168168407 
1.2899999999998744, -0.501228491646547 
1.2999999999998733, -0.47142986399505665 
1.3099999999998722, -0.4517390709662279 
1.319999999999871, -0.4386472055365128 
1.32999999999987, -0.4299555893730663 
1.3399999999998689, -0.42425772738628853 
1.3499999999998678, -0.4206317131838735 
1.3599999999998666, -0.4184605724438667 
1.3699999999998655, -0.41732666434894455 
1.3799999999998644, -0.4169490764138891 
1.3899999999998633, -0.4171470557086578 
1.3999999999998622, -0.41782076570341625 
1.4099999999998611, -0.4189452168498501 
1.41999999999986, -0.42057532127707936 
1.429999999999859, -0.4228610653983823 
1.4399999999998578, -0.42607415712656377 
1.4499999999998567, -0.4306519506583005 
1.4599999999998556, -0.43726217884256824 
1.4699999999998545, -0.4468532441864072 
1.4799999999998534, -0.4605206909345612 
1.4899999999998523, -0.47879779610325973 
1.4999999999998512, -0.5002388645303091 
1.5099999999998501, -0.5209227254303961 
1.519999999999849, -0.5369741403107738 
1.529999999999848, -0.547335269073146 
1.5399999999998468, -0.5531981285953701 
1.5499999999998457, -0.5561256856955332 
1.5599999999998446, -0.5571732445537518 
1.5699999999998435, -0.5568065061562388 
1.5799999999998424, -0.5549501576900366 
1.5899999999998413, -0.5508236051301794 
1.5999999999998402, -0.542217196147136 
1.6099999999998391, -0.5232963828098494 
1.619999999999838, -0.47893419599672094 
1.629999999999837, -0.3786782819722003 
1.6399999999998358, -0.21342191737689614 
1.6499999999998347, -0.06448669003117347 
1.6599999999998336, 0.015046936080459716 
1.6699999999998325, 0.05001505772490598 
1.6799999999998314, 0.06573805661537596 
1.6899999999998303, 0.07328612079734229 
1.6999999999998292, 0.07706867596260703 
1.709999999999828, 0.07893789049272443 
1.719999999999827, 0.07975633546894978 
1.729999999999826, 0.07998578847714019 
1.7399999999998248, 0.07991551574087877 
1.7499999999998237, 0.07975195306006964 
1.7599999999998226, 0.0796616777292575 
1.7699999999998215, 0.0798159686780994 
1.7799999999998204, 0.08047542686210164 
1.7899999999998193, 0.08218302759107574 
1.7999999999998182, 0.08623708225489526 
1.809999999999817, 0.09577393309266616 
1.819999999999816, 0.1172349468976948 
1.8299999999998149, 0.15743698720076746 
1.8399999999998138, 0.20909781247971854 
1.8499999999998127, 0.25097572943878566 
1.8599999999998116, 0.2751227827687286 
1.8699999999998105, 0.2870884917740115 
1.8799999999998094, 0.29274078073298704 
1.8899999999998083, 0.2952108698932542 
1.8999999999998072, 0.2958820526960041 
1.909999999999806, 0.29528607582024713 
1.919999999999805, 0.2935635365830007 
1.9299999999998039, 0.2907396703539594 
1.9399999999998028, 0.2869674743505263 
1.9499999999998017, 0.28269602414157097 
1.9599999999998006, 0.278592086412342 
1.9699999999997995, 0.27523322014637 
1.9799999999997984, 0.2728847277638441 
1.9899999999997973, 0.27153501123483725 
1.9999999999997962, 0.271044726374874 
2.0099999999998173, 0.27124209163739416 
2.0199999999998384, 0.2719358249786823 
2.0299999999998595, 0.2728948666674807 
2.0399999999998806, 0.2738482816281009 
2.0499999999999017, 0.2745191920832447 
2.059999999999923, 0.2746519856077495 
2.069999999999944, 0.2739726073255409 
2.079999999999965, 0.27203325429642417 
2.089999999999986, 0.2678402974397444 
2.100000000000007, 0.2588923433586208 
2.1100000000000283, 0.23840206540030368 
2.1200000000000494, 0.18786044020212753 
2.1300000000000705, 0.07151303779276175 
2.1400000000000916, -0.09997777405320547 
2.1500000000001127, -0.22280939771136749 
2.160000000000134, -0.27644601570455807 
2.170000000000155, -0.2975334251273033 
2.180000000000176, -0.30647241760430793 
2.190000000000197, -0.3106146057482809 
2.2000000000002182, -0.3125636136588274 
2.2100000000002393, -0.3132998210416443 
2.2200000000002604, -0.31319487993037426 
2.2300000000002815, -0.3123672246872474 
2.2400000000003026, -0.31084591628391756 
2.2500000000003237, -0.3086931240416752 
2.260000000000345, -0.30610363161393955 
2.270000000000366, -0.30341887591141653 
2.280000000000387, -0.30101837122126684 
2.290000000000408, -0.2991801841651903 
2.3000000000004293, -0.29803304601792996 
2.3100000000004504, -0.2975993405178733 
2.3200000000004715, -0.2978461964832321 
2.3300000000004926, -0.2986918694661029 
2.3400000000005137, -0.29997553161525947 
2.3500000000005348, -0.30144302110074117 
2.360000000000556, -0.30279834571913605 
2.370000000000577, -0.3037980068182956 
2.380000000000598, -0.30430456136234196 
2.390000000000619, -0.304259261814015 
2.4000000000006403, -0.30360481423741714 
2.4100000000006614, -0.3021854558558463 
2.4200000000006825, -0.29958239101981704 
2.4300000000007036, -0.29469380144300905 
2.4400000000007247, -0.28436779887948205 
2.450000000000746, -0.2583866876410693 
2.460000000000767, -0.1822967862191625 
2.470000000000788, 0.015613119855091808 
2.480000000000809, 0.2648528433362983 
2.49000000000083, 0.387777571929821 
2.5000000000008513, 0.42887471722441434 
2.5100000000008724, 0.44326904982414295 
2.5200000000008935, 0.4488452388523599 
2.5300000000009146, 0.45094137004424323 
2.5400000000009357, 0.4512912622813497 
2.550000000000957, 0.4504688568234732 
2.560000000000978, 0.4486517167867077 
2.570000000000999, 0.4459624017183523 
2.58000000000102, 0.44268080341250843 
2.5900000000010412, 0.43929606925957926 
2.6000000000010624, 0.4363415096717874 
2.6100000000010835, 0.43416374780294087 
2.6200000000011046, 0.4328436846099293 
2.6300000000011257, 0.4322731832331034 
2.6400000000011468, 0.43225438195805205 
2.650000000001168, 0.4325532091163569 
2.660000000001189, 0.43292091878676053 
2.67000000000121, 0.4331055476396243 
2.680000000001231, 0.43284189249433525 
2.6900000000012523, 0.4317752648744041 
2.7000000000012734, 0.4292231027249076 
2.7100000000012945, 0.4234578519529757 
2.7200000000013156, 0.40912058007889146 
2.7300000000013367, 0.3652139933700208 
2.740000000001358, 0.18532266567453443 
2.750000000001379, -0.5049762358523551 
2.7600000000014, -1.2092821001272578 
2.770000000001421, -1.4078572333437103 
2.780000000001442, -1.4555579142540187 
2.7900000000014633, -1.4690903700244557 
2.8000000000014844, -1.4732530117803193 
2.8100000000015055, -1.4741166725254682 
2.8200000000015266, -1.4734486700592724 
2.8300000000015477, -1.4723092580688089 
2.840000000001569, -1.4728425477315363 
2.85000000000159, -1.4778642786330312 
2.860000000001611, -1.4868166489640062 
2.870000000001632, -1.4960081973475805 
2.8800000000016532, -1.5032717013331909 
2.8900000000016743, -1.5085268160152387 
2.9000000000016954, -1.5122837650579455 
2.9100000000017165, -1.5149430780233981 
2.9200000000017377, -1.516732646731311 
2.9300000000017588, -1.5177798928353767 
2.94000000000178, -1.5181502288298572 
2.950000000001801, -1.5178624396843947 
2.960000000001822, -1.5169093363663981 
2.970000000001843, -1.5152816191010596 
2.9800000000018643, -1.5129668103077614 
2.9900000000018854, -1.509892810843387 
3.0000000000019065, -1.5058808973594588 
3.0100000000019276, -1.5008696142129951 
3.0200000000019487, -1.495580396266323 
3.03000000000197, -1.4917475591302412 
3.040000000001991, -1.4903759936353433 
3.050000000002012, -1.4904103312202686 
3.060000000002033, -1.4902961588931845 
3.070000000002054, -1.4889234064150674 
3.0800000000020753, -1.4846675613344889 
3.0900000000020964, -1.4728208788750645 
3.1000000000021175, -1.4375788984374993 
3.1100000000021386, -1.3256478883263032 
3.1200000000021597, -1.0161753225115437 
3.130000000002181, -0.5606832692462254 
3.140000000002202, -0.276093189004516 
3.150000000002223, -0.15841656796942843 
3.160000000002244, -0.10935384119501843 
3.1700000000022652, -0.08641005573625198 
3.1800000000022863, -0.07445819608706375 
3.1900000000023074, -0.06769973101981813 
3.2000000000023285, -0.06366314937203274 
3.2100000000023496, -0.06120090058497065 
3.2200000000023707, -0.05976178134366896 
3.230000000002392, -0.05910919465236877 
3.240000000002413, -0.059221453908393264 
3.250000000002434, -0.06029701976805145 
3.260000000002455, -0.06287717396587242 
3.2700000000024763, -0.06820847392093722 
3.2800000000024974, -0.07926355143624093 
3.2900000000025185, -0.1039102328473835 
3.3000000000025396, -0.16622343468304898 
3.3100000000025607, -0.35073311150628944 
3.3200000000025818, -0.8953748962480162 
3.330000000002603, -1.637799888034723 
3.340000000002624, -1.9504784989506985 
3.350000000002645, -2.045522674459083 
3.360000000002666, -2.0794698519577706 
3.3700000000026873, -2.0931403456599216 
3.3800000000027084, -2.098685026755919 
3.3900000000027295, -2.1005475628487162 
3.4000000000027506, -2.1005597494977204 
3.4100000000027717, -2.099540253316736 
3.420000000002793, -2.097747447103706 
3.430000000002814, -2.0948054568714864 
3.440000000002835, -2.090511548976749 
3.450000000002856, -2.086991404581845 
3.460000000002877, -2.0864410109883105 
3.4700000000028983, -2.0867306144441864 
3.4800000000029194, -2.0854349164159722 
3.4900000000029405, -2.0793586039312526 
3.5000000000029616, -2.053711646921617 
3.5100000000029827, -1.9565851342228917 
3.520000000003004, -2.2226832173295676 
3.530000000003025, -2.71521270004947 
3.540000000003046, -2.790192847369726 
3.550000000003067, -2.8053056948243773 
3.5600000000030882, -2.8096605764596116 
3.5700000000031094, -2.8104805095925767 
3.5800000000031305, -2.8091274440178813 
3.5900000000031516, -2.804848510524923 
3.6000000000031727, -2.7921481038248044 
3.6100000000031938, -2.74284521341509 
3.620000000003215, -2.6555764548009493 
3.630000000003236, -2.6760895640818223 
3.640000000003257, -2.686869205189051 
3.650000000003278, -2.6883368033223265 
3.6600000000032993, -2.687416278266409 
3.6700000000033204, -2.6876337914422406 
3.6800000000033415, -2.689856346838762 
3.6900000000033626, -2.6910905642835345 
3.7000000000033837, -2.6913233851053464 
3.710000000003405, -2.6909795971900676 
3.720000000003426, -2.6886553621874767 
3.730000000003447, -2.6779120600279174 
3.740000000003468, -2.6032169979228343 
3.750000000003489, -1.3281741145959567 
3.7600000000035103, 0.974483763985247 
3.7700000000035314, 1.119104792858303 
3.7800000000035525, 1.137393375788935 
3.7900000000035736, 1.141567261757483 
3.8000000000035947, 1.1422374218513407 
3.810000000003616, 1.1410862033621434 
3.820000000003637, 1.1378697400245845 
3.830000000003658, 1.1314590206460602 
3.840000000003679, 1.1212093799834462 
3.8500000000037002, 1.1101732529118393 
3.8600000000037213, 1.1037037424900675 
3.8700000000037424, 1.102125007180423 
3.8800000000037635, 1.102412141189173 
3.8900000000037847, 1.1026457229024957 
3.9000000000038058, 1.1019619062497208 
3.910000000003827, 1.0991972018026386 
3.920000000003848, 1.0900733806103595 
3.930000000003869, 1.049648373794169 
3.94000000000389, 0.7099715916749162 
3.9500000000039113, -2.5493742699063775 
3.9600000000039324, -4.181671402639358 
3.9700000000039535, -4.206601645837222 
3.9800000000039746, -4.208616350975906 
3.9900000000039957, -4.2061367532780105 
4.000000000004016, -4.18872558663961 
4.010000000003993, -3.5063446079788987 
4.02000000000397, -2.524883435048795 
4.030000000003946, -2.8159743025789283 
4.040000000003923, -2.838132328305453 
4.0500000000039, -2.840826301421585 
4.0600000000038765, -2.8405517553052047 
4.070000000003853, -2.8401405806431734 
4.08000000000383, -2.839588332524611 
4.090000000003807, -2.8382309470706937 
4.100000000003783, -2.8375499545762293 
4.11000000000376, -2.8370579347056077 
4.120000000003737, -2.8332305163826783 
4.130000000003713, -2.8091573654511794 
4.14000000000369, -2.7321743938149288 
4.150000000003667, -3.0321784997158203 
4.1600000000036434, -3.1065582154398994 
4.17000000000362, -3.1184274263858605 
4.180000000003597, -3.12113082380006 
4.1900000000035735, -3.1207840890046468 
4.20000000000355, -3.1174996348781487 
4.210000000003527, -3.1061489122051174 
4.220000000003504, -3.042534412972093 
4.23000000000348, -2.5114748982081117 
4.240000000003457, -2.4575593817191943 
4.250000000003434, -2.5340549160978374 
4.26000000000341, -2.5452008792743865 
4.270000000003387, -2.546706165649927 
4.280000000003364, -2.5461777470629365 
4.2900000000033405, -2.5462155360175087 
4.300000000003317, -2.547128799170074 
4.310000000003294, -2.5473816444316326 
4.320000000003271, -2.547185859688162 
4.330000000003247, -2.5468846436668424 
4.340000000003224, -2.5451253132942036 
4.350000000003201, -2.5371040620742358 
4.360000000003177, -2.487810317780073 
4.370000000003154, -1.7835219949338676 
4.380000000003131, 1.1057720965429854 
4.390000000003107, 1.3475619662694844 
4.400000000003084, 1.3688513860600549 
4.410000000003061, 1.37290768849321 
4.4200000000030375, 1.373127866217476 
4.430000000003014, 1.3707878538804479 
4.440000000002991, 1.3633788867211012 
4.450000000002968, 1.3418620931358003 
4.460000000002944, 1.297673587217452 
4.470000000002921, 1.2719416811517585 
4.480000000002898, 1.2757687624337184 
4.490000000002874, 1.2810002376208327 
4.500000000002851, 1.2831494359327695 
4.510000000002828, 1.2831023209985086 
4.520000000002804, 1.2807365709437917 
4.530000000002781, 1.2736880916844793 
4.540000000002758, 1.2565408097850013 
4.5500000000027345, 1.2622966135758422 
4.560000000002711, 1.3703091204527993 
4.570000000002688, 1.4260510965726794 
4.580000000002665, 1.4397245477186305 
4.590000000002641, 1.443082937397065 
4.600000000002618, 1.4430236487051815 
4.610000000002595, 1.439630353322613 
4.620000000002571, 1.4240852834413549 
4.630000000002548, 1.2880451797827461 
4.640000000002525, -0.5409962183261177 
4.6500000000025015, -1.7638081855422503 
4.660000000002478, -1.9142140361370896 
4.670000000002455, -1.9392010900831518 
4.6800000000024315, -1.944817124183168 
4.690000000002408, -1.9457810986961825 
4.700000000002385, -1.9452545022057142 
4.710000000002362, -1.9450292591062008 
4.720000000002338, -1.9465078428170952 
4.730000000002315, -1.9487889087902197 
4.740000000002292, -1.950431215367903 
4.750000000002268, -1.9513273651737126 
4.760000000002245, -1.9517378438840676 
4.770000000002222, -1.9514640384125024 
4.7800000000021985, -1.949873631235344 
4.790000000002175, -1.945777733341369 
4.800000000002152, -1.9367090210782005 
4.810000000002129, -1.917285191977254 
4.820000000002105, -1.8745588031070457 
4.830000000002082, -1.772076195568068 
4.840000000002059, -1.5068720332640213 
4.850000000002035, -0.9947067790202782 
4.860000000002012, -0.575705560318517 
4.870000000001989, -0.39922103002784326 
4.880000000001965, -0.3332896724973181 
4.890000000001942, -0.30682551958180326 
4.900000000001919, -0.29531345935250763 
4.9100000000018955, -0.2900278874526637 
4.920000000001872, -0.2875509404973473 
4.930000000001849, -0.28642043863587985 
4.940000000001826, -0.2859674356326583 
