t, s[1].omega / s[0].omega 
0, -1.4210885680989196 
0.009999999999999995, -1.5057826923478914 
0.019999999999999934, -1.5532152655300402 
0.029999999999999874, -1.5774004446032714 
0.04000000000000012, -1.588693867219535 
0.050000000000000405, -1.5934957895808068 
0.06000000000000069, -1.5951644378910408 
0.07000000000000098, -1.595327844619568 
0.08000000000000126, -1.594911860671829 
0.09000000000000155, -1.5946376138627003 
0.10000000000000184, -1.594839968096528 
0.11000000000000212, -1.5952535610459477 
0.12000000000000241, -1.5955343382939726 
0.130000000000002, -1.5957052810476253 
0.1400000000000009, -1.5958950427599086 
0.1499999999999998, -1.5959323438286954 
0.1599999999999987, -1.5953695538653423 
0.1699999999999976, -1.5936247558961434 
0.1799999999999965, -1.5899100861225681 
0.1899999999999954, -1.5831194700716857 
0.1999999999999943, -1.571816628217909 
0.2099999999999932, -1.5541220584021829 
0.2199999999999921, -1.527045975676655 
0.229999999999991, -1.4849450705142644 
0.2399999999999899, -1.4178148445830225 
0.2499999999999888, -1.3159710910766302 
0.2599999999999877, -1.1964274719865469 
0.2699999999999866, -1.112128996309983 
0.2799999999999855, -1.0813514521686935 
0.2899999999999844, -1.0778685488609818 
0.2999999999999833, -1.080776397641554 
0.3099999999999822, -1.083356963501328 
0.3199999999999811, -1.084523761648155 
0.32999999999998, -1.0842295117792358 
0.3399999999999789, -1.0820646109477627 
0.3499999999999778, -1.0764124557589194 
0.35999999999997667, -1.062463460030623 
0.36999999999997557, -1.0263419203491178 
0.37999999999997447, -0.9319806550989804 
0.38999999999997337, -0.7288937697766846 
0.39999999999997227, -0.4719699677286859 
0.40999999999997117, -0.2987281431665094 
0.41999999999997006, -0.21450530952377034 
0.42999999999996896, -0.1748160555731927 
0.43999999999996786, -0.15469331657388677 
0.44999999999996676, -0.1435988083714702 
0.45999999999996566, -0.1370400723126842 
0.46999999999996456, -0.13295925978540535 
0.47999999999996346, -0.13034502643540263 
0.48999999999996235, -0.1286825847890475 
0.49999999999996125, -0.12772624920001172 
0.5099999999999602, -0.1274092738413341 
0.519999999999959, -0.12782929372847845 
0.529999999999958, -0.12930543974391973 
0.5399999999999568, -0.13255747604203702 
0.5499999999999557, -0.13917285290533973 
0.5599999999999546, -0.15287837469099638 
0.5699999999999535, -0.18336813606268682 
0.5799999999999524, -0.2590985130994812 
0.5899999999999513, -0.46856415833334736 
0.5999999999999502, -0.9803122035095028 
0.6099999999999491, -1.562311370135777 
0.619999999999948, -1.8300355621100017 
0.6299999999999469, -1.9264620901637393 
0.6399999999999458, -1.964390771833898 
0.6499999999999447, -1.980374157592657 
0.6599999999999436, -1.9870550618502165 
0.6699999999999425, -1.9894889438228518 
0.6799999999999414, -1.9898574373972473 
0.6899999999999403, -1.9891811678533826 
0.6999999999999392, -1.9879639984121833 
0.7099999999999381, -1.986174414590313 
0.719999999999937, -1.9835323121666852 
0.7299999999999359, -1.9807634178790672 
0.7399999999999348, -1.979540705347962 
0.7499999999999337, -1.9795343984117697 
0.7599999999999326, -1.9788797064900259 
0.7699999999999315, -1.975463169026296 
0.7799999999999304, -1.962220954805695 
0.7899999999999293, -1.8956792659606296 
0.7999999999999282, -1.3901859602399615 
0.8099999999999271, 1.1243824074348363 
0.819999999999926, 1.643691766128219 
0.8299999999999249, 1.672292205341386 
0.8399999999999238, 1.6765673136359602 
0.8499999999999227, 1.6764000075435663 
0.8599999999999216, 1.6723469641614692 
0.8699999999999205, 1.6530906608529006 
0.8799999999999194, 1.5239465673466408 
0.8899999999999183, 1.2957524541078969 
0.8999999999999172, 1.3549295306684228 
0.9099999999999161, 1.3782784357468318 
0.919999999999915, 1.3840972698859537 
0.9299999999999139, 1.385247339481781 
0.9399999999999128, 1.3844512505124158 
0.9499999999999117, 1.3824998147443908 
0.9599999999999106, 1.3815866744139158 
0.9699999999999095, 1.3880227530104956 
0.9799999999999084, 1.4019827160484164 
0.9899999999999073, 1.4128986058409796 
0.9999999999999062, 1.4180473435475582 
1.0099999999999052, 1.4197746179097117 
1.019999999999904, 1.4194415279956785 
1.029999999999903, 1.4163452440566082 
1.039999999999902, 1.4026271707681688 
1.0499999999999008, 1.2750861166094105 
1.0599999999998997, -2.151978471706705 
1.0699999999998986, -3.198581875681394 
1.0799999999998975, -3.23664724649786 
1.0899999999998964, -3.2412021134401257 
1.0999999999998953, -3.2410887828391637 
1.1099999999998942, -3.23920732434843 
1.119999999999893, -3.233887208273109 
1.129999999999892, -3.2243624393026034 
1.1399999999998909, -3.224911511033569 
1.1499999999998898, -3.2264222905714077 
1.1599999999998887, -3.224449693240558 
1.1699999999998876, -3.2233590889059998 
1.1799999999998865, -3.229753144605934 
1.1899999999998854, -3.2330382980445855 
1.1999999999998843, -3.233651574217228 
1.2099999999998832, -3.232676567803787 
1.219999999999882, -3.2266248939755102 
1.229999999999881, -3.178033366597785 
1.2399999999998799, -1.453328370372143 
1.2499999999998788, 1.4786378419375548 
1.2599999999998777, 1.5568485195718338 
1.2699999999998766, 1.5656783222108828 
1.2799999999998755, 1.567060487517963 
1.2899999999998744, 1.5657910505489792 
1.2999999999998733, 1.5607922226964432 
1.3099999999998722, 1.545677213020535 
1.319999999999871, 1.5115782273438634 
1.32999999999987, 1.4896016977241922 
1.3399999999998689, 1.493832301334351 
1.3499999999998678, 1.4985100409841785 
1.3599999999998666, 1.5000006248757145 
1.3699999999998655, 1.4991829866902058 
1.3799999999998644, 1.49542870557243 
1.3899999999998633, 1.4866927711874498 
1.3999999999998622, 1.4865328608380148 
1.4099999999998611, 1.532684500815891 
1.41999999999986, 1.5666998428280552 
1.429999999999859, 1.5771889271477133 
1.4399999999998578, 1.5798873458438958 
1.4499999999998567, 1.5795555477025875 
1.4599999999998556, 1.5755507809677167 
1.4699999999998545, 1.5538313533198662 
1.4799999999998534, 1.188700271448981 
1.4899999999998523, -2.7925230241021444 
1.4999999999998512, -3.0841949897414485 
1.5099999999998501, -3.1019957142196577 
1.519999999999849, -3.1041621849191534 
1.529999999999848, -3.103584961832534 
1.5399999999998468, -3.1018454422388837 
1.5499999999998457, -3.097645231875179 
1.5599999999998446, -3.09300137923901 
1.5699999999998435, -3.093711675823344 
1.5799999999998424, -3.093559053865916 
1.5899999999998413, -3.089315149809043 
1.5999999999998402, -3.0878415485812223 
1.6099999999998391, -3.1034176289889044 
1.619999999999838, -3.110702213598826 
1.629999999999837, -3.11251871178212 
1.6399999999998358, -3.1121900386349752 
1.6499999999998347, -3.108715610515353 
1.6599999999998336, -3.0928384513472125 
1.6699999999998325, -2.9661535304545423 
1.6799999999998314, -0.48160691276406153 
1.6899999999998303, 1.0284264452424634 
1.6999999999998292, 1.1056409254907362 
1.709999999999828, 1.117865373435463 
1.719999999999827, 1.120945824963099 
1.729999999999826, 1.1216256549288808 
1.7399999999998248, 1.12136581887856 
1.7499999999998237, 1.1205949664727648 
1.7599999999998226, 1.119491732393341 
1.7699999999998215, 1.1182246815731867 
1.7799999999998204, 1.117028802212561 
1.7899999999998193, 1.1161285157803975 
1.7999999999998182, 1.11558231555193 
1.809999999999817, 1.115223768129386 
1.819999999999816, 1.1147041148970227 
1.8299999999998149, 1.1134083767266005 
1.8399999999998138, 1.1097245043659743 
1.8499999999998127, 1.0967301788007782 
1.8599999999998116, 1.0184064744706882 
1.8699999999998105, -0.4491935459541875 
1.8799999999998094, -2.965243203008065 
1.8899999999998083, -3.097703846948833 
1.8999999999998072, -3.1145064714912563 
1.909999999999806, -3.1178045394987546 
1.919999999999805, -3.1175175047314214 
1.9299999999998039, -3.114843332038796 
1.9399999999998028, -3.1063559385867276 
1.9499999999998017, -3.0796405766579973 
1.9599999999998006, -3.0692958222724704 
1.9699999999997995, -3.0775638313243148 
1.9799999999997984, -3.078763146443775 
1.9899999999997973, -3.0774208315943055 
1.9999999999997962, -3.0783355903485887 
2.0099999999998173, -3.0808781997833 
2.0199999999998384, -3.0816133561939805 
2.0299999999998595, -3.0814932723789816 
2.0399999999998806, -3.0798721906509723 
2.0499999999999017, -3.0703211317632233 
2.059999999999923, -2.9633346763007897 
2.069999999999944, 0.6484533339599559 
2.079999999999965, 2.0651276271145957 
2.089999999999986, 2.0936561265124 
2.100000000000007, 2.0966467933464186 
2.1100000000000283, 2.0952885820053746 
2.1200000000000494, 2.085712010982827 
2.1300000000000705, 1.9903128209972631 
2.1400000000000916, 1.515718661707552 
2.1500000000001127, 1.6683066017127477 
2.160000000000134, 1.6976654788369725 
2.170000000000155, 1.7026519150553114 
2.180000000000176, 1.7032778066243182 
2.190000000000197, 1.7027855593522143 
2.2000000000002182, 1.7028764778289767 
2.2100000000002393, 1.7049649231134059 
2.2200000000002604, 1.7081356301282313 
2.2300000000002815, 1.710420842128201 
2.2400000000003026, 1.711368929303827 
2.2500000000003237, 1.71125502253483 
2.260000000000345, 1.7097472198653487 
2.270000000000366, 1.7033787063918786 
2.280000000000387, 1.6549157257583715 
2.290000000000408, -0.8255032024965564 
2.3000000000004293, -3.6661817368702905 
2.3100000000004504, -3.717398362815378 
2.3200000000004715, -3.7228882458286465 
2.3300000000004926, -3.722648064515485 
2.3400000000005137, -3.718668151147292 
2.3500000000005348, -3.69679108802438 
2.360000000000556, -3.5994566927368377 
2.370000000000577, -3.633784807045443 
2.380000000000598, -3.640931845028547 
2.390000000000619, -3.6407605759424158 
2.4000000000006403, -3.64041217343783 
2.4100000000006614, -3.639811946855379 
2.4200000000006825, -3.638571662937551 
2.4300000000007036, -3.6381326859619953 
2.4400000000007247, -3.6340995071981155 
2.450000000000746, -3.611049400126813 
2.460000000000767, -3.6584545260842334 
2.470000000000788, -3.68367244658823 
2.480000000000809, -3.6873588230962646 
2.49000000000083, -3.687011710872709 
2.5000000000008513, -3.682119594994319 
2.5100000000008724, -3.6486596718643547 
2.5200000000008935, -2.3892022618814517 
2.5300000000009146, 1.5923324973460276 
2.5400000000009357, 1.6752954007222438 
2.550000000000957, 1.6835602953982831 
2.560000000000978, 1.6849432210328863 
2.570000000000999, 1.6845096284036658 
2.58000000000102, 1.6826999149660964 
2.5900000000010412, 1.678993080615771 
2.6000000000010624, 1.673610500273626 
2.6100000000010835, 1.669438948736285 
2.6200000000011046, 1.668462362739272 
2.6300000000011257, 1.6687272937137223 
2.6400000000011468, 1.668185383569669 
2.650000000001168, 1.6647998655993497 
2.660000000001189, 1.6497596774099321 
2.67000000000121, 1.5751173413032453 
2.680000000001231, 1.7487025942243022 
2.6900000000012523, 1.922335369459676 
2.7000000000012734, 1.9413859511299438 
2.7100000000012945, 1.9442441377393322 
2.7200000000013156, 1.9431451562392332 
2.7300000000013367, 1.934913497691116 
2.740000000001358, 1.843101969239629 
2.750000000001379, -1.6834830476377767 
2.7600000000014, -2.930061129604099 
2.770000000001421, -2.9737565138236817 
2.780000000001442, -2.9786465570786875 
2.7900000000014633, -2.9787716301505442 
2.8000000000014844, -2.9778976946923583 
2.8100000000015055, -2.9761570856858293 
2.8200000000015266, -2.9729361976060207 
2.8300000000015477, -2.971637146193447 
2.840000000001569, -2.97184116686292 
2.85000000000159, -2.969239760420984 
2.860000000001611, -2.9576559290122955 
2.870000000001632, -2.9670588684650467 
2.8800000000016532, -3.0063380063039657 
2.8900000000016743, -3.0181290850717177 
2.9000000000016954, -3.0210907666467963 
2.9100000000017165, -3.021218989314675 
2.9200000000017377, -3.0187425785767936 
2.9300000000017588, -3.0099228077125417 
2.94000000000178, -2.970448786614892 
2.950000000001801, -2.545243811732113 
2.960000000001822, 0.3352967564307921 
2.970000000001843, 0.8484520424914948 
2.9800000000018643, 0.9001491317775072 
2.9900000000018854, 0.9113624971611044 
3.0000000000019065, 0.9146553114179786 
3.0100000000019276, 0.9155142165382868 
3.0200000000019487, 0.9154133858533907 
3.03000000000197, 0.9150413794182322 
3.040000000001991, 0.9152068325349669 
3.050000000002012, 0.9173129210646671 
3.060000000002033, 0.9228968808345849 
3.070000000002054, 0.9314536883348221 
3.0800000000020753, 0.9398404708020156 
3.0900000000020964, 0.9456596783652058 
3.1000000000021175, 0.9487925294158142 
3.1100000000021386, 0.949946651930736 
3.1200000000021597, 0.9494842340538503 
3.130000000002181, 0.9467676497153473 
3.140000000002202, 0.9380431825480556 
3.150000000002223, 0.901662774601155 
3.160000000002244, 0.6123386126619785 
3.1700000000022652, -1.2732244799484331 
3.1800000000022863, -2.0039102111206106 
3.1900000000023074, -2.086419140295342 
3.2000000000023285, -2.101112977310688 
3.2100000000023496, -2.104349586167909 
3.2200000000023707, -2.104605470585707 
3.230000000002392, -2.1041551301099553 
3.240000000002413, -2.1042641403713818 
3.250000000002434, -2.104797068322691 
3.260000000002455, -2.1049269552036565 
3.2700000000024763, -2.104762795826375 
3.2800000000024974, -2.104657003695409 
3.2900000000025185, -2.1040614930113994 
3.3000000000025396, -2.1015635924814364 
3.3100000000025607, -2.0933397705198233 
3.3200000000025818, -2.063721940637286 
3.330000000002603, -1.9304057348275279 
3.340000000002624, -1.279884155982878 
3.350000000002645, -0.20697362272096642 
3.360000000002666, 0.1424523060844089 
3.3700000000026873, 0.22559250316257282 
3.3800000000027084, 0.25183001284841 
3.3900000000027295, 0.26217367995184643 
3.4000000000027506, 0.26680664170612967 
3.4100000000027717, 0.2689733406740429 
3.420000000002793, 0.26991645182154006 
3.430000000002814, 0.27017726011992627 
3.440000000002835, 0.27000993102317417 
3.450000000002856, 0.269542724691184 
3.460000000002877, 0.26888795732829723 
3.4700000000028983, 0.2683738937231372 
3.4800000000029194, 0.26940097377233047 
3.4900000000029405, 0.277663355210382 
3.5000000000029616, 0.3111639717283768 
3.5100000000029827, 0.3915183332017441 
3.520000000003004, 0.4808299336609224 
3.530000000003025, 0.5303077670273185 
3.540000000003046, 0.5505696972117102 
3.550000000003067, 0.5585774089999986 
3.5600000000030882, 0.5616518062419724 
3.5700000000031094, 0.5623560564693901 
3.5800000000031305, 0.5614088972340013 
3.5900000000031516, 0.5586260293172512 
3.6000000000031727, 0.553159658180574 
3.6100000000031938, 0.5438331846168395 
3.620000000003215, 0.5304819264828089 
3.630000000003236, 0.5158467582144499 
3.640000000003257, 0.5042067986900357 
3.650000000003278, 0.4972687192734641 
3.6600000000032993, 0.4938870883550578 
3.6700000000033204, 0.49241780711836763 
3.6800000000033415, 0.4917812467932204 
3.6900000000033626, 0.4913916034795774 
3.7000000000033837, 0.4908912936409114 
3.710000000003405, 0.48994316240641156 
3.720000000003426, 0.4880116710566969 
3.730000000003447, 0.48389060947355833 
3.740000000003468, 0.47411288602680157 
3.750000000003489, 0.44569100673259027 
3.7600000000035103, 0.32787300747418796 
3.7700000000035314, -0.4230075490037176 
3.7800000000035525, -2.00027105890537 
3.7900000000035736, -2.343884497067927 
3.8000000000035947, -2.396696288069492 
3.810000000003616, -2.4082540685349967 
3.820000000003637, -2.410967386392936 
3.830000000003658, -2.4110293088652006 
3.840000000003679, -2.410133145969515 
3.8500000000037002, -2.408601915423997 
3.8600000000037213, -2.405845059079735 
3.8700000000037424, -2.4026726592645824 
3.8800000000037635, -2.4018230077777054 
3.8900000000037847, -2.401976553551314 
3.9000000000038058, -2.400201587434634 
3.910000000003827, -2.3914146673619467 
3.920000000003848, -2.35430969178908 
3.930000000003869, -2.3912166688197756 
3.94000000000389, -2.596172487748523 
3.9500000000039113, -2.6522963243749773 
3.9600000000039324, -2.6660566054865424 
3.9700000000039535, -2.6704572214520708 
3.9800000000039746, -2.67156488465757 
3.9900000000039957, -2.670647380403692 
4.000000000004016, -2.6673543418567176 
4.010000000003993, -2.6588090284055372 
4.02000000000397, -2.6309561190188564 
4.030000000003946, -2.528299983969898 
4.040000000003923, -2.459388507742633 
4.0500000000039, -2.4887381417827052 
4.0600000000038765, -2.4972362918317415 
4.070000000003853, -2.498324479200555 
4.08000000000383, -2.497334515526059 
4.090000000003807, -2.4975011221942105 
4.100000000003783, -2.500178233972739 
4.11000000000376, -2.5021952011449358 
4.120000000003737, -2.5029097234833317 
4.130000000003713, -2.5029570073843663 
4.14000000000369, -2.5018096825475062 
4.150000000003667, -2.4970919293922664 
4.1600000000036434, -2.478284358537915 
4.17000000000362, -2.3725077311588096 
4.180000000003597, -1.4351590477093388 
4.1900000000035735, 0.2820820950655835 
4.20000000000355, 0.5508897152305974 
4.210000000003527, 0.5954915223075649 
4.220000000003504, 0.6077070900874942 
4.23000000000348, 0.6119911231678345 
4.240000000003457, 0.6135722235545192 
4.250000000003434, 0.6140256500392037 
4.26000000000341, 0.613985287262803 
4.270000000003387, 0.6138152380140802 
4.280000000003364, 0.6138252727948983 
4.2900000000033405, 0.6143481309587782 
4.300000000003317, 0.6157321665906761 
4.310000000003294, 0.6182164524247538 
4.320000000003271, 0.6216946344356276 
4.330000000003247, 0.6255858362279207 
4.340000000003224, 0.6290917417786467 
4.350000000003201, 0.6316465622521917 
4.360000000003177, 0.6330664315690038 
4.370000000003154, 0.633336206817644 
4.380000000003131, 0.6322656915554795 
4.390000000003107, 0.6289581408517478 
4.400000000003084, 0.6201946582795042 
4.410000000003061, 0.5929312412998058 
4.4200000000030375, 0.47823389215279716 
4.430000000003014, -0.04131096600476505 
4.440000000002991, -0.7535681389526465 
4.450000000002968, -1.0012655895608245 
4.460000000002944, -1.0694961636553038 
4.470000000002921, -1.0912516778470898 
4.480000000002898, -1.0990616357397693 
4.490000000002874, -1.1017892379722203 
4.500000000002851, -1.1020894638328984 
4.510000000002828, -1.1005349803105076 
4.520000000002804, -1.0965551644325433 
4.530000000002781, -1.0885206499034412 
4.540000000002758, -1.0752954292864902 
4.5500000000027345, -1.0720701792221872 
4.560000000002711, -1.1926651895072153 
4.570000000002688, -1.665864606518505 
4.580000000002665, -2.0397228329266675 
4.590000000002641, -2.149621038457732 
4.600000000002618, -2.1841061784967635 
4.610000000002595, -2.1976809703851004 
4.620000000002571, -2.2035724569422204 
4.630000000002548, -2.205884560463477 
4.640000000002525, -2.206184355500917 
4.6500000000025015, -2.2051000528583296 
4.660000000002478, -2.2026993358009657 
4.670000000002455, -2.1982151772862975 
4.6800000000024315, -2.1900141431044315 
4.690000000002408, -2.179917096391101 
4.700000000002385, -2.1767622186749125 
4.710000000002362, -2.1784705274898366 
4.720000000002338, -2.1789628257379876 
4.730000000002315, -2.1766457175002305 
4.740000000002292, -2.168584860481156 
4.750000000002268, -2.1590206104502587 
4.760000000002245, -2.2007605432560977 
4.770000000002222, -2.2543037827546106 
4.7800000000021985, -2.2769422895542735 
4.790000000002175, -2.2857451707999337 
4.800000000002152, -2.2894994409888048 
4.810000000002129, -2.290877493047979 
4.820000000002105, -2.2906534795086007 
4.830000000002082, -2.2888713568000236 
4.840000000002059, -2.284913036397891 
4.850000000002035, -2.2766252197820087 
4.860000000002012, -2.2567708558678277 
4.870000000001989, -2.2059489625067785 
4.880000000001965, -2.141742453252293 
4.890000000001942, -2.1429938061656704 
4.900000000001919, -2.1536141140803937 
4.9100000000018955, -2.1567581433816914 
4.920000000001872, -2.1564225118359173 
4.930000000001849, -2.1541983540681118 
4.940000000001826, -2.1540575757596065 
4.950000000001802, -2.1616263333653327 
4.960000000001779, -2.1702845660250345 
4.970000000001756, -2.175203146825009 
4.980000000001732, -2.177545384282056 
4.990000000001709, -2.178440446075549 
