t, s[1].omega / s[0].omega 
0, -1.1393710120918397 
0.009999999999999995, -1.0726364240039508 
0.019999999999999934, -1.0010225327253086 
0.029999999999999874, -0.9288519757382456 
0.04000000000000012, -0.8616573230761407 
0.050000000000000405, -0.8055703616978127 
0.06000000000000069, -0.7646536080041093 
0.07000000000000098, -0.7388790235378104 
0.08000000000000126, -0.7249177218981597 
0.09000000000000155, -0.7184909241585081 
0.10000000000000184, -0.7160997504867438 
0.11000000000000212, -0.7155103826606325 
0.12000000000000241, -0.7155058905067417 
0.130000000000002, -0.7154746925115163 
0.1400000000000009, -0.7150953863199386 
0.1499999999999998, -0.7141634725223154 
0.1599999999999987, -0.7125404811016878 
0.1699999999999976, -0.7101966915483717 
0.1799999999999965, -0.7072818593900796 
0.1899999999999954, -0.704113950053772 
0.1999999999999943, -0.7010460368602323 
0.2099999999999932, -0.6983204844169044 
0.2199999999999921, -0.6960217372783305 
0.229999999999991, -0.6941143439651342 
0.2399999999999899, -0.6925027028496672 
0.2499999999999888, -0.6910827198892797 
0.2599999999999877, -0.6897819984611306 
0.2699999999999866, -0.6885854735375969 
0.2799999999999855, -0.6875427093554727 
0.2899999999999844, -0.6867587587010273 
0.2999999999999833, -0.686373308542702 
0.3099999999999822, -0.68653233269262 
0.3199999999999811, -0.6873587373205334 
0.32999999999998, -0.688932079623759 
0.3399999999999789, -0.6912856079087524 
0.3499999999999778, -0.6944209776088328 
0.35999999999997667, -0.698334138311359 
0.36999999999997557, -0.7030453215001632 
0.37999999999997447, -0.7086293381442635 
0.38999999999997337, -0.7152437695536025 
0.39999999999997227, -0.723148468686918 
0.40999999999997117, -0.732696007466153 
0.41999999999997006, -0.7442396495580617 
0.42999999999996896, -0.7578605989260824 
0.43999999999996786, -0.7728824277355184 
0.44999999999996676, -0.7875668127094695 
0.45999999999996566, -0.7997763198109652 
0.46999999999996456, -0.8083343765850886 
0.47999999999996346, -0.813477826040959 
0.48999999999996235, -0.8161214320359177 
0.49999999999996125, -0.817107487257745 
0.5099999999999602, -0.8169626051419712 
0.519999999999959, -0.8159627063839459 
0.529999999999958, -0.8143493488649043 
0.5399999999999568, -0.812848569510062 
0.5499999999999557, -0.8140988249929798 
0.5599999999999546, -0.8262246106314384 
0.5699999999999535, -0.8690645621637921 
0.5799999999999524, -0.9735254646285523 
0.5899999999999513, -1.143170321274607 
0.5999999999999502, -1.3149896856246621 
0.6099999999999491, -1.436775103148318 
0.619999999999948, -1.5118844045712883 
0.6299999999999469, -1.5575253713912725 
0.6399999999999458, -1.5851911051749576 
0.6499999999999447, -1.601349493396378 
0.6599999999999436, -1.6101029485818632 
0.6699999999999425, -1.614332818968694 
0.6799999999999414, -1.6159624634447927 
0.6899999999999403, -1.6161622774551532 
0.6999999999999392, -1.615682587171906 
0.7099999999999381, -1.6150859405405324 
0.719999999999937, -1.6146306416549367 
0.7299999999999359, -1.6141697455091684 
0.7399999999999348, -1.6135658524476657 
0.7499999999999337, -1.6130452334676995 
0.7599999999999326, -1.6128532619014728 
0.7699999999999315, -1.6127349600137262 
0.7799999999999304, -1.6120467081584309 
0.7899999999999293, -1.6099373036675508 
0.7999999999999282, -1.6049841469928345 
0.8099999999999271, -1.5944642712893842 
0.819999999999926, -1.5735783092625335 
0.8299999999999249, -1.5349281578912568 
0.8399999999999238, -1.4679231744173733 
0.8499999999999227, -1.3576789688578539 
0.8599999999999216, -1.1896457151372082 
0.8699999999999205, -0.9777312685179581 
0.8799999999999194, -0.7864683657922672 
0.8899999999999183, -0.664660916197531 
0.8999999999999172, -0.6028280738869602 
0.9099999999999161, -0.5748250216204424 
0.919999999999915, -0.5630092991951597 
0.9299999999999139, -0.5584213729765845 
0.9399999999999128, -0.5568960408668263 
0.9499999999999117, -0.5565527992978827 
0.9599999999999106, -0.5565459910308104 
0.9699999999999095, -0.5564841813722885 
0.9799999999999084, -0.5561717321240569 
0.9899999999999073, -0.5555090717435024 
0.9999999999999062, -0.5544772114359582 
1.0099999999999052, -0.5531568610187529 
1.019999999999904, -0.5517275590076365 
1.029999999999903, -0.5504131320295318 
1.039999999999902, -0.5494020989723781 
1.0499999999999008, -0.548798831068198 
1.0599999999998997, -0.5486170044630246 
1.0699999999998986, -0.5487881856733241 
1.0799999999998975, -0.5491729570393791 
1.0899999999998964, -0.5495902192206434 
1.0999999999998953, -0.5498726392126654 
1.1099999999998942, -0.549920886686568 
1.119999999999893, -0.5497252837361496 
1.129999999999892, -0.5493630896303331 
1.1399999999998909, -0.5490098896908553 
1.1499999999998898, -0.5490049946834912 
1.1599999999998887, -0.5500130498463125 
1.1699999999998876, -0.5533494297850521 
1.1799999999998865, -0.5615834427653943 
1.1899999999998854, -0.5795606839371303 
1.1999999999998843, -0.6157868652083575 
1.2099999999998832, -0.6829344940090923 
1.219999999999882, -0.7930300846141154 
1.229999999999881, -0.9429275805374457 
1.2399999999998799, -1.1051588248843394 
1.2499999999998788, -1.2474598817662126 
1.2599999999998777, -1.3545149269477177 
1.2699999999998766, -1.4259534094346635 
1.2799999999998755, -1.4682698110501555 
1.2899999999998744, -1.4905234691733102 
1.2999999999998733, -1.5010777076856212 
1.3099999999998722, -1.5056031472784719 
1.319999999999871, -1.5071770668517175 
1.32999999999987, -1.5073174811628707 
1.3399999999998689, -1.5069204927947253 
1.3499999999998678, -1.5067630383136494 
1.3599999999998666, -1.507325809136049 
1.3699999999998655, -1.5083965138651683 
1.3799999999998644, -1.509456861106098 
1.3899999999998633, -1.5102920501057648 
1.3999999999998622, -1.510951860633349 
1.4099999999998611, -1.511402083091776 
1.41999999999986, -1.5114148162980263 
1.429999999999859, -1.5106842104476734 
1.4399999999998578, -1.5089053981126932 
1.4499999999998567, -1.5057956411646642 
1.4599999999998556, -1.5011074672573463 
1.4699999999998545, -1.4945835007254236 
1.4799999999998534, -1.4858036263242027 
1.4899999999998523, -1.4739351424963276 
1.4999999999998512, -1.4574229674625225 
1.5099999999998501, -1.4339208095138773 
1.519999999999849, -1.4019861495993606 
1.529999999999848, -1.3670689473078974 
1.5399999999998468, -1.343556620062642 
1.5499999999998457, -1.3369437454424773 
1.5599999999998446, -1.3382234162498636 
1.5699999999998435, -1.3401719141429456 
1.5799999999998424, -1.3408417663321381 
1.5899999999998413, -1.3397962900787133 
1.5999999999998402, -1.3358604727859933 
1.6099999999998391, -1.324637386499416 
1.619999999999838, -1.2892053814204743 
1.629999999999837, -1.152767210636053 
1.6399999999998358, -0.5595844779955421 
1.6499999999998347, 0.46937668632014906 
1.6599999999998336, 0.7322437753268427 
1.6699999999998325, 0.7763679313513616 
1.6799999999998314, 0.7874625860145904 
1.6899999999998303, 0.7908701658343199 
1.6999999999998292, 0.7915423974409063 
1.709999999999828, 0.7906041084462518 
1.719999999999827, 0.7880542933580038 
1.729999999999826, 0.7834493990468611 
1.7399999999998248, 0.7765365723409288 
1.7499999999998237, 0.768241725153356 
1.7599999999998226, 0.7608003542008729 
1.7699999999998215, 0.7559210097970541 
1.7799999999998204, 0.7535109544587903 
1.7899999999998193, 0.7525597593324027 
1.7999999999998182, 0.7521678317213067 
1.809999999999817, 0.7517413015122083 
1.819999999999816, 0.7507796888499246 
1.8299999999998149, 0.7484717304696608 
1.8399999999998138, 0.7425980265988155 
1.8499999999998127, 0.7244650024574452 
1.8599999999998116, 0.6400390943539428 
1.8699999999998105, -0.16546550014110809 
1.8799999999998094, -2.3789749992154694 
1.8899999999998083, -2.690803194349142 
1.8999999999998072, -2.7323655782964735 
1.909999999999806, -2.741707572699327 
1.919999999999805, -2.7438156690608535 
1.9299999999998039, -2.7433759386904226 
1.9399999999998028, -2.741295745328831 
1.9499999999998017, -2.7363109658707776 
1.9599999999998006, -2.7253560156345014 
1.9699999999997995, -2.7175944531876506 
1.9799999999997984, -2.720276269781587 
1.9899999999997973, -2.7213430387237603 
1.9999999999997962, -2.7192034083503445 
2.0099999999998173, -2.7159259813749386 
2.0199999999998384, -2.7238529694097204 
2.0299999999998595, -2.7336710646821656 
2.0399999999998806, -2.737560945650978 
2.0499999999999017, -2.7387063453502223 
2.059999999999923, -2.7382088675944694 
2.069999999999944, -2.735042470673989 
2.079999999999965, -2.7241593344970148 
2.089999999999986, -2.6784064354932373 
2.100000000000007, -2.3344161771418315 
2.1100000000000283, -0.10033874961383349 
2.1200000000000494, 0.6350669478258066 
2.1300000000000705, 0.7146126873865752 
2.1400000000000916, 0.7317766386869387 
2.1500000000001127, 0.7370966644012164 
2.160000000000134, 0.7389187501795824 
2.170000000000155, 0.7394031878235785 
2.180000000000176, 0.7393445343521116 
2.190000000000197, 0.7392375281298583 
2.2000000000002182, 0.7396919909706472 
2.2100000000002393, 0.7416910518102758 
2.2200000000002604, 0.7464423472271732 
2.2300000000002815, 0.7542087263013925 
2.2400000000003026, 0.7630910962273603 
2.2500000000003237, 0.7704321502595681 
2.260000000000345, 0.7751312167592566 
2.270000000000366, 0.7775233916990524 
2.280000000000387, 0.7781823464810184 
2.290000000000408, 0.7772260051500586 
2.3000000000004293, 0.7737256432886945 
2.3100000000004504, 0.7635100204051278 
2.3200000000004715, 0.7266214871835663 
2.3300000000004926, 0.5336254583745129 
2.3400000000005137, -0.2519427385076542 
2.3500000000005348, -0.8399404757263849 
2.360000000000556, -0.9998766498654634 
2.370000000000577, -1.046063199561812 
2.380000000000598, -1.061780487383954 
2.390000000000619, -1.0676329500430743 
2.4000000000006403, -1.0695710864461385 
2.4100000000006614, -1.0693825062118192 
2.4200000000006825, -1.0672248437774967 
2.4300000000007036, -1.0619792808638473 
2.4400000000007247, -1.0505049836594702 
2.450000000000746, -1.0265501228251455 
2.460000000000767, -0.9900485760861993 
2.470000000000788, -1.0747256278522406 
2.480000000000809, -2.2950958483822275 
2.49000000000083, -2.9520951797395645 
2.5000000000008513, -3.009292818507895 
2.5100000000008724, -3.0199195788515967 
2.5200000000008935, -3.0224850634051856 
2.5300000000009146, -3.0220973094254306 
2.5400000000009357, -3.0190681015872047 
2.550000000000957, -3.0094050292897503 
2.560000000000978, -2.9663740054318746 
2.570000000000999, -2.8557607689225053 
2.58000000000102, -2.8823120628036416 
2.5900000000010412, -2.894516119431649 
2.6000000000010624, -2.8958835195728896 
2.6100000000010835, -2.89511574373635 
2.6200000000011046, -2.895569702500343 
2.6300000000011257, -2.8966506674261625 
2.6400000000011468, -2.896668102140064 
2.650000000001168, -2.8964225339423173 
2.660000000001189, -2.895281742203367 
2.67000000000121, -2.888827354496783 
2.680000000001231, -2.836305038182599 
2.6900000000012523, -1.654993720861554 
2.7000000000012734, 2.5994678427220768 
2.7100000000012945, 2.6893804456204786 
2.7200000000013156, 2.6936717764134324 
2.7300000000013367, 2.691918702948576 
2.740000000001358, 2.67189984933671 
2.750000000001379, 0.9201653799990698 
2.7600000000014, -2.9992965719908957 
2.770000000001421, -3.1203085855725123 
2.780000000001442, -3.129057469368594 
2.7900000000014633, -3.129671480592525 
2.8000000000014844, -3.128907278038949 
2.8100000000015055, -3.1274242559641654 
2.8200000000015266, -3.1243710855803153 
2.8300000000015477, -3.123002059084624 
2.840000000001569, -3.1231593833267066 
2.85000000000159, -3.120210439520039 
2.860000000001611, -3.1087800904322522 
2.870000000001632, -3.126463042376437 
2.8800000000016532, -3.1526279585354042 
2.8900000000016743, -3.159261940585499 
2.9000000000016954, -3.160648827003784 
2.9100000000017165, -3.1596034878154406 
2.9200000000017377, -3.1542716015730017 
2.9300000000017588, -3.1304012061235142 
2.94000000000178, -2.900544497320121 
2.950000000001801, 0.3457126188648746 
2.960000000001822, 1.087423785449673 
2.970000000001843, 1.134942575845136 
2.9800000000018643, 1.1436630860621586 
2.9900000000018854, 1.145926479819066 
3.0000000000019065, 1.1464126326192503 
3.0100000000019276, 1.1463384556509832 
3.0200000000019487, 1.146223153644352 
3.03000000000197, 1.1463577044773599 
3.040000000001991, 1.146824876092408 
3.050000000002012, 1.1474914964230025 
3.060000000002033, 1.1481273253666628 
3.070000000002054, 1.148541796355602 
3.0800000000020753, 1.148587129141379 
3.0900000000020964, 1.1480189817013233 
3.1000000000021175, 1.146123362791555 
3.1100000000021386, 1.1401675037066124 
3.1200000000021597, 1.1144391554149877 
3.130000000002181, 0.8566938348453164 
3.140000000002202, -2.438150076953689 
3.150000000002223, -3.0881912071684345 
3.160000000002244, -3.1294471310848118 
3.1700000000022652, -3.1360589774765524 
3.1800000000022863, -3.1367386047599846 
3.1900000000023074, -3.135139506465361 
3.2000000000023285, -3.130284597303752 
3.2100000000023496, -3.115561763996739 
3.2200000000023707, -3.10330643515257 
3.230000000002392, -3.1089306208483287 
3.240000000002413, -3.110224927527299 
3.250000000002434, -3.108535858643857 
3.260000000002455, -3.109150451055121 
3.2700000000024763, -3.113021092590252 
3.2800000000024974, -3.11453828680759 
3.2900000000025185, -3.1146583438079913 
3.3000000000025396, -3.1133331231963544 
3.3100000000025607, -3.1057099855226156 
3.3200000000025818, -3.0357320454043486 
3.330000000002603, -0.4653868846929436 
3.340000000002624, 1.678995630761817 
3.350000000002645, 1.7301860453091262 
3.360000000002666, 1.7361960192530947 
3.3700000000026873, 1.7365805954152171 
3.3800000000027084, 1.7336899957823253 
3.3900000000027295, 1.7215101753419944 
3.4000000000027506, 1.6650437139061913 
3.4100000000027717, 1.5683320510845724 
3.420000000002793, 1.5857597492851734 
3.430000000002814, 1.5997079749659544 
3.440000000002835, 1.6034046558632227 
3.450000000002856, 1.6036197405775021 
3.460000000002877, 1.6019806190579513 
3.4700000000028983, 1.5997231977111417 
3.4800000000029194, 1.6026247910907838 
3.4900000000029405, 1.6147029593321012 
3.5000000000029616, 1.6252703030485118 
3.5100000000029827, 1.6300712633012562 
3.520000000003004, 1.6314931113808622 
3.530000000003025, 1.6308708927381907 
3.540000000003046, 1.6268805812148301 
3.550000000003067, 1.604577148525388 
3.5600000000030882, 1.1345359416611231 
3.5700000000031094, -3.4009567133017944 
3.5800000000031305, -3.5723960527622567 
3.5900000000031516, -3.5836440075520812 
3.6000000000031727, -3.584547749914562 
3.6100000000031938, -3.58265350989779 
3.620000000003215, -3.575484385585752 
3.630000000003236, -3.5526947738912886 
3.640000000003257, -3.554165183110952 
3.650000000003278, -3.558475625130577 
3.6600000000032993, -3.557735265650868 
3.6700000000033204, -3.557648379140192 
3.6800000000033415, -3.559177716892029 
3.6900000000033626, -3.5591531208858016 
3.7000000000033837, -3.5586592483833592 
3.710000000003405, -3.5553105086106718 
3.720000000003426, -3.520231620374715 
3.730000000003447, -3.4132951995240743 
3.740000000003468, -3.9122306021057875 
3.750000000003489, -3.936844715662186 
3.7600000000035103, -3.9394875960902853 
3.7700000000035314, -3.937956052990201 
3.7800000000035525, -3.9284884995962037 
3.7900000000035736, -3.804482953736577 
3.8000000000035947, 0.596442134220123 
3.810000000003616, 1.4917388251256383 
3.820000000003637, 1.53098418876175 
3.830000000003658, 1.5369167180800145 
3.840000000003679, 1.5380574368494693 
3.8500000000037002, 1.5380824137003282 
3.8600000000037213, 1.5380532097252557 
3.8700000000037424, 1.5383661880545199 
3.8800000000037635, 1.5388709577198212 
3.8900000000037847, 1.5392138988890989 
3.9000000000038058, 1.5392749819042106 
3.910000000003827, 1.5390716274577878 
3.920000000003848, 1.5383673310124972 
3.930000000003869, 1.5360614958084804 
3.94000000000389, 1.5266685954071662 
3.9500000000039113, 1.4514542626844738 
3.9600000000039324, -1.4537091620061786 
3.9700000000039535, -3.557488096408305 
3.9800000000039746, -3.6066161748721397 
3.9900000000039957, -3.6126046601284094 
4.000000000004016, -3.612723190129757 
4.010000000003993, -3.6094333380637122 
4.02000000000397, -3.593659661339914 
4.030000000003946, -3.480095410498259 
4.040000000003923, -3.4801708825116826 
4.0500000000039, -3.4991609634421152 
4.0600000000038765, -3.5005195443074824 
4.070000000003853, -3.499915515918167 
4.08000000000383, -3.4997293530424742 
4.090000000003807, -3.4985326364614844 
4.100000000003783, -3.4978114968843945 
4.11000000000376, -3.4967930620336234 
4.120000000003737, -3.4882082090784614 
4.130000000003713, -3.4654878342250988 
4.14000000000369, -3.5392355664902104 
4.150000000003667, -3.557451887461382 
4.1600000000036434, -3.5603541162288037 
4.17000000000362, -3.5597382273123754 
4.180000000003597, -3.5545296087126097 
4.1900000000035735, -3.5233681884253465 
4.20000000000355, -2.7266848539410233 
4.210000000003527, 1.3916666244729095 
4.220000000003504, 1.5276482563381246 
4.23000000000348, 1.5400659057015949 
4.240000000003457, 1.5424243801957087 
4.250000000003434, 1.5426558919817595 
4.26000000000341, 1.5420501729910288 
4.270000000003387, 1.5407654931901829 
4.280000000003364, 1.5387824225902274 
4.2900000000033405, 1.5365180388328354 
4.300000000003317, 1.5348590317032154 
4.310000000003294, 1.5341454444096647 
4.320000000003271, 1.5337317013620304 
4.330000000003247, 1.5324653178209333 
4.340000000003224, 1.527607560168033 
4.350000000003201, 1.502621530960521 
4.360000000003177, 1.1947686181319883 
4.370000000003154, -2.8010359444258546 
4.380000000003131, -5.099943806374381 
4.390000000003107, -5.111633403918827 
4.400000000003084, -5.110571913457599 
4.410000000003061, -5.094034347474798 
4.4200000000030375, 0.0722649929831598 
4.430000000003014, 2.869054536337565 
4.440000000002991, 2.883140968951556 
4.450000000002968, 2.88387168244227 
4.460000000002944, 2.8820498101951104 
4.470000000002921, 2.874764977108773 
4.480000000002898, 2.8640805206145297 
4.490000000002874, 2.8667037711868084 
4.500000000002851, 2.8681031272221476 
4.510000000002828, 2.8662771564007423 
4.520000000002804, 2.865122997281779 
4.530000000002781, 2.871392703176738 
4.540000000002758, 2.8749347612245035 
4.5500000000027345, 2.875247271940664 
4.560000000002711, 2.8734994845694435 
4.570000000002688, 2.8577642651378734 
4.580000000002665, 0.8968935176473067 
4.590000000002641, -5.633662346355247 
4.600000000002618, -5.649467614589652 
4.610000000002595, -5.647816707771861 
4.620000000002571, -5.608834052856624 
4.630000000002548, 3.3713222002518393 
4.640000000002525, 3.496811278642551 
4.6500000000025015, 3.4991217364769893 
4.660000000002478, 3.4968945204528845 
4.670000000002455, 3.4810014971058214 
4.6800000000024315, 3.46631168048631 
4.690000000002408, 3.475392604792358 
4.700000000002385, 3.4757082527003904 
4.710000000002362, 3.4752827041113483 
4.720000000002338, 3.4762149777355384 
4.730000000002315, 3.4758880354875705 
4.740000000002292, 3.475144905126379 
4.750000000002268, 3.4722906880139184 
4.760000000002245, 3.438854244254536 
4.770000000002222, 3.5060271863752335 
4.7800000000021985, 3.531903435279113 
4.790000000002175, 3.5328913821014014 
4.800000000002152, 3.526472633438776 
4.810000000002129, 2.248312288005579 
4.820000000002105, -5.520323412281187 
4.830000000002082, -5.531693659055324 
4.840000000002059, -5.529633068845751 
4.850000000002035, -5.487495655684998 
4.860000000002012, -5.251810048126477 
4.870000000001989, -5.302615969821878 
4.880000000001965, -5.302598244656979 
4.890000000001942, -5.299032204027915 
4.900000000001919, -5.291226066413225 
4.9100000000018955, -5.29428811602174 
4.920000000001872, -5.292978089022866 
4.930000000001849, -5.2932769829469235 
4.940000000001826, -5.292234195649858 
4.950000000001802, -5.290120530112668 
4.960000000001779, -5.276845797105771 
4.970000000001756, -5.300963659608261 
4.980000000001732, -5.303144257124368 
