t, s[1].omega / s[0].omega 
0, -1.1600794820013578 
0.009999999999999995, -1.1675340715661013 
0.019999999999999934, -1.1737913803182463 
0.029999999999999874, -1.1785372076635874 
0.04000000000000012, -1.181659913774001 
0.050000000000000405, -1.18333325076147 
0.06000000000000069, -1.1839048774238228 
0.07000000000000098, -1.183767297061192 
0.08000000000000126, -1.1833392179335873 
0.09000000000000155, -1.1830886018087179 
0.10000000000000184, -1.1834256014320692 
0.11000000000000212, -1.184469443021841 
0.12000000000000241, -1.1859979607537667 
0.130000000000002, -1.1876910968936523 
0.1400000000000009, -1.1893503697853702 
0.1499999999999998, -1.1908971017970287 
0.1599999999999987, -1.1922720930205875 
0.1699999999999976, -1.1933939281201287 
0.1799999999999965, -1.194190771738737 
0.1899999999999954, -1.194637140970564 
0.1999999999999943, -1.1947542048608921 
0.2099999999999932, -1.1945787590774493 
0.2199999999999921, -1.1941272625577048 
0.229999999999991, -1.1933816328011722 
0.2399999999999899, -1.192306872673659 
0.2499999999999888, -1.1908874804970946 
0.2599999999999877, -1.1891549574194522 
0.2699999999999866, -1.187181826809739 
0.2799999999999855, -1.1850434482287793 
0.2899999999999844, -1.1827972435769205 
0.2999999999999833, -1.1805405980061938 
0.3099999999999822, -1.178505934700833 
0.3199999999999811, -1.177023341617455 
0.32999999999998, -1.1762704916852127 
0.3399999999999789, -1.1760648069826223 
0.3499999999999778, -1.1759691711708715 
0.35999999999997667, -1.1755219624983575 
0.36999999999997557, -1.1743149088507736 
0.37999999999997447, -1.1719661158523869 
0.38999999999997337, -1.1681564730780676 
0.39999999999997227, -1.16276681105984 
0.40999999999997117, -1.1559644123596835 
0.41999999999997006, -1.1480864298921005 
0.42999999999996896, -1.1394144650073068 
0.43999999999996786, -1.1300434423522792 
0.44999999999996676, -1.11989339386095 
0.45999999999996566, -1.1088084965013214 
0.46999999999996456, -1.0967388992439902 
0.47999999999996346, -1.0840556161059645 
0.48999999999996235, -1.0719058597734603 
0.49999999999996125, -1.0620961694611657 
0.5099999999999602, -1.0559997252161126 
0.519999999999959, -1.0534057839965238 
0.529999999999958, -1.052876924812768 
0.5399999999999568, -1.0529785696746976 
0.5499999999999557, -1.0528208949902484 
0.5599999999999546, -1.0518515914783633 
0.5699999999999535, -1.0494847342258145 
0.5799999999999524, -1.044834449885729 
0.5899999999999513, -1.0367050889328808 
0.5999999999999502, -1.024102785667806 
0.6099999999999491, -1.0071623107959178 
0.619999999999948, -0.9874251907276113 
0.6299999999999469, -0.9668482215312617 
0.6399999999999458, -0.9467265659793946 
0.6499999999999447, -0.9275297281012712 
0.6599999999999436, -0.909289841610349 
0.6699999999999425, -0.8920000875097085 
0.6799999999999414, -0.8758712905262127 
0.6899999999999403, -0.8614385076802356 
0.6999999999999392, -0.8494631558722489 
0.7099999999999381, -0.8405931845281515 
0.719999999999937, -0.8349517123761275 
0.7299999999999359, -0.8320034171073522 
0.7399999999999348, -0.8308293448975455 
0.7499999999999337, -0.8305320854222872 
0.7599999999999326, -0.830454980474304 
0.7699999999999315, -0.8301782747461501 
0.7799999999999304, -0.8294281683517021 
0.7899999999999293, -0.828017247244618 
0.7999999999999282, -0.8258621858335149 
0.8099999999999271, -0.8230469626299435 
0.819999999999926, -0.819831634885975 
0.8299999999999249, -0.8165446003249212 
0.8399999999999238, -0.8134380204820089 
0.8499999999999227, -0.8106226800656906 
0.8599999999999216, -0.808092936732607 
0.8699999999999205, -0.8057862548027368 
0.8799999999999194, -0.8036385210674762 
0.8899999999999183, -0.8016213805356867 
0.8999999999999172, -0.7997561050192687 
0.9099999999999161, -0.7981044211517687 
0.919999999999915, -0.7967447722674377 
0.9299999999999139, -0.7957474251847593 
0.9399999999999128, -0.7951594837053999 
0.9499999999999117, -0.7950012612064871 
0.9599999999999106, -0.7952665386850941 
0.9699999999999095, -0.7959207404338817 
0.9799999999999084, -0.7969008101799954 
0.9899999999999073, -0.7981255886371117 
0.9999999999999062, -0.7995188845683026 
1.0099999999999052, -0.8010365779510982 
1.019999999999904, -0.8026840781784046 
1.029999999999903, -0.8045132031877346 
1.039999999999902, -0.8065950485648882 
1.0499999999999008, -0.8089726910419589 
1.0599999999998997, -0.8116023762482527 
1.0699999999998986, -0.8143063730141584 
1.0799999999998975, -0.8167880242594355 
1.0899999999998964, -0.8187424026082436 
1.0999999999998953, -0.8199947435134236 
1.1099999999998942, -0.82054971073561 
1.119999999999893, -0.8205446843593686 
1.129999999999892, -0.8202031729527001 
1.1399999999998909, -0.8198577330926671 
1.1499999999998898, -0.8200360225492854 
1.1599999999998887, -0.8215323482506033 
1.1699999999998876, -0.8253270757831663 
1.1799999999998865, -0.8322665077267523 
1.1899999999998854, -0.8426629920727349 
1.1999999999998843, -0.8561679520058405 
1.2099999999998832, -0.8720493631579809 
1.219999999999882, -0.8896133713728333 
1.229999999999881, -0.9084615851500228 
1.2399999999998799, -0.9285012085328151 
1.2499999999998788, -0.9497554428474949 
1.2599999999998777, -0.9719899525707684 
1.2699999999998766, -0.994203035126238 
1.2799999999998755, -1.014394624615146 
1.2899999999998744, -1.030350773092673 
1.2999999999998733, -1.0411054658337262 
1.3099999999998722, -1.0473479082090953 
1.319999999999871, -1.0504727797839932 
1.32999999999987, -1.0516755811997638 
1.3399999999998689, -1.051728387388536 
1.3499999999998678, -1.0511678710955303 
1.3599999999998666, -1.0506543542164963 
1.3699999999998655, -1.051376078830803 
1.3799999999998644, -1.055062825569574 
1.3899999999998633, -1.062985465217913 
1.3999999999998622, -1.0746624481400366 
1.4099999999998611, -1.0881583193609878 
1.41999999999986, -1.1016238671199565 
1.429999999999859, -1.1141336961502355 
1.4399999999998578, -1.125511725734418 
1.4499999999998567, -1.1358983070223287 
1.4599999999998556, -1.1454489494998146 
1.4699999999998545, -1.1541683661046136 
1.4799999999998534, -1.1618394724307919 
1.4899999999998523, -1.1680913302589926 
1.4999999999998512, -1.1726279357778089 
1.5099999999998501, -1.1754466769149519 
1.519999999999849, -1.1768327581149747 
1.529999999999848, -1.1771920037991457 
1.5399999999998468, -1.1769422204018347 
1.5499999999998457, -1.1765323861095272 
1.5599999999998446, -1.176460061502824 
1.5699999999998435, -1.1771118668935336 
1.5799999999998424, -1.1785178521281403 
1.5899999999998413, -1.1803747146188168 
1.5999999999998402, -1.1823395986468443 
1.6099999999998391, -1.184221863918778 
1.619999999999838, -1.1859474504014673 
1.629999999999837, -1.1874599334654912 
1.6399999999998358, -1.1886921184156125 
1.6499999999998347, -1.1895969246273983 
1.6599999999998336, -1.1901712505229711 
1.6699999999998325, -1.1904440123074123 
1.6799999999998314, -1.1904416674109763 
1.6899999999998303, -1.1901598022065323 
1.6999999999998292, -1.1895629641327559 
1.709999999999828, -1.188614314382344 
1.719999999999827, -1.1873147388335021 
1.729999999999826, -1.1857226849392086 
1.7399999999998248, -1.1839352302367188 
1.7499999999998237, -1.1820398780802117 
1.7599999999998226, -1.1800949433681986 
1.7699999999998215, -1.1781931682227624 
1.7799999999998204, -1.176545550851475 
1.7899999999998193, -1.1754222061953032 
1.7999999999998182, -1.1749210916121033 
1.809999999999817, -1.1748230905986636 
1.819999999999816, -1.174716769826157 
1.8299999999998149, -1.1741873586146112 
1.8399999999998138, -1.1728724118033729 
1.8499999999998127, -1.170457890404641 
1.8599999999998116, -1.1667387381699872 
1.8699999999998105, -1.1617216643535115 
1.8799999999998094, -1.1556259647096947 
1.8899999999998083, -1.1487325941058546 
1.8999999999998072, -1.1412191206639781 
1.909999999999806, -1.133102702083222 
1.919999999999805, -1.1242783582316307 
1.9299999999998039, -1.114609655412952 
1.9399999999998028, -1.1040935249920554 
1.9499999999998017, -1.0931472512764242 
1.9599999999998006, -1.0828916187208903 
1.9699999999997995, -1.074924872630622 
1.9799999999997984, -1.0702615866576146 
1.9899999999997973, -1.0684710980513579 
1.9999999999997962, -1.0682097260090526 
2.0099999999998173, -1.0682673859170178 
2.0199999999998384, -1.0678975482529403 
2.0299999999998595, -1.0665649034098594 
2.0399999999998806, -1.063608932034477 
2.0499999999999017, -1.0580427737528493 
2.059999999999923, -1.048683911609055 
2.069999999999944, -1.0348327025340565 
2.079999999999965, -1.0170799500862309 
2.089999999999986, -0.9971365696916527 
2.100000000000007, -0.976705921225002 
2.1100000000000283, -0.9567304495851235 
2.1200000000000494, -0.9374792176530373 
2.1300000000000705, -0.9189602508296281 
2.1400000000000916, -0.9012777266691996 
2.1500000000001127, -0.884857499641196 
2.160000000000134, -0.8704927630184907 
2.170000000000155, -0.8591059942086536 
2.180000000000176, -0.8512560904934803 
2.190000000000197, -0.8467437565544369 
2.2000000000002182, -0.8447012394131583 
2.2100000000002393, -0.844061883036605 
2.2200000000002604, -0.8439577766242328 
2.2300000000002815, -0.8438214607128909 
2.2400000000003026, -0.8432977422957298 
2.2500000000003237, -0.8421367849261534 
2.260000000000345, -0.8401627963016404 
2.270000000000366, -0.8373335634055434 
2.280000000000387, -0.833817772394716 
2.290000000000408, -0.8299628786946928 
2.3000000000004293, -0.8261344048205361 
2.3100000000004504, -0.8225681089735384 
2.3200000000004715, -0.8193395654859389 
2.3300000000004926, -0.8164178548723136 
2.3400000000005137, -0.8137346778131549 
2.3500000000005348, -0.8112364188041518 
2.360000000000556, -0.8089113274636783 
2.370000000000577, -0.806791719703563 
2.380000000000598, -0.8049379155288463 
2.390000000000619, -0.8034165361648368 
2.4000000000006403, -0.8022845992977127 
2.4100000000006614, -0.8015817721827945 
2.4200000000006825, -0.8013241404242573 
2.4300000000007036, -0.8014943040869669 
2.4400000000007247, -0.8020335268503842 
2.450000000000746, -0.8028479179016724 
2.460000000000767, -0.8038327331388674 
2.470000000000788, -0.8049053795114869 
2.480000000000809, -0.8060320288042995 
2.49000000000083, -0.8072356513437459 
2.5000000000008513, -0.8085797587936959 
2.5100000000008724, -0.8101309374419783 
2.5200000000008935, -0.8119100822803853 
2.5300000000009146, -0.8138458428370623 
2.5400000000009357, -0.8157557188278816 
2.550000000000957, -0.8173906963822523 
2.560000000000978, -0.8185398493206277 
2.570000000000999, -0.8191195249743208 
2.58000000000102, -0.8191851376266156 
2.5900000000010412, -0.818898530107474 
2.6000000000010624, -0.8185204512257931 
2.6100000000010835, -0.8184489602304964 
2.6200000000011046, -0.8192569958792129 
2.6300000000011257, -0.8216375930337421 
2.6400000000011468, -0.8262000011289622 
2.650000000001168, -0.8332120774985553 
2.660000000001189, -0.8425038984844871 
2.67000000000121, -0.8536254955778618 
2.680000000001231, -0.8661162305966087 
2.6900000000012523, -0.8796951843234477 
2.7000000000012734, -0.8943083261236774 
2.7100000000012945, -0.9100579216058862 
2.7200000000013156, -0.9270213716264001 
2.7300000000013367, -0.9449244412730226 
2.740000000001358, -0.9627389216477736 
2.750000000001379, -0.9786513948796453 
2.7600000000014, -0.9909224096003537 
2.770000000001421, -0.9990045733178178 
2.780000000001442, -1.0035904820095296 
2.7900000000014633, -1.005779835709471 
2.8000000000014844, -1.006463397569619 
2.8100000000015055, -1.0062287203684475 
2.8200000000015266, -1.0055639698247099 
2.8300000000015477, -1.0052230349045304 
2.840000000001569, -1.0066303325241779 
2.85000000000159, -1.011812485696377 
2.860000000001611, -1.0222120505681311 
2.870000000001632, -1.0372486039176199 
2.8800000000016532, -1.0546588967644537 
2.8900000000016743, -1.0722318979185785 
2.9000000000016954, -1.0888092693215183 
2.9100000000017165, -1.1041277768559266 
2.9200000000017377, -1.1183086681175727 
2.9300000000017588, -1.131459758800932 
2.94000000000178, -1.1434352616655135 
2.950000000001801, -1.1537686788867587 
2.960000000001822, -1.161879219131998 
2.970000000001843, -1.167480261870863 
2.9800000000018643, -1.1707951204521438 
2.9900000000018854, -1.1723720433015234 
3.0000000000019065, -1.172789681451752 
3.0100000000019276, -1.1725529593037254 
3.0200000000019487, -1.1721770607671231 
3.03000000000197, -1.1722630179395614 
3.040000000001991, -1.1733223172552776 
3.050000000002012, -1.1754220911202162 
3.060000000002033, -1.1781530609236728 
3.070000000002054, -1.1810146600783222 
3.0800000000020753, -1.1837109784289406 
3.0900000000020964, -1.1861390952518478 
3.1000000000021175, -1.1882661210862353 
3.1100000000021386, -1.1900682489795817 
3.1200000000021597, -1.1915368786977567 
3.130000000002181, -1.1926885264149027 
3.140000000002202, -1.1935476648036754 
3.150000000002223, -1.1941161107972713 
3.160000000002244, -1.194357510615335 
3.1700000000022652, -1.1942146940212477 
3.1800000000022863, -1.193652396417618 
3.1900000000023074, -1.192697208616452 
3.2000000000023285, -1.191448860914065 
3.2100000000023496, -1.1900498871737 
3.2200000000023707, -1.188620790360942 
3.230000000002392, -1.187219310892735 
3.240000000002413, -1.1858925024880187 
3.250000000002434, -1.184769572584416 
3.260000000002455, -1.1840387900941605 
3.2700000000024763, -1.1837688619694187 
3.2800000000024974, -1.1837792231153585 
3.2900000000025185, -1.1837235384346116 
3.3000000000025396, -1.1832448020688962 
3.3100000000025607, -1.182041303056825 
3.3200000000025818, -1.1798873642325087 
3.330000000002603, -1.176685790058545 
3.340000000002624, -1.1725115303858202 
3.350000000002645, -1.1675587212463427 
3.360000000002666, -1.1620125801114685 
3.3700000000026873, -1.1559554444492974 
3.3800000000027084, -1.149354759038577 
3.3900000000027295, -1.1421019778731882 
3.4000000000027506, -1.1340813420072728 
3.4100000000027717, -1.12530786612409 
3.420000000002793, -1.116183640465627 
3.430000000002814, -1.107737481284106 
3.440000000002835, -1.101364150650868 
3.450000000002856, -1.0978351012589012 
3.460000000002877, -1.0966286785438546 
3.4700000000028983, -1.0965232912319305 
3.4800000000029194, -1.096484686630916 
3.4900000000029405, -1.0958530918855713 
3.5000000000029616, -1.0940631841184172 
3.5100000000029827, -1.090328917958858 
3.520000000003004, -1.083502542226751 
3.530000000003025, -1.0723600592593923 
3.540000000003046, -1.0564415062894512 
3.550000000003067, -1.0367097084450223 
3.5600000000030882, -1.0150000480097965 
3.5700000000031094, -0.9928437438993873 
3.5800000000031305, -0.9709699583728403 
3.5900000000031516, -0.9495630704428957 
3.6000000000031727, -0.9287180741896137 
3.6100000000031938, -0.9088150130718514 
3.620000000003215, -0.8907209541611738 
3.630000000003236, -0.8756662903199788 
3.640000000003257, -0.8646907279365559 
3.650000000003278, -0.8579741528261206 
3.6600000000032993, -0.8546899326145228 
3.6700000000033204, -0.8535272360662404 
3.6800000000033415, -0.8533149808101891 
3.6900000000033626, -0.8532733290083726 
3.7000000000033837, -0.8529388538171008 
3.710000000003405, -0.8520035507383836 
3.720000000003426, -0.850218191525351 
3.730000000003447, -0.8474128325366506 
3.740000000003468, -0.8436114456884507 
3.750000000003489, -0.8391086700283379 
3.7600000000035103, -0.8343643830153613 
3.7700000000035314, -0.8297813488699338 
3.7800000000035525, -0.8255709345391526 
3.7900000000035736, -0.8217694979070659 
3.8000000000035947, -0.8183211010738842 
3.810000000003616, -0.8151523473444113 
3.820000000003637, -0.8122175596175165 
3.830000000003658, -0.8095148741796262 
3.840000000003679, -0.8070802124568018 
3.8500000000037002, -0.8049707795055902 
3.8600000000037213, -0.8032494872892852 
3.8700000000037424, -0.8019736840279436 
3.8800000000037635, -0.801182659755219 
3.8900000000037847, -0.8008795073631891 
3.9000000000038058, -0.8010147541256798 
3.910000000003827, -0.8014871100370691 
3.920000000003848, -0.8021679026263782 
3.930000000003869, -0.8029388939446053 
3.94000000000389, -0.8037264264426875 
3.9500000000039113, -0.8045194512002457 
3.9600000000039324, -0.8053644918641514 
3.9700000000039535, -0.8063367352493562 
3.9800000000039746, -0.8074959194990278 
3.9900000000039957, -0.8088407809859304 
4.000000000004016, -0.8102771501875384 
4.010000000003993, -0.8116231797443525 
4.02000000000397, -0.812671188170639 
4.030000000003946, -0.8132787714428129 
4.040000000003923, -0.8134235193842494 
4.0500000000039, -0.8131997651209035 
4.0600000000038765, -0.8128017742957185 
4.070000000003853, -0.8125339576664408 
4.08000000000383, -0.8128340866646375 
4.090000000003807, -0.8142476857258842 
4.100000000003783, -0.8172986136556922 
4.11000000000376, -0.8222947905944202 
4.120000000003737, -0.8292133948381311 
4.130000000003713, -0.8377691187364407 
4.14000000000369, -0.8476042707149558 
4.150000000003667, -0.8584594671289768 
4.1600000000036434, -0.8702496652617144 
4.17000000000362, -0.8830515289180866 
4.180000000003597, -0.8970161621866156 
4.1900000000035735, -0.9121791869872794 
4.20000000000355, -0.9281331880023117 
4.210000000003527, -0.9437075144967606 
4.220000000003504, -0.9571568517466675 
4.23000000000348, -0.9671216644370816 
4.240000000003457, -0.9734388881202735 
4.250000000003434, -0.9768773069684877 
4.26000000000341, -0.9783805105877267 
4.270000000003387, -0.9786580796132046 
4.280000000003364, -0.9781968823293725 
4.2900000000033405, -0.9775035195230972 
4.300000000003317, -0.9775042459786842 
4.310000000003294, -0.9799391926141464 
4.320000000003271, -0.9871127820353681 
4.330000000003247, -1.000419838022133 
4.340000000003224, -1.018895532165764 
4.350000000003201, -1.0398705282537253 
4.360000000003177, -1.0609169865839259 
4.370000000003154, -1.0808213207629191 
4.380000000003131, -1.0993268530369509 
4.390000000003107, -1.116538273677537 
4.400000000003084, -1.1324549837187354 
4.410000000003061, -1.1467032110330295 
4.4200000000030375, -1.1585622887169336 
4.430000000003014, -1.1673863569821277 
4.440000000002991, -1.1731099108406624 
4.450000000002968, -1.1762811948656156 
4.460000000002944, -1.1776660403551937 
4.470000000002921, -1.1779297208498496 
4.480000000002898, -1.1776146213638952 
4.490000000002874, -1.1772930842955804 
4.500000000002851, -1.1776416003709609 
4.510000000002828, -1.1791786393753874 
4.520000000002804, -1.1818568299069727 
4.530000000002781, -1.1851278896440878 
4.540000000002758, -1.1884303443671187 
4.5500000000027345, -1.1914719509288554 
4.560000000002711, -1.194169632374194 
4.570000000002688, -1.196510119472544 
4.580000000002665, -1.1984910652590735 
4.590000000002641, -1.2001238343756762 
4.600000000002618, -1.2014338889868381 
4.610000000002595, -1.2024380725454313 
4.620000000002571, -1.2031186955641382 
4.630000000002548, -1.2034219102180113 
4.640000000002525, -1.203289948996033 
4.6500000000025015, -1.2027085063436878 
4.660000000002478, -1.2017381615374938 
4.670000000002455, -1.2005107247488742 
4.6800000000024315, -1.1991825477637463 
4.690000000002408, -1.197862464807175 
4.700000000002385, -1.196590450522619 
4.710000000002362, -1.19541777416638 
4.720000000002338, -1.194488653224363 
4.730000000002315, -1.1939682683964816 
4.740000000002292, -1.1938519508516292 
4.750000000002268, -1.1938951181809114 
4.760000000002245, -1.193739988406684 
4.770000000002222, -1.193048271848935 
4.7800000000021985, -1.191542756822122 
4.790000000002175, -1.189035991095215 
4.800000000002152, -1.1854881548583205 
4.810000000002129, -1.1810214821039673 
4.820000000002105, -1.1758314919144284 
4.830000000002082, -1.1700617966453846 
4.840000000002059, -1.1637405548707933 
4.850000000002035, -1.156790382604364 
4.860000000002012, -1.1490768649753904 
4.870000000001989, -1.1405013552793526 
4.880000000001965, -1.131201747200501 
4.890000000001942, -1.1218679530765623 
4.900000000001919, -1.1138581566435974 
4.9100000000018955, -1.1085333853229262 
4.920000000001872, -1.1061153598334466 
4.930000000001849, -1.1055716245334897 
