t, s[1].omega / s[0].omega 
0, -0.9400361436090557 
0.009999999999999995, -0.9436662591830283 
0.019999999999999934, -0.9471628396084639 
0.029999999999999874, -0.9502072046557697 
0.04000000000000012, -0.9525021576399929 
0.050000000000000405, -0.9539161403314959 
0.06000000000000069, -0.9545153091476131 
0.07000000000000098, -0.9544976098642414 
0.08000000000000126, -0.9541425755009396 
0.09000000000000155, -0.9538293523109876 
0.10000000000000184, -0.9540637439056978 
0.11000000000000212, -0.955391489815644 
0.12000000000000241, -0.9581574377004728 
0.130000000000002, -0.9623012897052492 
0.1400000000000009, -0.9674239032119244 
0.1499999999999998, -0.9730526521782105 
0.1599999999999987, -0.9788469692137667 
0.1699999999999976, -0.9846422575857134 
0.1799999999999965, -0.9904029426763368 
0.1899999999999954, -0.9961625356407525 
0.1999999999999943, -1.0019674561650542 
0.2099999999999932, -1.0078084169493233 
0.2199999999999921, -1.0135374956732819 
0.229999999999991, -1.0188209039594276 
0.2399999999999899, -1.023219599230915 
0.2499999999999888, -1.0264039674901186 
0.2599999999999877, -1.0283219594298514 
0.2699999999999866, -1.0291675164671703 
0.2799999999999855, -1.0292457424068835 
0.2899999999999844, -1.028907824932706 
0.2999999999999833, -1.028591344926216 
0.3099999999999822, -1.028857014868372 
0.3199999999999811, -1.0302540662794744 
0.32999999999998, -1.0330133953577474 
0.3399999999999789, -1.036888178251289 
0.3499999999999778, -1.0413632820556713 
0.35999999999997667, -1.0459824559661537 
0.36999999999997557, -1.0504900640054657 
0.37999999999997447, -1.0547939333150262 
0.38999999999997337, -1.0588880071237345 
0.39999999999997227, -1.0628023988723434 
0.40999999999997117, -1.0665698122104115 
0.41999999999997006, -1.0701839673824116 
0.42999999999996896, -1.0735536703770017 
0.43999999999996786, -1.076489466080903 
0.44999999999996676, -1.0787644978621698 
0.45999999999996566, -1.0802302588618415 
0.46999999999996456, -1.0808937269175911 
0.47999999999996346, -1.0809046503959587 
0.48999999999996235, -1.0805102239200117 
0.49999999999996125, -1.0800348746745203 
0.5099999999999602, -1.079846073083288 
0.519999999999959, -1.0802330209074333 
0.529999999999958, -1.0812576807520942 
0.5399999999999568, -1.082754683116801 
0.5499999999999557, -1.0844911984307646 
0.5599999999999546, -1.0863002759201064 
0.5699999999999535, -1.0880882090425086 
0.5799999999999524, -1.0897837392834204 
0.5899999999999513, -1.0913174116115998 
0.5999999999999502, -1.0926413718978853 
0.6099999999999491, -1.0937487972575899 
0.619999999999948, -1.094664445376019 
0.6299999999999469, -1.0954105841434094 
0.6399999999999458, -1.0959723287012086 
0.6499999999999447, -1.0962881355791358 
0.6599999999999436, -1.0962774047220982 
0.6699999999999425, -1.0958915111030243 
0.6799999999999414, -1.0951559846691168 
0.6899999999999403, -1.0941814571409798 
0.6999999999999392, -1.0931384614055317 
0.7099999999999381, -1.0921961139066405 
0.719999999999937, -1.0914531499346216 
0.7299999999999359, -1.090926852744857 
0.7399999999999348, -1.0906144126505148 
0.7499999999999337, -1.0905422111338408 
0.7599999999999326, -1.0907293530231146 
0.7699999999999315, -1.0911096705392427 
0.7799999999999304, -1.0915161831476543 
0.7899999999999293, -1.0917468215610353 
0.7999999999999282, -1.0916410672857861 
0.8099999999999271, -1.0911223252296987 
0.819999999999926, -1.0902060625538517 
0.8299999999999249, -1.0889735081308967 
0.8399999999999238, -1.0875177705043444 
0.8499999999999227, -1.0858948298341529 
0.8599999999999216, -1.0841097791089367 
0.8699999999999205, -1.0821394419742822 
0.8799999999999194, -1.0799697901597098 
0.8899999999999183, -1.0776210975759992 
0.8999999999999172, -1.0751452520493276 
0.9099999999999161, -1.072607766609976 
0.919999999999915, -1.0700922508042914 
0.9299999999999139, -1.0677437976045216 
0.9399999999999128, -1.065794021033199 
0.9499999999999117, -1.0644754082825745 
0.9599999999999106, -1.0638446851402767 
0.9699999999999095, -1.063697004995314 
0.9799999999999084, -1.063671575030337 
0.9899999999999073, -1.0634090720587661 
0.9999999999999062, -1.0626218442621025 
1.0099999999999052, -1.0611077098644457 
1.019999999999904, -1.0587832489279214 
1.029999999999903, -1.0557249165476734 
1.039999999999902, -1.0521405932968502 
1.0499999999999008, -1.0482604247407459 
1.0599999999998997, -1.0442369961248121 
1.0699999999998986, -1.0401222210876435 
1.0799999999998975, -1.0359032752251245 
1.0899999999998964, -1.0315507882025643 
1.0999999999998953, -1.0270535537085839 
1.1099999999998942, -1.0224455131888315 
1.119999999999893, -1.017848276781695 
1.129999999999892, -1.0135267486794988 
1.1399999999998909, -1.0098853963479173 
1.1499999999998898, -1.0073085654175045 
1.1599999999998887, -1.0059009702348904 
1.1699999999998876, -1.00538479438293 
1.1799999999998865, -1.0052708246207591 
1.1899999999998854, -1.005088491090933 
1.1999999999998843, -1.004471844296165 
1.2099999999998832, -1.0031389643438728 
1.219999999999882, -1.0008910536657265 
1.229999999999881, -0.9976809144356835 
1.2399999999998799, -0.9936747791476528 
1.2499999999998788, -0.989191687105983 
1.2599999999998777, -0.9845426896120267 
1.2699999999998766, -0.9799138046815254 
1.2799999999998755, -0.975359768110251 
1.2899999999998744, -0.9708612171794732 
1.2999999999998733, -0.9663848833416907 
1.3099999999998722, -0.9619223214794145 
1.319999999999871, -0.9575124349634148 
1.32999999999987, -0.9532646536913179 
1.3399999999998689, -0.9493827413773641 
1.3499999999998678, -0.9461495992580204 
1.3599999999998666, -0.9438239863889729 
1.3699999999998655, -0.9424812269874445 
1.3799999999998644, -0.9419352203203968 
1.3899999999998633, -0.9418248427111626 
1.3999999999998622, -0.9417699044252391 
1.4099999999998611, -0.9414646117994989 
1.41999999999986, -0.9406965988479404 
1.429999999999859, -0.9393550683495244 
1.4399999999998578, -0.9374567307898021 
1.4499999999998567, -0.9351484854625018 
1.4599999999998556, -0.932642503227688 
1.4699999999998545, -0.930118032690601 
1.4799999999998534, -0.9276641957339944 
1.4899999999998523, -0.9252867205176079 
1.4999999999998512, -0.9229508939464578 
1.5099999999998501, -0.9206285046098681 
1.519999999999849, -0.9183278414725999 
1.529999999999848, -0.9160974576786144 
1.5399999999998468, -0.9140095308924231 
1.5499999999998457, -0.912141498659796 
1.5599999999998446, -0.9105714509369245 
1.5699999999998435, -0.9093804967487266 
1.5799999999998424, -0.9086375558111147 
1.5899999999998413, -0.9083580622274979 
1.5999999999998402, -0.9084672808472882 
1.6099999999998391, -0.9088086314499788 
1.619999999999838, -0.9091964598970257 
1.629999999999837, -0.9094758451930103 
1.6399999999998358, -0.9095616416239236 
1.6499999999998347, -0.9094514303714748 
1.6599999999998336, -0.9092101170919829 
1.6699999999998325, -0.9089273180808666 
1.6799999999998314, -0.9086663065578827 
1.6899999999998303, -0.9084307549904269 
1.6999999999998292, -0.9081633940922911 
1.709999999999828, -0.9077768442600839 
1.719999999999827, -0.9072036521140404 
1.729999999999826, -0.906440159670176 
1.7399999999998248, -0.9055642766359389 
1.7499999999998237, -0.9047247273325606 
1.7599999999998226, -0.9041043411691703 
1.7699999999998215, -0.9038623191881332 
1.7799999999998204, -0.9040808625987585 
1.7899999999998193, -0.9047528666059786 
1.7999999999998182, -0.905814758656795 
1.809999999999817, -0.9071874398792099 
1.819999999999816, -0.9087936072473163 
1.8299999999998149, -0.9105568051298819 
1.8399999999998138, -0.9124055939417477 
1.8499999999998127, -0.9142910911451892 
1.8599999999998116, -0.9162040720624398 
1.8699999999998105, -0.9181729828647365 
1.8799999999998094, -0.9202356818287034 
1.8899999999998083, -0.9223924333699397 
1.8999999999998072, -0.9245595029061695 
1.909999999999806, -0.9265556727113056 
1.919999999999805, -0.9281545105646307 
1.9299999999998039, -0.9291868090805127 
1.9399999999998028, -0.9296159192115125 
1.9499999999998017, -0.9295393146483457 
1.9599999999998006, -0.9291584283685138 
1.9699999999997995, -0.9287701676953517 
1.9799999999997984, -0.9287641625108168 
1.9899999999997973, -0.9295548703157284 
1.9999999999997962, -0.9314232589320015 
2.0099999999998173, -0.9343785168448372 
2.0199999999998384, -0.9381828435803226 
2.0299999999998595, -0.9425135913648892 
2.0399999999998806, -0.9471097931188114 
2.0499999999999017, -0.9518220043258673 
2.059999999999923, -0.9565962212136908 
2.069999999999944, -0.9614428199376734 
2.079999999999965, -0.9664047674613352 
2.089999999999986, -0.9715115465305763 
2.100000000000007, -0.9767078504358727 
2.1100000000000283, -0.9817775909999064 
2.1200000000000494, -0.9863360999840882 
2.1300000000000705, -0.9899664306271836 
2.1400000000000916, -0.9924329103217392 
2.1500000000001127, -0.9937734195792345 
2.160000000000134, -0.9942142515736849 
2.170000000000155, -0.9940580424205232 
2.180000000000176, -0.9936688611821097 
2.190000000000197, -0.993533986353024 
2.2000000000002182, -0.994267348310134 
2.2100000000002393, -0.996407370964896 
2.2200000000002604, -1.0000935306195653 
2.2300000000002815, -1.0049762152577584 
2.2400000000003026, -1.0104862729386543 
2.2500000000003237, -1.0161560401191179 
2.260000000000345, -1.0217360762527408 
2.270000000000366, -1.0271493190325072 
2.280000000000387, -1.0324112109685486 
2.290000000000408, -1.037568317576889 
2.3000000000004293, -1.0426432792541858 
2.3100000000004504, -1.0475703518739377 
2.3200000000004715, -1.0521431917378872 
2.3300000000004926, -1.056039054467833 
2.3400000000005137, -1.0589577874780667 
2.3500000000005348, -1.0607835561087642 
2.360000000000556, -1.061621421008684 
2.370000000000577, -1.0617152787201456 
2.380000000000598, -1.0613796874369101 
2.390000000000619, -1.0610052515102 
2.4000000000006403, -1.0610576347713248 
2.4100000000006614, -1.0619434525675229 
2.4200000000006825, -1.0637833397851462 
2.4300000000007036, -1.066351546686148 
2.4400000000007247, -1.0692767113947794 
2.450000000000746, -1.0722653608766572 
2.460000000000767, -1.0751619105034211 
2.470000000000788, -1.0778978549697986 
2.480000000000809, -1.0804427552707656 
2.49000000000083, -1.0827918373419272 
2.5000000000008513, -1.0849622957728418 
2.5100000000008724, -1.0869713716367042 
2.5200000000008935, -1.0887995687664602 
2.5300000000009146, -1.0903650389307125 
2.5400000000009357, -1.0915385985492205 
2.550000000000957, -1.0922043248533535 
2.560000000000978, -1.0923269424249118 
2.570000000000999, -1.091980483846536 
2.58000000000102, -1.0913387416851754 
2.5900000000010412, -1.0906460703286691 
2.6000000000010624, -1.0901531398453153 
2.6100000000010835, -1.0900149305580693 
2.6200000000011046, -1.0902333937860313 
2.6300000000011257, -1.0907169382458606 
2.6400000000011468, -1.091383349507462 
2.650000000001168, -1.092187319016763 
2.660000000001189, -1.0930705106164595 
2.67000000000121, -1.0939242256490813 
2.680000000001231, -1.0946157857070362 
2.6900000000012523, -1.0950443015162656 
2.7000000000012734, -1.0951754247707268 
2.7100000000012945, -1.0950377841869356 
2.7200000000013156, -1.094687905297328 
2.7300000000013367, -1.094165655178094 
2.740000000001358, -1.093468184406834 
2.750000000001379, -1.0925577082818436 
2.7600000000014, -1.0913969041659883 
2.770000000001421, -1.089988773288314 
2.780000000001442, -1.088394602348006 
2.7900000000014633, -1.086715922879542 
2.8000000000014844, -1.085051583690786 
2.8100000000015055, -1.08347247332168 
2.8200000000015266, -1.0820500411793745 
2.8300000000015477, -1.0809023606974342 
2.840000000001569, -1.080168509623693 
2.85000000000159, -1.0798933063494809 
2.860000000001611, -1.0799407802009533 
2.870000000001632, -1.0800415341252831 
2.8800000000016532, -1.0799099357551487 
2.8900000000016743, -1.079321644690112 
2.9000000000016954, -1.0781462307619525 
2.9100000000017165, -1.0763700816694404 
2.9200000000017377, -1.074094411289012 
2.9300000000017588, -1.071478459477144 
2.94000000000178, -1.0686573530626307 
2.950000000001801, -1.0656957920249681 
2.960000000001822, -1.0625966323498302 
2.970000000001843, -1.0593386489216077 
2.9800000000018643, -1.0559107654186168 
2.9900000000018854, -1.0523274438204446 
3.0000000000019065, -1.048638336968285 
3.0100000000019276, -1.0449615343805143 
3.0200000000019487, -1.0415366100548356 
3.03000000000197, -1.0387181376611907 
3.040000000001991, -1.036818367452479 
3.050000000002012, -1.0358751905171908 
3.060000000002033, -1.035591722830672 
3.070000000002054, -1.0355134259124017 
3.0800000000020753, -1.0352199469930303 
3.0900000000020964, -1.0343803793627626 
3.1000000000021175, -1.0327397472303352 
3.1100000000021386, -1.0301466226313578 
3.1200000000021597, -1.0266285047886603 
3.130000000002181, -1.0224105069368685 
3.140000000002202, -1.0178055071596117 
3.150000000002223, -1.0130628773230659 
3.160000000002244, -1.0083006693709706 
3.1700000000022652, -1.003531980893584 
3.1800000000022863, -0.9987251669740221 
3.1900000000023074, -0.9938542115080409 
3.2000000000023285, -0.9889330267559201 
3.2100000000023496, -0.9840507217089478 
3.2200000000023707, -0.9794162822778724 
3.230000000002392, -0.9753725044175241 
3.240000000002413, -0.9722987971347326 
3.250000000002434, -0.9703967573770695 
3.260000000002455, -0.9695293684463516 
3.2700000000024763, -0.9692888075806103 
3.2800000000024974, -0.9692073691169728 
3.2900000000025185, -0.9688989707027492 
3.3000000000025396, -0.9680779704185845 
3.3100000000025607, -0.966546394341537 
3.3200000000025818, -0.9642251902538195 
3.330000000002603, -0.9612065581931806 
3.340000000002624, -0.9577351095126062 
3.350000000002645, -0.9540907171620502 
3.360000000002666, -0.9504690340504982 
3.3700000000026873, -0.9469462093561237 
3.3800000000027084, -0.9435156488790376 
3.3900000000027295, -0.9401447826195634 
3.4000000000027506, -0.9368177105319699 
3.4100000000027717, -0.9335530569092411 
3.420000000002793, -0.9304044489038772 
3.430000000002814, -0.927460800808042 
3.440000000002835, -0.9248527716802768 
3.450000000002856, -0.9227440716847835 
3.460000000002877, -0.9212771542346309 
3.4700000000028983, -0.9204854987426397 
3.4800000000029194, -0.9202433450299672 
3.4900000000029405, -0.9203058384897111 
3.5000000000029616, -0.9204026259356887 
3.5100000000029827, -0.920312582005057 
3.520000000003004, -0.919898921484477 
3.530000000003025, -0.9191249438896476 
3.540000000003046, -0.9180539419150368 
3.550000000003067, -0.9168144325601503 
3.5600000000030882, -0.9155353115940569 
3.5700000000031094, -0.9142904142583961 
3.5800000000031305, -0.9130825665312272 
3.5900000000031516, -0.9118653716049658 
3.6000000000031727, -0.9105856714785044 
3.6100000000031938, -0.909226154570943 
3.620000000003215, -0.9078286832299793 
3.630000000003236, -0.906488492531256 
3.640000000003257, -0.9053228469325058 
3.650000000003278, -0.9044308799611864 
3.6600000000032993, -0.9038695011297918 
3.6700000000033204, -0.9036578507546933 
3.6800000000033415, -0.903793849384947 
3.6900000000033626, -0.9042564821784855 
3.7000000000033837, -0.9049916929926913 
3.710000000003405, -0.9059062759447553 
3.720000000003426, -0.9068884328627801 
3.730000000003447, -0.9078458023895688 
3.740000000003468, -0.9087368436380135 
3.750000000003489, -0.9095777308922491 
3.7600000000035103, -0.9104202114958337 
3.7700000000035314, -0.9113095859806597 
3.7800000000035525, -0.912241555150282 
3.7900000000035736, -0.9131385933431743 
3.8000000000035947, -0.9138645860880199 
3.810000000003616, -0.9142815720228997 
3.820000000003637, -0.9143178597999648 
3.830000000003658, -0.914004615127735 
3.840000000003679, -0.9134755951954989 
3.8500000000037002, -0.9129531417058805 
3.8600000000037213, -0.9127201743948825 
3.8700000000037424, -0.9130519285819302 
3.8800000000037635, -0.9141148751962751 
3.8900000000037847, -0.9159044473379033 
3.9000000000038058, -0.9182796104197035 
3.910000000003827, -0.9210569226799661 
3.920000000003848, -0.9240833106583148 
3.930000000003869, -0.9272575470465799 
3.94000000000389, -0.9305249696217075 
3.9500000000039113, -0.9338720850721035 
3.9600000000039324, -0.9373214259515427 
3.9700000000039535, -0.9409111965349493 
3.9800000000039746, -0.9446492487703964 
3.9900000000039957, -0.9484485400765645 
4.000000000004016, -0.9520805875616789 
4.010000000003993, -0.9552116986038784 
4.02000000000397, -0.9575446971188974 
4.030000000003946, -0.9589628808174371 
4.040000000003923, -0.9595506253143213 
4.0500000000039, -0.9595193628813549 
4.0600000000038765, -0.959158798238632 
4.070000000003853, -0.9588598791605639 
4.08000000000383, -0.9591416885342718 
4.090000000003807, -0.9605543452817518 
4.100000000003783, -0.9634261185890542 
4.11000000000376, -0.9676649480411713 
4.120000000003737, -0.9728466960291134 
4.130000000003713, -0.9784929550863277 
4.14000000000369, -0.984270688693709 
4.150000000003667, -0.9900253536020568 
4.1600000000036434, -0.9957282517268456 
4.17000000000362, -1.0014153849779484 
4.180000000003597, -1.007131128737789 
4.1900000000035735, -1.0128596976319746 
4.20000000000355, -1.0184449555305517 
4.210000000003527, -1.023551516790036 
4.220000000003504, -1.0277550722782327 
4.23000000000348, -1.0307542142603765 
4.240000000003457, -1.0325209639888473 
4.250000000003434, -1.0332578481386006 
4.26000000000341, -1.0332694867638232 
4.270000000003387, -1.0329097175408992 
4.280000000003364, -1.0326241542447065 
4.2900000000033405, -1.032969221900846 
4.300000000003317, -1.0344507981362236 
4.310000000003294, -1.037226686363528 
4.320000000003271, -1.0410040385230999 
4.330000000003247, -1.0452814201089358 
4.340000000003224, -1.0496482007948633 
4.350000000003201, -1.0538870633891082 
4.360000000003177, -1.057923646022534 
4.370000000003154, -1.061755388255552 
4.380000000003131, -1.0654103913600184 
4.390000000003107, -1.068918159492975 
4.400000000003084, -1.0722696896813113 
4.410000000003061, -1.0753743002771599 
4.4200000000030375, -1.0780504843404537 
4.430000000003014, -1.0800875606015394 
4.440000000002991, -1.081354324591661 
4.450000000002968, -1.0818672112106493 
4.460000000002944, -1.0817773356419473 
4.470000000002921, -1.0813315063981783 
4.480000000002898, -1.0808517768389667 
4.490000000002874, -1.0806882117328782 
4.500000000002851, -1.0810894262734538 
4.510000000002828, -1.0820761768021183 
4.520000000002804, -1.0834748427618215 
4.530000000002781, -1.0850768126601775 
4.540000000002758, -1.0867431184894731 
4.5500000000027345, -1.0883917848520424 
4.560000000002711, -1.0899488333435383 
4.570000000002688, -1.0913392207198995 
4.580000000002665, -1.0925135946517326 
4.590000000002641, -1.0934673084342428 
4.600000000002618, -1.0942279509355326 
4.610000000002595, -1.0948195268289402 
4.620000000002571, -1.0952284238312293 
4.630000000002548, -1.0953959181946789 
4.640000000002525, -1.0952469062504764 
4.6500000000025015, -1.0947397417388651 
4.660000000002478, -1.093905930074197 
4.670000000002455, -1.092858371422996 
4.6800000000024315, -1.0917624153726817 
4.690000000002408, -1.090772848417851 
4.700000000002385, -1.0899732168944998 
4.710000000002362, -1.0893792795543016 
4.720000000002338, -1.0890027948436858 
4.730000000002315, -1.0888849664750702 
4.740000000002292, -1.0890427727606755 
4.750000000002268, -1.089392089962701 
4.760000000002245, -1.0897483985281178 
4.770000000002222, -1.0899028287541976 
4.7800000000021985, -1.0896968189886969 
4.790000000002175, -1.089060047056858 
4.800000000002152, -1.08801617856879 
4.810000000002129, -1.0866539524197483 
4.820000000002105, -1.085070741376506 
4.830000000002082, -1.0833235209253758 
4.840000000002059, -1.0814173165887027 
4.850000000002035, -1.079329744445927 
4.860000000002012, -1.0770483415134895 
4.870000000001989, -1.0745938779507578 
4.880000000001965, -1.0720165384200737 
4.890000000001942, -1.0693810278768328 
4.900000000001919, -1.0667780349715248 
4.9100000000018955, -1.0643702565922049 
4.920000000001872, -1.0624061878384727 
4.930000000001849, -1.061114335720988 
