t, s[1].omega / s[0].omega 
0, -0.719997690298227 
0.009999999999999995, -0.7198106402713362 
0.019999999999999934, -0.7196863524705359 
0.029999999999999874, -0.7195632243704978 
0.04000000000000012, -0.7193695221327168 
0.050000000000000405, -0.7190540970687158 
0.06000000000000069, -0.7186059713434482 
0.07000000000000098, -0.7180594363267379 
0.08000000000000126, -0.717493889490876 
0.09000000000000155, -0.7170381305137198 
0.10000000000000184, -0.7168797789183576 
0.11000000000000212, -0.7172712735374833 
0.12000000000000241, -0.7185206958152043 
0.130000000000002, -0.7209617577354444 
0.1400000000000009, -0.7249114608443401 
0.1499999999999998, -0.7306361729486456 
0.1599999999999987, -0.7383445690221386 
0.1699999999999976, -0.7482076327886001 
0.1799999999999965, -0.7603824933018182 
0.1899999999999954, -0.774996313802372 
0.1999999999999943, -0.792029076986823 
0.2099999999999932, -0.8110416714850265 
0.2199999999999921, -0.8308219412656317 
0.229999999999991, -0.8493406080480277 
0.2399999999999899, -0.8644995946957362 
0.2499999999999888, -0.8752732570353199 
0.2599999999999877, -0.8820308950273311 
0.2699999999999866, -0.8858510120439357 
0.2799999999999855, -0.8877738447160507 
0.2899999999999844, -0.8885101637672106 
0.2999999999999833, -0.8884590367242226 
0.3099999999999822, -0.8878104992063033 
0.3199999999999811, -0.8866576437668637 
0.32999999999998, -0.8851625772360636 
0.3399999999999789, -0.8839290701786929 
0.3499999999999778, -0.8848681198251483 
0.35999999999997667, -0.892831945084604 
0.36999999999997557, -0.9174442688648863 
0.37999999999997447, -0.9718417945419878 
0.38999999999997337, -1.0625422075787634 
0.39999999999997227, -1.174795030968504 
0.40999999999997117, -1.2787028423398026 
0.41999999999997006, -1.3550691169867406 
0.42999999999996896, -1.4030713966046646 
0.43999999999996786, -1.430222735594072 
0.44999999999996676, -1.444425522145948 
0.45999999999996566, -1.4513862517995544 
0.46999999999996456, -1.4545386381125338 
0.47999999999996346, -1.4557188640994623 
0.48999999999996235, -1.4558543983870222 
0.49999999999996125, -1.455461518979291 
0.5099999999999602, -1.4549662327780455 
0.519999999999959, -1.4548057094359657 
0.529999999999958, -1.45523112032606 
0.5399999999999568, -1.4561171547187504 
0.5499999999999557, -1.4571619205810802 
0.5599999999999546, -1.4581621062558532 
0.5699999999999535, -1.4590143769152806 
0.5799999999999524, -1.4596118590176177 
0.5899999999999513, -1.45982385399496 
0.5999999999999502, -1.4595212243973057 
0.6099999999999491, -1.4585853783005134 
0.619999999999948, -1.4569055793343746 
0.6299999999999469, -1.454372651443558 
0.6399999999999458, -1.450861011486349 
0.6499999999999447, -1.446198307463987 
0.6599999999999436, -1.4401407701485256 
0.6699999999999425, -1.4324125477624852 
0.6799999999999414, -1.4229759793263548 
0.6899999999999403, -1.4127399554921698 
0.6999999999999392, -1.4041254565909425 
0.7099999999999381, -1.3995147940765598 
0.719999999999937, -1.3985667547500635 
0.7299999999999359, -1.3991045435403937 
0.7399999999999348, -1.3995907554379072 
0.7499999999999337, -1.3994360742326841 
0.7599999999999326, -1.398266757060324 
0.7699999999999315, -1.395232267716679 
0.7799999999999304, -1.3879122744861192 
0.7899999999999293, -1.369208879921319 
0.7999999999999282, -1.3177096126221663 
0.8099999999999271, -1.172679302752338 
0.819999999999926, -0.8062395964037476 
0.8299999999999249, -0.1735335993131411 
0.8399999999999238, 0.2463985805959792 
0.8499999999999227, 0.3674844206059019 
0.8599999999999216, 0.40145081369667535 
0.8699999999999205, 0.413227292024143 
0.8799999999999194, 0.41802490374684176 
0.8899999999999183, 0.42014193573124514 
0.8999999999999172, 0.42106760141580357 
0.9099999999999161, 0.42142092985993107 
0.919999999999915, 0.42151600260298344 
0.9299999999999139, 0.4215658485644863 
0.9399999999999128, 0.4217869471527491 
0.9499999999999117, 0.422488164646624 
0.9599999999999106, 0.4241574038149194 
0.9699999999999095, 0.4274539592511908 
0.9799999999999084, 0.4328587667186244 
0.9899999999999073, 0.4399375825846831 
0.9999999999999062, 0.4471413413300029 
1.0099999999999052, 0.4529161568086999 
1.019999999999904, 0.4567189446698931 
1.029999999999903, 0.45879594865185175 
1.039999999999902, 0.4595495124776037 
1.0499999999999008, 0.45919569671630106 
1.0599999999998997, 0.4576534986920005 
1.0699999999998986, 0.4544879644959007 
1.0799999999998975, 0.4489184151072666 
1.0899999999998964, 0.4402185202845298 
1.0999999999998953, 0.4289178428894851 
1.1099999999998942, 0.4176734483015695 
1.119999999999893, 0.40935642487878665 
1.129999999999892, 0.40455450356684236 
1.1399999999998909, 0.40217509569062215 
1.1499999999998898, 0.40104774487813033 
1.1599999999998887, 0.40045292462407067 
1.1699999999998876, 0.4000098814992728 
1.1799999999998865, 0.39949155760157795 
1.1899999999998854, 0.3986928956244163 
1.1999999999998843, 0.39731326013732 
1.2099999999998832, 0.3947562871041816 
1.219999999999882, 0.389597608846299 
1.229999999999881, 0.3777992812802499 
1.2399999999998799, 0.34539831812460764 
1.2499999999998788, 0.233413627630642 
1.2599999999998777, -0.17222222238518045 
1.2699999999998766, -0.8878346796148149 
1.2799999999998755, -1.347508318616325 
1.2899999999998744, -1.5185538660098739 
1.2999999999998733, -1.5719040383400598 
1.3099999999998722, -1.5890439542360484 
1.319999999999871, -1.5949202532901547 
1.32999999999987, -1.596854558308451 
1.3399999999998689, -1.597154343458714 
1.3499999999998678, -1.5966680322147566 
1.3599999999998666, -1.5960059263936721 
1.3699999999998655, -1.5960606247575484 
1.3799999999998644, -1.597575878070429 
1.3899999999998633, -1.6001902146305635 
1.3999999999998622, -1.602905765092618 
1.4099999999998611, -1.605145173586355 
1.41999999999986, -1.6067967823191485 
1.429999999999859, -1.6078678135753148 
1.4399999999998578, -1.6083438115669466 
1.4499999999998567, -1.6081862531720568 
1.4599999999998556, -1.6073379677999644 
1.4699999999998545, -1.6057142334785486 
1.4799999999998534, -1.6031832213340753 
1.4899999999998523, -1.5995331330884255 
1.4999999999998512, -1.59442726421847 
1.5099999999998501, -1.587402926235083 
1.519999999999849, -1.5781919168521463 
1.529999999999848, -1.5678721679239112 
1.5399999999998468, -1.5598632797803822 
1.5499999999998457, -1.5568516647018655 
1.5599999999998446, -1.557174547842944 
1.5699999999998435, -1.558048892388333 
1.5799999999998424, -1.5582927208538866 
1.5899999999998413, -1.5575353477465748 
1.5999999999998402, -1.5551339690260546 
1.6099999999998391, -1.549143743958321 
1.619999999999838, -1.534354625955253 
1.629999999999837, -1.5020760504182202 
1.6399999999998358, -1.477322951312196 
1.6499999999998347, -1.6298024651482095 
1.6599999999998336, -1.9505177600232215 
1.6699999999998325, -2.1112321182724685 
1.6799999999998314, -2.161477535540938 
1.6899999999998303, -2.178160164247852 
1.6999999999998292, -2.1841705390594592 
1.709999999999828, -2.1861742475481423 
1.719999999999827, -2.186387677458068 
1.729999999999826, -2.185626515325074 
1.7399999999998248, -2.184190931293357 
1.7499999999998237, -2.1820461808622573 
1.7599999999998226, -2.1792168385620543 
1.7699999999998215, -2.1769322076210584 
1.7799999999998204, -2.1764783709348987 
1.7899999999998193, -2.1767088944831565 
1.7999999999998182, -2.176203754955471 
1.809999999999817, -2.1738702708484423 
1.819999999999816, -2.1669372646981833 
1.8299999999998149, -2.1526529050941585 
1.8399999999998138, -2.1668886476548033 
1.8499999999998127, -2.229800043442047 
1.8599999999998116, -2.268268588430918 
1.8699999999998105, -2.2836267653624263 
1.8799999999998094, -2.289886601023203 
1.8899999999998083, -2.292399453845177 
1.8999999999998072, -2.2930012559152595 
1.909999999999806, -2.2923091345419473 
1.919999999999805, -2.290359014879246 
1.9299999999998039, -2.28660972222537 
1.9399999999998028, -2.2796820560675464 
1.9499999999998017, -2.2692212195078882 
1.9599999999998006, -2.262600861812841 
1.9699999999997995, -2.2637050954774 
1.9799999999997984, -2.2654567824991902 
1.9899999999997973, -2.2656411406184715 
1.9999999999997962, -2.264361868575541 
2.0099999999998173, -2.262007044159574 
2.0199999999998384, -2.2625065671064752 
2.0299999999998595, -2.2694881619889045 
2.0399999999998806, -2.2765282767137265 
2.0499999999999017, -2.280491464842521 
2.059999999999923, -2.2823506496782953 
2.069999999999944, -2.2828828515062622 
2.079999999999965, -2.28223599649606 
2.089999999999986, -2.280053583751568 
2.100000000000007, -2.275153369425962 
2.1100000000000283, -2.2641670940831347 
2.1200000000000494, -2.237011044022108 
2.1300000000000705, -2.171899175736437 
2.1400000000000916, -2.1025020710772653 
2.1500000000001127, -2.1079013999017704 
2.160000000000134, -2.1221104341282557 
2.170000000000155, -2.127136799005033 
2.180000000000176, -2.1283119966164277 
2.190000000000197, -2.127953915252669 
2.2000000000002182, -2.1270749952307773 
2.2100000000002393, -2.1271152964986095 
2.2200000000002604, -2.1288458423301693 
2.2300000000002815, -2.1308908305202148 
2.2400000000003026, -2.1322633686589123 
2.2500000000003237, -2.1329764685214436 
2.260000000000345, -2.1330292086291545 
2.270000000000366, -2.13212063406044 
2.280000000000387, -2.129493359650478 
2.290000000000408, -2.1232096071471895 
2.3000000000004293, -2.1078769191854447 
2.3100000000004504, -2.066722027315333 
2.3200000000004715, -1.9476863197294132 
2.3300000000004926, -1.6969766752314868 
2.3400000000005137, -1.5364121571094256 
2.3500000000005348, -1.5458228566806564 
2.360000000000556, -1.574321662001381 
2.370000000000577, -1.5877888441280328 
2.380000000000598, -1.5929259762173853 
2.390000000000619, -1.594618111084404 
2.4000000000006403, -1.5947166412101699 
2.4100000000006614, -1.5938338426233587 
2.4200000000006825, -1.5923986969809056 
2.4300000000007036, -1.5918212262171947 
2.4400000000007247, -1.5949166157616295 
2.450000000000746, -1.6025018309488317 
2.460000000000767, -1.6114082574481028 
2.470000000000788, -1.618824549264653 
2.480000000000809, -1.6241893597797443 
2.49000000000083, -1.6278765366663404 
2.5000000000008513, -1.6302992403581993 
2.5100000000008724, -1.6317325951472461 
2.5200000000008935, -1.6323424488679792 
2.5300000000009146, -1.6322251549836495 
2.5400000000009357, -1.6314325779138508 
2.550000000000957, -1.6299856262379369 
2.560000000000978, -1.6278757031966933 
2.570000000000999, -1.6250549574432096 
2.58000000000102, -1.6214888061936086 
2.5900000000010412, -1.6174652248974706 
2.6000000000010624, -1.6140127825781179 
2.6100000000010835, -1.612289052111851 
2.6200000000011046, -1.6121049076332157 
2.6300000000011257, -1.612309243366591 
2.6400000000011468, -1.612051423042804 
2.650000000001168, -1.6107299861395987 
2.660000000001189, -1.6071393456267393 
2.67000000000121, -1.5976042338121716 
2.680000000001231, -1.5698869669318152 
2.6900000000012523, -1.4830010208730544 
2.7000000000012734, -1.2334246119646521 
2.7100000000012945, -0.6883753049913037 
2.7200000000013156, 0.21088515504817526 
2.7300000000013367, 0.6312347578798867 
2.740000000001358, 0.7078888594326369 
2.750000000001379, 0.7257384532065668 
2.7600000000014, 0.7313612793182908 
2.770000000001421, 0.7333937729462625 
2.780000000001442, 0.7340799824426356 
2.7900000000014633, 0.7341873969425347 
2.8000000000014844, 0.7340620538683542 
2.8100000000015055, 0.7339170115323165 
2.8200000000015266, 0.7339155491753606 
2.8300000000015477, 0.7341768166298933 
2.840000000001569, 0.7347448060284547 
2.85000000000159, 0.7355559228366391 
2.860000000001611, 0.7364462241727859 
2.870000000001632, 0.7372093432892446 
2.8800000000016532, 0.7376582667146461 
2.8900000000016743, 0.7376269380195069 
2.9000000000016954, 0.7368745212331312 
2.9100000000017165, 0.7348175839550032 
2.9200000000017377, 0.7296977569902106 
2.9300000000017588, 0.7151850575213113 
2.94000000000178, 0.6630816581783581 
2.950000000001801, 0.4568575931760718 
2.960000000001822, 0.12937998851733942 
2.970000000001843, 0.07322594988939463 
2.9800000000018643, 0.10904102615383046 
2.9900000000018854, 0.1336516187634532 
3.0000000000019065, 0.14584838321791663 
3.0100000000019276, 0.1518225785207063 
3.0200000000019487, 0.15479701642193844 
3.03000000000197, 0.15620918800150077 
3.040000000001991, 0.15669025806755585 
3.050000000002012, 0.15648685937523188 
3.060000000002033, 0.15561321457860156 
3.070000000002054, 0.15386060785938122 
3.0800000000020753, 0.15066681306582752 
3.0900000000020964, 0.1447004049799242 
3.1000000000021175, 0.13261119820434025 
3.1100000000021386, 0.10486315446896069 
3.1200000000021597, 0.03020819121853919 
3.130000000002181, -0.19618362032141776 
3.140000000002202, -0.7579557003307411 
3.150000000002223, -1.4083225760255602 
3.160000000002244, -1.7148208546857984 
3.1700000000022652, -1.8060586350096668 
3.1800000000022863, -1.8327503479696616 
3.1900000000023074, -1.8412763329461233 
3.2000000000023285, -1.844033011775387 
3.2100000000023496, -1.844641000153875 
3.2200000000023707, -1.844342352705826 
3.230000000002392, -1.8438015497361877 
3.240000000002413, -1.8435280825167244 
3.250000000002434, -1.8436082796149502 
3.260000000002455, -1.8437757730342803 
3.2700000000024763, -1.8439295724954288 
3.2800000000024974, -1.844085142768647 
3.2900000000025185, -1.8440422988134137 
3.3000000000025396, -1.843393260816353 
3.3100000000025607, -1.8414921087984033 
3.3200000000025818, -1.8369676902999792 
3.330000000002603, -1.8264644398922378 
3.340000000002624, -1.801404936954884 
3.350000000002645, -1.7395084051586402 
3.360000000002666, -1.5906387007022962 
3.3700000000026873, -1.3175258866535597 
3.3800000000027084, -1.0474705751019298 
3.3900000000027295, -0.9068292595430844 
3.4000000000027506, -0.8584651189915 
3.4100000000027717, -0.8474031137070627 
3.420000000002793, -0.8476692899456897 
3.430000000002814, -0.8501779773140296 
3.440000000002835, -0.8523782182452475 
3.450000000002856, -0.8537965324169597 
3.460000000002877, -0.8544725067380318 
3.4700000000028983, -0.8544756294405869 
3.4800000000029194, -0.8537564411782382 
3.4900000000029405, -0.852062553774848 
3.5000000000029616, -0.8488254542478154 
3.5100000000029827, -0.8430120256286715 
3.520000000003004, -0.833086019674625 
3.530000000003025, -0.8174810263477065 
3.540000000003046, -0.79586822421688 
3.550000000003067, -0.7702368487151446 
3.5600000000030882, -0.7440654558504975 
3.5700000000031094, -0.7202531950977681 
3.5800000000031305, -0.7001168262630248 
3.5900000000031516, -0.6837694225867791 
3.6000000000031727, -0.6708037004917217 
3.6100000000031938, -0.6607069739867956 
3.620000000003215, -0.6530138781430538 
3.630000000003236, -0.6473286726247623 
3.640000000003257, -0.6433052966866931 
3.650000000003278, -0.6406261161307192 
3.6600000000032993, -0.6389935882540537 
3.6700000000033204, -0.6381348192579563 
3.6800000000033415, -0.6378120938994472 
3.6900000000033626, -0.6378317150092383 
3.7000000000033837, -0.6380472193470436 
3.710000000003405, -0.6383578599294418 
3.720000000003426, -0.6387058635559408 
3.730000000003447, -0.6390747882436046 
3.740000000003468, -0.639487042244618 
3.750000000003489, -0.6399949033043053 
3.7600000000035103, -0.6406608145755128 
3.7700000000035314, -0.6415288960528639 
3.7800000000035525, -0.6425948762297852 
3.7900000000035736, -0.6437854436352299 
3.8000000000035947, -0.6449629827089595 
3.810000000003616, -0.6459662847625987 
3.820000000003637, -0.6466695991192282 
3.830000000003658, -0.6470194700384415 
3.840000000003679, -0.6470299087269784 
3.8500000000037002, -0.6467563721066091 
3.8600000000037213, -0.6462801161030975 
3.8700000000037424, -0.6457220204787663 
3.8800000000037635, -0.645298458775866 
3.8900000000037847, -0.6454411985130049 
3.9000000000038058, -0.6470241073602511 
3.910000000003827, -0.651764481740517 
3.920000000003848, -0.6628782947239913 
3.930000000003869, -0.6859924999510629 
3.94000000000389, -0.7298778235560314 
3.9500000000039113, -0.8051053228761187 
3.9600000000039324, -0.916575708490407 
3.9700000000039535, -1.0505667608535312 
3.9800000000039746, -1.1753278342006848 
3.9900000000039957, -1.2659486510348115 
4.000000000004016, -1.3200370220154631 
4.010000000003993, -1.3482911134501845 
4.02000000000397, -1.3619025026334382 
4.030000000003946, -1.3681283147548102 
4.040000000003923, -1.3707814617486336 
4.0500000000039, -1.371669721966284 
4.0600000000038765, -1.3716316605993595 
4.070000000003853, -1.3711366564161882 
4.08000000000383, -1.3706554431312876 
4.090000000003807, -1.3708049754980633 
4.100000000003783, -1.3720606408806033 
4.11000000000376, -1.3743011110447862 
4.120000000003737, -1.3769446268237915 
4.130000000003713, -1.3794806791806433 
4.14000000000369, -1.3816699566180417 
4.150000000003667, -1.383432890789599 
4.1600000000036434, -1.3847387323504274 
4.17000000000362, -1.3855734081160265 
4.180000000003597, -1.3859353400616377 
4.1900000000035735, -1.3858288846504354 
4.20000000000355, -1.38525611609319 
4.210000000003527, -1.3842138626844052 
4.220000000003504, -1.3826984611980133 
4.23000000000348, -1.3807142675032684 
4.240000000003457, -1.3782791234751994 
4.250000000003434, -1.3754318260478138 
4.26000000000341, -1.3722824385038856 
4.270000000003387, -1.3691406696380803 
4.280000000003364, -1.3665752810021183 
4.2900000000033405, -1.3650929065350033 
4.300000000003317, -1.3646349158117594 
4.310000000003294, -1.3646398293036064 
4.320000000003271, -1.3645252113837067 
4.330000000003247, -1.3638510663049115 
4.340000000003224, -1.3621044171305603 
4.350000000003201, -1.358298152389112 
4.360000000003177, -1.3503233849433656 
4.370000000003154, -1.333896670438539 
4.380000000003131, -1.3013861810460428 
4.390000000003107, -1.2422912612336012 
4.400000000003084, -1.1489832118600714 
4.410000000003061, -1.0281461680234272 
4.4200000000030375, -0.9049134156347151 
4.430000000003014, -0.8057886178326509 
4.440000000002991, -0.7400545934578482 
4.450000000002968, -0.7021000084561677 
4.460000000002944, -0.6823164842442652 
4.470000000002921, -0.6729175821367367 
4.480000000002898, -0.6689298538734694 
4.490000000002874, -0.6675334671042676 
4.500000000002851, -0.6672480933655003 
4.510000000002828, -0.6673388926024032 
4.520000000002804, -0.6674512878102863 
4.530000000002781, -0.6674067878383068 
4.540000000002758, -0.6670978562383669 
4.5500000000027345, -0.6664430382831894 
4.560000000002711, -0.6653838297907144 
4.570000000002688, -0.6639114970294686 
4.580000000002665, -0.6620996256521863 
4.590000000002641, -0.6601035582134437 
4.600000000002618, -0.6581091390202418 
4.610000000002595, -0.6562640257003174 
4.620000000002571, -0.6546394589434559 
4.630000000002548, -0.6532344464343895 
4.640000000002525, -0.6520039315154171 
4.6500000000025015, -0.6508916623814663 
4.660000000002478, -0.6498570629848819 
4.670000000002455, -0.6488913861456289 
4.6800000000024315, -0.6480237185367069 
4.690000000002408, -0.6473211038083921 
4.700000000002385, -0.6468863603606789 
4.710000000002362, -0.6468539461138031 
4.720000000002338, -0.647382498356883 
4.730000000002315, -0.648644124688188 
4.740000000002292, -0.6508137793580399 
4.750000000002268, -0.6540643369349414 
4.760000000002245, -0.6585722006845651 
4.770000000002222, -0.6645344280993368 
4.7800000000021985, -0.6721923970049859 
4.790000000002175, -0.6818480563039924 
4.800000000002152, -0.693841875303485 
4.810000000002129, -0.7084317957525823 
4.820000000002105, -0.7254922371328212 
4.830000000002082, -0.7440578525046344 
4.840000000002059, -0.7621211914278633 
4.850000000002035, -0.7773418213929149 
4.860000000002012, -0.7883778888966902 
4.870000000001989, -0.7954046613932368 
4.880000000001965, -0.7994398795502794 
4.890000000001942, -0.8015228021221807 
4.900000000001919, -0.8023741471909036 
4.9100000000018955, -0.8023930751312092 
4.920000000001872, -0.8017408926758893 
4.930000000001849, -0.8004083765376174 
4.940000000001826, -0.7982653508553285 
4.950000000001802, -0.7951628253469539 
