t, s[1].omega / s[0].omega 
0, -0.9499975859042236 
0.009999999999999995, -0.9497498956204629 
0.019999999999999934, -0.9494595423077012 
0.029999999999999874, -0.9490537043606887 
0.04000000000000012, -0.9484609969295092 
0.050000000000000405, -0.947659374366164 
0.06000000000000069, -0.9467031714961859 
0.07000000000000098, -0.9457193014801156 
0.08000000000000126, -0.9448735989995253 
0.09000000000000155, -0.9443147299118116 
0.10000000000000184, -0.9441232411996257 
0.11000000000000212, -0.9443028121749162 
0.12000000000000241, -0.9448140225533969 
0.130000000000002, -0.9456079028394443 
0.1400000000000009, -0.946628080407617 
0.1499999999999998, -0.9477966059233722 
0.1599999999999987, -0.9490169539822695 
0.1699999999999976, -0.9502022736022724 
0.1799999999999965, -0.9513072781692469 
0.1899999999999954, -0.9523392869634055 
0.1999999999999943, -0.9533393795427637 
0.2099999999999932, -0.9543420887181112 
0.2199999999999921, -0.9553334876554251 
0.229999999999991, -0.9562305911310001 
0.2399999999999899, -0.9569012094380003 
0.2499999999999888, -0.9572233592054017 
0.2599999999999877, -0.9571490248148737 
0.2699999999999866, -0.9567335801464465 
0.2799999999999855, -0.9561313961074284 
0.2899999999999844, -0.9555754950697081 
0.2999999999999833, -0.9553319454441382 
0.3099999999999822, -0.9556138410131997 
0.3199999999999811, -0.9564955013910248 
0.32999999999998, -0.9579034869289638 
0.3399999999999789, -0.959691032481316 
0.3499999999999778, -0.9617182079547334 
0.35999999999997667, -0.9638803554207428 
0.36999999999997557, -0.9660993617064234 
0.37999999999997447, -0.9683175629706279 
0.38999999999997337, -0.9705066582685727 
0.39999999999997227, -0.9726742163210942 
0.40999999999997117, -0.9748485415807572 
0.41999999999997006, -0.9770399427072982 
0.42999999999996896, -0.9791944020909422 
0.43999999999996786, -0.9811695463939412 
0.44999999999996676, -0.9827666297147385 
0.45999999999996566, -0.9838181640600571 
0.46999999999996456, -0.9842698766990521 
0.47999999999996346, -0.9841995468381668 
0.48999999999996235, -0.983793112095394 
0.49999999999996125, -0.9833265907938789 
0.5099999999999602, -0.9831439702133021 
0.519999999999959, -0.9835738548464672 
0.529999999999958, -0.9847886498940008 
0.5399999999999568, -0.986727144592445 
0.5499999999999557, -0.9891695598101725 
0.5599999999999546, -0.9918817626350409 
0.5699999999999535, -0.9946980730143087 
0.5799999999999524, -0.9975216794027382 
0.5899999999999513, -1.000299640688694 
0.5999999999999502, -1.003012160743848 
0.6099999999999491, -1.0056699833284628 
0.619999999999948, -1.0082974662735258 
0.6299999999999469, -1.0108937019639235 
0.6399999999999458, -1.0133867361236057 
0.6499999999999447, -1.015614751182744 
0.6599999999999436, -1.0173699150759385 
0.6699999999999425, -1.0184955635589292 
0.6799999999999414, -1.0189637756496501 
0.6899999999999403, -1.018881348963678 
0.6999999999999392, -1.0184591766497386 
0.7099999999999381, -1.0179935736667236 
0.719999999999937, -1.0178357270292668 
0.7299999999999359, -1.0182888686769789 
0.7399999999999348, -1.019465239643866 
0.7499999999999337, -1.021246870204847 
0.7599999999999326, -1.0234016831355937 
0.7699999999999315, -1.0257241931173626 
0.7799999999999304, -1.0280840955454125 
0.7899999999999293, -1.0304021083022064 
0.7999999999999282, -1.0326244228334036 
0.8099999999999271, -1.034723410530222 
0.819999999999926, -1.036703631619353 
0.8299999999999249, -1.0385877320542314 
0.8399999999999238, -1.0403803147852255 
0.8499999999999227, -1.0420296231614388 
0.8599999999999216, -1.0434168482443495 
0.8699999999999205, -1.0443951613279183 
0.8799999999999194, -1.044863531091467 
0.8899999999999183, -1.044823216880396 
0.8999999999999172, -1.0443871381491097 
0.9099999999999161, -1.0437621601586025 
0.919999999999915, -1.0432164695543917 
0.9299999999999139, -1.0430059423815972 
0.9399999999999128, -1.0432675837591092 
0.9499999999999117, -1.0439721319452953 
0.9599999999999106, -1.0449926230545208 
0.9699999999999095, -1.0462070113328115 
0.9799999999999084, -1.0475321797177304 
0.9899999999999073, -1.0488939648474507 
0.9999999999999062, -1.0502034199956365 
1.0099999999999052, -1.0513744700559573 
1.019999999999904, -1.05235822548293 
1.029999999999903, -1.0531569746629938 
1.039999999999902, -1.053805292598019 
1.0499999999999008, -1.054330653575499 
1.0599999999998997, -1.0547185122758937 
1.0699999999998986, -1.0549051413106554 
1.0799999999998975, -1.05480727718865 
1.0899999999998964, -1.0543737669091082 
1.0999999999998953, -1.0536275634429133 
1.1099999999998942, -1.052676758936093 
1.119999999999893, -1.051691041313735 
1.129999999999892, -1.0508441033952898 
1.1399999999998909, -1.0502447925880865 
1.1499999999998898, -1.0499145640702254 
1.1599999999998887, -1.0498339676220987 
1.1699999999998876, -1.0499949878745098 
1.1799999999998865, -1.0503905902222406 
1.1899999999998854, -1.0509609627673326 
1.1999999999998843, -1.051573694259838 
1.2099999999998832, -1.0520672189484084 
1.219999999999882, -1.0523142717391318 
1.229999999999881, -1.0522610308148408 
1.2399999999998799, -1.0519301575777829 
1.2499999999998788, -1.0513901899984899 
1.2599999999998777, -1.0507065401547533 
1.2699999999998766, -1.0499030884011253 
1.2799999999998755, -1.048956301229208 
1.2899999999998744, -1.0478223465887213 
1.2999999999998733, -1.0464793343224241 
1.3099999999998722, -1.0449587047755224 
1.319999999999871, -1.0433459304498078 
1.32999999999987, -1.0417486607599606 
1.3399999999998689, -1.040256529833097 
1.3499999999998678, -1.0389331087949762 
1.3599999999998666, -1.0378483048541907 
1.3699999999998655, -1.037097667383111 
1.3799999999998644, -1.0367531246911073 
1.3899999999998633, -1.0367768545513314 
1.3999999999998622, -1.036996705142575 
1.4099999999998611, -1.0371740744397737 
1.41999999999986, -1.037093098575526 
1.429999999999859, -1.0366144524033452 
1.4399999999998578, -1.0356985262816827 
1.4499999999998567, -1.0344038201810672 
1.4599999999998556, -1.0328477756102301 
1.4699999999998545, -1.0311421243712862 
1.4799999999998534, -1.0293451990746798 
1.4899999999998523, -1.0274575173495277 
1.4999999999998512, -1.0254522761576084 
1.5099999999998501, -1.0233157042834615 
1.519999999999849, -1.0210722297152164 
1.529999999999848, -1.0187816115336155 
1.5399999999998468, -1.0165185956626284 
1.5499999999998457, -1.0143651966502365 
1.5599999999998446, -1.012431646568042 
1.5699999999998435, -1.010872090764326 
1.5799999999998424, -1.0098361603902704 
1.5899999999998413, -1.0093609642232888 
1.5999999999998402, -1.00930534395966 
1.6099999999998391, -1.0094022358649186 
1.619999999999838, -1.0093694888618852 
1.629999999999837, -1.0089855137313488 
1.6399999999998358, -1.0081209255477943 
1.6499999999998347, -1.0067574413735803 
1.6599999999998336, -1.0049868683695728 
1.6699999999998325, -1.002962767302587 
1.6799999999998314, -1.0008232516367115 
1.6899999999998303, -0.9986396826603245 
1.6999999999998292, -0.996416910962542 
1.709999999999828, -0.994128804257546 
1.719999999999827, -0.9917601952725414 
1.729999999999826, -0.9893317380945353 
1.7399999999998248, -0.9868982609127477 
1.7499999999998237, -0.9845325914686806 
1.7599999999998226, -0.9823206641659649 
1.7699999999998215, -0.9803769797113263 
1.7799999999998204, -0.9788482805726229 
1.7899999999998193, -0.977861188003958 
1.7999999999998182, -0.9774289615620526 
1.809999999999817, -0.9774049775139803 
1.819999999999816, -0.9775363995444947 
1.8299999999998149, -0.9775629987467921 
1.8399999999998138, -0.9772857596259982 
1.8499999999998127, -0.9765976393584447 
1.8599999999998116, -0.9754978589719171 
1.8699999999998105, -0.974081693189809 
1.8799999999998094, -0.9724889981584581 
1.8899999999998083, -0.9708349400548656 
1.8999999999998072, -0.9691688505727616 
1.909999999999806, -0.9674787918483293 
1.919999999999805, -0.9657273631592403 
1.9299999999998039, -0.9638945966931617 
1.9399999999998028, -0.9620054892782408 
1.9499999999998017, -0.960129095847722 
1.9599999999998006, -0.9583536774838386 
1.9699999999997995, -0.9567604271204528 
1.9799999999997984, -0.9554192550191581 
1.9899999999997973, -0.9544020801212195 
1.9999999999997962, -0.9537789016182037 
2.0099999999998173, -0.9535757303146095 
2.0199999999998384, -0.9537265459489911 
2.0299999999998595, -0.9540738346336355 
2.0399999999998806, -0.954424148538379 
2.0499999999999017, -0.9546143038137739 
2.059999999999923, -0.9545539419827372 
2.069999999999944, -0.9542395450993695 
2.079999999999965, -0.9537385424699689 
2.089999999999986, -0.9531444793172369 
2.100000000000007, -0.9525242695160866 
2.1100000000000283, -0.9518869815227742 
2.1200000000000494, -0.951187734036178 
2.1300000000000705, -0.9503618221862442 
2.1400000000000916, -0.9493713918069089 
2.1500000000001127, -0.948240518487401 
2.160000000000134, -0.9470618920847249 
2.170000000000155, -0.9459720469373648 
2.180000000000176, -0.9451039028842565 
2.190000000000197, -0.9445420260480033 
2.2000000000002182, -0.9443121538308474 
2.2100000000002393, -0.9444058906841819 
2.2200000000002604, -0.9448038428414893 
2.2300000000002815, -0.9454692038511932 
2.2400000000003026, -0.9463276473118724 
2.2500000000003237, -0.9472692699681783 
2.260000000000345, -0.9481817999332416 
2.270000000000366, -0.9489914433903796 
2.280000000000387, -0.9496845716098792 
2.290000000000408, -0.9502985385689966 
2.3000000000004293, -0.9508859175581937 
2.3100000000004504, -0.9514699157301786 
2.3200000000004715, -0.952013628134476 
2.3300000000004926, -0.9524215119689442 
2.3400000000005137, -0.9525794620360705 
2.3500000000005348, -0.9524149672999596 
2.360000000000556, -0.9519410999873339 
2.370000000000577, -0.9512668072633568 
2.380000000000598, -0.9505818177602103 
2.390000000000619, -0.9501170452601192 
2.4000000000006403, -0.950072889610832 
2.4100000000006614, -0.9505432785155514 
2.4200000000006825, -0.9514963685612454 
2.4300000000007036, -0.952827033691929 
2.4400000000007247, -0.9544232521426494 
2.450000000000746, -0.9561926455753704 
2.460000000000767, -0.9580555149190104 
2.470000000000788, -0.9599406836995181 
2.480000000000809, -0.9617993192962047 
2.49000000000083, -0.96362091188884 
2.5000000000008513, -0.965429486462274 
2.5100000000008724, -0.9672534861548984 
2.5200000000008935, -0.9690807811183904 
2.5300000000009146, -0.9708224101330343 
2.5400000000009357, -0.9723156158415348 
2.550000000000957, -0.9733838583114686 
2.560000000000978, -0.9739226874147967 
2.570000000000999, -0.9739484710423886 
2.58000000000102, -0.9735933881937047 
2.5900000000010412, -0.9730855244487169 
2.6000000000010624, -0.9727301509957638 
2.6100000000010835, -0.9728527315338822 
2.6200000000011046, -0.9736800728084131 
2.6300000000011257, -0.9752368348003044 
2.6400000000011468, -0.9773652922536453 
2.650000000001168, -0.979846548841809 
2.660000000001189, -0.982502250936454 
2.67000000000121, -0.9852184460417679 
2.680000000001231, -0.9879271670029681 
2.6900000000012523, -0.9905934222993587 
2.7000000000012734, -0.9932149559341088 
2.7100000000012945, -0.99581443043201 
2.7200000000013156, -0.99840915377292 
2.7300000000013367, -1.0009642861419277 
2.740000000001358, -1.003355678351887 
2.750000000001379, -1.0053816009572814 
2.7600000000014, -1.0068424409139927 
2.770000000001421, -1.0076401123456789 
2.780000000001442, -1.0078189490660587 
2.7900000000014633, -1.0075431290237413 
2.8000000000014844, -1.0070697628390297 
2.8100000000015055, -1.006735022301696 
2.8200000000015266, -1.0068966033386049 
2.8300000000015477, -1.007796312302095 
2.840000000001569, -1.009439599312381 
2.85000000000159, -1.0116291104246364 
2.860000000001611, -1.0141160703265788 
2.870000000001632, -1.0167137674002755 
2.8800000000016532, -1.0193118080971788 
2.8900000000016743, -1.0218456524876423 
2.9000000000016954, -1.0242797857743018 
2.9100000000017165, -1.0266091768870003 
2.9200000000017377, -1.028853356033595 
2.9300000000017588, -1.0310277569815933 
2.94000000000178, -1.0331013440273986 
2.950000000001801, -1.0349677729833444 
2.960000000001822, -1.0364626866485902 
2.970000000001843, -1.0374348469790862 
2.9800000000018643, -1.0378253885098654 
2.9900000000018854, -1.0376983037123124 
3.0000000000019065, -1.0372257902694222 
3.0100000000019276, -1.036665473660141 
3.0200000000019487, -1.036321158466904 
3.03000000000197, -1.0364477982843519 
3.040000000001991, -1.037136298700132 
3.050000000002012, -1.038294972100418 
3.060000000002033, -1.0397529236581151 
3.070000000002054, -1.0413668553331532 
3.0800000000020753, -1.0430426175244991 
3.0900000000020964, -1.044703177362691 
3.1000000000021175, -1.0462722017998565 
3.1100000000021386, -1.0476919101758484 
3.1200000000021597, -1.0489451880479148 
3.130000000002181, -1.0500526176949685 
3.140000000002202, -1.0510417727538959 
3.150000000002223, -1.0519077231639942 
3.160000000002244, -1.0525909514971117 
3.1700000000022652, -1.052992538819178 
3.1800000000022863, -1.0530246865493174 
3.1900000000023074, -1.0526658594276683 
3.2000000000023285, -1.0519878672979508 
3.2100000000023496, -1.051149370496716 
3.2200000000023707, -1.050358635443518 
3.230000000002392, -1.0498018472777257 
3.240000000002413, -1.0495684540649572 
3.250000000002434, -1.0496425512935086 
3.260000000002455, -1.04996827943878 
3.2700000000024763, -1.0505061940470513 
3.2800000000024974, -1.0512203900292552 
3.2900000000025185, -1.0520330519496046 
3.3000000000025396, -1.0528176758667516 
3.3100000000025607, -1.0534433031340744 
3.3200000000025818, -1.0538260822063672 
3.330000000002603, -1.053952216712929 
3.340000000002624, -1.0538643402207362 
3.350000000002645, -1.0536210232754157 
3.360000000002666, -1.053253239400864 
3.3700000000026873, -1.0527438647154561 
3.3800000000027084, -1.052041743311007 
3.3900000000027295, -1.051101770131691 
3.4000000000027506, -1.049926907927777 
3.4100000000027717, -1.048586956469346 
3.420000000002793, -1.0472016323481195 
3.430000000002814, -1.0458939401732115 
3.440000000002835, -1.044746616921474 
3.450000000002856, -1.0438042369235228 
3.460000000002877, -1.0431144583628962 
3.4700000000028983, -1.0427422611799162 
3.4800000000029194, -1.0427158941139913 
3.4900000000029405, -1.042957461992557 
3.5000000000029616, -1.0432843269300434 
3.5100000000029827, -1.0434820981129822 
3.520000000003004, -1.043379993868033 
3.530000000003025, -1.0428920448023349 
3.540000000003046, -1.0420280199885894 
3.550000000003067, -1.0408719195448815 
3.5600000000030882, -1.0395289047754783 
3.5700000000031094, -1.0380702804251094 
3.5800000000031305, -1.0365108916059718 
3.5900000000031516, -1.034825840145459 
3.6000000000031727, -1.0329892332744615 
3.6100000000031938, -1.0310092720063122 
3.620000000003215, -1.0289383821805536 
3.630000000003236, -1.0268548399630943 
3.640000000003257, -1.0248381953201982 
3.650000000003278, -1.0229713213362426 
3.6600000000032993, -1.021368645182987 
3.6700000000033204, -1.0201770434892388 
3.6800000000033415, -1.0195022895654557 
3.6900000000033626, -1.0193073931197116 
3.7000000000033837, -1.019393191526228 
3.710000000003405, -1.0194839954980734 
3.720000000003426, -1.0193277730153363 
3.730000000003447, -1.018749720993371 
3.740000000003468, -1.0176766171107854 
3.750000000003489, -1.0161478849934746 
3.7600000000035103, -1.014290707129089 
3.7700000000035314, -1.0122522620446799 
3.7800000000035525, -1.0101325988094658 
3.7900000000035736, -1.0079618464258517 
3.8000000000035947, -1.0057225328095798 
3.810000000003616, -1.0033913126764948 
3.820000000003637, -1.0009729237554188 
3.830000000003658, -0.9985093661331705 
3.840000000003679, -0.9960670642446544 
3.8500000000037002, -0.9937256187348336 
3.8600000000037213, -0.9915892170560223 
3.8700000000037424, -0.9898036182419956 
3.8800000000037635, -0.9885271417406379 
3.8900000000037847, -0.9878376862276737 
3.9000000000038058, -0.9876487489228089 
3.910000000003827, -0.9877263163320439 
3.920000000003848, -0.987788577186679 
3.930000000003869, -0.9875953622560678 
3.94000000000389, -0.9869903377301099 
3.9500000000039113, -0.9859212107096373 
3.9600000000039324, -0.9844461988047446 
3.9700000000039535, -0.9827018965233995 
3.9800000000039746, -0.9808328311699466 
3.9900000000039957, -0.9789290981685328 
4.000000000004016, -0.9770098632418589 
4.010000000003993, -0.9750489958149051 
4.02000000000397, -0.9730181035705362 
4.030000000003946, -0.9709218732363878 
4.040000000003923, -0.9688084340471848 
4.0500000000039, -0.9667536412419716 
4.0600000000038765, -0.9648380326531145 
4.070000000003853, -0.9631412463566761 
4.08000000000383, -0.9617547198737236 
4.090000000003807, -0.9607788207005724 
4.100000000003783, -0.9602754296348632 
4.11000000000376, -0.9602037870041835 
4.120000000003737, -0.9604064255839436 
4.130000000003713, -0.9606655443617671 
4.14000000000369, -0.9607802137712816 
4.150000000003667, -0.9606183163624153 
4.1600000000036434, -0.9601394947838967 
4.17000000000362, -0.9593927249787141 
4.180000000003597, -0.9584813913048859 
4.1900000000035735, -0.9575055738756063 
4.20000000000355, -0.9565150732102371 
4.210000000003527, -0.9554979358299367 
4.220000000003504, -0.9544041280902007 
4.23000000000348, -0.953188651504288 
4.240000000003457, -0.9518516289186243 
4.250000000003434, -0.950455041107751 
4.26000000000341, -0.949107985522215 
4.270000000003387, -0.9479278109763623 
4.280000000003364, -0.9470009099774469 
4.2900000000033405, -0.9463715009962398 
4.300000000003317, -0.9460598229846499 
4.310000000003294, -0.9460766200156563 
4.320000000003271, -0.9464075164813031 
4.330000000003247, -0.9469846805132672 
4.340000000003224, -0.9476859462914573 
4.350000000003201, -0.9483726305965966 
4.360000000003177, -0.9489391055030246 
4.370000000003154, -0.9493445694056704 
4.380000000003131, -0.9496143136536539 
4.390000000003107, -0.9498106373957421 
4.400000000003084, -0.9499868852503803 
4.410000000003061, -0.9501481559753537 
4.4200000000030375, -0.9502387768519286 
4.430000000003014, -0.9501652616036982 
4.440000000002991, -0.9498465441734629 
4.450000000002968, -0.9492640789207216 
4.460000000002944, -0.9484859496236544 
4.470000000002921, -0.947660643680608 
4.480000000002898, -0.9469834143394366 
4.490000000002874, -0.9466353127188919 
4.500000000002851, -0.9467175248891261 
4.510000000002828, -0.9472289193191757 
4.520000000002804, -0.9481027685613255 
4.530000000002781, -0.9492585398804924 
4.540000000002758, -0.9506218195310199 
4.5500000000027345, -0.9521155909379984 
4.560000000002711, -0.9536568837646129 
4.570000000002688, -0.9551752779553295 
4.580000000002665, -0.956637957075098 
4.590000000002641, -0.9580570875920505 
4.600000000002618, -0.9594689842776644 
4.610000000002595, -0.9608929333806572 
4.620000000002571, -0.9622896414100497 
4.630000000002548, -0.9635448115899955 
4.640000000002525, -0.9645002354767461 
4.6500000000025015, -0.9650260379827488 
4.660000000002478, -0.9650862867588981 
4.670000000002455, -0.9647586114429835 
4.6800000000024315, -0.9642218216424177 
4.690000000002408, -0.9637366308265916 
4.700000000002385, -0.9636022999300486 
4.710000000002362, -0.9640616912630208 
4.720000000002338, -0.9651975302919464 
4.730000000002315, -0.966916390556797 
4.740000000002292, -0.9690368210299292 
4.750000000002268, -0.9713892259252581 
4.760000000002245, -0.9738541958686605 
4.770000000002222, -0.9763528079236148 
4.7800000000021985, -0.9788347770306716 
4.790000000002175, -0.9812811677423049 
4.800000000002152, -0.9837054852033356 
4.810000000002129, -0.986134034864133 
4.820000000002105, -0.9885641785383429 
4.830000000002082, -0.9909185961836444 
4.840000000002059, -0.9930295485795442 
4.850000000002035, -0.9946867722228099 
4.860000000002012, -0.9957355662834013 
4.870000000001989, -0.9961509908119168 
4.880000000001965, -0.9960410110692146 
4.890000000001942, -0.9956168276415667 
4.900000000001919, -0.9951770462205193 
4.9100000000018955, -0.9950803506909626 
4.920000000001872, -0.9956452755120656 
4.930000000001849, -0.9970031405161203 
