t, s[1].omega / s[0].omega 
0, -0.7799938586030061 
0.009999999999999995, -0.7794694230278837 
0.019999999999999934, -0.7790899215327229 
0.029999999999999874, -0.7787658948638898 
0.04000000000000012, -0.7783896127577399 
0.050000000000000405, -0.7778859908803459 
0.06000000000000069, -0.7772509055344432 
0.07000000000000098, -0.7765646631261698 
0.08000000000000126, -0.775986760932465 
0.09000000000000155, -0.77573714549289 
0.10000000000000184, -0.7760576547397645 
0.11000000000000212, -0.7771529907251892 
0.12000000000000241, -0.7791348537833649 
0.130000000000002, -0.7820039435505064 
0.1400000000000009, -0.7856805258234554 
0.1499999999999998, -0.7900601798434829 
0.1599999999999987, -0.7950640984305697 
0.1699999999999976, -0.8006709349415958 
0.1799999999999965, -0.8069322976554252 
0.1899999999999954, -0.8139726006940198 
0.1999999999999943, -0.8219605112108204 
0.2099999999999932, -0.8310208004121259 
0.2199999999999921, -0.841049047885481 
0.229999999999991, -0.8514665543745744 
0.2399999999999899, -0.8611716413213198 
0.2499999999999888, -0.8689988026425425 
0.2599999999999877, -0.8743933021498238 
0.2699999999999866, -0.8775586592208173 
0.2799999999999855, -0.8790517176375495 
0.2899999999999844, -0.8793979587112405 
0.2999999999999833, -0.8789893439527388 
0.3099999999999822, -0.8782091114319007 
0.3199999999999811, -0.877751887874088 
0.32999999999998, -0.8791689698558974 
0.3399999999999789, -0.8854197548606839 
0.3499999999999778, -0.9005103464809812 
0.35999999999997667, -0.9272231461034031 
0.36999999999997557, -0.9643669765430312 
0.37999999999997447, -1.0071331057316195 
0.38999999999997337, -1.0504837330541568 
0.39999999999997227, -1.0915038732783449 
0.40999999999997117, -1.1291588728831454 
0.41999999999997006, -1.162983871568407 
0.42999999999996896, -1.1920850205821483 
0.43999999999996786, -1.2150972421181234 
0.44999999999996676, -1.231186815733483 
0.45999999999996566, -1.2409790463688555 
0.46999999999996456, -1.2461784879872049 
0.47999999999996346, -1.2485155344144103 
0.48999999999996235, -1.249203258081891 
0.49999999999996125, -1.2490151910469902 
0.5099999999999602, -1.2486085976358512 
0.519999999999959, -1.2487687579153295 
0.529999999999958, -1.2502051533329674 
0.5399999999999568, -1.2529663976371805 
0.5499999999999557, -1.2563923846966274 
0.5599999999999546, -1.2597731508756964 
0.5699999999999535, -1.2627679026201961 
0.5799999999999524, -1.2653132092393502 
0.5899999999999513, -1.2674194124005207 
0.5999999999999502, -1.269090455390105 
0.6099999999999491, -1.2703353304781362 
0.619999999999948, -1.2711799996744992 
0.6299999999999469, -1.2716504069631869 
0.6399999999999458, -1.2717476206430274 
0.6499999999999447, -1.271442957582268 
0.6599999999999436, -1.270702250255269 
0.6699999999999425, -1.2695234594713405 
0.6799999999999414, -1.2679588234674712 
0.6899999999999403, -1.2660973306272878 
0.6999999999999392, -1.2640117292017095 
0.7099999999999381, -1.2617400628121354 
0.719999999999937, -1.2593852458935815 
0.7299999999999359, -1.257255106207325 
0.7399999999999348, -1.2557788240246566 
0.7499999999999337, -1.2551225338895784 
0.7599999999999326, -1.2549664460425816 
0.7699999999999315, -1.2547438836370852 
0.7799999999999304, -1.253904394109115 
0.7899999999999293, -1.2518943599631596 
0.7999999999999282, -1.2480422681621761 
0.8099999999999271, -1.2416077481243857 
0.819999999999926, -1.2320775943317617 
0.8299999999999249, -1.219449058701634 
0.8399999999999238, -1.2041034085052242 
0.8499999999999227, -1.1863568543179246 
0.8599999999999216, -1.166151168956889 
0.8699999999999205, -1.1431121639433321 
0.8799999999999194, -1.117024664808113 
0.8899999999999183, -1.0888376389089287 
0.8999999999999172, -1.0618129824964255 
0.9099999999999161, -1.0408866781199664 
0.919999999999915, -1.0290008333462706 
0.9299999999999139, -1.0246222729858852 
0.9399999999999128, -1.0240650275717154 
0.9499999999999117, -1.0245602135325993 
0.9599999999999106, -1.0248029221946855 
0.9699999999999095, -1.024213593542898 
0.9799999999999084, -1.0222506970834244 
0.9899999999999073, -1.0179353526277661 
0.9999999999999062, -1.0094822021161762 
1.0099999999999052, -0.9943490429883605 
1.019999999999904, -0.9705886459280798 
1.029999999999903, -0.9392655447260939 
1.039999999999902, -0.9046831779493173 
1.0499999999999008, -0.8712571762268875 
1.0599999999998997, -0.8412119923323136 
1.0699999999998986, -0.8149326335382193 
1.0799999999998975, -0.7920931303717015 
1.0899999999998964, -0.7723447588165858 
1.0999999999998953, -0.7555471914149223 
1.1099999999998942, -0.7417494630745752 
1.119999999999893, -0.7310428648989047 
1.129999999999892, -0.7233743317120325 
1.1399999999998909, -0.7184242580353253 
1.1499999999998898, -0.7156254342713515 
1.1599999999998887, -0.7143027709420836 
1.1699999999998876, -0.7138321038339476 
1.1799999999998865, -0.7137309393331945 
1.1899999999998854, -0.7136692242273115 
1.1999999999998843, -0.7134411401084417 
1.2099999999998832, -0.71294181294643 
1.219999999999882, -0.7121649159607569 
1.229999999999881, -0.7112017804533418 
1.2399999999998799, -0.7102094177666521 
1.2499999999998788, -0.7093464538596465 
1.2599999999998777, -0.7087143181891984 
1.2699999999998766, -0.7083314440562369 
1.2799999999998755, -0.7081367740963534 
1.2899999999998744, -0.7080141413752974 
1.2999999999998733, -0.7078365506165291 
1.3099999999998722, -0.7075184046308747 
1.319999999999871, -0.7070515971343713 
1.32999999999987, -0.7065169778048528 
1.3399999999998689, -0.7060853579922544 
1.3499999999998678, -0.7060192806405923 
1.3599999999998666, -0.7066659717819531 
1.3699999999998655, -0.7084206948186125 
1.3799999999998644, -0.7116546530490955 
1.3899999999998633, -0.716635681482411 
1.3999999999998622, -0.7234905001473182 
1.4099999999998611, -0.7322368610933474 
1.41999999999986, -0.7428700807658953 
1.429999999999859, -0.7554636448504423 
1.4399999999998578, -0.7702492216162545 
1.4499999999998567, -0.7876481109868815 
1.4599999999998556, -0.8081938842794631 
1.4699999999998545, -0.832194734778518 
1.4799999999998534, -0.8589475673146113 
1.4899999999998523, -0.8858327102028205 
1.4999999999998512, -0.9088294079723532 
1.5099999999998501, -0.925153232305998 
1.519999999999849, -0.9349588671110138 
1.529999999999848, -0.9401155985526503 
1.5399999999998468, -0.9424399753456736 
1.5499999999998457, -0.9430802290092488 
1.5599999999998446, -0.9426380429807061 
1.5699999999998435, -0.9414865205288729 
1.5799999999998424, -0.9402581585287335 
1.5899999999998413, -0.9408037822231952 
1.5999999999998402, -0.9477083639099074 
1.6099999999998391, -0.9686460475725946 
1.619999999999838, -1.0095863750920047 
1.629999999999837, -1.0667232942807177 
1.6399999999998358, -1.127813978811481 
1.6499999999998347, -1.1829024308207685 
1.6599999999998336, -1.2288243645162173 
1.6699999999998325, -1.266152582060513 
1.6799999999998314, -1.2959692273336223 
1.6899999999998303, -1.3187622505500938 
1.6999999999998292, -1.3347862900541576 
1.709999999999828, -1.344832390489115 
1.719999999999827, -1.3503636281555726 
1.729999999999826, -1.3529504034231974 
1.7399999999998248, -1.3537906778072215 
1.7499999999998237, -1.3536864711066559 
1.7599999999998226, -1.353280343106161 
1.7699999999998215, -1.3532097314469147 
1.7799999999998204, -1.3538865787502554 
1.7899999999998193, -1.3551787528835044 
1.7999999999998182, -1.3566348082659845 
1.809999999999817, -1.3579577682805124 
1.819999999999816, -1.3590915578095708 
1.8299999999998149, -1.3600167716794116 
1.8399999999998138, -1.3606235977829173 
1.8499999999998127, -1.3607563809102605 
1.8599999999998116, -1.3602947000051926 
1.8699999999998105, -1.3591865101389382 
1.8799999999998094, -1.3574379035507325 
1.8899999999998083, -1.3550732685474118 
1.8999999999998072, -1.3520882946037873 
1.909999999999806, -1.3484219555609656 
1.919999999999805, -1.3439466897935302 
1.9299999999998039, -1.3384570392628796 
1.9399999999998028, -1.3316864442725227 
1.9499999999998017, -1.3235129040239761 
1.9599999999998006, -1.3145512817617415 
1.9699999999997995, -1.3067126052078268 
1.9799999999997984, -1.3021318434114588 
1.9899999999997973, -1.300832863783166 
1.9999999999997962, -1.3010035802425974 
2.0099999999998173, -1.3010645518613306 
2.0199999999998384, -1.3001100615525134 
2.0299999999998595, -1.297110506239594 
2.0399999999998806, -1.289662784057073 
2.0499999999999017, -1.27156824615845 
2.059999999999923, -1.2282291387010489 
2.069999999999944, -1.1348413697083137 
2.079999999999965, -0.9797110318375942 
2.089999999999986, -0.8024998412474812 
2.100000000000007, -0.6576715529028302 
2.1100000000000283, -0.5596486237846036 
2.1200000000000494, -0.49746609235115236 
2.1300000000000705, -0.45818938980885937 
2.1400000000000916, -0.43299244296207917 
2.1500000000001127, -0.4165463245553608 
2.160000000000134, -0.4056871528718492 
2.170000000000155, -0.3985034173782969 
2.180000000000176, -0.39380814469415554 
2.190000000000197, -0.3908439244298808 
2.2000000000002182, -0.38911737054710277 
2.2100000000002393, -0.3883051072444591 
2.2200000000002604, -0.3882004721148719 
2.2300000000002815, -0.3886850241542902 
2.2400000000003026, -0.3897171662048285 
2.2500000000003237, -0.3913348431345348 
2.260000000000345, -0.3936722242138645 
2.270000000000366, -0.3969936012329026 
2.280000000000387, -0.40175404926229197 
2.290000000000408, -0.4087050744031046 
2.3000000000004293, -0.4190582478431774 
2.3100000000004504, -0.4346346404949505 
2.3200000000004715, -0.45758803105418533 
2.3300000000004926, -0.4886757327667546 
2.3400000000005137, -0.5240183416538082 
2.3500000000005348, -0.5553778482671716 
2.360000000000556, -0.5771081882458831 
2.370000000000577, -0.5897124293264076 
2.380000000000598, -0.5962969996508081 
2.390000000000619, -0.5994143538704172 
2.4000000000006403, -0.600474984832712 
2.4100000000006614, -0.6000347081002437 
2.4200000000006825, -0.5979931121487464 
2.4300000000007036, -0.593435194503505 
2.4400000000007247, -0.5837837053106683 
2.450000000000746, -0.5622423637108294 
2.460000000000767, -0.5115907161992778 
2.470000000000788, -0.40054643651582617 
2.480000000000809, -0.23094896384919758 
2.49000000000083, -0.08973772197828497 
2.5000000000008513, -0.016303784745835197 
2.5100000000008724, 0.01650084349283892 
2.5200000000008935, 0.031526966436352666 
2.5300000000009146, 0.038915683907431574 
2.5400000000009357, 0.04271125646455771 
2.550000000000957, 0.04465453160368173 
2.560000000000978, 0.04557528560222402 
2.570000000000999, 0.0459221635944294 
2.58000000000102, 0.0459701785431655 
2.5900000000010412, 0.045904653451764074 
2.6000000000010624, 0.04586420982153068 
2.6100000000010835, 0.045984485635123445 
2.6200000000011046, 0.04647972200064905 
2.6300000000011257, 0.04784842016759107 
2.6400000000011468, 0.05148129922946042 
2.650000000001168, 0.06152030553700364 
2.660000000001189, 0.08940469529262865 
2.67000000000121, 0.15451735266683386 
2.680000000001231, 0.248556699486234 
2.6900000000012523, 0.3200729482973556 
2.7000000000012734, 0.3551467356491882 
2.7100000000012945, 0.37017937829094016 
2.7200000000013156, 0.3766277363400777 
2.7300000000013367, 0.3792884873756054 
2.740000000001358, 0.37998591189157105 
2.750000000001379, 0.3793589787052808 
2.7600000000014, 0.3775557060307858 
2.770000000001421, 0.3745742700684764 
2.780000000001442, 0.3705450562893426 
2.7900000000014633, 0.365941300421919 
2.8000000000014844, 0.3615075380650431 
2.8100000000015055, 0.35789493351060037 
2.8200000000015266, 0.355380688587469 
2.8300000000015477, 0.3539062136400467 
2.840000000001569, 0.35326007080319083 
2.85000000000159, 0.3531999943758672 
2.860000000001611, 0.3534851831493805 
2.870000000001632, 0.35387237147143524 
2.8800000000016532, 0.35411372891350784 
2.8900000000016743, 0.3539510351090817 
2.9000000000016954, 0.3530648493808214 
2.9100000000017165, 0.3509048608363809 
2.9200000000017377, 0.34621015834454794 
2.9300000000017588, 0.33549531062973625 
2.94000000000178, 0.30727604094500793 
2.950000000001801, 0.21642497711546166 
2.960000000001822, -0.09470387311009235 
2.970000000001843, -0.628974131878734 
2.9800000000018643, -0.9116379675260026 
2.9900000000018854, -1.000595040989765 
3.0000000000019065, -1.0294126786412872 
3.0100000000019276, -1.0398248223776627 
3.0200000000019487, -1.0436984751344738 
3.03000000000197, -1.0446912944514666 
3.040000000001991, -1.0438347219059527 
3.050000000002012, -1.040942799861885 
3.060000000002033, -1.03474324683964 
3.070000000002054, -1.0227969875106777 
3.0800000000020753, -1.005325946555697 
3.0900000000020964, -1.021325771180043 
3.1000000000021175, -1.3491233086672483 
3.1100000000021386, -2.14453502169385 
3.1200000000021597, -2.400197473057397 
3.130000000002181, -2.4513477632490264 
3.140000000002202, -2.466437029938059 
3.150000000002223, -2.4719040282604636 
3.160000000002244, -2.473623315501292 
3.1700000000022652, -2.473304826057002 
3.1800000000022863, -2.4713035183188072 
3.1900000000023074, -2.4667854002258145 
3.2000000000023285, -2.456177497553029 
3.2100000000023496, -2.4345488561293873 
3.2200000000023707, -2.421862101075912 
3.230000000002392, -2.4265797789290646 
3.240000000002413, -2.429141983705827 
3.250000000002434, -2.428390150147721 
3.260000000002455, -2.4252334142110525 
3.2700000000024763, -2.4262152614873322 
3.2800000000024974, -2.437114419428537 
3.2900000000025185, -2.445311842928752 
3.3000000000025396, -2.4488215225951526 
3.3100000000025607, -2.450090580082496 
3.3200000000025818, -2.4498882614738 
3.330000000002603, -2.4477523427802232 
3.340000000002624, -2.4417995307323475 
3.350000000002645, -2.425877604792561 
3.360000000002666, -2.3743393895906153 
3.3700000000026873, -2.1241145479751387 
3.3800000000027084, -0.9233239955963279 
3.3900000000027295, -0.0014844977857142324 
3.4000000000027506, 0.19718247536077932 
3.4100000000027717, 0.24848093325396423 
3.420000000002793, 0.26627955509669377 
3.430000000002814, 0.273665450369581 
3.440000000002835, 0.2769182121824094 
3.450000000002856, 0.27811651625270084 
3.460000000002877, 0.2779541278779612 
3.4700000000028983, 0.2764576635253496 
3.4800000000029194, 0.2730116208380367 
3.4900000000029405, 0.2657337426525215 
3.5000000000029616, 0.2490087272701679 
3.5100000000029827, 0.20270864867636562 
3.520000000003004, 0.030700934583589967 
3.530000000003025, -0.7799626992197962 
3.540000000003046, -2.0756614118059984 
3.550000000003067, -2.373323401573462 
3.5600000000030882, -2.43080116714101 
3.5700000000031094, -2.4474747894973428 
3.5800000000031305, -2.4531809676357073 
3.5900000000031516, -2.4547920471923823 
3.6000000000031727, -2.454376105278722 
3.6100000000031938, -2.4524744266649376 
3.620000000003215, -2.448428662243448 
3.630000000003236, -2.4398047642585645 
3.640000000003257, -2.4275340353716874 
3.650000000003278, -2.4247521591709815 
3.6600000000032993, -2.4273317812752584 
3.6700000000033204, -2.4276442833255922 
3.6800000000033415, -2.424768512675886 
3.6900000000033626, -2.4192144125231962 
3.7000000000033837, -2.4285378664623303 
3.710000000003405, -2.4494400262346314 
3.720000000003426, -2.4599888773327105 
3.730000000003447, -2.4640571789974794 
3.740000000003468, -2.46546782707635 
3.750000000003489, -2.4651932752779815 
3.7600000000035103, -2.4629682409863234 
3.7700000000035314, -2.4572871689604687 
3.7800000000035525, -2.443094867339053 
3.7900000000035736, -2.3987979734577087 
3.8000000000035947, -2.192108967729878 
3.810000000003616, -1.4369363246075966 
3.820000000003637, -1.0223727120344712 
3.830000000003658, -0.9865194673876975 
3.840000000003679, -1.0016258555570907 
3.8500000000037002, -1.0136302596786781 
3.8600000000037213, -1.0199086191017577 
3.8700000000037424, -1.0227007964097266 
3.8800000000037635, -1.0233828327115453 
3.8900000000037847, -1.0222972804905457 
3.9000000000038058, -1.0187148327025801 
3.910000000003827, -1.0098465765296623 
3.920000000003848, -0.9869691093472328 
3.930000000003869, -0.921533158745046 
3.94000000000389, -0.7275092297176474 
3.9500000000039113, -0.3234995238515236 
3.9600000000039324, 0.005944048312627392 
3.9700000000039535, 0.13038559906378752 
3.9800000000039746, 0.17242111802996243 
3.9900000000039957, 0.1886555657301744 
4.000000000004016, 0.19576918172487998 
4.010000000003993, 0.19909386434380488 
4.02000000000397, 0.200610097581685 
4.030000000003946, 0.2011772197966039 
4.040000000003923, 0.20124022515901965 
4.0500000000039, 0.2010803728449002 
4.0600000000038765, 0.20091408755780843 
4.070000000003853, 0.2009502754810118 
4.08000000000383, 0.201462975129386 
4.090000000003807, 0.20292723868055013 
4.100000000003783, 0.20627098796615256 
4.11000000000376, 0.21321010684698666 
4.120000000003737, 0.22609385733338158 
4.130000000003713, 0.24572307234745477 
4.14000000000369, 0.2680089548924139 
4.150000000003667, 0.2864038700927024 
4.1600000000036434, 0.29824659469542103 
4.17000000000362, 0.30480059749786576 
4.180000000003597, 0.30802868452339566 
4.1900000000035735, 0.30921566760206265 
4.20000000000355, 0.3089393863500149 
4.210000000003527, 0.3072714185445461 
4.220000000003504, 0.3039227430862342 
4.23000000000348, 0.29843879833893744 
4.240000000003457, 0.2906677225540658 
4.250000000003434, 0.28142545303584987 
4.26000000000341, 0.272487917176724 
4.270000000003387, 0.26542585057329426 
4.280000000003364, 0.26067883057980756 
4.2900000000033405, 0.25784222614143254 
4.300000000003317, 0.25632040140155254 
4.310000000003294, 0.2556376671726103 
4.320000000003271, 0.255462062239356 
4.330000000003247, 0.2555422361820322 
4.340000000003224, 0.25565122012145275 
4.350000000003201, 0.25555460701332877 
4.360000000003177, 0.25498182604709957 
4.370000000003154, 0.25355148943137723 
4.380000000003131, 0.25056038459547 
4.390000000003107, 0.24439806146777818 
4.400000000003084, 0.23075264033492576 
4.410000000003061, 0.19636633418245514 
4.4200000000030375, 0.09746068479460437 
4.430000000003014, -0.16221359198907478 
4.440000000002991, -0.504737571868258 
4.450000000002968, -0.6876271606664852 
4.460000000002944, -0.7540203206314341 
4.470000000002921, -0.7784615147082816 
4.480000000002898, -0.788304523167474 
4.490000000002874, -0.7924067985883834 
4.500000000002851, -0.7937934795248158 
4.510000000002828, -0.7934220319385321 
4.520000000002804, -0.791199269023449 
4.530000000002781, -0.7858994385974604 
4.540000000002758, -0.7739244403298987 
4.5500000000027345, -0.7453699972745806 
4.560000000002711, -0.674501939064329 
4.570000000002688, -0.5182081752448774 
4.580000000002665, -0.2995937254634521 
4.590000000002641, -0.14123352306877696 
4.600000000002618, -0.06568686649502889 
4.610000000002595, -0.03227240977724601 
4.620000000002571, -0.016439976270626506 
4.630000000002548, -0.00823822471825515 
4.640000000002525, -0.0036686105386784635 
4.6500000000025015, -0.0009893944908353713 
4.660000000002478, 0.00044077947770360386 
4.670000000002455, 0.0010230710673932656 
4.6800000000024315, 0.001244768824482116 
4.690000000002408, 0.001241174380837604 
4.700000000002385, 0.0010706023941610885 
4.710000000002362, 0.000730215927519614 
4.720000000002338, 0.00016559658525721878 
4.730000000002315, -0.0003455247001612749 
4.740000000002292, -0.0007501547180340876 
4.750000000002268, 0.0016916127221250313 
4.760000000002245, 0.02774635805916651 
4.770000000002222, 0.18406892133731054 
4.7800000000021985, 0.5394143563075219 
4.790000000002175, 0.7209406828156133 
4.800000000002152, 0.7664555234124882 
4.810000000002129, 0.7791152638801433 
4.820000000002105, 0.7831533678108175 
4.830000000002082, 0.7840602873724224 
4.840000000002059, 0.7830830589905523 
4.850000000002035, 0.7799594435915269 
4.860000000002012, 0.7732855013346462 
4.870000000001989, 0.7607853523403245 
4.880000000001965, 0.7420314771675082 
4.890000000001942, 0.7231596843469223 
4.900000000001919, 0.711760487045041 
4.9100000000018955, 0.7075959793065946 
4.920000000001872, 0.7067870694239563 
4.930000000001849, 0.706887783825694 
