t, s[1].omega / s[0].omega 
0, -0.19999784695511053 
0.009999999999999995, -0.2001587471548357 
0.019999999999999934, -0.20105194000517007 
0.029999999999999874, -0.20261034708404205 
0.04000000000000012, -0.20465145662228354 
0.050000000000000405, -0.20685778596822302 
0.06000000000000069, -0.20885984344747546 
0.07000000000000098, -0.21037025843644092 
0.08000000000000126, -0.2112451570857116 
0.09000000000000155, -0.2114332278637964 
0.10000000000000184, -0.21086884612684717 
0.11000000000000212, -0.20934776369989055 
0.12000000000000241, -0.20635055608543004 
0.130000000000002, -0.2007146407419918 
0.1400000000000009, -0.1900674702839466 
0.1499999999999998, -0.1704509300997072 
0.1599999999999987, -0.1384894831254728 
0.1699999999999976, -0.09813175594853833 
0.1799999999999965, -0.061428661752393754 
0.1899999999999954, -0.036087223563142055 
0.1999999999999943, -0.021029657856555226 
0.2099999999999932, -0.012492960467361916 
0.2199999999999921, -0.007653666886566377 
0.229999999999991, -0.004909577414966571 
0.2399999999999899, -0.0034041994881898164 
0.2499999999999888, -0.002655524287161581 
0.2599999999999877, -0.002352807969937651 
0.2699999999999866, -0.0022637605645602454 
0.2799999999999855, -0.0022024917932096746 
0.2899999999999844, -0.00201766960560363 
0.2999999999999833, -0.0015701475774700872 
0.3099999999999822, -0.0006800316866021583 
0.3199999999999811, 0.0007608240286243574 
0.32999999999998, 0.0034855380309180618 
0.3399999999999789, 0.009352376480250984 
0.3499999999999778, 0.021872469681900476 
0.35999999999997667, 0.04662474600131141 
0.36999999999997557, 0.08580781009374826 
0.37999999999997447, 0.12868288649260162 
0.38999999999997337, 0.16061188340434215 
0.39999999999997227, 0.179042353672167 
0.40999999999997117, 0.18858707395872182 
0.41999999999997006, 0.193333540484997 
0.42999999999996896, 0.1955187830081687 
0.43999999999996786, 0.1962098585171333 
0.44999999999996676, 0.19589993474377076 
0.45999999999996566, 0.1948438839265448 
0.46999999999996456, 0.19324822738910657 
0.47999999999996346, 0.19136694771255072 
0.48999999999996235, 0.18950235624748274 
0.49999999999996125, 0.18793807644119048 
0.5099999999999602, 0.18688088990684842 
0.519999999999959, 0.1864634085004304 
0.529999999999958, 0.18678730318019893 
0.5399999999999568, 0.18795230801888035 
0.5499999999999557, 0.1900244011882613 
0.5599999999999546, 0.19292894486889342 
0.5699999999999535, 0.1963366427809189 
0.5799999999999524, 0.19969692280392837 
0.5899999999999513, 0.20246722775574372 
0.5999999999999502, 0.2043280043175626 
0.6099999999999491, 0.205181835074609 
0.619999999999948, 0.20499182026533552 
0.6299999999999469, 0.2035957756593978 
0.6399999999999458, 0.20052944425613656 
0.6499999999999447, 0.1948413184180274 
0.6599999999999436, 0.18504249677511897 
0.6699999999999425, 0.16983245534325922 
0.6799999999999414, 0.15026499271261026 
0.6899999999999403, 0.13095248583090216 
0.6999999999999392, 0.11641593716365087 
0.7099999999999381, 0.10743283990443837 
0.719999999999937, 0.10240962134620439 
0.7299999999999359, 0.09969446709234737 
0.7399999999999348, 0.0982554298682605 
0.7499999999999337, 0.09754015403941643 
0.7599999999999326, 0.09725008083289101 
0.7699999999999315, 0.09719208391305793 
0.7799999999999304, 0.0971965790281569 
0.7899999999999293, 0.0970776636255779 
0.7999999999999282, 0.09661380044757564 
0.8099999999999271, 0.09551788113903002 
0.819999999999926, 0.0933496366185688 
0.8299999999999249, 0.08929521272681795 
0.8399999999999238, 0.08165615056327916 
0.8499999999999227, 0.06672021063777425 
0.8599999999999216, 0.03684302867657614 
0.8699999999999205, -0.018779912497981457 
0.8799999999999194, -0.09818575133905874 
0.8899999999999183, -0.17070501267530608 
0.8999999999999172, -0.21396804985191772 
0.9099999999999161, -0.23470124652707014 
0.919999999999915, -0.24426230205752214 
0.9299999999999139, -0.24881328793666407 
0.9399999999999128, -0.2509990911801914 
0.9499999999999117, -0.25191434468004453 
0.9599999999999106, -0.2520087832049248 
0.9699999999999095, -0.2514549772561989 
0.9799999999999084, -0.2503167936160476 
0.9899999999999073, -0.24865820765385158 
0.9999999999999062, -0.24662710285607795 
1.0099999999999052, -0.24448305332543638 
1.019999999999904, -0.24253688737096227 
1.029999999999903, -0.24104828849610022 
1.039999999999902, -0.24017266982695867 
1.0499999999999008, -0.23998081317724482 
1.0599999999998997, -0.24049783330163416 
1.0699999999998986, -0.24170672097025356 
1.0799999999998975, -0.24350433532216814 
1.0899999999998964, -0.2456520363753385 
1.0999999999998953, -0.24779903058818512 
1.1099999999998942, -0.24960089557433446 
1.119999999999893, -0.2508361496106574 
1.129999999999892, -0.25141800387143254 
1.1399999999998909, -0.251313095768932 
1.1499999999998898, -0.2504293753883711 
1.1599999999998887, -0.24848076092751747 
1.1699999999998876, -0.24475109304060716 
1.1799999999998865, -0.2375751338410176 
1.1899999999998854, -0.22327737395097844 
1.1999999999998843, -0.19506473885684827 
1.2099999999998832, -0.14659273629575303 
1.219999999999882, -0.08573903438343046 
1.229999999999881, -0.034417474353766714 
1.2399999999998799, -0.002465176748754253 
1.2499999999998788, 0.014543668708011454 
1.2599999999998777, 0.023408547484511107 
1.2699999999998766, 0.028061811990182938 
1.2799999999998755, 0.03045907108249627 
1.2899999999998744, 0.03157427854122596 
1.2999999999998733, 0.031930774625281905 
1.3099999999998722, 0.031852858539265276 
1.319999999999871, 0.03157377663139365 
1.32999999999987, 0.03127587177730409 
1.3399999999998689, 0.031110441835573287 
1.3499999999998678, 0.031228887239041762 
1.3599999999998666, 0.03184834860486044 
1.3699999999998655, 0.03338939771280316 
1.3799999999998644, 0.03677577629954119 
1.3899999999998633, 0.04404715707813109 
1.3999999999998622, 0.05913551178887737 
1.4099999999998611, 0.08663725206202685 
1.41999999999986, 0.12452467828561223 
1.429999999999859, 0.1601768368654077 
1.4399999999998578, 0.18416360201711726 
1.4499999999998567, 0.19746860322904383 
1.4599999999998556, 0.20429154422266876 
1.4699999999998545, 0.2076093358464488 
1.4799999999998534, 0.20896715197883764 
1.4899999999998523, 0.20908484638820884 
1.4999999999998512, 0.20828795295298058 
1.5099999999998501, 0.2067615399063596 
1.519999999999849, 0.20470958410187362 
1.529999999999848, 0.20242674746641304 
1.5399999999998468, 0.2002607034151461 
1.5499999999998457, 0.19851042252162693 
1.5599999999998446, 0.19736277055030535 
1.5699999999998435, 0.19691047724241165 
1.5799999999998424, 0.19720492650888016 
1.5899999999998413, 0.1982799444707401 
1.5999999999998402, 0.2001141614144566 
1.6099999999998391, 0.20254700782822832 
1.619999999999838, 0.20522904273927053 
1.629999999999837, 0.20770247922834084 
1.6399999999998358, 0.20957672761293478 
1.6499999999998347, 0.21063039212093476 
1.6599999999998336, 0.21075336573798467 
1.6699999999998325, 0.20979140873026908 
1.6799999999998314, 0.20735363473894677 
1.6899999999998303, 0.2025614704363234 
1.6999999999998292, 0.19373564974769342 
1.709999999999828, 0.17842955327132962 
1.719999999999827, 0.15527862472646237 
1.729999999999826, 0.12804576149783853 
1.7399999999998248, 0.10480465228088343 
1.7499999999998237, 0.08980245767961516 
1.7599999999998226, 0.08156106598602483 
1.7699999999998215, 0.07726357710981274 
1.7799999999998204, 0.07501285271097792 
1.7899999999998193, 0.07382662992134685 
1.7999999999998182, 0.07322530179223122 
1.809999999999817, 0.07295559667051928 
1.819999999999816, 0.07284609423316732 
1.8299999999998149, 0.07273484906636646 
1.8399999999998138, 0.07243453390029536 
1.8499999999998127, 0.07171030403559875 
1.8599999999998116, 0.0702364961946008 
1.8699999999998105, 0.06748011786903887 
1.8799999999998094, 0.06242041470513554 
1.8899999999998083, 0.052913461118564695 
1.8999999999998072, 0.034380928646401736 
1.909999999999806, -0.0017824982087673105 
1.919999999999805, -0.06395462991137395 
1.9299999999998039, -0.14193738221823532 
1.9399999999998028, -0.20398382890959654 
1.9499999999998017, -0.23836477292820973 
1.9599999999998006, -0.25469368635576395 
1.9699999999997995, -0.26236167572405733 
1.9799999999997984, -0.266061671215288 
1.9899999999997973, -0.26780147863589965 
1.9999999999997962, -0.26841881106213183 
2.0099999999998173, -0.26824987692490276 
2.0199999999998384, -0.26740895116349517 
2.0299999999998595, -0.26593189456739935 
2.0399999999998806, -0.26388627976723716 
2.0499999999999017, -0.2614580543396443 
2.059999999999923, -0.25896121511465653 
2.069999999999944, -0.25674207757370116 
2.079999999999965, -0.2550579382583282 
2.089999999999986, -0.25403474757746125 
2.100000000000007, -0.2537042465860534 
2.1100000000000283, -0.2540488174468302 
2.1200000000000494, -0.255004813028375 
2.1300000000000705, -0.256428562409809 
2.1400000000000916, -0.25807429890557165 
2.1500000000001127, -0.2596389078727217 
2.160000000000134, -0.26086011593990177 
2.170000000000155, -0.2615825451073529 
2.180000000000176, -0.2617389070197081 
2.190000000000197, -0.26127241938705903 
2.2000000000002182, -0.2600341911095539 
2.2100000000002393, -0.2576292643262731 
2.2200000000002604, -0.25308322421079643 
2.2300000000002815, -0.24399081973671755 
2.2400000000003026, -0.22445161896477242 
2.2500000000003237, -0.1821062219638109 
2.260000000000345, -0.10487013830823692 
2.270000000000366, -0.012175671224798155 
2.280000000000387, 0.05496144219890918 
2.290000000000408, 0.09031720272438322 
2.3000000000004293, 0.10722793864063833 
2.3100000000004504, 0.11540266914403197 
2.3200000000004715, 0.11943645851061029 
2.3300000000004926, 0.12135775604789067 
2.3400000000005137, 0.12210221535136227 
2.3500000000005348, 0.122154564598568 
2.360000000000556, 0.12181907966956836 
2.370000000000577, 0.12132789011366854 
2.380000000000598, 0.12087739375845412 
2.390000000000619, 0.12064527583294823 
2.4000000000006403, 0.1208231727852818 
2.4100000000006614, 0.12168572853139863 
2.4200000000006825, 0.12370996728696752 
2.4300000000007036, 0.1277361521054387 
2.4400000000007247, 0.1350184284208401 
2.450000000000746, 0.14664172607074158 
2.460000000000767, 0.16188511590836416 
2.470000000000788, 0.1773831926537691 
2.480000000000809, 0.18963749687860026 
2.49000000000083, 0.1976354574630456 
2.5000000000008513, 0.20221408987465733 
2.5100000000008724, 0.20449384627059866 
2.5200000000008935, 0.20522904971647543 
2.5300000000009146, 0.20477807460762606 
2.5400000000009357, 0.2032266310779937 
2.550000000000957, 0.20053912636876747 
2.560000000000978, 0.1967584847484291 
2.570000000000999, 0.19221745872016988 
2.58000000000102, 0.18756791751522492 
2.5900000000010412, 0.18350368939395195 
2.6000000000010624, 0.18043253148610716 
2.6100000000010835, 0.178418504250488 
2.6200000000011046, 0.17733966351017255 
2.6300000000011257, 0.1770386164330549 
2.6400000000011468, 0.1773753628779594 
2.650000000001168, 0.17820656764188775 
2.660000000001189, 0.17934269898535277 
2.67000000000121, 0.18053263568524752 
2.680000000001231, 0.1814988562386431 
2.6900000000012523, 0.18198963951266628 
2.7000000000012734, 0.18178278328861935 
2.7100000000012945, 0.1806035117308831 
2.7200000000013156, 0.17794339121834868 
2.7300000000013367, 0.17272366452064103 
2.740000000001358, 0.1626770444890343 
2.750000000001379, 0.1435659293590605 
2.7600000000014, 0.11024538892517352 
2.770000000001421, 0.06450848048849193 
2.780000000001442, 0.021602881331900393 
2.7900000000014633, -0.005969512936742753 
2.8000000000014844, -0.019852614986837987 
2.8100000000015055, -0.026389622777036204 
2.8200000000015266, -0.02945264811874686 
2.8300000000015477, -0.030859978482761785 
2.840000000001569, -0.03140669704123371 
2.85000000000159, -0.03145090531784667 
2.860000000001611, -0.031178420865430316 
2.870000000001632, -0.030724702795634374 
2.8800000000016532, -0.03023429365537355 
2.8900000000016743, -0.029884656400781234 
2.9000000000016954, -0.029890118235735293 
2.9100000000017165, -0.030512778277129567 
2.9200000000017377, -0.03211528641519838 
2.9300000000017588, -0.03528596185793244 
2.94000000000178, -0.041054507761581996 
2.950000000001801, -0.05113880508187592 
2.960000000001822, -0.06778330412498379 
2.970000000001843, -0.09198767331935673 
2.9800000000018643, -0.12014670619640518 
2.9900000000018854, -0.1448301835687977 
3.0000000000019065, -0.16162452038199818 
3.0100000000019276, -0.17135514027318774 
3.0200000000019487, -0.1765674435703431 
3.03000000000197, -0.17919916051132243 
3.040000000001991, -0.18032303585681347 
3.050000000002012, -0.1804508560711771 
3.060000000002033, -0.17979050511238506 
3.070000000002054, -0.17840842607674748 
3.0800000000020753, -0.17635487549802437 
3.0900000000020964, -0.17377711893060005 
3.1000000000021175, -0.17097647849691294 
3.1100000000021386, -0.16834473285139515 
3.1200000000021597, -0.16621885974921197 
3.130000000002181, -0.16479009424962082 
3.140000000002202, -0.16412685486702014 
3.150000000002223, -0.16424607726783763 
3.160000000002244, -0.16515239303470494 
3.1700000000022652, -0.16681243759823333 
3.1800000000022863, -0.16907982755862522 
3.1900000000023074, -0.1716425219029572 
3.2000000000023285, -0.17408399217334894 
3.2100000000023496, -0.17604173785263594 
3.2200000000023707, -0.17731705687552285 
3.230000000002392, -0.17784788519980874 
3.240000000002413, -0.1775979590286844 
3.250000000002434, -0.17643246247750136 
3.260000000002455, -0.17397967942566894 
3.2700000000024763, -0.16943221645136347 
3.2800000000024974, -0.1612958303314549 
3.2900000000025185, -0.14744784314618264 
3.3000000000025396, -0.12660514021185837 
3.3100000000025607, -0.10133398296663698 
3.3200000000025818, -0.07784155680586133 
3.330000000002603, -0.06049548771556964 
3.340000000002624, -0.04938198509770403 
3.350000000002645, -0.04269256576366743 
3.360000000002666, -0.038761070710414035 
3.3700000000026873, -0.03651705243194871 
3.3800000000027084, -0.035335608112505044 
3.3900000000027295, -0.03483521023396441 
3.4000000000027506, -0.03474477856195584 
3.4100000000027717, -0.03484134101713719 
3.420000000002793, -0.034935878996450356 
3.430000000002814, -0.034874099464978894 
3.440000000002835, -0.03452152690082366 
3.450000000002856, -0.03371578472976276 
3.460000000002877, -0.032167888388159524 
3.4700000000028983, -0.029257028014461894 
3.4800000000029194, -0.02358369147271951 
3.4900000000029405, -0.012127225061216407 
3.5000000000029616, 0.010144685680565903 
3.5100000000029827, 0.046788352163028804 
3.520000000003004, 0.0904066995056639 
3.530000000003025, 0.12563751103124837 
3.540000000003046, 0.14703744433820934 
3.550000000003067, 0.15840274663330037 
3.5600000000030882, 0.16416884699514017 
3.5700000000031094, 0.16695455481077487 
3.5800000000031305, 0.16805318643886805 
3.5900000000031516, 0.16807940943320043 
3.6000000000031727, 0.16735023611901473 
3.6100000000031938, 0.16609281347068142 
3.620000000003215, 0.16454804385834348 
3.630000000003236, 0.16298691097857226 
3.640000000003257, 0.16166714504110746 
3.650000000003278, 0.16079178672212274 
3.6600000000032993, 0.16051497019282507 
3.6700000000033204, 0.16098542181689318 
3.6800000000033415, 0.1623837792638873 
3.6900000000033626, 0.16489939394421188 
3.7000000000033837, 0.16859537128038138 
3.710000000003405, 0.1731926505076997 
3.720000000003426, 0.177998226311807 
3.730000000003447, 0.18219600390460483 
3.740000000003468, 0.1852640775855107 
3.750000000003489, 0.1870820804096774 
3.7600000000035103, 0.18773041906731797 
3.7700000000035314, 0.187252638420546 
3.7800000000035525, 0.18550041404106385 
3.7900000000035736, 0.18204161276131614 
3.8000000000035947, 0.17616217201091458 
3.810000000003616, 0.16718625503940834 
3.820000000003637, 0.15537097541227055 
3.830000000003658, 0.1426875522992973 
3.840000000003679, 0.13181586552000038 
3.8500000000037002, 0.12411860701080593 
3.8600000000037213, 0.11931862830096007 
3.8700000000037424, 0.11654293200986568 
3.8800000000037635, 0.11504662017859382 
3.8900000000037847, 0.11435543914957538 
3.9000000000038058, 0.11418502137637872 
3.910000000003827, 0.11433922179353476 
3.920000000003848, 0.11463887126291217 
3.930000000003869, 0.11488747531653329 
3.94000000000389, 0.11486529226522066 
3.9500000000039113, 0.11432350660494381 
3.9600000000039324, 0.11293532914390485 
3.9700000000039535, 0.11015403667322024 
3.9800000000039746, 0.10489484135247318 
3.9900000000039957, 0.0948664582186294 
4.000000000004016, 0.07539420754083691 
4.010000000003993, 0.03897875486649147 
4.02000000000397, -0.01767736101253035 
4.030000000003946, -0.07867834632569484 
4.040000000003923, -0.12178042955899752 
4.0500000000039, -0.14451453510365375 
4.0600000000038765, -0.15529109985705017 
4.070000000003853, -0.16040241352467727 
4.08000000000383, -0.16286041495393339 
4.090000000003807, -0.16395993352807217 
4.100000000003783, -0.16425261038280412 
4.11000000000376, -0.16397734586382134 
4.120000000003737, -0.16325253479545274 
4.130000000003713, -0.16217993940318076 
4.14000000000369, -0.1609067769844367 
4.150000000003667, -0.15964195890077493 
4.1600000000036434, -0.15862265272967838 
4.17000000000362, -0.15806578850390335 
4.180000000003597, -0.15815360297317899 
4.1900000000035735, -0.15906227480937493 
4.20000000000355, -0.1609958378783464 
4.210000000003527, -0.16416575755689733 
4.220000000003504, -0.16865529336600382 
4.23000000000348, -0.17418335467987028 
4.240000000003457, -0.1799949876089792 
4.250000000003434, -0.18515776063168193 
4.26000000000341, -0.1890590922635625 
4.270000000003387, -0.19157720278237775 
4.280000000003364, -0.19287171890274082 
4.2900000000033405, -0.19311967194748167 
4.300000000003317, -0.1923619582466348 
4.310000000003294, -0.1904269029472323 
4.320000000003271, -0.18688224415863822 
4.330000000003247, -0.18106461179605304 
4.340000000003224, -0.17239089192537851 
4.350000000003201, -0.1611090758140335 
4.360000000003177, -0.14886319320038047 
4.370000000003154, -0.13789282029561853 
4.380000000003131, -0.1295175507156892 
4.390000000003107, -0.1237777703558067 
4.400000000003084, -0.12010453521053706 
4.410000000003061, -0.11789802398245701 
4.4200000000030375, -0.11671303648097905 
4.430000000003014, -0.11623875052513233 
4.440000000002991, -0.11623217394343513 
4.450000000002968, -0.11647307838673364 
4.460000000002944, -0.11675839494910605 
4.470000000002921, -0.11691940859839875 
4.480000000002898, -0.11682850586042379 
4.490000000002874, -0.11637461239605326 
4.500000000002851, -0.11540222078723919 
4.510000000002828, -0.11359385346459105 
4.520000000002804, -0.11020933480076836 
4.530000000002781, -0.10343555244224596 
4.540000000002758, -0.08885240436714584 
4.5500000000027345, -0.05730513982035231 
4.560000000002711, 0.00044275682157870783 
4.570000000002688, 0.07140323264777267 
4.580000000002665, 0.12578934768739175 
4.590000000002641, 0.1557721734445167 
4.600000000002618, 0.17040930831040427 
4.610000000002595, 0.1774660934960345 
4.620000000002571, 0.18084177994989012 
4.630000000002548, 0.18228716826493205 
4.640000000002525, 0.18259835226914678 
4.6500000000025015, 0.18217786376233464 
4.660000000002478, 0.18129143444293577 
4.670000000002455, 0.18017909273676885 
4.6800000000024315, 0.17907989087082532 
4.690000000002408, 0.17821410488423367 
4.700000000002385, 0.1777718423820599 
4.710000000002362, 0.1779350702879786 
4.720000000002338, 0.1789224475103995 
4.730000000002315, 0.1810163771494384 
4.740000000002292, 0.18450105530167002 
4.750000000002268, 0.18943454146784033 
4.760000000002245, 0.19533945789224852 
4.770000000002222, 0.20121042086210403 
4.7800000000021985, 0.20605375784861382 
4.790000000002175, 0.2094033813260871 
4.800000000002152, 0.2112905861267182 
4.810000000002129, 0.21190960336149828 
4.820000000002105, 0.21135285924625785 
4.830000000002082, 0.2094778175498838 
4.840000000002059, 0.20584464510868022 
4.850000000002035, 0.19976623485899495 
4.860000000002012, 0.1907112711632782 
