t, s[1].omega / s[0].omega 
0, -0.5390996827742537 
0.009999999999999995, -0.46868954632773374 
0.019999999999999934, -0.42643012749774434 
0.029999999999999874, -0.40038309183787424 
0.04000000000000012, -0.38368974253275634 
0.050000000000000405, -0.37261239542745067 
0.06000000000000069, -0.36507893413324816 
0.07000000000000098, -0.359900634645165 
0.08000000000000126, -0.3563732237152088 
0.09000000000000155, -0.3540707081220056 
0.10000000000000184, -0.3527361922100275 
0.11000000000000212, -0.35222382445411865 
0.12000000000000241, -0.35247001597726546 
0.130000000000002, -0.35348402945141894 
0.1400000000000009, -0.35535493232788595 
0.1499999999999998, -0.3582773120519381 
0.1599999999999987, -0.36260473287931566 
0.1699999999999976, -0.3689514873474905 
0.1799999999999965, -0.3783869438328747 
0.1899999999999954, -0.39281391850952974 
0.1999999999999943, -0.41569145753829373 
0.2099999999999932, -0.4532057215121414 
0.2199999999999921, -0.5148576586520942 
0.229999999999991, -0.6075897540878918 
0.2399999999999899, -0.7165063809972048 
0.2499999999999888, -0.8042397835618335 
0.2599999999999877, -0.8542941408965762 
0.2699999999999866, -0.8778730513584531 
0.2799999999999855, -0.8882862580608547 
0.2899999999999844, -0.892713804028865 
0.2999999999999833, -0.8942466604387797 
0.3099999999999822, -0.8940434772416742 
0.3199999999999811, -0.8922996945892674 
0.32999999999998, -0.8885187723380878 
0.3399999999999789, -0.8814851268317245 
0.3499999999999778, -0.8697737060891111 
0.35999999999997667, -0.8578759782878592 
0.36999999999997557, -0.9023140691805033 
0.37999999999997447, -1.4166597373332008 
0.38999999999997337, -2.454123168894866 
0.39999999999997227, -2.655749922267241 
0.40999999999997117, -2.6891207193471027 
0.41999999999997006, -2.6982492424192506 
0.42999999999996896, -2.701036504934115 
0.43999999999996786, -2.701133434123879 
0.44999999999996676, -2.6992425087364422 
0.45999999999996566, -2.694261768058121 
0.46999999999996456, -2.680158742080475 
0.47999999999996346, -2.6414853271521257 
0.48999999999996235, -2.6202138997164224 
0.49999999999996125, -2.6311621109881 
0.5099999999999602, -2.634723275862245 
0.519999999999959, -2.6342370028054507 
0.529999999999958, -2.6327542462326443 
0.5399999999999568, -2.635154866342949 
0.5499999999999557, -2.639318809893568 
0.5599999999999546, -2.6412777871739124 
0.5699999999999535, -2.6418353016310943 
0.5799999999999524, -2.641332908462786 
0.5899999999999513, -2.6383553432315123 
0.5999999999999502, -2.626676363245648 
0.6099999999999491, -2.5666917991477125 
0.619999999999948, -2.0045981356228797 
0.6299999999999469, 0.19413257158057923 
0.6399999999999458, 0.632604336925671 
0.6499999999999447, 0.6889098937189746 
0.6599999999999436, 0.7024408387131669 
0.6699999999999425, 0.7068461654879638 
0.6799999999999414, 0.7083726850166283 
0.6899999999999403, 0.70875101588127 
0.6999999999999392, 0.7086403876127974 
0.7099999999999381, 0.7084087157072363 
0.719999999999937, 0.7083587530910237 
0.7299999999999359, 0.7087803812858575 
0.7399999999999348, 0.7099003373539559 
0.7499999999999337, 0.7117559618788992 
0.7599999999999326, 0.7140906858621716 
0.7699999999999315, 0.7164254799647609 
0.7799999999999304, 0.718297680686101 
0.7899999999999293, 0.7194312960274539 
0.7999999999999282, 0.7196834569632444 
0.8099999999999271, 0.7188095194745154 
0.819999999999926, 0.7159830216734868 
0.8299999999999249, 0.7082452920707102 
0.8399999999999238, 0.6825783771741619 
0.8499999999999227, 0.55127711599122 
0.8599999999999216, -0.43784602996722055 
0.8699999999999205, -1.7499287967999693 
0.8799999999999194, -1.9632538632604302 
0.8899999999999183, -1.9977455427836888 
0.8999999999999172, -2.005508485476298 
0.9099999999999161, -2.0072010949430976 
0.919999999999915, -2.007036020759677 
0.9299999999999139, -2.0066754209997253 
0.9399999999999128, -2.0070915552156134 
0.9499999999999117, -2.0078257822690677 
0.9599999999999106, -2.0081316329089485 
0.9699999999999095, -2.0081615155357406 
0.9799999999999084, -2.008137207247055 
0.9899999999999073, -2.007541062763069 
0.9999999999999062, -2.0051945701333342 
1.0099999999999052, -1.9983068294540167 
1.019999999999904, -1.9780688067726466 
1.029999999999903, -1.913268051438995 
1.039999999999902, -1.6900018692580523 
1.0499999999999008, -1.0669286648189176 
1.0599999999998997, -0.3775031510038652 
1.0699999999998986, -0.09307297321539723 
1.0799999999998975, 0.0006224068062076588 
1.0899999999998964, 0.035859188795857026 
1.0999999999998953, 0.05137275333050571 
1.1099999999998942, 0.05895541875907488 
1.119999999999893, 0.06283831348772713 
1.129999999999892, 0.06473329186325624 
1.1399999999998909, 0.06536126920279245 
1.1499999999998898, 0.06496134772183114 
1.1599999999998887, 0.063431723132813 
1.1699999999998876, 0.06025153759683945 
1.1799999999998865, 0.05408759053332883 
1.1899999999998854, 0.04156109182867955 
1.1999999999998843, 0.013066953192542249 
1.2099999999998832, -0.06365734634190245 
1.219999999999882, -0.31941399372223206 
1.229999999999881, -1.0948244123541317 
1.2399999999998799, -1.8502324774545482 
1.2499999999998788, -2.0786983273243003 
1.2599999999998777, -2.1435762520357686 
1.2699999999998766, -2.1663371160199256 
1.2799999999998755, -2.175152591423525 
1.2899999999998744, -2.178376264890783 
1.2999999999998733, -2.1790230719305526 
1.3099999999998722, -2.178302824664095 
1.319999999999871, -2.176667912643469 
1.32999999999987, -2.173853123164805 
1.3399999999998689, -2.169215985554038 
1.3499999999998678, -2.1643039687821273 
1.3599999999998666, -2.1629033051488418 
1.3699999999998655, -2.163500875605606 
1.3799999999998644, -2.1628864907922205 
1.3899999999998633, -2.1585667197205156 
1.3999999999998622, -2.141484679179403 
1.4099999999998611, -2.098569298400916 
1.41999999999986, -2.2415038474859115 
1.429999999999859, -2.429773173809248 
1.4399999999998578, -2.4792779265431255 
1.4499999999998567, -2.493483616666162 
1.4599999999998556, -2.4986158111242998 
1.4699999999998545, -2.5003115939076754 
1.4799999999998534, -2.500035500428056 
1.4899999999998523, -2.497942101916336 
1.4999999999998512, -2.4929798604547857 
1.5099999999998501, -2.480601519154226 
1.519999999999849, -2.445378751724074 
1.529999999999848, -2.3911174530784587 
1.5399999999998468, -2.393610423850649 
1.5499999999998457, -2.4030778455312496 
1.5599999999998446, -2.405207257471192 
1.5699999999998435, -2.4042440465264017 
1.5799999999998424, -2.4026897982077213 
1.5899999999998413, -2.405760350834221 
1.5999999999998402, -2.4114706126510774 
1.6099999999998391, -2.414762032245391 
1.619999999999838, -2.416092246157279 
1.629999999999837, -2.416293601102706 
1.6399999999998358, -2.415022776795042 
1.6499999999998347, -2.4106347809674187 
1.6599999999998336, -2.397684002921147 
1.6699999999998325, -2.3542715262454577 
1.6799999999998314, -2.1566952419690884 
1.6899999999998303, -1.0932456286263632 
1.6999999999998292, 0.09963706888118376 
1.709999999999828, 0.33755030182975065 
1.719999999999827, 0.3891752322047308 
1.729999999999826, 0.40537404643920094 
1.7399999999998248, 0.4116491851650285 
1.7499999999998237, 0.41423468002642566 
1.7599999999998226, 0.4150826472463741 
1.7699999999998215, 0.4148541062447557 
1.7799999999998204, 0.41366755245097764 
1.7899999999998193, 0.4112566898920287 
1.7999999999998182, 0.4069062299007872 
1.809999999999817, 0.39962130320434053 
1.819999999999816, 0.39243480027641114 
1.8299999999998149, 0.4258308775805171 
1.8399999999998138, 0.6126683705648913 
1.8499999999998127, 0.7942459945761324 
1.8599999999998116, 0.85241192686736 
1.8699999999998105, 0.8685058878664196 
1.8799999999998094, 0.8735024852099992 
1.8899999999998083, 0.8747323658337451 
1.8999999999998072, 0.8738345031772081 
1.909999999999806, 0.8703600897217308 
1.919999999999805, 0.8615720182526824 
1.9299999999998039, 0.8403506037972303 
1.9399999999998028, 0.7981032033725441 
1.9499999999998017, 0.7518089970703137 
1.9599999999998006, 0.7322097570487637 
1.9699999999997995, 0.7306055700300376 
1.9799999999997984, 0.7326986536729463 
1.9899999999997973, 0.7343706067056466 
1.9999999999997962, 0.7350733587884178 
2.0099999999998173, 0.7347296389749438 
2.0199999999998384, 0.7329064852362576 
2.0299999999998595, 0.7279871292217543 
2.0399999999998806, 0.7138478561390329 
2.0499999999999017, 0.6586430584743324 
2.059999999999923, 0.2694960048957843 
2.069999999999944, -2.173861665719503 
2.079999999999965, -2.901323865353169 
2.089999999999986, -2.9593190653846 
2.100000000000007, -2.9705184604819896 
2.1100000000000283, -2.9732162291859368 
2.1200000000000494, -2.9728970211173245 
2.1300000000000705, -2.9701720648955936 
2.1400000000000916, -2.9619438682190076 
2.1500000000001127, -2.931737806139428 
2.160000000000134, -2.887220778121141 
2.170000000000155, -2.900968760816425 
2.180000000000176, -2.9066804235991213 
2.190000000000197, -2.9066999632795247 
2.2000000000002182, -2.9057166030302257 
2.2100000000002393, -2.907377087273104 
2.2200000000002604, -2.9092031327148176 
2.2300000000002815, -2.909585899555465 
2.2400000000003026, -2.9093778316168213 
2.2500000000003237, -2.90753951707378 
2.260000000000345, -2.8976612678368205 
2.270000000000366, -2.806125604784401 
2.280000000000387, -0.21863015128234292 
2.290000000000408, 1.6889185266214362 
2.3000000000004293, 1.7399551710006933 
2.3100000000004504, 1.7459801100184174 
2.3200000000004715, 1.7463321913098173 
2.3300000000004926, 1.7432447767742887 
2.3400000000005137, 1.729437860932046 
2.3500000000005348, 1.654675398581833 
2.360000000000556, 1.5198473559024046 
2.370000000000577, 1.5510784629921228 
2.380000000000598, 1.5678285783181476 
2.390000000000619, 1.5719545822585437 
2.4000000000006403, 1.5723502495654498 
2.4100000000006614, 1.57100920992408 
2.4200000000006825, 1.5692288828046184 
2.4300000000007036, 1.5715669605825087 
2.4400000000007247, 1.581429994964633 
2.450000000000746, 1.5909623121223375 
2.460000000000767, 1.5957356228379607 
2.470000000000788, 1.5973152518637534 
2.480000000000809, 1.5969463074818635 
2.49000000000083, 1.5938011962668388 
2.5000000000008513, 1.5781327246026606 
2.5100000000008724, 1.3628377067045068 
2.5200000000008935, -3.149053151592697 
2.5300000000009146, -3.5374855743487883 
2.5400000000009357, -3.5558282567331703 
2.550000000000957, -3.5578251238667944 
2.560000000000978, -3.5565403845783505 
2.570000000000999, -3.5514799235413674 
2.58000000000102, -3.5321676993912456 
2.5900000000010412, -3.523942290015517 
2.6000000000010624, -3.5306724314825972 
2.6100000000010835, -3.5307701757286276 
2.6200000000011046, -3.529902923026743 
2.6300000000011257, -3.5315320573794793 
2.6400000000011468, -3.5319535494189545 
2.650000000001168, -3.531614150891433 
2.660000000001189, -3.52986788766192 
2.67000000000121, -3.5152835727525287 
2.680000000001231, -3.284047198517696 
2.6900000000012523, -3.8809603919994253 
2.7000000000012734, -3.9540517541912954 
2.7100000000012945, -3.9599571207633346 
2.7200000000013156, -3.9597273336517382 
2.7300000000013367, -3.9545947558207404 
2.740000000001358, -3.913893274465643 
2.750000000001379, -1.5617982895885134 
2.7600000000014, 1.3831696456132692 
2.770000000001421, 1.4864294966887392 
2.780000000001442, 1.4981163319288773 
2.7900000000014633, 1.5004317225139148 
2.8000000000014844, 1.500730497237286 
2.8100000000015055, 1.5006481220153594 
2.8200000000015266, 1.5009059815470223 
2.8300000000015477, 1.5016606651333142 
2.840000000001569, 1.502518137897595 
2.85000000000159, 1.5030690630953432 
2.860000000001611, 1.503217869415873 
2.870000000001632, 1.5029265322831042 
2.8800000000016532, 1.5017585054155158 
2.8900000000016743, 1.4977017362426133 
2.9000000000016954, 1.477856089787908 
2.9100000000017165, 1.1967505186660974 
2.9200000000017377, -3.1558656343656364 
2.9300000000017588, -3.510058742151174 
2.94000000000178, -3.530622117614307 
2.950000000001801, -3.5336466470698027 
2.960000000001822, -3.532773738373352 
2.970000000001843, -3.527945682430422 
2.9800000000018643, -3.503207258990494 
2.9900000000018854, -3.416864477689841 
3.0000000000019065, -3.4457876257905875 
3.0100000000019276, -3.4530566260538706 
3.0200000000019487, -3.4530030663284195 
3.03000000000197, -3.4526542610824187 
3.040000000001991, -3.4527161150088164 
3.050000000002012, -3.4517893058873277 
3.060000000002033, -3.45132988092485 
3.070000000002054, -3.449145252139458 
3.0800000000020753, -3.4316183210626034 
3.0900000000020964, -3.4144539060367682 
3.1000000000021175, -3.5398836729806513 
3.1100000000021386, -3.5581191966858783 
3.1200000000021597, -3.560952360189597 
3.130000000002181, -3.560194670391533 
3.140000000002202, -3.5547524008489524 
3.150000000002223, -3.5232243962715577 
3.160000000002244, -2.7188902095519674 
3.1700000000022652, 1.2718161599573734 
3.1800000000022863, 1.4355606514999835 
3.1900000000023074, 1.4507875527368717 
3.2000000000023285, 1.4537889729281042 
3.2100000000023496, 1.4543260421234085 
3.2200000000023707, 1.4542075571524793 
3.230000000002392, 1.4539900248994049 
3.240000000002413, 1.4537978821834208 
3.250000000002434, 1.4535512935078052 
3.260000000002455, 1.4532268017335057 
3.2700000000024763, 1.4529061253307076 
3.2800000000024974, 1.4525414308854379 
3.2900000000025185, 1.4517226727744263 
3.3000000000025396, 1.4491699443382247 
3.3100000000025607, 1.439027394604809 
3.3200000000025818, 1.362430256972879 
3.330000000002603, -1.1594458650971329 
3.340000000002624, -3.4809712459857587 
3.350000000002645, -3.5398518175442737 
3.360000000002666, -3.5470306563825473 
3.3700000000026873, -3.5475873790264187 
3.3800000000027084, -3.544960777866897 
3.3900000000027295, -3.533529545794914 
3.4000000000027506, -3.4526936728275084 
3.4100000000027717, -3.4027380652105257 
3.420000000002793, -3.4323801925351214 
3.430000000002814, -3.4352433847870265 
3.440000000002835, -3.434694530676011 
3.450000000002856, -3.4345776214370938 
3.460000000002877, -3.433867616574397 
3.4700000000028983, -3.4328607421898143 
3.4800000000029194, -3.4323531592491454 
3.4900000000029405, -3.4278902641872313 
3.5000000000029616, -3.3978234070293496 
3.5100000000029827, -3.455801484021611 
3.520000000003004, -3.506889074344764 
3.530000000003025, -3.5143389677076122 
3.540000000003046, -3.5153079782508905 
3.550000000003067, -3.5131581413444075 
3.5600000000030882, -3.50285672856201 
3.5700000000031094, -3.4184064143172064 
3.5800000000031305, -0.2946679048062387 
3.5900000000031516, 1.3942103414380083 
3.6000000000031727, 1.4481849324681824 
3.6100000000031938, 1.4557794592383198 
3.620000000003215, 1.4573785789602964 
3.630000000003236, 1.4575147749079087 
3.640000000003257, 1.4571947301844699 
3.650000000003278, 1.4566859194616681 
3.6600000000032993, 1.4560057873828742 
3.6700000000033204, 1.455209161573913 
3.6800000000033415, 1.4545086887487524 
3.6900000000033626, 1.4540289371820274 
3.7000000000033837, 1.4535251328805043 
3.710000000003405, 1.4522510539727729 
3.720000000003426, 1.4479212763499663 
3.730000000003447, 1.4272060489158682 
3.740000000003468, 1.1668150677213587 
3.750000000003489, -3.1286490012850225 
3.7600000000035103, -3.6038288776544136 
3.7700000000035314, -3.6256266711500915 
3.7800000000035525, -3.6287165573472926 
3.7900000000035736, -3.627781011121589 
3.8000000000035947, -3.6222878063153283 
3.810000000003616, -3.5887816775050596 
3.820000000003637, -3.3889328103545773 
3.830000000003658, -3.456568046085169 
3.840000000003679, -3.469092572263677 
3.8500000000037002, -3.469698313008286 
3.8600000000037213, -3.469137830813488 
3.8700000000037424, -3.46862014259192 
3.8800000000037635, -3.46705217557799 
3.8900000000037847, -3.466527632896051 
3.9000000000038058, -3.4651615638955584 
3.910000000003827, -3.4546256428205546 
3.920000000003848, -3.447847136712826 
3.930000000003869, -3.5045716159497315 
3.94000000000389, -3.516616585143742 
3.9500000000039113, -3.518599382085833 
3.9600000000039324, -3.51750365944874 
3.9700000000039535, -3.5108968220220866 
3.9800000000039746, -3.467489785959598 
3.9900000000039957, -2.07117503423412 
4.000000000004016, 1.401516080452303 
4.010000000003993, 1.4967053330507334 
4.02000000000397, 1.50703461402527 
4.030000000003946, 1.5090757670550707 
4.040000000003923, 1.5091993077200394 
4.0500000000039, 1.5084797455354768 
4.0600000000038765, 1.5070211025685984 
4.070000000003853, 1.504824888050706 
4.08000000000383, 1.502392565463682 
4.090000000003807, 1.500666778590819 
4.100000000003783, 1.4999490296652793 
4.11000000000376, 1.4995538659542096 
4.120000000003737, 1.4983538349378465 
4.130000000003713, 1.4938314099145036 
4.14000000000369, 1.4717585629669596 
4.150000000003667, 1.2269875699538266 
4.1600000000036434, -2.4335366835624805 
4.17000000000362, -4.795833503368483 
4.180000000003597, -4.812307563429556 
4.1900000000035735, -4.812339598233463 
4.20000000000355, -4.8046586805819285 
4.210000000003527, -4.486868783999638 
4.220000000003504, 2.284188201996658 
4.23000000000348, 2.398618712906958 
4.240000000003457, 2.404504662759261 
4.250000000003434, 2.404937193620305 
4.26000000000341, 2.403985976928534 
4.270000000003387, 2.4011725737937626 
4.280000000003364, 2.3963645260165096 
4.2900000000033405, 2.394092724642896 
4.300000000003317, 2.394665907649972 
4.310000000003294, 2.3940168905076407 
4.320000000003271, 2.3887732048650268 
4.330000000003247, 2.375359390740557 
4.340000000003224, 2.4080908270078845 
4.350000000003201, 2.4317941076318954 
4.360000000003177, 2.436215608299943 
4.370000000003154, 2.436029017127449 
4.380000000003131, 2.4307836185469744 
4.390000000003107, 2.350129134728559 
4.400000000003084, -4.126339761031298 
4.410000000003061, -4.417808141174552 
4.4200000000030375, -4.425475033724351 
4.430000000003014, -4.424685538750962 
4.440000000002991, -4.417211191483849 
4.450000000002968, -4.336847058989595 
4.460000000002944, -4.349658363410205 
4.470000000002921, -4.358871377494829 
4.480000000002898, -4.358488423338436 
4.490000000002874, -4.357534459193061 
4.500000000002851, -4.354947828411854 
4.510000000002828, -4.354546921123956 
4.520000000002804, -4.352426235384335 
4.530000000002781, -4.348444646342749 
4.540000000002758, -4.358928255427706 
4.5500000000027345, -4.361037096702206 
4.560000000002711, -4.360093408361973 
4.570000000002688, -4.349053573912488 
4.580000000002665, -3.3485434362589763 
4.590000000002641, 3.5816241537080677 
4.600000000002618, 3.606964335787455 
4.610000000002595, 3.60665835138886 
4.620000000002571, 3.586822878258123 
4.630000000002548, -4.201717832954319 
4.640000000002525, -4.91444566897117 
4.6500000000025015, -4.919435826052874 
4.660000000002478, -4.917597045850839 
4.670000000002455, -4.904542467053073 
4.6800000000024315, -4.8938720117092025 
4.690000000002408, -4.900217775763728 
4.700000000002385, -4.899415303762682 
4.710000000002362, -4.898837944238436 
4.720000000002338, -4.8971639486057095 
4.730000000002315, -4.896337631647965 
4.740000000002292, -4.889031669729114 
4.750000000002268, -4.899222074600555 
4.760000000002245, -4.903497049834281 
4.770000000002222, -4.902675739506163 
4.7800000000021985, -4.888958283374565 
4.790000000002175, -1.7154246818544991 
4.800000000002152, 5.008328209153671 
4.810000000002129, 5.014125280928799 
4.820000000002105, 5.00206264888309 
4.830000000002082, -6.7970489579978475 
4.840000000002059, -6.861765498746317 
4.850000000002035, -6.859053462501031 
4.860000000002012, -6.680926793470826 
4.870000000001989, -6.785243267793616 
4.880000000001965, -6.785165777908889 
4.890000000001942, -6.777644931330341 
4.900000000001919, -6.777169437686662 
4.9100000000018955, -6.776453684393735 
4.920000000001872, -6.774964096974048 
4.930000000001849, -6.773396192445217 
4.940000000001826, -6.769390831225375 
4.950000000001802, -6.772621075141425 
4.960000000001779, -6.77164530220905 
4.970000000001756, -6.752245732315129 
4.980000000001732, -6.789715794583358 
4.990000000001709, -6.793399724080731 
