t, s[1].omega / s[0].omega 
0, -1.269997383818898 
0.009999999999999995, -1.269549355854589 
0.019999999999999934, -1.2687307628038185 
0.029999999999999874, -1.2675426268510472 
0.04000000000000012, -1.2660007372960795 
0.050000000000000405, -1.2641459596198237 
0.06000000000000069, -1.2620456374375402 
0.07000000000000098, -1.2597923164371294 
0.08000000000000126, -1.2575251320044467 
0.09000000000000155, -1.2554743007943494 
0.10000000000000184, -1.253936857741214 
0.11000000000000212, -1.253095755055576 
0.12000000000000241, -1.2528380088011342 
0.130000000000002, -1.2528194084471047 
0.1400000000000009, -1.2526692176424719 
0.1499999999999998, -1.2520685023955662 
0.1599999999999987, -1.250676383041481 
0.1699999999999976, -1.2480176765908209 
0.1799999999999965, -1.243424538907274 
0.1899999999999954, -1.236105882165401 
0.1999999999999943, -1.2253591807572417 
0.2099999999999932, -1.2107877573722066 
0.2199999999999921, -1.1923514425778559 
0.229999999999991, -1.1703266394994483 
0.2399999999999899, -1.1454759271470887 
0.2499999999999888, -1.1195704579500525 
0.2599999999999877, -1.095784853844 
0.2699999999999866, -1.077792597230172 
0.2799999999999855, -1.0673977859283454 
0.2899999999999844, -1.063285118566812 
0.2999999999999833, -1.0626075391823393 
0.3099999999999822, -1.0630937009385586 
0.3199999999999811, -1.0636064096644844 
0.32999999999998, -1.0637092958614682 
0.3399999999999789, -1.0631844817173812 
0.3499999999999778, -1.0617261763933523 
0.35999999999997667, -1.0586924967754274 
0.36999999999997557, -1.052778811422863 
0.37999999999997447, -1.0416008940071337 
0.38999999999997337, -1.021580849159668 
0.39999999999997227, -0.9891860774080904 
0.40999999999997117, -0.9439893356790268 
0.41999999999997006, -0.8907600370308018 
0.42999999999996896, -0.8371629700903431 
0.43999999999996786, -0.7894777815719916 
0.44999999999996676, -0.7507477628009728 
0.45999999999996566, -0.7214157887633148 
0.46999999999996456, -0.7005126435542088 
0.47999999999996346, -0.6864904165720549 
0.48999999999996235, -0.6776838382223185 
0.49999999999996125, -0.6725600796505342 
0.5099999999999602, -0.6698508604134054 
0.519999999999959, -0.6686000562095418 
0.529999999999958, -0.6681455043144597 
0.5399999999999568, -0.6680604618770724 
0.5499999999999557, -0.6680830253735193 
0.5599999999999546, -0.6680547612569991 
0.5699999999999535, -0.6678794461713421 
0.5799999999999524, -0.6675047890964059 
0.5899999999999513, -0.6669231012000051 
0.5999999999999502, -0.6661778436111359 
0.6099999999999491, -0.6653570440467129 
0.619999999999948, -0.6645643908305342 
0.6299999999999469, -0.6638806769128858 
0.6399999999999458, -0.663337233195011 
0.6499999999999447, -0.6629116401071877 
0.6599999999999436, -0.6625433476816458 
0.6699999999999425, -0.6621615949969367 
0.6799999999999414, -0.661714244891165 
0.6899999999999403, -0.6611862228753205 
0.6999999999999392, -0.6606054204020805 
0.7099999999999381, -0.6600440878190328 
0.719999999999937, -0.6596246861417427 
0.7299999999999359, -0.6595326466678486 
0.7399999999999348, -0.6600314270116523 
0.7499999999999337, -0.6614714728697308 
0.7599999999999326, -0.6642859185428394 
0.7699999999999315, -0.6689727820463053 
0.7799999999999304, -0.6760729386735391 
0.7899999999999293, -0.6861574041761573 
0.7999999999999282, -0.6998280996797372 
0.8099999999999271, -0.7177083212003544 
0.819999999999926, -0.7403485013680104 
0.8299999999999249, -0.7679052891290202 
0.8399999999999238, -0.7994603226587709 
0.8499999999999227, -0.8322411555867817 
0.8599999999999216, -0.8618910007811837 
0.8699999999999205, -0.8846682404227518 
0.8799999999999194, -0.8996521032985549 
0.8899999999999183, -0.9083924737772436 
0.8999999999999172, -0.9130704371132892 
0.9099999999999161, -0.9153587926967092 
0.919999999999915, -0.9162526563352816 
0.9299999999999139, -0.9162586309308545 
0.9399999999999128, -0.9155890837509497 
0.9499999999999117, -0.9143034013215804 
0.9599999999999106, -0.9124716663811965 
0.9699999999999095, -0.9105565634848892 
0.9799999999999084, -0.9104295812258776 
0.9899999999999073, -0.9176267977264037 
0.9999999999999062, -0.9445957419278063 
1.0099999999999052, -1.0102414741095074 
1.019999999999904, -1.1241285533810754 
1.029999999999903, -1.2608913412523053 
1.039999999999902, -1.3762810581988487 
1.0499999999999008, -1.4518618324245716 
1.0599999999998997, -1.4947423551026284 
1.0699999999998986, -1.5171631729301327 
1.0799999999998975, -1.5282297177581345 
1.0899999999998964, -1.5333872457531694 
1.0999999999998953, -1.5355521506548506 
1.1099999999998942, -1.5361821218116543 
1.119999999999893, -1.536009182368074 
1.129999999999892, -1.5354955358919358 
1.1399999999998909, -1.5350591491891579 
1.1499999999998898, -1.5350035501902197 
1.1599999999998887, -1.5353220621757555 
1.1699999999998876, -1.5358081521920988 
1.1799999999998865, -1.5363236602621329 
1.1899999999998854, -1.5368037305095537 
1.1999999999998843, -1.5371228045744671 
1.2099999999998832, -1.537079423453618 
1.219999999999882, -1.536439672472909 
1.229999999999881, -1.5349271049731974 
1.2399999999998799, -1.5321867854572704 
1.2499999999998788, -1.52776342255981 
1.2599999999998777, -1.5210704425432084 
1.2699999999998766, -1.511301415964884 
1.2799999999998755, -1.497308815298932 
1.2899999999998744, -1.4777627679103402 
1.2999999999998733, -1.4526016466417402 
1.3099999999998722, -1.4265820188250253 
1.319999999999871, -1.4092403085983032 
1.32999999999987, -1.4040609214620567 
1.3399999999998689, -1.4050937389220746 
1.3499999999998678, -1.4069387701690208 
1.3599999999998666, -1.4079464253783018 
1.3699999999998655, -1.4079562253630946 
1.3799999999998644, -1.4068435282961351 
1.3899999999998633, -1.4039263910044326 
1.3999999999998622, -1.3972477033676096 
1.4099999999998611, -1.3823442782475255 
1.41999999999986, -1.3542124542776264 
1.429999999999859, -1.338664345378214 
1.4399999999998578, -1.4786440384215775 
1.4499999999998567, -1.8298735271675948 
1.4599999999998556, -2.047213549429803 
1.4699999999998545, -2.117873083590637 
1.4799999999998534, -2.14073628688944 
1.4899999999998523, -2.1488575831026626 
1.4999999999998512, -2.151702135056829 
1.5099999999998501, -2.1523287477534145 
1.519999999999849, -2.151843954341087 
1.529999999999848, -2.15069489517751 
1.5399999999998468, -2.148991968852768 
1.5499999999998457, -2.146678040287991 
1.5599999999998446, -2.1443857671111486 
1.5699999999998435, -2.143453508750703 
1.5799999999998424, -2.143565800463485 
1.5899999999998413, -2.1433346528255117 
1.5999999999998402, -2.141716494231156 
1.6099999999998391, -2.1365430823133633 
1.619999999999838, -2.1216538932148987 
1.629999999999837, -2.1054335037397895 
1.6399999999998358, -2.1729764898173305 
1.6499999999998347, -2.255881970380456 
1.6599999999998336, -2.2899054785865807 
1.6699999999998325, -2.3024407948986116 
1.6799999999998314, -2.3073846497316923 
1.6899999999998303, -2.3091582652199825 
1.6999999999998292, -2.3092548202553074 
1.709999999999828, -2.3081448834216114 
1.719999999999827, -2.305746846550855 
1.729999999999826, -2.3013480602068412 
1.7399999999998248, -2.29396353386102 
1.7499999999998237, -2.2864522029907994 
1.7599999999998226, -2.2851968970463785 
1.7699999999998215, -2.2868073917632996 
1.7799999999998204, -2.287354053549781 
1.7899999999998193, -2.2864293772884032 
1.7999999999998182, -2.2839368495040704 
1.809999999999817, -2.2823122103471674 
1.819999999999816, -2.288542049771431 
1.8299999999998149, -2.298017822132075 
1.8399999999998138, -2.303859443561509 
1.8499999999998127, -2.306667501313604 
1.8599999999998116, -2.3077586658366807 
1.8699999999998105, -2.3076060669866743 
1.8799999999998094, -2.306107744373314 
1.8899999999998083, -2.3025184809017594 
1.8999999999998072, -2.29463806956523 
1.909999999999806, -2.2759185224904863 
1.919999999999805, -2.229636342477275 
1.9299999999998039, -2.1621981610924714 
1.9399999999998028, -2.154916458087731 
1.9499999999998017, -2.169187558332887 
1.9599999999998006, -2.1749119036291993 
1.9699999999997995, -2.1763287534526325 
1.9799999999997984, -2.1760543799768493 
1.9899999999997973, -2.175162942229179 
1.9999999999997962, -2.1751061639612845 
2.0099999999998173, -2.1767552414072755 
2.0199999999998384, -2.178731774814029 
2.0299999999998595, -2.1800271816682115 
2.0399999999998806, -2.1806694833415077 
2.0499999999999017, -2.180642602170572 
2.059999999999923, -2.1795890503437065 
2.069999999999944, -2.1765794638733693 
2.079999999999965, -2.1690604796408923 
2.089999999999986, -2.1492161488741717 
2.100000000000007, -2.089782920984144 
2.1100000000000283, -1.9025676708593786 
2.1200000000000494, -1.5638515249096874 
2.1300000000000705, -1.4204660034937426 
2.1400000000000916, -1.4430913727222696 
2.1500000000001127, -1.4734277394373836 
2.160000000000134, -1.4876919072884447 
2.170000000000155, -1.493364727928899 
2.180000000000176, -1.495391620434623 
2.190000000000197, -1.4957188213840023 
2.2000000000002182, -1.4949916851533236 
2.2100000000002393, -1.4934514222391981 
2.2200000000002604, -1.491869061855568 
2.2300000000002815, -1.4929781876013954 
2.2400000000003026, -1.5005179475454091 
2.2500000000003237, -1.513643463645812 
2.260000000000345, -1.5272399161845516 
2.270000000000366, -1.5381546779000563 
2.280000000000387, -1.5460857633734082 
2.290000000000408, -1.5516613553010539 
2.3000000000004293, -1.5554796745908317 
2.3100000000004504, -1.5579487718533986 
2.3200000000004715, -1.5593395758249518 
2.3300000000004926, -1.5598487642414522 
2.3400000000005137, -1.5596350866974773 
2.3500000000005348, -1.5588365574827197 
2.360000000000556, -1.557580582660357 
2.370000000000577, -1.5559778499071313 
2.380000000000598, -1.5541073708248456 
2.390000000000619, -1.5520934231694885 
2.4000000000006403, -1.5502861543249498 
2.4100000000006614, -1.549171150656779 
2.4200000000006825, -1.5488366350683846 
2.4300000000007036, -1.548812886835971 
2.4400000000007247, -1.5485162349958244 
2.450000000000746, -1.5474091344828298 
2.460000000000767, -1.5446254027275592 
2.470000000000788, -1.5380793965512047 
2.480000000000809, -1.5223223497073557 
2.49000000000083, -1.483164375813465 
2.5000000000008513, -1.3871980352217865 
2.5100000000008724, -1.1826119604940726 
2.5200000000008935, -0.8778034269756695 
2.5300000000009146, -0.6056838621176877 
2.5400000000009357, -0.44418764073677985 
2.550000000000957, -0.3634842845527929 
2.560000000000978, -0.32378144997128194 
2.570000000000999, -0.30345234261707804 
2.58000000000102, -0.29253360427243036 
2.5900000000010412, -0.28643960979250777 
2.6000000000010624, -0.2829664943163933 
2.6100000000010835, -0.2810017748517855 
2.6200000000011046, -0.2799613466628731 
2.6300000000011257, -0.27953386206694225 
2.6400000000011468, -0.2795607557348448 
2.650000000001168, -0.27998051996541334 
2.660000000001189, -0.2808070069743232 
2.67000000000121, -0.28212952434660815 
2.680000000001231, -0.2841315956367918 
2.6900000000012523, -0.2871316863743317 
2.7000000000012734, -0.2916548986914069 
2.7100000000012945, -0.2985434588808805 
2.7200000000013156, -0.3090749879396845 
2.7300000000013367, -0.32489458257025655 
2.740000000001358, -0.34720818188086877 
2.750000000001379, -0.3747616671749545 
2.7600000000014, -0.40250090117118004 
2.770000000001421, -0.4246563879156299 
2.780000000001442, -0.4392460081381649 
2.7900000000014633, -0.44777355465797825 
2.8000000000014844, -0.452472528932776 
2.8100000000015055, -0.4549508769363297 
2.8200000000015266, -0.45611787842406504 
2.8300000000015477, -0.45641998856955135 
2.840000000001569, -0.4560200461324797 
2.85000000000159, -0.45488246851687764 
2.860000000001611, -0.4527981599615762 
2.870000000001632, -0.4494002320061766 
2.8800000000016532, -0.44425884877943683 
2.8900000000016743, -0.4371617171552294 
2.9000000000016954, -0.42850846363060413 
2.9100000000017165, -0.41937876743912383 
2.9200000000017377, -0.41098618983076146 
2.9300000000017588, -0.40405045541915763 
2.94000000000178, -0.3986874654317546 
2.950000000001801, -0.39467015784134507 
2.960000000001822, -0.3916811723827997 
2.970000000001843, -0.38943486245122877 
2.9800000000018643, -0.3877123252234492 
2.9900000000018854, -0.3863629452011169 
3.0000000000019065, -0.385297577095198 
3.0100000000019276, -0.38448177383730525 
3.0200000000019487, -0.3839330833434147 
3.03000000000197, -0.3837265383134457 
3.040000000001991, -0.38401372559397207 
3.050000000002012, -0.38506413555638275 
3.060000000002033, -0.3873456054920673 
3.070000000002054, -0.3916785306259091 
3.0800000000020753, -0.3995364032853169 
3.0900000000020964, -0.4136426948135566 
3.1000000000021175, -0.4391491522757307 
3.1100000000021386, -0.4857572455986873 
3.1200000000021597, -0.5701512854212567 
3.130000000002181, -0.7121148613077656 
3.140000000002202, -0.9076775536193095 
3.150000000002223, -1.0999174041721864 
3.160000000002244, -1.2305048253332989 
3.1700000000022652, -1.2982387846519403 
3.1800000000022863, -1.3288535826042893 
3.1900000000023074, -1.3420283600319447 
3.2000000000023285, -1.3475955413219327 
3.2100000000023496, -1.349804202113185 
3.2200000000023707, -1.3504150717754162 
3.230000000002392, -1.350177568349177 
3.240000000002413, -1.3495262545119666 
3.250000000002434, -1.3490173154331466 
3.260000000002455, -1.349529698033709 
3.2700000000024763, -1.351819354623269 
3.2800000000024974, -1.3557070091529 
3.2900000000025185, -1.3602197929030855 
3.3000000000025396, -1.364493862888085 
3.3100000000025607, -1.368150392006267 
3.3200000000025818, -1.3711200410306914 
3.330000000002603, -1.373435322108733 
3.340000000002624, -1.3751437267249964 
3.350000000002645, -1.3762849669638433 
3.360000000002666, -1.376886311502944 
3.3700000000026873, -1.3769667893338862 
3.3800000000027084, -1.3765484928170062 
3.3900000000027295, -1.3756690932461777 
3.4000000000027506, -1.3743900193088687 
3.4100000000027717, -1.3727955197224777 
3.420000000002793, -1.3709793195609132 
3.430000000002814, -1.3690436794275684 
3.440000000002835, -1.3671571704152026 
3.450000000002856, -1.3656119832068536 
3.460000000002877, -1.364690726909228 
3.4700000000028983, -1.3643839532690833 
3.4800000000029194, -1.3643533991232035 
3.4900000000029405, -1.3641759097602417 
3.5000000000029616, -1.3634694898872168 
3.5100000000029827, -1.3617800020016455 
3.520000000003004, -1.358352346413274 
3.530000000003025, -1.3518718731750556 
3.540000000003046, -1.3402785289100008 
3.550000000003067, -1.3208582134203477 
3.5600000000030882, -1.2907637632322528 
3.5700000000031094, -1.2479374241892898 
3.5800000000031305, -1.192648027100469 
3.5900000000031516, -1.1299683922938528 
3.6000000000031727, -1.0709641936836836 
3.6100000000031938, -1.0275574139171784 
3.620000000003215, -1.0037702542178866 
3.630000000003236, -0.994665347356612 
3.640000000003257, -0.9929345028398091 
3.650000000003278, -0.993674081279876 
3.6600000000032993, -0.9947137178664626 
3.6700000000033204, -0.9953563081610814 
3.6800000000033415, -0.9954183268835001 
3.6900000000033626, -0.9947702991221593 
3.7000000000033837, -0.9931088477361486 
3.710000000003405, -0.9897424318379393 
3.720000000003426, -0.9832687972247575 
3.730000000003447, -0.9711785328193354 
3.740000000003468, -0.9498881625840779 
3.750000000003489, -0.9163685045231137 
3.7600000000035103, -0.871465258194215 
3.7700000000035314, -0.821200134044633 
3.7800000000035525, -0.77315679860177 
3.7900000000035736, -0.7322292511148729 
3.8000000000035947, -0.699892941890904 
3.810000000003616, -0.6756013058923125 
3.820000000003637, -0.6580690783105523 
3.830000000003658, -0.6459052102051499 
3.840000000003679, -0.6378366424524403 
3.8500000000037002, -0.6327694509786008 
3.8600000000037213, -0.6298024843744947 
3.8700000000037424, -0.6282267819229449 
3.8800000000037635, -0.6275134059218244 
3.8900000000037847, -0.6272888250146057 
3.9000000000038058, -0.6273020647245852 
3.910000000003827, -0.6273914329189695 
3.920000000003848, -0.6274582601171467 
3.930000000003869, -0.6274519432167913 
3.94000000000389, -0.6273654523028552 
3.9500000000039113, -0.6272339438347623 
3.9600000000039324, -0.6271254361127354 
3.9700000000039535, -0.6271179480752739 
3.9800000000039746, -0.6272692308621196 
3.9900000000039957, -0.6275909600378017 
4.000000000004016, -0.6280365871762086 
4.010000000003993, -0.6285096168095395 
4.02000000000397, -0.6288945932057652 
4.030000000003946, -0.6290982383041158 
4.040000000003923, -0.6290767768999027 
4.0500000000039, -0.6288382193051957 
4.0600000000038765, -0.6284321582847839 
4.070000000003853, -0.6279480451728152 
4.08000000000383, -0.6275368599880313 
4.090000000003807, -0.6274661793826251 
4.100000000003783, -0.6282203033868574 
4.11000000000376, -0.6306608902177673 
4.120000000003737, -0.6362625357214947 
4.130000000003713, -0.6474216546722826 
4.14000000000369, -0.6677784087491112 
4.150000000003667, -0.7023134395335587 
4.1600000000036434, -0.756555587162783 
4.17000000000362, -0.8337097681292074 
4.180000000003597, -0.9294085027363506 
4.1900000000035735, -1.0285430516637146 
4.20000000000355, -1.1118992182498995 
4.210000000003527, -1.168997092197191 
4.220000000003504, -1.20204837017356 
4.23000000000348, -1.2191026320044944 
4.240000000003457, -1.2273177659847316 
4.250000000003434, -1.231060105462673 
4.26000000000341, -1.2325613747717017 
4.270000000003387, -1.2328732513607057 
4.280000000003364, -1.2324996175569176 
4.2900000000033405, -1.2317944196328319 
4.300000000003317, -1.231292915444731 
4.310000000003294, -1.231923948743496 
4.320000000003271, -1.234692703507523 
4.330000000003247, -1.2398003730087876 
4.340000000003224, -1.2463505593652509 
4.350000000003201, -1.2531469935476225 
4.360000000003177, -1.2594240631022129 
4.370000000003154, -1.2648965903025917 
4.380000000003131, -1.2695269370772129 
4.390000000003107, -1.2733486850748326 
4.400000000003084, -1.2763911040144031 
4.410000000003061, -1.2786649817655316 
4.4200000000030375, -1.2801822624984764 
4.430000000003014, -1.2809856094299972 
4.440000000002991, -1.2811623182675262 
4.450000000002968, -1.2808369218573472 
4.460000000002944, -1.2801609677865264 
4.470000000002921, -1.2793095179011709 
4.480000000002898, -1.278461948468186 
4.490000000002874, -1.2777523110957119 
4.500000000002851, -1.2772395802336605 
4.510000000002828, -1.2769444175916669 
4.520000000002804, -1.2768851911816201 
4.530000000002781, -1.2770371750649345 
4.540000000002758, -1.2772789045123019 
4.5500000000027345, -1.2774168415429454 
4.560000000002711, -1.2772485231103325 
4.570000000002688, -1.2765896082118469 
4.580000000002665, -1.2752724259322339 
4.590000000002641, -1.2731552843939211 
4.600000000002618, -1.2701451565396007 
4.610000000002595, -1.2662036122879106 
4.620000000002571, -1.2613198930591933 
4.630000000002548, -1.2554743978680958 
4.640000000002525, -1.2486323899130163 
4.6500000000025015, -1.2408058135823534 
4.660000000002478, -1.2322275230848905 
4.670000000002455, -1.2236272024336106 
4.6800000000024315, -1.2163195547981602 
4.690000000002408, -1.2115701456732562 
4.700000000002385, -1.209538927180693 
4.710000000002362, -1.209227231624604 
4.720000000002338, -1.2094726768858137 
4.730000000002315, -1.2095604753631535 
4.740000000002292, -1.2091117520618422 
4.750000000002268, -1.2077524189496098 
4.760000000002245, -1.204766947248696 
4.770000000002222, -1.1986173462660341 
4.7800000000021985, -1.1861594229699892 
4.790000000002175, -1.1617408291555935 
4.800000000002152, -1.1176053845674443 
4.810000000002129, -1.0483331529551123 
4.820000000002105, -0.9584313791895896 
4.830000000002082, -0.863612998727187 
4.840000000002059, -0.7807811172309609 
4.850000000002035, -0.7183448573766571 
4.860000000002012, -0.6760076295239305 
4.870000000001989, -0.6494089592187628 
4.880000000001965, -0.633695225079163 
4.890000000001942, -0.6249445363571383 
4.900000000001919, -0.6203906341495714 
4.9100000000018955, -0.6182285765467063 
4.920000000001872, -0.6173448828221472 
4.930000000001849, -0.6170827769937123 
