t, s[1].omega / s[0].omega 
0, -0.38267582540831374 
0.009999999999999995, -0.7784792759731303 
0.019999999999999934, -1.2621743479176861 
0.029999999999999874, -1.5093203248573936 
0.04000000000000012, -1.589128752705267 
0.050000000000000405, -1.613646219221954 
0.06000000000000069, -1.6215635094192522 
0.07000000000000098, -1.6239758825903057 
0.08000000000000126, -1.6242593989005598 
0.09000000000000155, -1.6237924689599024 
0.10000000000000184, -1.623747906385446 
0.11000000000000212, -1.6249958700240206 
0.12000000000000241, -1.6271201928237715 
0.130000000000002, -1.6291032894253281 
0.1400000000000009, -1.6305464541355081 
0.1499999999999998, -1.6315361225749059 
0.1599999999999987, -1.6320912560103698 
0.1699999999999976, -1.6320204645413336 
0.1799999999999965, -1.6310410142780942 
0.1899999999999954, -1.6288409836375966 
0.1999999999999943, -1.62507641364897 
0.2099999999999932, -1.6193291111743247 
0.2199999999999921, -1.610951348471167 
0.229999999999991, -1.5987035456572911 
0.2399999999999899, -1.5800788891748214 
0.2499999999999888, -1.5504898010894865 
0.2599999999999877, -1.5050532688499085 
0.2699999999999866, -1.4516558184043338 
0.2799999999999855, -1.4190352049433324 
0.2899999999999844, -1.414001363237198 
0.2999999999999833, -1.4176224708707614 
0.3099999999999822, -1.420397308361201 
0.3199999999999811, -1.4211608524156865 
0.32999999999998, -1.419875961157323 
0.3399999999999789, -1.415218610266835 
0.3499999999999778, -1.4018768282531187 
0.35999999999997667, -1.3613759252253639 
0.36999999999997557, -1.2446684405058703 
0.37999999999997447, -1.177268751009407 
0.38999999999997337, -3.41708645213757 
0.39999999999997227, -3.7777348209071784 
0.40999999999997117, -3.7943372892029124 
0.41999999999997006, -3.796373662113767 
0.42999999999996896, -3.7946202293069873 
0.43999999999996786, -3.7853293530945415 
0.44999999999996676, -3.686221408290911 
0.45999999999996566, -2.8471849935349596 
0.46999999999996456, -3.1452036682902134 
0.47999999999996346, -3.1690980925586656 
0.48999999999996235, -3.1713037692149117 
0.49999999999996125, -3.1708386714746237 
0.5099999999999602, -3.170264066208046 
0.519999999999959, -3.1688097533645903 
0.529999999999958, -3.167174563518236 
0.5399999999999568, -3.167009863063685 
0.5499999999999557, -3.1649500823570884 
0.5599999999999546, -3.1519950511438988 
0.5699999999999535, -3.1470410532614506 
0.5799999999999524, -3.2158578166325653 
0.5899999999999513, -3.2332436727650147 
0.5999999999999502, -3.2368186403241723 
0.6099999999999491, -3.2369194765915394 
0.619999999999948, -3.2340276191557225 
0.6299999999999469, -3.222545343722806 
0.6399999999999458, -3.149915018080111 
0.6499999999999447, -1.5065530978432895 
0.6599999999999436, 0.9658598622943101 
0.6699999999999425, 1.1007388499377462 
0.6799999999999414, 1.1188601229100543 
0.6899999999999403, 1.1231939917265843 
0.6999999999999392, 1.1242848671913623 
0.7099999999999381, 1.1243565581365513 
0.719999999999937, 1.1242878836176131 
0.7299999999999359, 1.1247728033022832 
0.7399999999999348, 1.1263663180874284 
0.7499999999999337, 1.1290158707976379 
0.7599999999999326, 1.131914918853128 
0.7699999999999315, 1.1342020571266505 
0.7799999999999304, 1.1355289597415104 
0.7899999999999293, 1.1358827639500857 
0.7999999999999282, 1.1351154193737782 
0.8099999999999271, 1.1322006706032404 
0.819999999999926, 1.1220521524933174 
0.8299999999999249, 1.066242261947883 
0.8399999999999238, 0.11143101638510326 
0.8499999999999227, -2.86736612115048 
0.8599999999999216, -3.0449821548721068 
0.8699999999999205, -3.0623081980293403 
0.8799999999999194, -3.065021689840343 
0.8899999999999183, -3.064548189583151 
0.8999999999999172, -3.0623793394119967 
0.9099999999999161, -3.0565833597418988 
0.919999999999915, -3.046638342331682 
0.9299999999999139, -3.0465909112551555 
0.9399999999999128, -3.048450010273362 
0.9499999999999117, -3.046916850925844 
0.9599999999999106, -3.044189169276175 
0.9699999999999095, -3.050547120252285 
0.9799999999999084, -3.056506556251777 
0.9899999999999073, -3.0582747611071186 
0.9999999999999062, -3.058287298535094 
1.0099999999999052, -3.055988376911861 
1.019999999999904, -3.044761541000697 
1.029999999999903, -2.957398920388339 
1.039999999999902, -0.9872659347922236 
1.0499999999999008, 1.0426369857562239 
1.0599999999998997, 1.138617782432867 
1.0699999999998986, 1.152287714177977 
1.0799999999998975, 1.1555393867712858 
1.0899999999998964, 1.1560546744881917 
1.0999999999998953, 1.155235869849491 
1.1099999999998942, 1.1532267239223106 
1.119999999999893, 1.149898216298135 
1.129999999999892, 1.1455166161286716 
1.1399999999998909, 1.1412328434048509 
1.1499999999998898, 1.138373410564029 
1.1599999999998887, 1.1371364567489264 
1.1699999999998876, 1.136745518202944 
1.1799999999998865, 1.1363208747955817 
1.1899999999998854, 1.134981659143992 
1.1999999999998843, 1.1308239017381958 
1.2099999999998832, 1.115483411272738 
1.219999999999882, 1.0175077017537695 
1.229999999999881, -0.7351384465834759 
1.2399999999998799, -3.2384131622494414 
1.2499999999998788, -3.3367840011977057 
1.2599999999998777, -3.348554260789247 
1.2699999999998766, -3.3506006899630854 
1.2799999999998755, -3.349464665477823 
1.2899999999998744, -3.344355300463446 
1.2999999999998733, -3.3206302017870364 
1.3099999999998722, -3.2033457229424185 
1.319999999999871, -3.219170617328854 
1.32999999999987, -3.234803551683335 
1.3399999999998689, -3.2361890776569693 
1.3499999999998678, -3.235548951635848 
1.3599999999998666, -3.2357959015998974 
1.3699999999998655, -3.2355278084429977 
1.3799999999998644, -3.2347996463768687 
1.3899999999998633, -3.234272748267325 
1.3999999999998622, -3.230467526293146 
1.4099999999998611, -3.199564574632038 
1.41999999999986, -3.180099251513875 
1.429999999999859, -3.421064762930082 
1.4399999999998578, -3.4488351271867166 
1.4499999999998567, -3.4532568816470444 
1.4599999999998556, -3.4533001647520445 
1.4699999999998545, -3.449947966120805 
1.4799999999998534, -3.4352130477921854 
1.4899999999998523, -3.2875320177752663 
1.4999999999998512, -0.8093721024190051 
1.5099999999998501, 0.4132847291654745 
1.519999999999849, 0.5917102376343791 
1.529999999999848, 0.629107508002071 
1.5399999999998468, 0.6403991420866758 
1.5499999999998457, 0.6444434028887907 
1.5599999999998446, 0.6456741801885648 
1.5699999999998435, 0.6452947954074746 
1.5799999999998424, 0.6433528803752363 
1.5899999999998413, 0.638938801842874 
1.5999999999998402, 0.6294251888905809 
1.6099999999998391, 0.6097297761074507 
1.619999999999838, 0.596340074286858 
1.629999999999837, 0.7725949790223845 
1.6399999999998358, 1.0211221525293068 
1.6499999999998347, 1.0874290601569345 
1.6599999999998336, 1.1024087195970862 
1.6699999999998325, 1.1064126289316172 
1.6799999999998314, 1.1069045727366364 
1.6899999999998303, 1.1049260438556998 
1.6999999999998292, 1.0982272735107486 
1.709999999999828, 1.0758695227982051 
1.719999999999827, 0.9959284878895595 
1.729999999999826, 0.8488501583254058 
1.7399999999998248, 0.8109645519674951 
1.7499999999998237, 0.8247812164166797 
1.7599999999998226, 0.8342812472168039 
1.7699999999998215, 0.8385269133510876 
1.7799999999998204, 0.8400382821121845 
1.7899999999998193, 0.8398085524538905 
1.7999999999998182, 0.8376617516912207 
1.809999999999817, 0.831728727860478 
1.819999999999816, 0.8146969236898807 
1.8299999999998149, 0.7554816126870862 
1.8399999999998138, 0.6105086292867836 
1.8499999999998127, 1.3665130516051927 
1.8599999999998116, 1.6938551083723223 
1.8699999999998105, 1.7199657723471435 
1.8799999999998094, 1.724032948386143 
1.8899999999998083, 1.7237273234048422 
1.8999999999998072, 1.719024946100839 
1.909999999999806, 1.6920841871354668 
1.919999999999805, 1.3658327182868626 
1.9299999999998039, 0.6472442295720083 
1.9399999999998028, 0.7923480968165395 
1.9499999999998017, 0.8482901106136987 
1.9599999999998006, 0.8638339403936529 
1.9699999999997995, 0.868885478694529 
1.9799999999997984, 0.8703447684008836 
1.9899999999997973, 0.8699376404868522 
1.9999999999997962, 0.8677659317000705 
2.0099999999998173, 0.8628211334209921 
2.0199999999998384, 0.8531831508580607 
2.0299999999998595, 0.8452225694342429 
2.0399999999998806, 0.8995697661402048 
2.0499999999999017, 1.0152635059461437 
2.059999999999923, 1.0688798360279819 
2.069999999999944, 1.0846354565827412 
2.079999999999965, 1.089341355335909 
2.089999999999986, 1.0902701512931914 
2.100000000000007, 1.088799917899203 
2.1100000000000283, 1.0831949670224028 
2.1200000000000494, 1.0632578003927597 
2.1300000000000705, 0.9713124467330421 
2.1400000000000916, 0.6567335318257003 
2.1500000000001127, 0.4942555536051737 
2.160000000000134, 0.5104918313246791 
2.170000000000155, 0.5288038588797185 
2.180000000000176, 0.5376377436803482 
2.190000000000197, 0.5416662218504494 
2.2000000000002182, 0.5433211494970499 
2.2100000000002393, 0.5435124658885894 
2.2200000000002604, 0.5423369882257237 
2.2300000000002815, 0.539081792889349 
2.2400000000003026, 0.5311961258210276 
2.2500000000003237, 0.5093116078675584 
2.260000000000345, 0.42656060114862127 
2.270000000000366, -0.08542909132194891 
2.280000000000387, -2.129232397573683 
2.290000000000408, -2.6873546863924362 
2.3000000000004293, -2.7496849324980692 
2.3100000000004504, -2.763544326092658 
2.3200000000004715, -2.767472945687807 
2.3300000000004926, -2.767970099829518 
2.3400000000005137, -2.76643186695983 
2.3500000000005348, -2.7621719435967065 
2.360000000000556, -2.750212875974418 
2.370000000000577, -2.7212282295783625 
2.380000000000598, -2.711419963693836 
2.390000000000619, -2.7190638978969 
2.4000000000006403, -2.7209063045604838 
2.4100000000006614, -2.7195966160914926 
2.4200000000006825, -2.718664418469013 
2.4300000000007036, -2.7228903583070077 
2.4400000000007247, -2.7267457873014007 
2.450000000000746, -2.728147443938445 
2.460000000000767, -2.7283378386490593 
2.470000000000788, -2.727019392272651 
2.480000000000809, -2.721282923088511 
2.49000000000083, -2.695077947658341 
2.5000000000008513, -2.4901420585594147 
2.5100000000008724, -0.413140407400006 
2.5200000000008935, 0.6822803099394008 
2.5300000000009146, 0.7799900753091936 
2.5400000000009357, 0.7984659685259934 
2.550000000000957, 0.8038133278502174 
2.560000000000978, 0.8055359779811571 
2.570000000000999, 0.8058875959134996 
2.58000000000102, 0.8056118178654262 
2.5900000000010412, 0.8050604754990367 
2.6000000000010624, 0.8044883144625032 
2.6100000000010835, 0.8041198172821782 
2.6200000000011046, 0.8041160338901367 
2.6300000000011257, 0.8045086306356684 
2.6400000000011468, 0.8051741827908339 
2.650000000001168, 0.8058860616522855 
2.660000000001189, 0.8064006802391006 
2.67000000000121, 0.8064924357166067 
2.680000000001231, 0.8058745311315739 
2.6900000000012523, 0.8039105068033872 
2.7000000000012734, 0.798613480073564 
2.7100000000012945, 0.781739275364792 
2.7200000000013156, 0.6990466525592948 
2.7300000000013367, -0.1693973543119819 
2.740000000001358, -2.342766313416416 
2.750000000001379, -2.59558985587656 
2.7600000000014, -2.624885802468425 
2.770000000001421, -2.630399851911433 
2.780000000001442, -2.631095796289698 
2.7900000000014633, -2.6303362071657785 
2.8000000000014844, -2.628811643273221 
2.8100000000015055, -2.6257808880913407 
2.8200000000015266, -2.622002369838073 
2.8300000000015477, -2.621285351368107 
2.840000000001569, -2.621564344585315 
2.85000000000159, -2.619274719883399 
2.860000000001611, -2.6086775413934924 
2.870000000001632, -2.5964828384410574 
2.8800000000016532, -2.6622928849632688 
2.8900000000016743, -2.700653094573183 
2.9000000000016954, -2.711319336280352 
2.9100000000017165, -2.714644686095883 
2.9200000000017377, -2.715235788187562 
2.9300000000017588, -2.713789722485834 
2.94000000000178, -2.7092779771337705 
2.950000000001801, -2.6966902544316937 
2.960000000001822, -2.648144997747532 
2.970000000001843, -2.3524434518658848 
2.9800000000018643, -1.8741909714410656 
2.9900000000018854, -1.9497126554703326 
3.0000000000019065, -1.989855053478833 
3.0100000000019276, -1.9993202037613351 
3.0200000000019487, -2.0012441215284773 
3.03000000000197, -2.0006674138409006 
3.040000000001991, -1.9995445511631658 
3.050000000002012, -2.0010287643179088 
3.060000000002033, -2.0058079734370127 
3.070000000002054, -2.010226336051452 
3.0800000000020753, -2.012850365286215 
3.0900000000020964, -2.014211791659735 
3.1000000000021175, -2.014660790671351 
3.1100000000021386, -2.0140282709157686 
3.1200000000021597, -2.0117908465341783 
3.130000000002181, -2.006931667540876 
3.140000000002202, -1.997392208504542 
3.150000000002223, -1.978419982050735 
3.160000000002244, -1.936699685285377 
3.1700000000022652, -1.8290605081799949 
3.1800000000022863, -1.553720805809076 
3.1900000000023074, -1.211708836446182 
3.2000000000023285, -1.0874754310473547 
3.2100000000023496, -1.0785186740291 
3.2200000000023707, -1.0875731961483608 
3.230000000002392, -1.09424207576862 
3.240000000002413, -1.0975597302849112 
3.250000000002434, -1.0986223139047993 
3.260000000002455, -1.0978901158886056 
3.2700000000024763, -1.0948046365855977 
3.2800000000024974, -1.0868398522196336 
3.2900000000025185, -1.065660455869446 
3.3000000000025396, -1.0016002943619307 
3.3100000000025607, -0.7841186274656613 
3.3200000000025818, -0.21959963599143134 
3.330000000002603, 0.23970196956692794 
3.340000000002624, 0.37185835736289036 
3.350000000002645, 0.4077141344044787 
3.360000000002666, 0.4198128018448132 
3.3700000000026873, 0.42452724335002456 
3.3800000000027084, 0.42633477715683393 
3.3900000000027295, 0.4267189063352942 
3.4000000000027506, 0.426264292701648 
3.4100000000027717, 0.42527898098398564 
3.420000000002793, 0.42401769186118027 
3.430000000002814, 0.4227498605151199 
3.440000000002835, 0.42174546938754254 
3.450000000002856, 0.42123375301683075 
3.460000000002877, 0.4213734517429482 
3.4700000000028983, 0.42223084018399326 
3.4800000000029194, 0.42374302238375466 
3.4900000000029405, 0.42568145676906577 
3.5000000000029616, 0.42767921600904557 
3.5100000000029827, 0.42934787148676323 
3.520000000003004, 0.43039424800412157 
3.530000000003025, 0.4306208121659716 
3.540000000003046, 0.429783545966551 
3.550000000003067, 0.42728986087844467 
3.5600000000030882, 0.42147253045770106 
3.5700000000031094, 0.4072481666282302 
3.5800000000031305, 0.36714291952843114 
3.5900000000031516, 0.240615193484206 
3.6000000000031727, -0.05696764031323933 
3.6100000000031938, -0.32708497657163094 
3.620000000003215, -0.43630672634609047 
3.630000000003236, -0.47422547084233174 
3.640000000003257, -0.489114927057473 
3.650000000003278, -0.49575589669155695 
3.6600000000032993, -0.4988776250116044 
3.6700000000033204, -0.5001746667610056 
3.6800000000033415, -0.5002606135636112 
3.6900000000033626, -0.49926021574173063 
3.7000000000033837, -0.49700799459598494 
3.710000000003405, -0.49317227146089426 
3.720000000003426, -0.48748903454693826 
3.730000000003447, -0.48015300484421697 
3.740000000003468, -0.4720442573250458 
3.750000000003489, -0.4643540424255783 
3.7600000000035103, -0.4579134113723885 
3.7700000000035314, -0.45294731402372534 
3.7800000000035525, -0.449288301053748 
3.7900000000035736, -0.4466430432885516 
3.8000000000035947, -0.44472704680178793 
3.810000000003616, -0.4433040544299301 
3.820000000003637, -0.4421956647397269 
3.830000000003658, -0.4412891986787222 
3.840000000003679, -0.4405450415621184 
3.8500000000037002, -0.4400022210144542 
3.8600000000037213, -0.439789447055141 
3.8700000000037424, -0.44015411986856634 
3.8800000000037635, -0.4415234515355375 
3.8900000000037847, -0.4446164399615503 
3.9000000000038058, -0.45063753740303153 
3.910000000003827, -0.46160337789913974 
3.920000000003848, -0.4808743776083276 
3.930000000003869, -0.5139324152619454 
3.94000000000389, -0.5691681763202857 
3.9500000000039113, -0.6574388168553335 
3.9600000000039324, -0.787305473381132 
3.9700000000039535, -0.9538605001479545 
3.9800000000039746, -1.1301188858029052 
3.9900000000039957, -1.2783422119017134 
4.000000000004016, -1.3764143377921125 
4.010000000003993, -1.4289394415861278 
4.02000000000397, -1.453185919290318 
4.030000000003946, -1.4634558259126487 
4.040000000003923, -1.4674777043947271 
4.0500000000039, -1.46869953974586 
4.0600000000038765, -1.4686303027157444 
4.070000000003853, -1.4682003192402473 
4.08000000000383, -1.468356372107476 
4.090000000003807, -1.4697077490144994 
4.100000000003783, -1.4718841529682154 
4.11000000000376, -1.474066807590746 
4.120000000003737, -1.4758437344392712 
4.130000000003713, -1.4772036841209009 
4.14000000000369, -1.4781667260040936 
4.150000000003667, -1.478636819340877 
4.1600000000036434, -1.47847226559575 
4.17000000000362, -1.4775621993735992 
4.180000000003597, -1.4758434420333062 
4.1900000000035735, -1.4732773091711693 
4.20000000000355, -1.469799430816559 
4.210000000003527, -1.465259404608259 
4.220000000003504, -1.4593547226934382 
4.23000000000348, -1.4515466887793909 
4.240000000003457, -1.4410466789339271 
4.250000000003434, -1.4273254548171024 
4.26000000000341, -1.411904064190042 
4.270000000003387, -1.3998231345359842 
4.280000000003364, -1.394975162053372 
4.2900000000033405, -1.3949833780840568 
4.300000000003317, -1.3959121916476287 
4.310000000003294, -1.3959743853739008 
4.320000000003271, -1.3943308937888692 
4.330000000003247, -1.3891572894660649 
4.340000000003224, -1.374120220274983 
4.350000000003201, -1.3243134950581834 
4.360000000003177, -1.1303138482826702 
4.370000000003154, -0.4932544164825309 
4.380000000003131, 0.1401056523477283 
4.390000000003107, 0.3204868893458487 
4.400000000003084, 0.36636367408968684 
4.410000000003061, 0.38135038684632 
4.4200000000030375, 0.38719528192590624 
4.430000000003014, 0.38959427445404055 
4.440000000002991, 0.3904116704685916 
4.450000000002968, 0.390391278402282 
4.460000000002944, 0.3899151861482835 
4.470000000002921, 0.3892558304282147 
4.480000000002898, 0.3886611192374393 
4.490000000002874, 0.38837818330242957 
4.500000000002851, 0.3886619090155085 
4.510000000002828, 0.38977581123655525 
4.520000000002804, 0.39194877427894154 
4.530000000002781, 0.3952359357656118 
4.540000000002758, 0.39932656772338354 
4.5500000000027345, 0.40352854016527867 
4.560000000002711, 0.40708811644984105 
4.570000000002688, 0.409557165391496 
4.580000000002665, 0.4108319260206998 
4.590000000002641, 0.4109175826986145 
4.600000000002618, 0.40963258055122787 
4.610000000002595, 0.406225322621096 
4.620000000002571, 0.39850734275398414 
4.630000000002548, 0.38040817076391253 
4.640000000002525, 0.3362740718868573 
4.6500000000025015, 0.24260713965475186 
4.660000000002478, 0.12380078013211637 
4.670000000002455, 0.0504104454789701 
4.6800000000024315, 0.022081811176084362 
4.690000000002408, 0.012232812920248968 
4.700000000002385, 0.008463642291046545 
4.710000000002362, 0.00675936028940091 
4.720000000002338, 0.00584758992291 
4.730000000002315, 0.005286599637209442 
4.740000000002292, 0.004889798487391838 
4.750000000002268, 0.0045385317820704285 
4.760000000002245, 0.00410873999464194 
4.770000000002222, 0.003433229448449491 
4.7800000000021985, 0.0022697993873676352 
4.790000000002175, 0.00024421160252829124 
4.800000000002152, -0.00289335243799473 
4.810000000002129, -0.008758532410115885 
4.820000000002105, -0.020083341832361615 
4.830000000002082, -0.042845795077714924 
4.840000000002059, -0.08923101573042891 
4.850000000002035, -0.17403117570575416 
4.860000000002012, -0.28437832405714136 
4.870000000001989, -0.3715195392546712 
4.880000000001965, -0.4180822480846443 
4.890000000001942, -0.43943070412379565 
4.900000000001919, -0.44916418858615315 
4.9100000000018955, -0.45369073111306146 
4.920000000001872, -0.4556458247896858 
4.930000000001849, -0.45605869233198 
4.940000000001826, -0.4552226887890479 
4.950000000001802, -0.45299808185512436 
4.960000000001779, -0.4489233263921409 
4.970000000001756, -0.4423919900831317 
