t, s[1].omega / s[0].omega 
0, -0.6997819692011098 
0.009999999999999995, -0.6803519938514138 
0.019999999999999934, -0.6650424947308222 
0.029999999999999874, -0.6529013547223638 
0.04000000000000012, -0.6431402889792854 
0.050000000000000405, -0.6352116233611784 
0.06000000000000069, -0.6287656509901983 
0.07000000000000098, -0.6235886721492199 
0.08000000000000126, -0.6195472847517143 
0.09000000000000155, -0.6165434679102969 
0.10000000000000184, -0.6144816730690266 
0.11000000000000212, -0.6132496530727655 
0.12000000000000241, -0.6127142560370953 
0.130000000000002, -0.6127306274751412 
0.1400000000000009, -0.613159925144721 
0.1499999999999998, -0.6138895870865186 
0.1599999999999987, -0.6148518643233285 
0.1699999999999976, -0.616037913179111 
0.1799999999999965, -0.6175039893640026 
0.1899999999999954, -0.6193656004982394 
0.1999999999999943, -0.621777611303181 
0.2099999999999932, -0.624897103253121 
0.2199999999999921, -0.6288144931498441 
0.229999999999991, -0.6334383661589091 
0.2399999999999899, -0.63838290833302 
0.2499999999999888, -0.6430126920812764 
0.2599999999999877, -0.6467253093352706 
0.2699999999999866, -0.6492384214312102 
0.2799999999999855, -0.6506041812111538 
0.2899999999999844, -0.6510247985134179 
0.2999999999999833, -0.6506952296583075 
0.3099999999999822, -0.6497638875166243 
0.3199999999999811, -0.6484206212119255 
0.32999999999998, -0.6472114771177504 
0.3399999999999789, -0.64800457432919 
0.3499999999999778, -0.6570127216492504 
0.35999999999997667, -0.6943109882129024 
0.36999999999997557, -0.8199379740620906 
0.37999999999997447, -1.1403245612631778 
0.38999999999997337, -1.5411722867460251 
0.39999999999997227, -1.758660627865201 
0.40999999999997117, -1.846786730339692 
0.41999999999997006, -1.8852189446201275 
0.42999999999996896, -1.9035833583883839 
0.43999999999996786, -1.9125372955694229 
0.44999999999996676, -1.9166127727177098 
0.45999999999996566, -1.918031370575627 
0.46999999999996456, -1.9179503246893113 
0.47999999999996346, -1.9170133428898701 
0.48999999999996235, -1.915523265587891 
0.49999999999996125, -1.9133345095677936 
0.5099999999999602, -1.910266813426088 
0.519999999999959, -1.9073076578835955 
0.529999999999958, -1.9061206165879507 
0.5399999999999568, -1.906153929175027 
0.5499999999999557, -1.9055566655883638 
0.5599999999999546, -1.9023983954592727 
0.5699999999999535, -1.8907176923843039 
0.5799999999999524, -1.8371115584289892 
0.5899999999999513, -1.46822732902271 
0.5999999999999502, 0.5898691429747285 
0.6099999999999491, 1.3301056891164353 
0.619999999999948, 1.3795635202017307 
0.6299999999999469, 1.3874621244809193 
0.6399999999999458, 1.3888421186115552 
0.6499999999999447, 1.3874774168333444 
0.6599999999999436, 1.3818566011024678 
0.6699999999999425, 1.3622333792940846 
0.6799999999999414, 1.2966097490816866 
0.6899999999999403, 1.2198640510702714 
0.6999999999999392, 1.2237315983813974 
0.7099999999999381, 1.2354788399062797 
0.719999999999937, 1.2402278316950275 
0.7299999999999359, 1.2414600801621813 
0.7399999999999348, 1.240570013336964 
0.7499999999999337, 1.2371298713372907 
0.7599999999999326, 1.2292148692509133 
0.7699999999999315, 1.2214337916512317 
0.7799999999999304, 1.2595318555384707 
0.7899999999999293, 1.3227020907655493 
0.7999999999999282, 1.3483641860855875 
0.8099999999999271, 1.3559023618853703 
0.819999999999926, 1.3577882986387129 
0.8299999999999249, 1.3569938434111095 
0.8399999999999238, 1.3522419307197826 
0.8499999999999227, 1.330037678727747 
0.8599999999999216, 1.1067922846840357 
0.8699999999999205, -1.1201495626342484 
0.8799999999999194, -1.990927399655824 
0.8899999999999183, -2.0808744418405594 
0.8999999999999172, -2.09594321983302 
0.9099999999999161, -2.0991323769767902 
0.919999999999915, -2.099308373560464 
0.9299999999999139, -2.0988223921348217 
0.9399999999999128, -2.099163287431749 
0.9499999999999117, -2.100207199768528 
0.9599999999999106, -2.1008445536815876 
0.9699999999999095, -2.101006593463665 
0.9799999999999084, -2.1010265060669195 
0.9899999999999073, -2.1004943859108574 
0.9999999999999062, -2.098208819189397 
1.0099999999999052, -2.0911276707042226 
1.019999999999904, -2.068611343137394 
1.029999999999903, -1.9862968831475427 
1.039999999999902, -1.6463636638359624 
1.0499999999999008, -0.7330167013014193 
1.0599999999998997, -0.10260198203546127 
1.0699999999998986, 0.07736306681242452 
1.0799999999998975, 0.13182687447281813 
1.0899999999998964, 0.1523835548970866 
1.0999999999998953, 0.16146996408832318 
1.1099999999998942, 0.1658477126907927 
1.119999999999893, 0.1679560143724365 
1.129999999999892, 0.16877491517957485 
1.1399999999998909, 0.1686785267812581 
1.1499999999998898, 0.16769461048178208 
1.1599999999998887, 0.16550838693481507 
1.1699999999998876, 0.1612093469175539 
1.1799999999998865, 0.1524432919069222 
1.1899999999998854, 0.1326236828974753 
1.1999999999998843, 0.08095830304218321 
1.2099999999998832, -0.06947904692466089 
1.219999999999882, -0.4004794954045253 
1.229999999999881, 3.0544009759639814 
1.2399999999998799, 3.659021282003363 
1.2499999999998788, 3.6637393325206205 
1.2599999999998777, 3.659821831008711 
1.2699999999998766, 3.380056838093475 
1.2799999999998755, -5.229474796732276 
1.2899999999998744, -5.25239779680057 
1.2999999999998733, -5.2516791589931024 
1.3099999999998722, -5.24183715788223 
1.319999999999871, -5.208846607224353 
1.32999999999987, -5.225029660091016 
1.3399999999998689, -5.224654277020422 
1.3499999999998678, -5.2233331934088785 
1.3599999999998666, -5.220717948068057 
1.3699999999998655, -5.220382713333863 
1.3799999999998644, -5.216572158232395 
1.3899999999998633, -5.221523141337418 
1.3999999999998622, -5.222001842849 
1.4099999999998611, -5.219477681045849 
1.41999999999986, -5.142247909190697 
1.429999999999859, -5.331851544667428 
1.4399999999998578, -5.350996560674892 
1.4499999999998567, -5.350402628643899 
1.4599999999998556, -5.3338248293924275 
1.4699999999998545, 2.3481243435466057 
1.4799999999998534, 3.346713826674024 
1.4899999999998523, 3.352580341342423 
1.4999999999998512, 3.3508653471703553 
1.5099999999998501, 3.329787597929397 
1.519999999999849, 3.218962047152105 
1.529999999999848, 3.270926072565979 
1.5399999999998468, 3.2748093758504844 
1.5499999999998457, 3.2746384909918147 
1.5599999999998446, 3.2742850424255288 
1.5699999999998435, 3.272813102124205 
1.5799999999998424, 3.2714283968082283 
1.5899999999998413, 3.271010126070909 
1.5999999999998402, 3.266809344284584 
1.6099999999998391, 3.2513026861654017 
1.619999999999838, 3.28755322839674 
1.629999999999837, 3.2969354221652005 
1.6399999999998358, 3.2971185557929643 
1.6499999999998347, 3.2909431737402657 
1.6599999999998336, 2.7301665199255187 
1.6699999999998325, -5.312271907265986 
1.6799999999998314, -5.332053098387792 
1.6899999999998303, -5.33130728123085 
1.6999999999998292, -5.315525279138262 
1.709999999999828, -4.12140448780346 
1.719999999999827, -4.770326992498308 
1.729999999999826, -4.778064089227699 
1.7399999999998248, -4.7770904457567145 
1.7499999999998237, -4.772306064469655 
1.7599999999998226, -4.76553146284139 
1.7699999999998215, -4.768457753940493 
1.7799999999998204, -4.767065948514672 
1.7899999999998193, -4.7678822136253665 
1.7999999999998182, -4.767535736707618 
1.809999999999817, -4.766587680537396 
1.819999999999816, -4.757218536564187 
1.8299999999998149, -4.760405304578733 
1.8399999999998138, -4.7970722951447815 
1.8499999999998127, -4.799241274264568 
1.8599999999998116, -4.796314974927386 
1.8699999999998105, -4.743660091164344 
1.8799999999998094, 2.6831038596525127 
1.8899999999998083, 2.9064130496673783 
1.8999999999998072, 2.9115198519380097 
1.909999999999806, 2.909975304881542 
1.919999999999805, 2.8931480728906176 
1.9299999999998039, 2.62862619289126 
1.9399999999998028, 2.718477540210159 
1.9499999999998017, 2.73616598786438 
1.9599999999998006, 2.7375523657738268 
1.9699999999997995, 2.737361422966104 
1.9799999999997984, 2.737109207360814 
1.9899999999997973, 2.7360447255690263 
1.9999999999997962, 2.7346988833714363 
2.0099999999998173, 2.734217486942664 
2.0199999999998384, 2.7325356166785126 
2.0299999999998595, 2.7203599457646126 
2.0399999999998806, 2.6914126517679398 
2.0499999999999017, 2.7934493713431356 
2.059999999999923, 2.8078305662902814 
2.069999999999944, 2.8088792757798733 
2.079999999999965, 2.804924434223264 
2.089999999999986, 2.7306300529953025 
2.100000000000007, -4.617444919133678 
2.1100000000000283, -4.780189203747861 
2.1200000000000494, -4.784096112137201 
2.1300000000000705, -4.781749023998627 
2.1400000000000916, -4.758999177364159 
2.1500000000001127, -4.683902223574486 
2.160000000000134, -4.7175393898400255 
2.170000000000155, -4.718253550319483 
2.180000000000176, -4.717135160538186 
2.190000000000197, -4.713911808315851 
2.2000000000002182, -4.713296536807937 
2.2100000000002393, -4.71180259656146 
2.2200000000002604, -4.710262156637699 
2.2300000000002815, -4.715203725955869 
2.2400000000003026, -4.715432876594145 
2.2500000000003237, -4.712911659440111 
2.260000000000345, -4.656626005762172 
2.270000000000366, -4.912202215158987 
2.280000000000387, -4.999120819124799 
2.290000000000408, -5.001612766427334 
2.3000000000004293, -4.997789370186958 
2.3100000000004504, -4.920033802019729 
2.3200000000004715, 2.857302197531177 
2.3300000000004926, 2.9751847649885805 
2.3400000000005137, 2.978745424453968 
2.3500000000005348, 2.9775180661291096 
2.360000000000556, 2.968942109942569 
2.370000000000577, 2.9366392783520174 
2.380000000000598, 2.9423799391022376 
2.390000000000619, 2.9477260645091623 
2.4000000000006403, 2.947513841151539 
2.4100000000006614, 2.9469710422408113 
2.4200000000006825, 2.948822194286079 
2.4300000000007036, 2.9499009327416936 
2.4400000000007247, 2.949622787121334 
2.450000000000746, 2.948447371504713 
2.460000000000767, 2.9404499857714343 
2.470000000000788, 2.7653089979153043 
2.480000000000809, 3.174626598823214 
2.49000000000083, 3.212604251395186 
2.5000000000008513, 3.214112940860513 
2.5100000000008724, 3.208590233332079 
2.5200000000008935, 2.887352971680646 
2.5300000000009146, -5.037712117202554 
2.5400000000009357, -5.0664399652877545 
2.550000000000957, -5.066369432851755 
2.560000000000978, -5.05915450397424 
2.570000000000999, -4.9926643209035895 
2.58000000000102, -5.024560981822537 
2.5900000000010412, -5.026163488378035 
2.6000000000010624, -5.02509701996485 
2.6100000000010835, -5.022112831049583 
2.6200000000011046, -5.02150712205672 
2.6300000000011257, -5.019434442176627 
2.6400000000011468, -5.019629149988387 
2.650000000001168, -5.022885131864877 
2.660000000001189, -5.022392654329852 
2.67000000000121, -5.015818805410032 
2.680000000001231, -4.854890643998563 
2.6900000000012523, -5.162336241421857 
2.7000000000012734, -5.170334471289675 
2.7100000000012945, -5.168679534755673 
2.7200000000013156, -5.141405757695148 
2.7300000000013367, 2.7312326720266644 
2.740000000001358, 3.1623892018692796 
2.750000000001379, 3.16764220524688 
2.7600000000014, 3.1662381036541807 
2.770000000001421, 3.1523616184438277 
2.780000000001442, 3.073244235263232 
2.7900000000014633, 3.1049413612000594 
2.8000000000014844, 3.1107206074894513 
2.8100000000015055, 3.1106519763663742 
2.8200000000015266, 3.1106168716615814 
2.8300000000015477, 3.110593676808338 
2.840000000001569, 3.1096198164365765 
2.85000000000159, 3.1089603858800574 
2.860000000001611, 3.1070542430936414 
2.870000000001632, 3.0904250775545066 
2.8800000000016532, 3.098845535338235 
2.8900000000016743, 3.162908175051712 
2.9000000000016954, 3.168166506193558 
2.9100000000017165, 3.1669625198089992 
2.9200000000017377, 3.1478428916658565 
2.9300000000017588, -4.116486382504284 
2.94000000000178, -5.156103304667772 
2.950000000001801, -5.1624885360953305 
2.960000000001822, -5.160182951804167 
2.970000000001843, -5.127029100933659 
2.9800000000018643, -4.978987044268669 
2.9900000000018854, -5.028432036683303 
3.0000000000019065, -5.028868851238874 
3.0100000000019276, -5.026784883345577 
3.0200000000019487, -5.020756798347614 
3.03000000000197, -5.022126871053212 
3.040000000001991, -5.020568575345108 
3.050000000002012, -5.021393040847557 
3.060000000002033, -5.021654226032812 
3.070000000002054, -5.020651372901965 
3.0800000000020753, -5.00968942032038 
3.0900000000020964, -5.0206709666800196 
3.1000000000021175, -5.057549595638959 
3.1100000000021386, -5.0589370335712225 
3.1200000000021597, -5.054096886358647 
3.130000000002181, -4.835587526773994 
3.140000000002202, 3.124166673344874 
3.150000000002223, 3.162983945774294 
3.160000000002244, 3.1641451675674377 
3.1700000000022652, 3.158493721060583 
3.1800000000022863, 3.0375466997600737 
3.1900000000023074, 2.8983974769610614 
3.2000000000023285, 2.9488357681420854 
3.2100000000023496, 2.9517159471615058 
3.2200000000023707, 2.9515924085838643 
3.230000000002392, 2.9508629853752355 
3.240000000002413, 2.9487564762537986 
3.250000000002434, 2.9468269316489715 
3.260000000002455, 2.946709913778335 
3.2700000000024763, 2.944880069146576 
3.2800000000024974, 2.9335033118212044 
3.2900000000025185, 2.943633499868368 
3.3000000000025396, 2.9729602210970962 
3.3100000000025607, 2.9773008029089363 
3.3200000000025818, 2.9765661385606417 
3.330000000002603, 2.966471130872327 
3.340000000002624, 1.5824392570031462 
3.350000000002645, -4.964155569315033 
3.360000000002666, -4.983584554847678 
3.3700000000026873, -4.983412977735525 
3.3800000000027084, -4.974569935692085 
3.3900000000027295, -4.633173744201526 
3.4000000000027506, -4.745148626677276 
3.4100000000027717, -4.756833357948316 
3.420000000002793, -4.756235230888523 
3.430000000002814, -4.753244727302051 
3.440000000002835, -4.747511615551493 
3.450000000002856, -4.749320288470669 
3.460000000002877, -4.747560750648525 
3.4700000000028983, -4.748739280207838 
3.4800000000029194, -4.749300291106841 
3.4900000000029405, -4.74849498979817 
3.5000000000029616, -4.741022992511036 
3.5100000000029827, -4.703606095200001 
3.520000000003004, -4.8054956007392375 
3.530000000003025, -4.8110270062419955 
3.540000000003046, -4.809585774153707 
3.550000000003067, -4.790523088609966 
3.5600000000030882, 0.34606880583827393 
3.5700000000031094, 2.8131426875770638 
3.5800000000031305, 2.8260319726604033 
3.5900000000031516, 2.8262606857274943 
3.6000000000031727, 2.820956108473906 
3.6100000000031938, 2.774557961377343 
3.620000000003215, 2.7160130028949108 
3.630000000003236, 2.746207640844659 
3.640000000003257, 2.7497241481144723 
3.650000000003278, 2.7495113752351363 
3.6600000000032993, 2.7495862401736035 
3.6700000000033204, 2.75018847571274 
3.6800000000033415, 2.7499084848654127 
3.6900000000033626, 2.7492830681143663 
3.7000000000033837, 2.7482529256995862 
3.710000000003405, 2.7418887565002836 
3.720000000003426, 2.6640137536018154 
3.730000000003447, 2.849845524041606 
3.740000000003468, 2.9114726893957656 
3.750000000003489, 2.915289891699651 
3.7600000000035103, 2.913314363486261 
3.7700000000035314, 2.8852300487979257 
3.7800000000035525, -4.024357417724577 
3.7900000000035736, -4.7937949099518535 
3.8000000000035947, -4.8008752882928665 
3.810000000003616, -4.799414824204818 
3.820000000003637, -4.786896157636724 
3.830000000003658, -4.734769013630444 
3.840000000003679, -4.760053717331615 
3.8500000000037002, -4.76077966930339 
3.8600000000037213, -4.759884189166884 
3.8700000000037424, -4.757473955492086 
3.8800000000037635, -4.756707265474413 
3.8900000000037847, -4.754687187197478 
3.9000000000038058, -4.752648166078176 
3.910000000003827, -4.759664020911961 
3.920000000003848, -4.76017716653625 
3.930000000003869, -4.7575033000525 
3.94000000000389, -4.691017960659242 
3.9500000000039113, -5.195920816580217 
3.9600000000039324, -5.326777823508026 
3.9700000000039535, -5.328964032789769 
3.9800000000039746, -5.323653045274068 
3.9900000000039957, -5.0280671554035 
4.000000000004016, 3.2557796214567567 
4.010000000003993, 3.2839979249831663 
4.02000000000397, 3.2848113580612077 
4.030000000003946, 3.2810740889208105 
4.040000000003923, 3.2555284798608235 
4.0500000000039, 3.2441272036969613 
4.0600000000038765, 3.253954895664106 
4.070000000003853, 3.2544023441207015 
4.08000000000383, 3.2539551521502488 
4.090000000003807, 3.254877659573176 
4.100000000003783, 3.25480592039823 
4.11000000000376, 3.2541232391740764 
4.120000000003737, 3.2525221847188077 
4.130000000003713, 3.237493460475874 
4.14000000000369, 3.2236124050300416 
4.150000000003667, 3.327884330563898 
4.1600000000036434, 3.3339128931607833 
4.17000000000362, 3.3324764615657485 
4.180000000003597, 3.305010272230541 
4.1900000000035735, -5.034783813437278 
4.20000000000355, -5.32059883827046 
4.210000000003527, -5.323681559331819 
4.220000000003504, -5.3195295507433675 
4.23000000000348, -5.212424376127382 
4.240000000003457, -5.190908801862403 
4.250000000003434, -5.202628916885794 
4.26000000000341, -5.201711097324556 
4.270000000003387, -5.197582417070715 
4.280000000003364, -5.194363430897566 
4.2900000000033405, -5.195109466540136 
4.300000000003317, -5.1938233986441755 
4.310000000003294, -5.194837866443828 
4.320000000003271, -5.194058079667723 
4.330000000003247, -5.190272972601876 
4.340000000003224, -5.169121887505236 
4.350000000003201, -5.215326652854336 
4.360000000003177, -5.218047728584848 
4.370000000003154, -5.2148006079327285 
4.380000000003131, -5.093263693389299 
4.390000000003107, 3.4697373910707845 
4.400000000003084, 3.512028085666112 
4.410000000003061, 3.512591148119477 
4.4200000000030375, 3.501862956165147 
4.430000000003014, 2.2985411630326578 
4.440000000002991, 2.684568571850226 
4.450000000002968, 2.7237499431044947 
4.460000000002944, 2.7262654743444115 
4.470000000002921, 2.7260888695936965 
4.480000000002898, 2.724809696759409 
4.490000000002874, 2.721606790269006 
4.500000000002851, 2.7187379336021795 
4.510000000002828, 2.718871527085146 
4.520000000002804, 2.7182106021406205 
4.530000000002781, 2.712413267763687 
4.540000000002758, 2.7036563054348663 
4.5500000000027345, 2.7357837312264746 
4.560000000002711, 2.747171843302341 
4.570000000002688, 2.7485918419874906 
4.580000000002665, 2.746428486282528 
4.590000000002641, 2.722716631889378 
4.600000000002618, -3.005544216472654 
4.610000000002595, -4.738473799512587 
4.620000000002571, -4.750302937891089 
4.630000000002548, -4.749739781511076 
4.640000000002525, -4.74081532697317 
4.6500000000025015, -4.520534620496714 
4.660000000002478, -4.577968577752799 
4.670000000002455, -4.590097813363827 
4.6800000000024315, -4.5896917792772545 
4.690000000002408, -4.587632831261798 
4.700000000002385, -4.5828320597891725 
4.710000000002362, -4.583686861778635 
4.720000000002338, -4.58189855765079 
4.730000000002315, -4.582301793971531 
4.740000000002292, -4.584895983509666 
4.750000000002268, -4.5846153051682945 
4.760000000002245, -4.581344772667385 
4.770000000002222, -4.5088803706660805 
4.7800000000021985, -4.7092740750601445 
4.790000000002175, -4.752471609469889 
4.800000000002152, -4.754337020935707 
4.810000000002129, -4.75059251817573 
4.820000000002105, -4.69314430432039 
4.830000000002082, 2.4684838406638496 
4.840000000002059, 2.7370824754616927 
4.850000000002035, 2.743414819459921 
4.860000000002012, 2.743124745451847 
4.870000000001989, 2.738519061866876 
4.880000000001965, 2.716953697644634 
4.890000000001942, 2.700069944697609 
4.900000000001919, 2.7097339988502 
4.9100000000018955, 2.7116155255971757 
4.920000000001872, 2.7105597946822364 
4.930000000001849, 2.710569125695898 
4.940000000001826, 2.7137126193077927 
4.950000000001802, 2.715480634657072 
4.960000000001779, 2.715490582302704 
4.970000000001756, 2.714252678655802 
4.980000000001732, 2.706280630630766 
4.990000000001709, 2.4833444303426284 
5.000000000001686, 3.60592577234341 
5.0100000000016625, 3.7347899110337215 
5.020000000001639, 3.7367013487776553 
5.030000000001616, 3.7287522096875136 
5.0400000000015925, -0.6495450081082381 
