t, s[1].omega / s[0].omega 
0, -1.3999972873642754 
0.009999999999999995, -1.3994725353664534 
0.019999999999999934, -1.39843477032478 
0.029999999999999874, -1.3968597793780888 
0.04000000000000012, -1.3947262470924662 
0.050000000000000405, -1.3920143566222336 
0.06000000000000069, -1.3886796668876653 
0.07000000000000098, -1.384677036125788 
0.08000000000000126, -1.3801806758668784 
0.09000000000000155, -1.375931663561858 
0.10000000000000184, -1.373054616997282 
0.11000000000000212, -1.371962367609366 
0.12000000000000241, -1.3718869703989331 
0.130000000000002, -1.371776822559128 
0.1400000000000009, -1.3708368050204733 
0.1499999999999998, -1.368138664396435 
0.1599999999999987, -1.3617188651139291 
0.1699999999999976, -1.3469617358477226 
0.1799999999999965, -1.314005499140919 
0.1899999999999954, -1.246720531504333 
0.1999999999999943, -1.1319714519581447 
0.2099999999999932, -0.9800090872652957 
0.2199999999999921, -0.8255909656055002 
0.229999999999991, -0.6990081455195908 
0.2399999999999899, -0.6089026662552243 
0.2499999999999888, -0.5496293461211282 
0.2599999999999877, -0.5121609535195077 
0.2699999999999866, -0.4889627534011015 
0.2799999999999855, -0.4748127580646851 
0.2899999999999844, -0.46633131620731094 
0.2999999999999833, -0.4613814994490104 
0.3099999999999822, -0.4586202038713809 
0.3199999999999811, -0.45720446028440725 
0.32999999999998, -0.4566070264600811 
0.3399999999999789, -0.45650217596661824 
0.3499999999999778, -0.4566966451315442 
0.35999999999997667, -0.4570909230492637 
0.36999999999997557, -0.4576611857476047 
0.37999999999997447, -0.45845308882794733 
0.38999999999997337, -0.45957847667008833 
0.39999999999997227, -0.46120927547956636 
0.40999999999997117, -0.46356774631948283 
0.41999999999997006, -0.46690679535106394 
0.42999999999996896, -0.4714498542938498 
0.43999999999996786, -0.47724032012496787 
0.44999999999996676, -0.48391663401493207 
0.45999999999996566, -0.49063465222907415 
0.46999999999996456, -0.4964079838841397 
0.47999999999996346, -0.500641933225734 
0.48999999999996235, -0.503297022986066 
0.49999999999996125, -0.5046349486575608 
0.5099999999999602, -0.5049214817108023 
0.519999999999959, -0.5042646123714786 
0.529999999999958, -0.5025190009202956 
0.5399999999999568, -0.4991103096653994 
0.5499999999999557, -0.49252020396457974 
0.5599999999999546, -0.4786511222377151 
0.5699999999999535, -0.4452626927389879 
0.5799999999999524, -0.3546329910563925 
0.5899999999999513, -0.13473153304542249 
0.5999999999999502, 0.13774029648867006 
0.6099999999999491, 0.27578859701292513 
0.619999999999948, 0.3234545408597905 
0.6299999999999469, 0.340625646562892 
0.6399999999999458, 0.3475554115278226 
0.6499999999999447, 0.3504819248814429 
0.6599999999999436, 0.3515453290856122 
0.6699999999999425, 0.3515823193630244 
0.6799999999999414, 0.35098753824066287 
0.6899999999999403, 0.35002203795256726 
0.6999999999999392, 0.34892600543523805 
0.7099999999999381, 0.34793862060657454 
0.719999999999937, 0.3472792513527263 
0.7299999999999359, 0.3471318022817541 
0.7399999999999348, 0.3476419351354923 
0.7499999999999337, 0.3489012652552516 
0.7599999999999326, 0.35088963228436265 
0.7699999999999315, 0.3533966638983903 
0.7799999999999304, 0.35601742138356274 
0.7899999999999293, 0.3582899366137395 
0.7999999999999282, 0.3598730195941157 
0.8099999999999271, 0.3605912371085989 
0.819999999999926, 0.36031627018758317 
0.8299999999999249, 0.35874892205275255 
0.8399999999999238, 0.35506106586912295 
0.8499999999999227, 0.3470985137931265 
0.8599999999999216, 0.32942318075352506 
0.8699999999999205, 0.2900391556112015 
0.8799999999999194, 0.21625991246046333 
0.8899999999999183, 0.13053921337052782 
0.8999999999999172, 0.07684937784572993 
0.9099999999999161, 0.054669357995968317 
0.919999999999915, 0.046532966893771344 
0.9299999999999139, 0.043345777821891036 
0.9399999999999128, 0.04189368886844119 
0.9499999999999117, 0.04110048616421822 
0.9599999999999106, 0.040578776313406416 
0.9699999999999095, 0.04015807369226002 
0.9799999999999084, 0.039723604993861836 
0.9899999999999073, 0.039149857405900115 
0.9999999999999062, 0.038260672331491816 
1.0099999999999052, 0.03678444513341671 
1.019999999999904, 0.034266020429163845 
1.029999999999903, 0.02985572720042944 
1.039999999999902, 0.021784526194367847 
1.0499999999999008, 0.006037717852029159 
1.0599999999998997, -0.02648388094126781 
1.0699999999998986, -0.09546151453127225 
1.0799999999998975, -0.21865971412150503 
1.0899999999998964, -0.3578368330380319 
1.0999999999998953, -0.4486022685562256 
1.1099999999998942, -0.4913023391838709 
1.119999999999893, -0.5099710322914232 
1.129999999999892, -0.5184261953026947 
1.1399999999998909, -0.5223781061525936 
1.1499999999998898, -0.5240857202797364 
1.1599999999998887, -0.5244208811625992 
1.1699999999998876, -0.5236155812592695 
1.1799999999998865, -0.5214979997848739 
1.1899999999998854, -0.5175424356427205 
1.1999999999998843, -0.5109494377705326 
1.2099999999998832, -0.5010505102231131 
1.219999999999882, -0.4881620422252528 
1.229999999999881, -0.47408007081855424 
1.2399999999998799, -0.4611179087123035 
1.2499999999998788, -0.45064002167484773 
1.2599999999998777, -0.4427837175110789 
1.2699999999998766, -0.43706838128945036 
1.2799999999998755, -0.4329178866630504 
1.2899999999998744, -0.4298602634243556 
1.2999999999998733, -0.427555623532969 
1.3099999999998722, -0.4257780452028338 
1.319999999999871, -0.42439624336172976 
1.32999999999987, -0.4233600919349014 
1.3399999999998689, -0.42269291010282994 
1.3499999999998678, -0.4224916257891504 
1.3599999999998666, -0.4229385644347087 
1.3699999999998655, -0.424329357412449 
1.3799999999998644, -0.42712384065945325 
1.3899999999998633, -0.43203271805714216 
1.3999999999998622, -0.4401639378235365 
1.4099999999998611, -0.4532715313500675 
1.41999999999986, -0.47417627884702973 
1.429999999999859, -0.5074423142308667 
1.4399999999998578, -0.560280209672666 
1.4499999999998567, -0.6429384188507282 
1.4599999999998556, -0.7654112227028271 
1.4699999999998545, -0.9242082964244164 
1.4799999999998534, -1.0856262150201867 
1.4899999999998523, -1.204830499337428 
1.4999999999998512, -1.270546477918592 
1.5099999999998501, -1.3006537453346907 
1.519999999999849, -1.3133539601375546 
1.529999999999848, -1.3184742362198127 
1.5399999999998468, -1.3202653406384797 
1.5499999999998457, -1.3204578894599397 
1.5599999999998446, -1.3198780231567149 
1.5699999999998435, -1.3193510193063005 
1.5799999999998424, -1.3201796401448238 
1.5899999999998413, -1.3235426151120255 
1.5999999999998402, -1.3291094998863624 
1.6099999999998391, -1.3353058527759596 
1.619999999999838, -1.3409004675086116 
1.629999999999837, -1.34551603794782 
1.6399999999998358, -1.3492163978342468 
1.6499999999998347, -1.3521443741776284 
1.6599999999998336, -1.3544109025068676 
1.6699999999998325, -1.356090407772562 
1.6799999999998314, -1.357222850716888 
1.6899999999998303, -1.357813853360828 
1.6999999999998292, -1.3578503694335795 
1.709999999999828, -1.3573320912523905 
1.719999999999827, -1.3563001671745958 
1.729999999999826, -1.3548438514576093 
1.7399999999998248, -1.3530698460120947 
1.7499999999998237, -1.3510465573605352 
1.7599999999998226, -1.3488162538387518 
1.7699999999998215, -1.3465507048521608 
1.7799999999998204, -1.344672187686501 
1.7899999999998193, -1.34359922935142 
1.7999999999998182, -1.3432752608221439 
1.809999999999817, -1.3431721769702538 
1.819999999999816, -1.3426737619322062 
1.8299999999998149, -1.34117575728061 
1.8399999999998138, -1.3378515663988302 
1.8499999999998127, -1.3313682729548901 
1.8599999999998116, -1.31983638271461 
1.8699999999998105, -1.301266741688798 
1.8799999999998094, -1.2743246482374442 
1.8899999999998083, -1.2385265644969672 
1.8999999999998072, -1.1936997257469928 
1.909999999999806, -1.1398664372698384 
1.919999999999805, -1.0787555619552736 
1.9299999999998039, -1.0165218327593168 
1.9399999999998028, -0.9637131154640957 
1.9499999999998017, -0.9286863752455391 
1.9599999999998006, -0.9112522744549327 
1.9699999999997995, -0.905145547625444 
1.9799999999997984, -0.9041545467632373 
1.9899999999997973, -0.9046961336563587 
1.9999999999997962, -0.9052584075335102 
2.0099999999998173, -0.9052860768168068 
2.0199999999998384, -0.9044756152592622 
2.0299999999998595, -0.9024189264002889 
2.0399999999998806, -0.8984115649880613 
2.0499999999999017, -0.8914288610136725 
2.059999999999923, -0.8805033498565003 
2.069999999999944, -0.8655960272903801 
2.079999999999965, -0.8481546691583632 
2.089999999999986, -0.8303596071790391 
2.100000000000007, -0.8138327686251502 
2.1100000000000283, -0.7992048609265074 
2.1200000000000494, -0.7864608883061488 
2.1300000000000705, -0.7753653402589007 
2.1400000000000916, -0.7656970729408372 
2.1500000000001127, -0.7573319978217915 
2.160000000000134, -0.7502467148317414 
2.170000000000155, -0.7444803609667534 
2.180000000000176, -0.7400713072158183 
2.190000000000197, -0.7369885963276686 
2.2000000000002182, -0.735089066998756 
2.2100000000002393, -0.7341250481547079 
2.2200000000002604, -0.7337970317634805 
2.2300000000002815, -0.7338174090452793 
2.2400000000003026, -0.7339537575211095 
2.2500000000003237, -0.7340457441168378 
2.260000000000345, -0.7340089243379377 
2.270000000000366, -0.7338359150022085 
2.280000000000387, -0.7335891773491748 
2.290000000000408, -0.7333730929432907 
2.3000000000004293, -0.7332885831842918 
2.3100000000004504, -0.7333902238616072 
2.3200000000004715, -0.7336614653017146 
2.3300000000004926, -0.7340135276827291 
2.3400000000005137, -0.7343130963292532 
2.3500000000005348, -0.7344350790423074 
2.360000000000556, -0.7343140993519355 
2.370000000000577, -0.7339679698146824 
2.380000000000598, -0.7334979412819151 
2.390000000000619, -0.7330904009313101 
2.4000000000006403, -0.7330304428987706 
2.4100000000006614, -0.7337104430652884 
2.4200000000006825, -0.7356016922508343 
2.4300000000007036, -0.7391716815292244 
2.4400000000007247, -0.7447749436656269 
2.450000000000746, -0.7525841970666137 
2.460000000000767, -0.7626118054879528 
2.470000000000788, -0.774808714225919 
2.480000000000809, -0.7891819500774522 
2.49000000000083, -0.8058712571450842 
2.5000000000008513, -0.8251340502696735 
2.5100000000008724, -0.847159602277119 
2.5200000000008935, -0.8715946730220798 
2.5300000000009146, -0.8968425223822132 
2.5400000000009357, -0.9199028150553257 
2.550000000000957, -0.9378005157964712 
2.560000000000978, -0.9495597017717582 
2.570000000000999, -0.9562721360926026 
2.58000000000102, -0.9596500089874415 
2.5900000000010412, -0.9610197637921036 
2.6000000000010624, -0.9611590481772871 
2.6100000000010835, -0.9604911376696222 
2.6200000000011046, -0.9593873513166666 
2.6300000000011257, -0.9586594793522026 
2.6400000000011468, -0.9604010190603214 
2.650000000001168, -0.9687670933812045 
2.660000000001189, -0.9888832500549235 
2.67000000000121, -1.0226377585725626 
2.680000000001231, -1.0656369360927753 
2.6900000000012523, -1.110474430811075 
2.7000000000012734, -1.1519259120714649 
2.7100000000012945, -1.1880838212513614 
2.7200000000013156, -1.2187127142468321 
2.7300000000013367, -1.2437738138155872 
2.740000000001358, -1.2630192344441544 
2.750000000001379, -1.2764313192584855 
2.7600000000014, -1.284735386781114 
2.770000000001421, -1.2892556757739784 
2.780000000001442, -1.2913299136443777 
2.7900000000014633, -1.291944416880986 
2.8000000000014844, -1.2917600405829288 
2.8100000000015055, -1.291330302540572 
2.8200000000015266, -1.2912587538253237 
2.8300000000015477, -1.292034582176778 
2.840000000001569, -1.2936640989593782 
2.85000000000159, -1.2957101322893987 
2.860000000001611, -1.2977401527843013 
2.870000000001632, -1.2995584641763958 
2.8800000000016532, -1.3011073837058174 
2.8900000000016743, -1.3023324498692896 
2.9000000000016954, -1.3031623548355897 
2.9100000000017165, -1.303547546441616 
2.9200000000017377, -1.3034799374668904 
2.9300000000017588, -1.3029793449213758 
2.94000000000178, -1.3020648690432632 
2.950000000001801, -1.3007346102152533 
2.960000000001822, -1.2989678224308747 
2.970000000001843, -1.2967433284318688 
2.9800000000018643, -1.2940518405253834 
2.9900000000018854, -1.290887201284749 
3.0000000000019065, -1.2872503114659026 
3.0100000000019276, -1.2832537649359927 
3.0200000000019487, -1.27933119732838 
3.03000000000197, -1.2762550485491269 
3.040000000001991, -1.2745965426766062 
3.050000000002012, -1.274130106444959 
3.060000000002033, -1.2740807530599543 
3.070000000002054, -1.2737116703573161 
3.0800000000020753, -1.272406478666685 
3.0900000000020964, -1.269347330702931 
3.1000000000021175, -1.263099883184483 
3.1100000000021386, -1.2513426091959459 
3.1200000000021597, -1.231240167584314 
3.130000000002181, -1.200816107044003 
3.140000000002202, -1.160232789444564 
3.150000000002223, -1.1113894695410254 
3.160000000002244, -1.0566796665110638 
3.1700000000022652, -0.9988403612390389 
3.1800000000022863, -0.9418968531618424 
3.1900000000023074, -0.8914612659841987 
3.2000000000023285, -0.8528179683156075 
3.2100000000023496, -0.8279527383450654 
3.2200000000023707, -0.8147810213290378 
3.230000000002392, -0.8092169405539502 
3.240000000002413, -0.8075587002735313 
3.250000000002434, -0.8074447926497881 
3.260000000002455, -0.807664563574613 
3.2700000000024763, -0.8076572173280653 
3.2800000000024974, -0.8071233446111611 
3.2900000000025185, -0.805811580195253 
3.3000000000025396, -0.8034476426822754 
3.3100000000025607, -0.7997998822927805 
3.3200000000025818, -0.7948615741599525 
3.330000000002603, -0.7889942908190256 
3.340000000002624, -0.7828162732698399 
3.350000000002645, -0.7768939351069316 
3.360000000002666, -0.7715366431962688 
3.3700000000026873, -0.7668100762736433 
3.3800000000027084, -0.7626488282231089 
3.3900000000027295, -0.7589549588507409 
3.4000000000027506, -0.7556535270412057 
3.4100000000027717, -0.7527131019280289 
3.420000000002793, -0.7501433698002732 
3.430000000002814, -0.7479807200966379 
3.440000000002835, -0.7462707131467988 
3.450000000002856, -0.7450521644111089 
3.460000000002877, -0.7443433870162159 
3.4700000000028983, -0.7441307041398051 
3.4800000000029194, -0.7443627136527209 
3.4900000000029405, -0.7449557205080575 
3.5000000000029616, -0.7458118675030276 
3.5100000000029827, -0.7468446749599034 
3.520000000003004, -0.7480031266371199 
3.530000000003025, -0.7492859956039306 
3.540000000003046, -0.7507398680560453 
3.550000000003067, -0.7524375997671591 
3.5600000000030882, -0.7544390569797599 
3.5700000000031094, -0.7567397759173802 
3.5800000000031305, -0.7592213071838616 
3.5900000000031516, -0.7616398249526583 
3.6000000000031727, -0.7636963069000684 
3.6100000000031938, -0.7651646717215319 
3.620000000003215, -0.7659747418935151 
3.630000000003236, -0.7661951859255473 
3.640000000003257, -0.7659757076698439 
3.650000000003278, -0.7655304740797096 
3.6600000000032993, -0.7651974979449481 
3.6700000000033204, -0.7655694768034895 
3.6800000000033415, -0.7676497800536792 
3.6900000000033626, -0.7729090509490403 
3.7000000000033837, -0.7830613970419603 
3.710000000003405, -0.7995104663734205 
3.720000000003426, -0.8227603241359424 
3.730000000003447, -0.8522631670370533 
3.740000000003468, -0.8868251821025472 
3.750000000003489, -0.9251585248140497 
3.7600000000035103, -0.9660545840158095 
3.7700000000035314, -1.0079541131492076 
3.7800000000035525, -1.048172697733832 
3.7900000000035736, -1.0828117757745013 
3.8000000000035947, -1.1085223782077573 
3.810000000003616, -1.1247922384000943 
3.820000000003637, -1.1337655880457618 
3.830000000003658, -1.1381740276842376 
3.840000000003679, -1.14000691302032 
3.8500000000037002, -1.1403999314133801 
3.8600000000037213, -1.1399906574545506 
3.8700000000037424, -1.1393447538465615 
3.8800000000037635, -1.139381907775169 
3.8900000000037847, -1.14150161584344 
3.9000000000038058, -1.1468148136322855 
3.910000000003827, -1.154990974909427 
3.920000000003848, -1.1644660063217458 
3.930000000003869, -1.1737670401274563 
3.94000000000389, -1.1821908980169968 
3.9500000000039113, -1.189616849126373 
3.9600000000039324, -1.1961507002405698 
3.9700000000039535, -1.2019144788857916 
3.9800000000039746, -1.2069569077251796 
3.9900000000039957, -1.2112246605907415 
4.000000000004016, -1.2145911021918658 
4.010000000003993, -1.216946458027754 
4.02000000000397, -1.2182928141911096 
4.030000000003946, -1.2187658108926078 
4.040000000003923, -1.2185908529260694 
4.0500000000039, -1.2180468595597547 
4.0600000000038765, -1.2174507380215527 
4.070000000003853, -1.2170901454610181 
4.08000000000383, -1.2170943315103977 
4.090000000003807, -1.217398033866821 
4.100000000003783, -1.2178736944593744 
4.11000000000376, -1.2184547860063042 
4.120000000003737, -1.2191088019954894 
4.130000000003713, -1.2197465546836808 
4.14000000000369, -1.2202084349195745 
4.150000000003667, -1.2203271634584074 
4.1600000000036434, -1.2199857062999582 
4.17000000000362, -1.2191399555353526 
4.180000000003597, -1.2178122008206622 
4.1900000000035735, -1.2160582916604192 
4.20000000000355, -1.2139245018830074 
4.210000000003527, -1.2114228612464912 
4.220000000003504, -1.208536480526748 
4.23000000000348, -1.2052397819185938 
4.240000000003457, -1.2015127965640413 
4.250000000003434, -1.1973560787585296 
4.26000000000341, -1.192855592569824 
4.270000000003387, -1.1883268359309371 
4.280000000003364, -1.1844012784817086 
4.2900000000033405, -1.1817574930736527 
4.300000000003317, -1.1805576477546986 
4.310000000003294, -1.1802904725275032 
4.320000000003271, -1.1802199094761632 
4.330000000003247, -1.1797462783574653 
4.340000000003224, -1.1783575774235198 
4.350000000003201, -1.1754076806391804 
4.360000000003177, -1.1699676512624848 
4.370000000003154, -1.160950744958494 
4.380000000003131, -1.1476245493028971 
4.390000000003107, -1.1301408322895397 
4.400000000003084, -1.109406281274044 
4.410000000003061, -1.086398058513281 
4.4200000000030375, -1.0617190391823075 
4.430000000003014, -1.03572629489475 
4.440000000002991, -1.0090409104465718 
4.450000000002968, -0.9831410813158208 
4.460000000002944, -0.9605201044109138 
4.470000000002921, -0.943743538269687 
4.480000000002898, -0.9337642853582798 
4.490000000002874, -0.9293085218565235 
4.500000000002851, -0.9280599491781736 
4.510000000002828, -0.9280850932503156 
4.520000000002804, -0.9282713029160015 
4.530000000002781, -0.928066480003017 
4.540000000002758, -0.927116491532297 
4.5500000000027345, -0.9250222506179501 
4.560000000002711, -0.9212435809930689 
4.570000000002688, -0.9152096355087613 
4.580000000002665, -0.9066890693060297 
4.590000000002641, -0.8961658600960124 
4.600000000002618, -0.884708517449677 
4.610000000002595, -0.8733671523146593 
4.620000000002571, -0.8627461092747307 
4.630000000002548, -0.8530202361747257 
4.640000000002525, -0.8441440892326524 
4.6500000000025015, -0.8360269031748405 
4.660000000002478, -0.828626676612618 
4.670000000002455, -0.8219870324844024 
4.6800000000024315, -0.8162354056035326 
4.690000000002408, -0.8115427596316236 
4.700000000002385, -0.8080445989877617 
4.710000000002362, -0.8057509442080881 
4.720000000002338, -0.8045019670999496 
4.730000000002315, -0.804005749576873 
4.740000000002292, -0.803929491041923 
4.750000000002268, -0.8039800556652589 
4.760000000002245, -0.8039402259328712 
4.770000000002222, -0.8036744500090318 
4.7800000000021985, -0.8031309708654373 
4.790000000002175, -0.802345144781536 
4.800000000002152, -0.8014237761141926 
4.810000000002129, -0.8004980712413964 
4.820000000002105, -0.7996667395622991 
4.830000000002082, -0.7989617277962524 
4.840000000002059, -0.7983474736649017 
4.850000000002035, -0.7977470316921609 
4.860000000002012, -0.7970838364553805 
4.870000000001989, -0.7963225590993688 
4.880000000001965, -0.7954929126031767 
4.890000000001942, -0.7946929144581898 
4.900000000001919, -0.7940765793550808 
4.9100000000018955, -0.7938268633540114 
4.920000000001872, -0.7941137010926476 
