t, s[1].omega / s[0].omega 
0, -0.5299977674264735 
0.009999999999999995, -0.5299748827295516 
0.019999999999999934, -0.53030817898581 
0.029999999999999874, -0.5308794303419823 
0.04000000000000012, -0.5315133854757204 
0.050000000000000405, -0.5320286661362447 
0.06000000000000069, -0.532297334937661 
0.07000000000000098, -0.5322741636405288 
0.08000000000000126, -0.5319900209141967 
0.09000000000000155, -0.5315420523441373 
0.10000000000000184, -0.5311200805508107 
0.11000000000000212, -0.5311096576129659 
0.12000000000000241, -0.5323462063336863 
0.130000000000002, -0.5366974131347895 
0.1400000000000009, -0.548393765340951 
0.1499999999999998, -0.5770192677592366 
0.1599999999999987, -0.6433772267298657 
0.1699999999999976, -0.7840059485349067 
0.1799999999999965, -1.0209373187297865 
0.1899999999999954, -1.283034692145653 
0.1999999999999943, -1.4710190971024342 
0.2099999999999932, -1.577584085151839 
0.2199999999999921, -1.633561410767052 
0.229999999999991, -1.6618882133762631 
0.2399999999999899, -1.6755588875405067 
0.2499999999999888, -1.681720954781286 
0.2599999999999877, -1.684143017572993 
0.2699999999999866, -1.684699236301284 
0.2799999999999855, -1.6843591036084011 
0.2899999999999844, -1.6837668537577533 
0.2999999999999833, -1.6833115233800222 
0.3099999999999822, -1.6829429926439705 
0.3199999999999811, -1.6824688168822792 
0.32999999999998, -1.6820233681971335 
0.3399999999999789, -1.681854615146267 
0.3499999999999778, -1.6817707878419141 
0.35999999999997667, -1.6811729658051953 
0.36999999999997557, -1.6792322501366859 
0.37999999999997447, -1.6744563225211309 
0.38999999999997337, -1.6635757629888168 
0.39999999999997227, -1.6395592777475538 
0.40999999999997117, -1.5884291404791138 
0.41999999999997006, -1.4851402349964824 
0.42999999999996896, -1.2955026921019448 
0.43999999999996786, -1.0173510343839134 
0.44999999999996676, -0.7446395037859176 
0.45999999999996566, -0.5678573384527128 
0.46999999999996456, -0.47677379509368406 
0.47999999999996346, -0.4327597917946808 
0.48999999999996235, -0.41141207176840144 
0.49999999999996125, -0.4008945259748076 
0.5099999999999602, -0.39568540358530446 
0.519999999999959, -0.3931509647926634 
0.529999999999958, -0.39199012694954216 
0.5399999999999568, -0.3915389203647401 
0.5499999999999557, -0.39145171149319247 
0.5599999999999546, -0.3915525597494656 
0.5699999999999535, -0.39176811980011156 
0.5799999999999524, -0.39210132333969105 
0.5899999999999513, -0.3926231066290139 
0.5999999999999502, -0.39346764019654756 
0.6099999999999491, -0.3948257867210295 
0.619999999999948, -0.39693970950712526 
0.6299999999999469, -0.4000944899122459 
0.6399999999999458, -0.4045724882027496 
0.6499999999999447, -0.4105044287251406 
0.6599999999999436, -0.4176025293104753 
0.6699999999999425, -0.4249967767752089 
0.6799999999999414, -0.4315458008504976 
0.6899999999999403, -0.43647743082599755 
0.6999999999999392, -0.43966739043271197 
0.7099999999999381, -0.4413852448910534 
0.719999999999937, -0.4419398815649491 
0.7299999999999359, -0.4414786691332213 
0.7399999999999348, -0.4398787332744464 
0.7499999999999337, -0.4365718988516066 
0.7599999999999326, -0.430074258960447 
0.7699999999999315, -0.41673851896615455 
0.7799999999999304, -0.3879280094176118 
0.7899999999999293, -0.3274555138796872 
0.7999999999999282, -0.22654270778071833 
0.8099999999999271, -0.11993032609788605 
0.819999999999926, -0.04942345430754151 
0.8299999999999249, -0.013073469532494275 
0.8399999999999238, 0.0047069303001227285 
0.8499999999999227, 0.013499970721337346 
0.8599999999999216, 0.018091860284052963 
0.8699999999999205, 0.02051345516362226 
0.8799999999999194, 0.02173865337700674 
0.8899999999999183, 0.022283606058311586 
0.8999999999999172, 0.022454800145292587 
0.9099999999999161, 0.022451677805799437 
0.919999999999915, 0.022413540850250956 
0.9299999999999139, 0.02245389693632169 
0.9399999999999128, 0.02270909416503481 
0.9499999999999117, 0.023441955299296664 
0.9599999999999106, 0.025320557542672796 
0.9699999999999095, 0.03025617345149404 
0.9799999999999084, 0.043825915452531714 
0.9899999999999073, 0.07973428468284681 
0.9999999999999062, 0.15276057594873718 
1.0099999999999052, 0.23888819412143514 
1.019999999999904, 0.29537802668077495 
1.029999999999903, 0.32207678870596257 
1.039999999999902, 0.33377126234954263 
1.0499999999999008, 0.3389318060914819 
1.0599999999998997, 0.3410773260184246 
1.0699999999998986, 0.3415962696898981 
1.0799999999998975, 0.34102631692853314 
1.0899999999998964, 0.33958138434893903 
1.0999999999998953, 0.3374170662836354 
1.1099999999998942, 0.3347866501236575 
1.119999999999893, 0.3320722042565607 
1.129999999999892, 0.3296760182526525 
1.1399999999998909, 0.3278779425604461 
1.1499999999998898, 0.3267866429083238 
1.1599999999998887, 0.32638419876815933 
1.1699999999998876, 0.3265814253355317 
1.1799999999998865, 0.32723651097131157 
1.1899999999998854, 0.328150381830991 
1.1999999999998843, 0.32907596378393744 
1.2099999999998832, 0.32975459725361933 
1.219999999999882, 0.3299453516416736 
1.229999999999881, 0.3293924585535641 
1.2399999999998799, 0.32768369835140765 
1.2499999999998788, 0.32390149997831774 
1.2599999999998777, 0.31569926828438466 
1.2699999999998766, 0.2965284598459246 
1.2799999999998755, 0.24759951852198542 
1.2899999999998744, 0.1289723509797081 
1.2999999999998733, -0.053104945041311816 
1.3099999999998722, -0.18123314837922608 
1.319999999999871, -0.23386509920170834 
1.32999999999987, -0.2533120388284166 
1.3399999999998689, -0.2612412894669293 
1.3499999999998678, -0.26489398069755776 
1.3599999999998666, -0.26668696151104465 
1.3699999999998655, -0.26750385641974334 
1.3799999999998644, -0.2676924756855149 
1.3899999999998633, -0.26739266846476134 
1.3999999999998622, -0.26666950074862034 
1.4099999999998611, -0.2655912952876009 
1.41999999999986, -0.26428378470999636 
1.429999999999859, -0.2629454787414064 
1.4399999999998578, -0.26181072854462295 
1.4499999999998567, -0.2610905415368514 
1.4599999999998556, -0.2609424191644767 
1.4699999999998545, -0.2614801295531702 
1.4799999999998534, -0.26278601841431615 
1.4899999999998523, -0.264881475630219 
1.4999999999998512, -0.2676463044299845 
1.5099999999998501, -0.27075191268295024 
1.519999999999849, -0.27372344479534044 
1.529999999999848, -0.27613566859351274 
1.5399999999998468, -0.27776616410186256 
1.5499999999998457, -0.278576732123457 
1.5599999999998446, -0.2785862109811633 
1.5699999999998435, -0.27773502509308345 
1.5799999999998424, -0.27574642972716995 
1.5899999999998413, -0.27189812964351856 
1.5999999999998402, -0.2645410230032009 
1.6099999999998391, -0.2502114222204506 
1.619999999999838, -0.2230671003057984 
1.629999999999837, -0.1788018936295956 
1.6399999999998358, -0.12541829790029355 
1.6499999999998347, -0.08062748413022042 
1.6599999999998336, -0.05200341438616396 
1.6699999999998325, -0.0358312618270928 
1.6799999999998314, -0.026880441816581124 
1.6899999999998303, -0.02183220267867105 
1.6999999999998292, -0.018934378044441202 
1.709999999999828, -0.01727733407587418 
1.719999999999827, -0.01635572784377586 
1.729999999999826, -0.015853281388179798 
1.7399999999998248, -0.015548884940366983 
1.7499999999998237, -0.015279283395829485 
1.7599999999998226, -0.014917261117484986 
1.7699999999998215, -0.014340065384878831 
1.7799999999998204, -0.013367180253417757 
1.7899999999998193, -0.01162058836638601 
1.7999999999998182, -0.008163470199146854 
1.809999999999817, -0.0005133141487778875 
1.819999999999816, 0.0172788031207818 
1.8299999999998149, 0.05782006428759301 
1.8399999999998138, 0.12623261205141184 
1.8499999999998127, 0.19537408475828633 
1.8599999999998116, 0.23858175004476928 
1.8699999999998105, 0.25969204300985066 
1.8799999999998094, 0.26943559167540865 
1.8899999999998083, 0.27391733225052234 
1.8999999999998072, 0.2758198242554979 
1.909999999999806, 0.2762688543160689 
1.919999999999805, 0.2757421063084479 
1.9299999999998039, 0.274476884147269 
1.9399999999998028, 0.27267804537044976 
1.9499999999998017, 0.27061511209117267 
1.9599999999998006, 0.26861198134581654 
1.9699999999997995, 0.2669641304002729 
1.9799999999997984, 0.26587122318610346 
1.9899999999997973, 0.2654362216333178 
1.9999999999997962, 0.2657003004201853 
2.0099999999998173, 0.2666567755574384 
2.0199999999998384, 0.26821931605048077 
2.0299999999998595, 0.27017310011177037 
2.0399999999998806, 0.2721793053429487 
2.0499999999999017, 0.2738697320776716 
2.059999999999923, 0.27495864251801894 
2.069999999999944, 0.2752600316668267 
2.079999999999965, 0.27458409820768004 
2.089999999999986, 0.27253841806226936 
2.100000000000007, 0.2681822119859374 
2.1100000000000283, 0.2593222112817851 
2.1200000000000494, 0.24120731923613842 
2.1300000000000705, 0.20601476533265686 
2.1400000000000916, 0.15109576706602365 
2.1500000000001127, 0.09505913781690593 
2.160000000000134, 0.05929000504020685 
2.170000000000155, 0.04232851724426211 
2.180000000000176, 0.034931976063391934 
2.190000000000197, 0.031555491666119394 
2.2000000000002182, 0.02986326083544983 
2.2100000000002393, 0.028933715641863665 
2.2200000000002604, 0.028383121141355206 
2.2300000000002815, 0.028021502766163726 
2.2400000000003026, 0.027714684512348504 
2.2500000000003237, 0.02732177752041161 
2.260000000000345, 0.02666079260662856 
2.270000000000366, 0.025476290112394728 
2.280000000000387, 0.023374810945064446 
2.290000000000408, 0.019667362102112687 
2.3000000000004293, 0.01299855128938227 
2.3100000000004504, 0.0005128748894984413 
2.3200000000004715, -0.02333538260813643 
2.3300000000004926, -0.0692248684133897 
2.3400000000005137, -0.14356755434275875 
2.3500000000005348, -0.22630870817584103 
2.360000000000556, -0.28503123325077845 
2.370000000000577, -0.31573996247674796 
2.380000000000598, -0.3302094009045756 
2.390000000000619, -0.33707265641212963 
2.4000000000006403, -0.3403855829287279 
2.4100000000006614, -0.34186911005240017 
2.4200000000006825, -0.3422295444060596 
2.4300000000007036, -0.34171513904140544 
2.4400000000007247, -0.3403484766366542 
2.450000000000746, -0.33806162194144435 
2.460000000000767, -0.3348415247442738 
2.470000000000788, -0.3308902937251918 
2.480000000000809, -0.3266764452239876 
2.49000000000083, -0.3227653820825786 
2.5000000000008513, -0.3195636836037446 
2.5100000000008724, -0.31721791400746013 
2.5200000000008935, -0.31568738710073324 
2.5300000000009146, -0.31484905259084667 
2.5400000000009357, -0.3145501238128005 
2.550000000000957, -0.31461670752328713 
2.560000000000978, -0.3148587417449851 
2.570000000000999, -0.31509550090640154 
2.58000000000102, -0.31519004367820636 
2.5900000000010412, -0.3150647952044719 
2.6000000000010624, -0.31469008817817934 
2.6100000000010835, -0.3140611425818601 
2.6200000000011046, -0.3131811098498992 
2.6300000000011257, -0.31205820969756115 
2.6400000000011468, -0.31071320842440814 
2.650000000001168, -0.3091297489057764 
2.660000000001189, -0.3065197820753033 
2.67000000000121, -0.2941506408434921 
2.680000000001231, -0.18569530678642207 
2.6900000000012523, 0.512920971992221 
2.7000000000012734, 1.068131232110233 
2.7100000000012945, 1.1428628650678765 
2.7200000000013156, 1.156166969066995 
2.7300000000013367, 1.1593926041535596 
2.740000000001358, 1.159547578870456 
2.750000000001379, 1.1574677458525444 
2.7600000000014, 1.1514538824273024 
2.770000000001421, 1.1359750982347452 
2.780000000001442, 1.1036702969858152 
2.7900000000014633, 1.0715138849991344 
2.8000000000014844, 1.0645262379061324 
2.8100000000015055, 1.0679182180697515 
2.8200000000015266, 1.0707920893611704 
2.8300000000015477, 1.0719343060528543 
2.840000000001569, 1.0715323542262047 
2.85000000000159, 1.0690789311070303 
2.860000000001611, 1.0619728584032 
2.870000000001632, 1.040643501023062 
2.8800000000016532, 0.9932966122083279 
2.8900000000016743, 1.1403086308981363 
2.9000000000016954, 1.3401181100979498 
2.9100000000017165, 1.3794520249249007 
2.9200000000017377, 1.3874920851670673 
2.9300000000017588, 1.3891207318021148 
2.94000000000178, 1.3880005818622807 
2.950000000001801, 1.3825898023886354 
2.960000000001822, 1.3597393662554906 
2.970000000001843, 1.2307864157944584 
2.9800000000018643, 0.9691392889960412 
2.9900000000018854, 0.998256610154845 
3.0000000000019065, 1.030788995109216 
3.0100000000019276, 1.041213243549949 
3.0200000000019487, 1.0445340106727627 
3.03000000000197, 1.045163559918292 
3.040000000001991, 1.044184865014958 
3.050000000002012, 1.0415543168135928 
3.060000000002033, 1.0372042137682842 
3.070000000002054, 1.0358844123470852 
3.0800000000020753, 1.0565754863200083 
3.0900000000020964, 1.0965118781562813 
3.1000000000021175, 1.1216424166985905 
3.1100000000021386, 1.131574823878546 
3.1200000000021597, 1.1349710290551147 
3.130000000002181, 1.1355019765139382 
3.140000000002202, 1.1337774845603623 
3.150000000002223, 1.1274061365924086 
3.160000000002244, 1.1017645896179484 
3.1700000000022652, 0.9425678460075447 
3.1800000000022863, 0.28585290490377024 
3.1900000000023074, 0.027424977972594234 
3.2000000000023285, 0.03487396117390779 
3.2100000000023496, 0.052137564331887355 
3.2200000000023707, 0.06137821270818753 
3.230000000002392, 0.06591532307801565 
3.240000000002413, 0.06811206790828103 
3.250000000002434, 0.06908626561293665 
3.260000000002455, 0.06933921954604941 
3.2700000000024763, 0.06907059263716495 
3.2800000000024974, 0.06830155313209782 
3.2900000000025185, 0.06689845573705966 
3.3000000000025396, 0.06451805983381483 
3.3100000000025607, 0.06042820133953741 
3.3200000000025818, 0.05302240505543778 
3.330000000002603, 0.03841919756166444 
3.340000000002624, 0.0059177809332772915 
3.350000000002645, -0.07800229378593351 
3.360000000002666, -0.3210821485965173 
3.3700000000026873, -0.8448138049321801 
3.3800000000027084, -1.2799075110339857 
3.3900000000027295, -1.4372434786689534 
3.4000000000027506, -1.483657332705977 
3.4100000000027717, -1.49823414843475 
3.420000000002793, -1.5030662363649965 
3.430000000002814, -1.504401035706862 
3.440000000002835, -1.5042195830039007 
3.450000000002856, -1.5034965545330055 
3.460000000002877, -1.5034869568876537 
3.4700000000028983, -1.5056218289418628 
3.4800000000029194, -1.5098091458562675 
3.4900000000029405, -1.5144118964099929 
3.5000000000029616, -1.5182529496455144 
3.5100000000029827, -1.5211312815006626 
3.520000000003004, -1.523194421232529 
3.530000000003025, -1.5245496374884726 
3.540000000003046, -1.5252311099298619 
3.550000000003067, -1.5252522334210021 
3.5600000000030882, -1.524620808350791 
3.5700000000031094, -1.523325096706699 
3.5800000000031305, -1.521316472591466 
3.5900000000031516, -1.5184967320078386 
3.6000000000031727, -1.5146940758560885 
3.6100000000031938, -1.5096127323630795 
3.620000000003215, -1.5028586593216373 
3.630000000003236, -1.4944113553267764 
3.640000000003257, -1.4857905480297136 
3.650000000003278, -1.4800983402718342 
3.6600000000032993, -1.4785109399222154 
3.6700000000033204, -1.4789211943029237 
3.6800000000033415, -1.4792163791886328 
3.6900000000033626, -1.4783782911292835 
3.7000000000033837, -1.4752472818049336 
3.710000000003405, -1.4663091069259289 
3.720000000003426, -1.4385869735799184 
3.730000000003447, -1.3366747240625823 
3.740000000003468, -0.9287591435475078 
3.750000000003489, -0.0757497103333886 
3.7600000000035103, 0.3148555773002438 
3.7700000000035314, 0.40278368716663626 
3.7800000000035525, 0.42713501023206935 
3.7900000000035736, 0.43573989134047747 
3.8000000000035947, 0.4391837253827825 
3.810000000003616, 0.4405106056763007 
3.820000000003637, 0.44080824244130373 
3.830000000003658, 0.44056241919254135 
3.840000000003679, 0.44006491658712743 
3.8500000000037002, 0.4395517529827412 
3.8600000000037213, 0.4392475126708294 
3.8700000000037424, 0.43937591564151324 
3.8800000000037635, 0.44015347719590253 
3.8900000000037847, 0.44174919134105517 
3.9000000000038058, 0.4441847908124301 
3.910000000003827, 0.44721475758815765 
3.920000000003848, 0.45033159165103365 
3.930000000003869, 0.4529801705166494 
3.94000000000389, 0.45479816015560814 
3.9500000000039113, 0.4556459014924504 
3.9600000000039324, 0.4554352396917826 
3.9700000000039535, 0.45386287573636724 
3.9800000000039746, 0.4499598980220599 
3.9900000000039957, 0.4409162174563816 
4.000000000004016, 0.41842672493646493 
4.010000000003993, 0.3592909057266863 
4.02000000000397, 0.23082584386756202 
4.030000000003946, 0.08780688737243289 
4.040000000003923, 0.017823584524324483 
4.0500000000039, -0.0040403903301033306 
4.0600000000038765, -0.010193483833300515 
4.070000000003853, -0.012059864918198644 
4.08000000000383, -0.012666863244047902 
4.090000000003807, -0.012856140132083641 
4.100000000003783, -0.012888832134811254 
4.11000000000376, -0.012870497494191788 
4.120000000003737, -0.0128775244179254 
4.130000000003713, -0.013006233773760725 
4.14000000000369, -0.013402916783900617 
4.150000000003667, -0.014296585502390552 
4.1600000000036434, -0.016059466752973674 
4.17000000000362, -0.019346941204334625 
4.180000000003597, -0.02542993657213477 
4.1900000000035735, -0.036970818036515994 
4.20000000000355, -0.05969252743540694 
4.210000000003527, -0.10465231453575471 
4.220000000003504, -0.1838705766102977 
4.23000000000348, -0.28419969231634623 
4.240000000003457, -0.36353314630722167 
4.250000000003434, -0.40684597052789034 
4.26000000000341, -0.4271652389419825 
4.270000000003387, -0.4366110988072445 
4.280000000003364, -0.44110775138579994 
4.2900000000033405, -0.44316197227351395 
4.300000000003317, -0.4437943972212731 
4.310000000003294, -0.4433551700819064 
4.320000000003271, -0.4418288238125763 
4.330000000003247, -0.43895453582256705 
4.340000000003224, -0.43435165116504415 
4.350000000003201, -0.4278062049709039 
4.360000000003177, -0.4196943622625824 
4.370000000003154, -0.4111021565839805 
4.380000000003131, -0.4032753623704731 
4.390000000003107, -0.3969405057726681 
4.400000000003084, -0.39218975806560147 
4.410000000003061, -0.38877227186625307 
4.4200000000030375, -0.3863587104265775 
4.430000000003014, -0.38465353226309523 
4.440000000002991, -0.38341900346041125 
4.450000000002968, -0.3824766786498491 
4.460000000002944, -0.38171027262029844 
4.470000000002921, -0.3810696617933882 
4.480000000002898, -0.3805749465725945 
4.490000000002874, -0.3803288314452276 
4.500000000002851, -0.3805540432648384 
4.510000000002828, -0.3816832217398498 
4.520000000002804, -0.3845560940920306 
4.530000000002781, -0.3908502159369357 
4.540000000002758, -0.40405072268268494 
4.5500000000027345, -0.43169145683457993 
4.560000000002711, -0.4903493415531954 
4.570000000002688, -0.6137009129097064 
4.580000000002665, -0.8446456353044447 
4.590000000002641, -1.154897976471108 
4.600000000002618, -1.4137884882614167 
4.610000000002595, -1.5652458598099521 
4.620000000002571, -1.6412753799382898 
4.630000000002548, -1.677128986955211 
4.640000000002525, -1.6932722109831988 
4.6500000000025015, -1.7001571288362274 
4.660000000002478, -1.702770381921053 
4.670000000002455, -1.7033725495664254 
4.6800000000024315, -1.7030500707382743 
4.690000000002408, -1.7025030084918575 
4.700000000002385, -1.702152681987765 
4.710000000002362, -1.701928937079352 
4.720000000002338, -1.7015980339442582 
4.730000000002315, -1.7012680572628391 
4.740000000002292, -1.70116300727212 
4.750000000002268, -1.7010770219050368 
4.760000000002245, -1.7004124512688648 
4.770000000002222, -1.6983202867193576 
4.7800000000021985, -1.6932294509342545 
4.790000000002175, -1.6817010092970008 
4.800000000002152, -1.6563832236730351 
4.810000000002129, -1.6025802588701237 
4.820000000002105, -1.4932720004754845 
4.830000000002082, -1.2906988761258258 
4.840000000002059, -0.9962070637901907 
4.850000000002035, -0.719634089792901 
4.860000000002012, -0.5495602627750029 
4.870000000001989, -0.4650427771731289 
4.880000000001965, -0.4250247307399687 
4.890000000001942, -0.40586321092508204 
4.900000000001919, -0.3965229654111853 
