t, s[1].omega / s[0].omega 
0, -1.4800449669525164 
0.009999999999999995, -1.4838386921809414 
0.019999999999999934, -1.4863388574789682 
0.029999999999999874, -1.4876767526979888 
0.04000000000000012, -1.4880165902769367 
0.050000000000000405, -1.4875717969674336 
0.06000000000000069, -1.4865903883591618 
0.07000000000000098, -1.4853009301142268 
0.08000000000000126, -1.4837990914281662 
0.09000000000000155, -1.4820461115101045 
0.10000000000000184, -1.4801452373744801 
0.11000000000000212, -1.4785711420554697 
0.12000000000000241, -1.4777875007286096 
0.130000000000002, -1.4775981828102123 
0.1400000000000009, -1.4772832699941851 
0.1499999999999998, -1.4760382258690443 
0.1599999999999987, -1.472792159679321 
0.1699999999999976, -1.4655017329894633 
0.1799999999999965, -1.4502213962679398 
0.1899999999999954, -1.420598433702248 
0.1999999999999943, -1.3690654734050398 
0.2099999999999932, -1.2896573352477143 
0.2199999999999921, -1.1803670810340163 
0.229999999999991, -1.046048711643818 
0.2399999999999899, -0.9036455258205336 
0.2499999999999888, -0.7794551927338924 
0.2599999999999877, -0.6912631676060134 
0.2699999999999866, -0.6383176205407675 
0.2799999999999855, -0.6101166818505241 
0.2899999999999844, -0.5964029782672614 
0.2999999999999833, -0.5903092333389608 
0.3099999999999822, -0.5879161025865757 
0.3199999999999811, -0.5871644657304989 
0.32999999999998, -0.5870210562310606 
0.3399999999999789, -0.5869738443086351 
0.3499999999999778, -0.5867608268604512 
0.35999999999997667, -0.5862436763999332 
0.36999999999997557, -0.5853705353484114 
0.37999999999997447, -0.5841858331412485 
0.38999999999997337, -0.5828366537031067 
0.39999999999997227, -0.5815325366537222 
0.40999999999997117, -0.580468886017392 
0.41999999999997006, -0.5797672187249284 
0.42999999999996896, -0.5794580231097061 
0.43999999999996786, -0.5794872059267056 
0.44999999999996676, -0.5797292787055863 
0.45999999999996566, -0.580016417470383 
0.46999999999996456, -0.5801909051944119 
0.47999999999996346, -0.5801583284833316 
0.48999999999996235, -0.5799123875566826 
0.49999999999996125, -0.5795364392398623 
0.5099999999999602, -0.579215421239131 
0.519999999999959, -0.579290653750546 
0.529999999999958, -0.5803800451451606 
0.5399999999999568, -0.5835808590559226 
0.5499999999999557, -0.5907595876751379 
0.5599999999999546, -0.6048861964542291 
0.5699999999999535, -0.6302458498390766 
0.5799999999999524, -0.6721221747778521 
0.5899999999999513, -0.7353233978287453 
0.5999999999999502, -0.8213698118409167 
0.6099999999999491, -0.9259029380886457 
0.619999999999948, -1.0388533498854469 
0.6299999999999469, -1.1471093632078262 
0.6399999999999458, -1.2375816781276037 
0.6499999999999447, -1.3016174552789948 
0.6599999999999436, -1.3395493793811557 
0.6699999999999425, -1.3588664005309792 
0.6799999999999414, -1.3677096879091182 
0.6899999999999403, -1.3713662979967773 
0.6999999999999392, -1.372516742425664 
0.7099999999999381, -1.3724436769769381 
0.719999999999937, -1.3719870473419167 
0.7299999999999359, -1.3720877011843524 
0.7399999999999348, -1.373575966776936 
0.7499999999999337, -1.3763693980177554 
0.7599999999999326, -1.379572324228291 
0.7699999999999315, -1.382452422798959 
0.7799999999999304, -1.3847972072694243 
0.7899999999999293, -1.3866342829119438 
0.7999999999999282, -1.3879788724466544 
0.8099999999999271, -1.3888013307551113 
0.819999999999926, -1.3890807091939958 
0.8299999999999249, -1.3888271192056734 
0.8399999999999238, -1.3880630953653172 
0.8499999999999227, -1.3867941519211444 
0.8599999999999216, -1.3849949105459431 
0.8699999999999205, -1.3826164832534125 
0.8799999999999194, -1.3795943015249692 
0.8899999999999183, -1.3758293620406743 
0.8999999999999172, -1.371175156462738 
0.9099999999999161, -1.3655853354749223 
0.919999999999915, -1.359562687735015 
0.9299999999999139, -1.354497978905327 
0.9399999999999128, -1.351756243854624 
0.9499999999999117, -1.3511178104145012 
0.9599999999999106, -1.3512056644402182 
0.9699999999999095, -1.350848617938134 
0.9799999999999084, -1.349158891367809 
0.9899999999999073, -1.3446837542333399 
0.9999999999999062, -1.3338901153261624 
1.0099999999999052, -1.3082518815708937 
1.019999999999904, -1.2506709394028728 
1.029999999999903, -1.1409608196518979 
1.039999999999902, -0.9834908528892139 
1.0499999999999008, -0.8196683424024316 
1.0599999999998997, -0.6869548341497029 
1.0699999999998986, -0.5935133557293345 
1.0799999999998975, -0.531584075335732 
1.0899999999998964, -0.4913512614337538 
1.0999999999998953, -0.46532315472524105 
1.1099999999998942, -0.4485040382140594 
1.119999999999893, -0.43768686082374203 
1.129999999999892, -0.43081809895110784 
1.1399999999998909, -0.42656957957195446 
1.1499999999998898, -0.42407195509856893 
1.1599999999998887, -0.42275194998584453 
1.1699999999998876, -0.4222328094957503 
1.1799999999998865, -0.4222736113270008 
1.1899999999998854, -0.42273394534774694 
1.1999999999998843, -0.4235566830271275 
1.2099999999998832, -0.42476423449647305 
1.219999999999882, -0.42646434683793516 
1.229999999999881, -0.4288630390710238 
1.2399999999998799, -0.43228650581919953 
1.2499999999998788, -0.4372139210187993 
1.2599999999998777, -0.44429770536671986 
1.2699999999998766, -0.45426530482290384 
1.2799999999998755, -0.46747497661414383 
1.2899999999998744, -0.48305295612448357 
1.2999999999998733, -0.49849764201034574 
1.3099999999998722, -0.5110477136187919 
1.319999999999871, -0.5195707246753358 
1.32999999999987, -0.5245955945187885 
1.3399999999998689, -0.5271547630166488 
1.3499999999998678, -0.5280324818095234 
1.3599999999998666, -0.5275803130579517 
1.3699999999998655, -0.5256822092584792 
1.3799999999998644, -0.5215546775506554 
1.3899999999998633, -0.5130175029015783 
1.3999999999998622, -0.49430228010700433 
1.4099999999998611, -0.4503097465598064 
1.41999999999986, -0.3501228850654138 
1.429999999999859, -0.18391046409074224 
1.4399999999998578, -0.03482562783884317 
1.4499999999998567, 0.043482500345742595 
1.4599999999998556, 0.07747980925545069 
1.4699999999998545, 0.09257966188683717 
1.4799999999998534, 0.09974182010705203 
1.4899999999998523, 0.10327092465712102 
1.4999999999998512, 0.10495585943246025 
1.5099999999998501, 0.10562403071341679 
1.519999999999849, 0.10572069757537803 
1.529999999999848, 0.10553268856565365 
1.5399999999998468, 0.10527447543736113 
1.5499999999998457, 0.10512756935376436 
1.5599999999998446, 0.10528313984178728 
1.5699999999998435, 0.1060254870011957 
1.5799999999998424, 0.10791057848517052 
1.5899999999998413, 0.11214428546271527 
1.5999999999998402, 0.12124196306612707 
1.6099999999998391, 0.1392923511912799 
1.619999999999838, 0.16872433111156387 
1.629999999999837, 0.2031486387202357 
1.6399999999998358, 0.230887385556859 
1.6499999999998347, 0.2478320597640086 
1.6599999999998336, 0.25681154816041374 
1.6699999999998325, 0.2612337849273037 
1.6799999999998314, 0.2631285221158964 
1.6899999999998303, 0.26344941877392775 
1.6999999999998292, 0.2625470188934346 
1.709999999999828, 0.260469630292093 
1.719999999999827, 0.2571977937362401 
1.729999999999826, 0.25289758963114445 
1.7399999999998248, 0.2480959538483142 
1.7499999999998237, 0.24355525048218057 
1.7599999999998226, 0.2398964012271418 
1.7699999999998215, 0.23736439708818505 
1.7799999999998204, 0.23590511389883875 
1.7899999999998193, 0.2353488690749229 
1.7999999999998182, 0.23551450960713183 
1.809999999999817, 0.23621681217187715 
1.819999999999816, 0.23723471763429355 
1.8299999999998149, 0.23829946209720565 
1.8399999999998138, 0.23912608801704227 
1.8499999999998127, 0.2394534930090833 
1.8599999999998116, 0.23902875481935487 
1.8699999999998105, 0.23749018149254933 
1.8799999999998094, 0.23409244906226298 
1.8899999999998083, 0.22706745702684702 
1.8999999999998072, 0.2119899096144317 
1.909999999999806, 0.17793414253029952 
1.919999999999805, 0.10445158832978925 
1.9299999999998039, -0.011526132759123925 
1.9399999999998028, -0.11301267011796927 
1.9499999999998017, -0.16567728530626358 
1.9599999999998006, -0.18773852157687088 
1.9699999999997995, -0.197062560650297 
1.9799999999997984, -0.20129664414961349 
1.9899999999997973, -0.2032819138557378 
1.9999999999997962, -0.20409967838748444 
2.0099999999998173, -0.2041805893593792 
2.0199999999998384, -0.20370398020650202 
2.0299999999998595, -0.20276857578514282 
2.0399999999998806, -0.20148944795594043 
2.0499999999999017, -0.20005097908808778 
2.059999999999923, -0.19870109389939772 
2.069999999999944, -0.19769493262747617 
2.079999999999965, -0.19724399761578684 
2.089999999999986, -0.19751735037945983 
2.100000000000007, -0.1986805546710128 
2.1100000000000283, -0.2009174351953175 
2.1200000000000494, -0.20437249361107462 
2.1300000000000705, -0.20897837716023523 
2.1400000000000916, -0.2142621523134761 
2.1500000000001127, -0.21940051351734238 
2.160000000000134, -0.22362039419371085 
2.170000000000155, -0.22655416604800038 
2.180000000000176, -0.2282114826166311 
2.190000000000197, -0.22872795112780114 
2.2000000000002182, -0.22814545364739508 
2.2100000000002393, -0.22626276831008849 
2.2200000000002604, -0.22247720738151872 
2.2300000000002815, -0.21557640705823294 
2.2400000000003026, -0.20369638964758413 
2.2500000000003237, -0.18528097977882624 
2.260000000000345, -0.16166150208202973 
2.270000000000366, -0.13808873776192682 
2.280000000000387, -0.11953917358814885 
2.290000000000408, -0.10711692491728622 
2.3000000000004293, -0.09942873736246952 
2.3100000000004504, -0.09481229483351333 
2.3200000000004715, -0.09210433477884093 
2.3300000000004926, -0.09060254781471822 
2.3400000000005137, -0.08987784727039025 
2.3500000000005348, -0.08963241391052021 
2.360000000000556, -0.08962741044074342 
2.370000000000577, -0.0896640714139576 
2.380000000000598, -0.08958586961823113 
2.390000000000619, -0.08926925039879563 
2.4000000000006403, -0.08858496125646892 
2.4100000000006614, -0.08731369129823266 
2.4200000000006825, -0.08495386501788774 
2.4300000000007036, -0.08019984311563579 
2.4400000000007247, -0.06939407192149973 
2.450000000000746, -0.042389989605324266 
2.460000000000767, 0.021661160051765636 
2.470000000000788, 0.12816022100927907 
2.480000000000809, 0.22356653620597905 
2.49000000000083, 0.2741626080350134 
2.5000000000008513, 0.2960880750126348 
2.5100000000008724, 0.3055327480543922 
2.5200000000008935, 0.30967095885823703 
2.5300000000009146, 0.3112868414332427 
2.5400000000009357, 0.31145921976087 
2.550000000000957, 0.31060725926561905 
2.560000000000978, 0.3089246163011577 
2.570000000000999, 0.30660931759502924 
2.58000000000102, 0.3039782655779055 
2.5900000000010412, 0.3014415156288249 
2.6000000000010624, 0.29937124710922325 
2.6100000000010835, 0.2979967590430526 
2.6200000000011046, 0.2974026986790088 
2.6300000000011257, 0.29758069151775857 
2.6400000000011468, 0.29845575727851714 
2.650000000001168, 0.2998668305559687 
2.660000000001189, 0.30154419109898256 
2.67000000000121, 0.3031440047886108 
2.680000000001231, 0.3043385961427375 
2.6900000000012523, 0.30487798176943637 
2.7000000000012734, 0.3045459283579457 
2.7100000000012945, 0.3029945671180287 
2.7200000000013156, 0.29940568557422104 
2.7300000000013367, 0.2916888071472646 
2.740000000001358, 0.2742846698343012 
2.750000000001379, 0.23267889541309147 
2.7600000000014, 0.14016342408704516 
2.770000000001421, 0.003342909293634394 
2.780000000001442, -0.09899170503097576 
2.7900000000014633, -0.14501885203202983 
2.8000000000014844, -0.16289968643005975 
2.8100000000015055, -0.17024482596464813 
2.8200000000015266, -0.17355373771612723 
2.8300000000015477, -0.17509537485667967 
2.840000000001569, -0.1757117908752263 
2.85000000000159, -0.17573983049160238 
2.860000000001611, -0.1753313253093821 
2.870000000001632, -0.174588858961409 
2.8800000000016532, -0.17363857582052974 
2.8900000000016743, -0.17266167276539499 
2.9000000000016954, -0.17188177776495828 
2.9100000000017165, -0.1715283761309749 
2.9200000000017377, -0.17182029025610465 
2.9300000000017588, -0.17299283408191182 
2.94000000000178, -0.17534684668114256 
2.950000000001801, -0.17925866952520358 
2.960000000001822, -0.18504896006421812 
2.970000000001843, -0.1926245948139151 
2.9800000000018643, -0.20110023050829784 
2.9900000000018854, -0.2090106417771603 
3.0000000000019065, -0.21518757139265712 
3.0100000000019276, -0.21930807956821147 
3.0200000000019487, -0.22163900290197075 
3.03000000000197, -0.22255544789197623 
3.040000000001991, -0.2222669292011072 
3.050000000002012, -0.22071717867650334 
3.060000000002033, -0.21753175121616097 
3.070000000002054, -0.2120032000208353 
3.0800000000020753, -0.20330276500383332 
3.0900000000020964, -0.19123728067334497 
3.1000000000021175, -0.1772323599115891 
3.1100000000021386, -0.1639777804826633 
3.1200000000021597, -0.1535133136709069 
3.130000000002181, -0.1462290295251099 
3.140000000002202, -0.14152205467450735 
3.150000000002223, -0.13863803675491115 
3.160000000002244, -0.13700169673375398 
3.1700000000022652, -0.1362248633000026 
3.1800000000022863, -0.1360267558111604 
3.1900000000023074, -0.13616761881023212 
3.2000000000023285, -0.13642636164407285 
3.2100000000023496, -0.13661357776230929 
3.2200000000023707, -0.1365857906663202 
3.230000000002392, -0.1362316444006518 
3.240000000002413, -0.13542131213446157 
3.250000000002434, -0.13390531194637542 
3.260000000002455, -0.131084633401288 
3.2700000000024763, -0.12536962490455042 
3.2800000000024974, -0.11222151634790992 
3.2900000000025185, -0.07880262546560127 
3.3000000000025396, 0.0009261835185769091 
3.3100000000025607, 0.12740620968719008 
3.3200000000025818, 0.2304147194008202 
3.330000000002603, 0.28067833073424164 
3.340000000002624, 0.30158768644451356 
3.350000000002645, 0.3104567202691709 
3.360000000002666, 0.31430435058844325 
3.3700000000026873, 0.3157662272814757 
3.3800000000027084, 0.31585413581432814 
3.3900000000027295, 0.31496934755913303 
3.4000000000027506, 0.31331660065241806 
3.4100000000027717, 0.311115499158399 
3.420000000002793, 0.30868963861890786 
3.430000000002814, 0.30642468687136437 
3.440000000002835, 0.3046508411663356 
3.450000000002856, 0.3035664949557886 
3.460000000002877, 0.30324842931244494 
3.4700000000028983, 0.303692372605689 
3.4800000000029194, 0.3048201300028527 
3.4900000000029405, 0.3064484715102288 
3.5000000000029616, 0.30827424243071777 
3.5100000000029827, 0.3099324997279418 
3.520000000003004, 0.3111008623627455 
3.530000000003025, 0.3115475751318303 
3.540000000003046, 0.3110591916486575 
3.550000000003067, 0.3092450339533538 
3.5600000000030882, 0.30514499156579694 
3.5700000000031094, 0.2962725686508949 
3.5800000000031305, 0.27598284629385894 
3.5900000000031516, 0.2274337561324443 
3.6000000000031727, 0.12488337905095352 
3.6100000000031938, -0.008856100181779637 
3.620000000003215, -0.09683125988191602 
3.630000000003236, -0.1341787285331877 
3.640000000003257, -0.14862898818574818 
3.650000000003278, -0.15463693850601867 
3.6600000000032993, -0.15736373370914836 
3.6700000000033204, -0.1586173978615048 
3.6800000000033415, -0.1590769097569285 
3.6900000000033626, -0.1590199038503258 
3.7000000000033837, -0.15858151932952472 
3.710000000003405, -0.15786829242428585 
3.720000000003426, -0.15701795998009455 
3.730000000003447, -0.1562192347079595 
3.740000000003468, -0.15569454820884737 
3.750000000003489, -0.1556730617005181 
3.7600000000035103, -0.15639343972733302 
3.7700000000035314, -0.15814909676378494 
3.7800000000035525, -0.16134692923654037 
3.7900000000035736, -0.16650281532328487 
3.8000000000035947, -0.1740263426584503 
3.810000000003616, -0.1836850171720207 
3.820000000003637, -0.19414114549625347 
3.830000000003658, -0.20346600425571099 
3.840000000003679, -0.21040291550428386 
3.8500000000037002, -0.21484241577507962 
3.8600000000037213, -0.21727979205913345 
3.8700000000037424, -0.21822056739914228 
3.8800000000037635, -0.21793315861919024 
3.8900000000037847, -0.21639936958848183 
3.9000000000038058, -0.21331392141699052 
3.910000000003827, -0.2081421848368063 
3.920000000003848, -0.20040184987879894 
3.930000000003869, -0.19030021383714643 
3.94000000000389, -0.1792333791558638 
3.9500000000039113, -0.1691702649223285 
3.9600000000039324, -0.16136084625128494 
3.9700000000039535, -0.15593779936526736 
3.9800000000039746, -0.1524463258859279 
3.9900000000039957, -0.15036509844790896 
4.000000000004016, -0.1492943936486396 
4.010000000003993, -0.1489471428627409 
4.02000000000397, -0.14908686749577793 
4.030000000003946, -0.14948396485213689 
4.040000000003923, -0.1499158228307405 
4.0500000000039, -0.1501948362109224 
4.0600000000038765, -0.15018366197413716 
4.070000000003853, -0.14977159308200655 
4.08000000000383, -0.14880904047324 
4.090000000003807, -0.1469814416890833 
4.100000000003783, -0.14351864857018398 
4.11000000000376, -0.13638798456244852 
4.120000000003737, -0.11995246996464941 
4.130000000003713, -0.07961495251392456 
4.14000000000369, 0.007133744310809762 
4.150000000003667, 0.12423126892166599 
4.1600000000036434, 0.20870896622817975 
4.17000000000362, 0.24904215470669552 
4.180000000003597, 0.26633299240906005 
4.1900000000035735, 0.2739196614723666 
4.20000000000355, 0.2772728135954993 
4.210000000003527, 0.27852391354518136 
4.220000000003504, 0.27852706867700816 
4.23000000000348, 0.27765178073034036 
4.240000000003457, 0.27612329913989037 
4.250000000003434, 0.2741888167659222 
4.26000000000341, 0.2721651645238756 
4.270000000003387, 0.2703857652623741 
4.280000000003364, 0.2691188311404333 
4.2900000000033405, 0.2685371180595471 
4.300000000003317, 0.26874284847348784 
4.310000000003294, 0.2697894011462265 
4.320000000003271, 0.2716490372917149 
4.330000000003247, 0.27413386257455014 
4.340000000003224, 0.2768574372114317 
4.350000000003201, 0.2793343779387135 
4.360000000003177, 0.28116600819871046 
4.370000000003154, 0.2821310054136175 
4.380000000003131, 0.2821023130440571 
4.390000000003107, 0.2808529411698965 
4.400000000003084, 0.27776912664418796 
4.410000000003061, 0.2713108878752964 
4.4200000000030375, 0.25784283096579796 
4.430000000003014, 0.2297984178602766 
4.440000000002991, 0.17783824350304375 
4.450000000002968, 0.10935210463881825 
4.460000000002944, 0.0547878106161339 
4.470000000002921, 0.02608421216500272 
4.480000000002898, 0.013437380763731788 
4.490000000002874, 0.007847327945259963 
4.500000000002851, 0.005178312932414729 
4.510000000002828, 0.0038013785063231243 
4.520000000002804, 0.003066993288711982 
4.530000000002781, 0.00268705041142302 
4.540000000002758, 0.0024955925895795714 
4.5500000000027345, 0.002347766346881588 
4.560000000002711, 0.0020740157442731685 
4.570000000002688, 0.0014582988386581599 
4.580000000002665, 0.00021233715458034564 
4.590000000002641, -0.0017134837533092392 
4.600000000002618, -0.005408613397881565 
4.610000000002595, -0.01241834447093044 
4.620000000002571, -0.02578568386934977 
4.630000000002548, -0.051279489255629154 
4.640000000002525, -0.09648611864257868 
4.6500000000025015, -0.16037074664418433 
4.660000000002478, -0.22197217832092173 
4.670000000002455, -0.2624118929418954 
4.6800000000024315, -0.2835047688371972 
4.690000000002408, -0.2937350459934878 
4.700000000002385, -0.2986714261504227 
4.710000000002362, -0.3009569115754175 
4.720000000002338, -0.3017281557152241 
4.730000000002315, -0.30142236909179176 
4.740000000002292, -0.3001371424028819 
4.750000000002268, -0.29781760911376626 
4.760000000002245, -0.29442926578946016 
4.770000000002222, -0.29015700668398253 
4.7800000000021985, -0.2855060305719627 
4.790000000002175, -0.28113793554889 
4.800000000002152, -0.27755563740340833 
4.810000000002129, -0.2749521962328738 
4.820000000002105, -0.2732917880603119 
4.830000000002082, -0.2724473889788901 
4.840000000002059, -0.27227149389563626 
4.850000000002035, -0.2725977683003673 
4.860000000002012, -0.2732227668584681 
4.870000000001989, -0.2739158167733823 
4.880000000001965, -0.274465944035806 
4.890000000001942, -0.27472618289392875 
