t, s[1].omega / s[0].omega 
0, -0.2602460433519374 
0.009999999999999995, -0.293922267454516 
0.019999999999999934, -0.35337169875233126 
0.029999999999999874, -0.4437634920661794 
0.04000000000000012, -0.5420577494741475 
0.050000000000000405, -0.6124333498339797 
0.06000000000000069, -0.6496142354272012 
0.07000000000000098, -0.6669354195649037 
0.08000000000000126, -0.6748029404526013 
0.09000000000000155, -0.6782435890342196 
0.10000000000000184, -0.679352512504759 
0.11000000000000212, -0.6788352920688598 
0.12000000000000241, -0.6765493576615486 
0.130000000000002, -0.6713614405160679 
0.1400000000000009, -0.660103454561829 
0.1499999999999998, -0.6345393345608626 
0.1599999999999987, -0.5751414147560807 
0.1699999999999976, -0.453840019084241 
0.1799999999999965, -0.2898190960899277 
0.1899999999999954, -0.16439978310251976 
0.1999999999999943, -0.09893826163345984 
0.2099999999999932, -0.06793875436720793 
0.2199999999999921, -0.05261233259745739 
0.229999999999991, -0.044455005109318935 
0.2399999999999899, -0.039823059949679454 
0.2499999999999888, -0.03706570255237017 
0.2599999999999877, -0.03536748159434135 
0.2699999999999866, -0.03428942264541815 
0.2799999999999855, -0.03358329905747662 
0.2899999999999844, -0.03311479036253863 
0.2999999999999833, -0.032831675326594104 
0.3099999999999822, -0.03275564234864205 
0.3199999999999811, -0.03299556643600217 
0.32999999999998, -0.03378199998069579 
0.3399999999999789, -0.03545401158733931 
0.3499999999999778, -0.03771123420452878 
0.35999999999997667, -0.03222384354812331 
0.36999999999997557, 0.05688416714040025 
0.37999999999997447, 0.5070327841880411 
0.38999999999997337, 0.8709951644219917 
0.39999999999997227, 0.9453602303312956 
0.40999999999997117, 0.9615779048097817 
0.41999999999997006, 0.9660747264971062 
0.42999999999996896, 0.9669394591045666 
0.43999999999996786, 0.9656594588937869 
0.44999999999996676, 0.9614776571596542 
0.45999999999996566, 0.9510441388253283 
0.46999999999996456, 0.927028522259001 
0.47999999999996346, 0.8872253297761171 
0.48999999999996235, 0.8566720102657939 
0.49999999999996125, 0.8493296354533071 
0.5099999999999602, 0.850906488036317 
0.519999999999959, 0.8530362158075592 
0.529999999999958, 0.8541397151013763 
0.5399999999999568, 0.8540830265634082 
0.5499999999999557, 0.8525071427982368 
0.5599999999999546, 0.8478363817719184 
0.5699999999999535, 0.8336815518843362 
0.5799999999999524, 0.7747433419166515 
0.5899999999999513, 0.34418149395334197 
0.5999999999999502, -2.701564597521285 
0.6099999999999491, -3.550664929727566 
0.619999999999948, -3.5829782689692067 
0.6299999999999469, -3.5875235589860353 
0.6399999999999458, -3.587301904592708 
0.6499999999999447, -3.583359460933753 
0.6599999999999436, -3.563477337061663 
0.6699999999999425, -3.337048559245148 
0.6799999999999414, -3.249116235230031 
0.6899999999999403, -3.3023549007928503 
0.6999999999999392, -3.3069216858585895 
0.7099999999999381, -3.306686880328262 
0.719999999999937, -3.3062241923232376 
0.7299999999999359, -3.305275422645271 
0.7399999999999348, -3.3036786944631595 
0.7499999999999337, -3.3033842884497395 
0.7599999999999326, -3.3014729961269653 
0.7699999999999315, -3.2884387825995915 
0.7799999999999304, -3.284846467966298 
0.7899999999999293, -3.3513822530623427 
0.7999999999999282, -3.365903178334549 
0.8099999999999271, -3.3686235306788403 
0.819999999999926, -3.3681414903205593 
0.8299999999999249, -3.363821028623147 
0.8399999999999238, -3.3435143768407634 
0.8499999999999227, -3.1088001328047863 
0.8599999999999216, 0.7107627907768408 
0.8699999999999205, 1.2765928148794643 
0.8799999999999194, 1.3106074115215363 
0.8899999999999183, 1.3167138693768041 
0.8999999999999172, 1.3181331961803207 
0.9099999999999161, 1.3182880724134425 
0.919999999999915, 1.3181133428304772 
0.9299999999999139, 1.3179829013684337 
0.9399999999999128, 1.3179922904196961 
0.9499999999999117, 1.3180597374918124 
0.9599999999999106, 1.3180896219273999 
0.9699999999999095, 1.3180366985239729 
0.9799999999999084, 1.3177996667295975 
0.9899999999999073, 1.3170460341290684 
0.9999999999999062, 1.3147580447994143 
1.0099999999999052, 1.3066551288162715 
1.019999999999904, 1.2596435941940054 
1.029999999999903, 0.24565756583593443 
1.039999999999902, -3.16654583498563 
1.0499999999999008, -3.312023828971797 
1.0599999999998997, -3.3269980603700184 
1.0699999999998986, -3.3295052024483143 
1.0799999999998975, -3.3286320838736385 
1.0899999999998964, -3.3244769673914085 
1.0999999999998953, -3.3075703534826166 
1.1099999999998942, -3.2575294839152718 
1.119999999999893, -3.267774611639073 
1.129999999999892, -3.2747560534456364 
1.1399999999998909, -3.2747850748441807 
1.1499999999998898, -3.2742032157508327 
1.1599999999998887, -3.2753239226840245 
1.1699999999998876, -3.2754858179980397 
1.1799999999998865, -3.275124067545937 
1.1899999999998854, -3.2740439529090133 
1.1999999999998843, -3.26650700485152 
1.2099999999998832, -3.1775158293060684 
1.219999999999882, -3.3693994648986108 
1.229999999999881, -3.7837972342605704 
1.2399999999998799, -3.8040074019071994 
1.2499999999998788, -3.806500045028219 
1.2599999999998777, -3.805064051122089 
1.2699999999998766, -3.7968378543565713 
1.2799999999998755, -3.7170836058958976 
1.2899999999998744, -1.3450927246427484 
1.2999999999998733, 0.010234581694314411 
1.3099999999998722, 0.2788757502159644 
1.319999999999871, 0.34748026132541093 
1.32999999999987, 0.3696202935275987 
1.3399999999998689, 0.37828839332227326 
1.3499999999998678, 0.38199625943960064 
1.3599999999998666, 0.38340261221138877 
1.3699999999998655, 0.3833715166364629 
1.3799999999998644, 0.3819701580558579 
1.3899999999998633, 0.378530885839793 
1.3999999999998622, 0.3708712711911829 
1.4099999999998611, 0.35191183421146566 
1.41999999999986, 0.2927105429699167 
1.429999999999859, 0.02484100134784204 
1.4399999999998578, -1.281456147210355 
1.4499999999998567, -2.3247589454443505 
1.4599999999998556, -2.4829648720299575 
1.4699999999998545, -2.516310134391377 
1.4799999999998534, -2.526394794945922 
1.4899999999998523, -2.5295939111736936 
1.4999999999998512, -2.529958589654181 
1.5099999999998501, -2.528637107866708 
1.519999999999849, -2.5254555692746594 
1.529999999999848, -2.5182632904750624 
1.5399999999998468, -2.5043767818681615 
1.5499999999998457, -2.4962753136802402 
1.5599999999998446, -2.49923817957804 
1.5699999999998435, -2.5007003179630396 
1.5799999999998424, -2.4991061470100666 
1.5899999999998413, -2.4947960221669945 
1.5999999999998402, -2.498589433691502 
1.6099999999998391, -2.513599291072404 
1.619999999999838, -2.5222642484434368 
1.629999999999837, -2.5255990618745536 
1.6399999999998358, -2.526644238559594 
1.6499999999998347, -2.526062724019386 
1.6599999999998336, -2.523179897043314 
1.6699999999998325, -2.5153461441077627 
1.6799999999998314, -2.4927877409378096 
1.6899999999998303, -2.404359753750576 
1.6999999999998292, -1.8378867843335 
1.709999999999828, -0.3346405598396567 
1.719999999999827, 0.15437806394147532 
1.729999999999826, 0.25690580783568134 
1.7399999999998248, 0.28703650038702716 
1.7499999999998237, 0.2984078275781446 
1.7599999999998226, 0.30328228621268644 
1.7699999999998215, 0.3053127104168807 
1.7799999999998204, 0.30573541535837145 
1.7899999999998193, 0.3048586331065966 
1.7999999999998182, 0.30236901861016585 
1.809999999999817, 0.2970207043934348 
1.819999999999816, 0.28513581128702653 
1.8299999999998149, 0.2543717951787917 
1.8399999999998138, 0.1507989168448914 
1.8499999999998127, -0.34031294655782157 
1.8599999999998116, -1.8520514352258055 
1.8699999999998105, -2.416588698326312 
1.8799999999998094, -2.5029279903495447 
1.8899999999998083, -2.524303286361529 
1.8999999999998072, -2.531222440802037 
1.909999999999806, -2.533275753453659 
1.919999999999805, -2.5330500371108347 
1.9299999999998039, -2.531183261693652 
1.9399999999998028, -2.526947166746447 
1.9499999999998017, -2.517133310245061 
1.9599999999998006, -2.5008044342466746 
1.9699999999997995, -2.4964367087367743 
1.9799999999997984, -2.500116434549879 
1.9899999999997973, -2.500949075505186 
1.9999999999997962, -2.4987373439072496 
2.0099999999998173, -2.4951985843397972 
2.0199999999998384, -2.5025435194311507 
2.0299999999998595, -2.5151389263100503 
2.0399999999998806, -2.521289351685794 
2.0499999999999017, -2.523604565778542 
2.059999999999923, -2.524111688036205 
2.069999999999944, -2.5229328814910046 
2.079999999999965, -2.5188727498871497 
2.089999999999986, -2.5077610208043355 
2.100000000000007, -2.4727716699533624 
2.1100000000000283, -2.3099835847940824 
2.1200000000000494, -1.259157981293948 
2.1300000000000705, 0.03112090912146711 
2.1400000000000916, 0.29430401562363834 
2.1500000000001127, 0.3522876108518532 
2.160000000000134, 0.3706031453334609 
2.170000000000155, 0.37775101076305473 
2.180000000000176, 0.3807186013307176 
2.190000000000197, 0.381663490521874 
2.2000000000002182, 0.38124597778016384 
2.2100000000002393, 0.37939858675914195 
2.2200000000002604, 0.37526510794227685 
2.2300000000002815, 0.36622046250982754 
2.2400000000003026, 0.3439110713440849 
2.2500000000003237, 0.2763160009008582 
2.260000000000345, 0.017823153914976807 
2.270000000000366, -1.2256491520366675 
2.280000000000387, -3.7984955903529056 
2.290000000000408, -3.882167551877773 
2.3000000000004293, -3.888990173020597 
2.3100000000004504, -3.889056302201793 
2.3200000000004715, -3.8848589028407488 
2.3300000000004926, -3.857091680506135 
2.3400000000005137, -3.173307583842168 
2.3500000000005348, -3.1486442633651315 
2.360000000000556, -3.2245801162978793 
2.370000000000577, -3.230482284200199 
2.380000000000598, -3.2305178512266695 
2.390000000000619, -3.229879773114269 
2.4000000000006403, -3.2286922410911223 
2.4100000000006614, -3.226553012688688 
2.4200000000006825, -3.226119075833452 
2.4300000000007036, -3.2252078057537497 
2.4400000000007247, -3.21783494183 
2.450000000000746, -3.202995078720633 
2.460000000000767, -3.2542824671451065 
2.470000000000788, -3.273996570000972 
2.480000000000809, -3.277991351407698 
2.49000000000083, -3.278276266646627 
2.5000000000008513, -3.275619823473587 
2.5100000000008724, -3.264390801756523 
2.5200000000008935, -3.18935777019919 
2.5300000000009146, -1.273037649709154 
2.5400000000009357, 1.1277894532476584 
2.550000000000957, 1.226986463730936 
2.560000000000978, 1.2402259411322734 
2.570000000000999, 1.2432964840543288 
2.58000000000102, 1.2439751789428137 
2.5900000000010412, 1.2439374644027241 
2.6000000000010624, 1.243793994335272 
2.6100000000010835, 1.2438336709668862 
2.6200000000011046, 1.244105193171917 
2.6300000000011257, 1.2444748351099726 
2.6400000000011468, 1.2447789683114343 
2.650000000001168, 1.244904806095166 
2.660000000001189, 1.2447166338053581 
2.67000000000121, 1.2438706348251025 
2.680000000001231, 1.241271542970515 
2.6900000000012523, 1.2321559309210441 
2.7000000000012734, 1.1795856349597555 
2.7100000000012945, 0.1076473944616358 
2.7200000000013156, -3.069829225984335 
2.7300000000013367, -3.221754635909849 
2.740000000001358, -3.2379583040598106 
2.750000000001379, -3.2407420838183563 
2.7600000000014, -3.240093473228318 
2.770000000001421, -3.236730843771558 
2.780000000001442, -3.224861044193959 
2.7900000000014633, -3.1934729083176316 
2.8000000000014844, -3.196280874715499 
2.8100000000015055, -3.2020475279027947 
2.8200000000015266, -3.2019287557664127 
2.8300000000015477, -3.201025178168302 
2.840000000001569, -3.202926523891507 
2.85000000000159, -3.2040790120974654 
2.860000000001611, -3.2040419497604256 
2.870000000001632, -3.203273584369872 
2.8800000000016532, -3.1982578641552846 
2.8900000000016743, -3.1513367814485678 
2.9000000000016954, -1.7330155347274534 
2.9100000000017165, 3.320059500112753 
2.9200000000017377, 3.3755846558828937 
2.9300000000017588, 3.3769730095875303 
2.94000000000178, 3.3697552610913726 
2.950000000001801, 2.419347802221396 
2.960000000001822, -4.740971981233768 
2.970000000001843, -4.763077967027879 
2.9800000000018643, -4.763004618984463 
2.9900000000018854, -4.758358284002936 
3.0000000000019065, -4.734267926452459 
3.0100000000019276, -4.742912555050502 
3.0200000000019487, -4.744082555196918 
3.03000000000197, -4.743398538265743 
3.040000000001991, -4.742533615637239 
3.050000000002012, -4.741439985311973 
3.060000000002033, -4.7394561584640895 
3.070000000002054, -4.730208329215122 
3.0800000000020753, -4.747927114574632 
3.0900000000020964, -4.751115657301883 
3.1000000000021175, -4.749856013321363 
3.1100000000021386, -4.730904069518851 
3.1200000000021597, 1.5266669663546033 
3.130000000002181, 3.6138337456572573 
3.140000000002202, 3.6206189450674 
3.150000000002223, 3.6177893284909244 
3.160000000002244, 3.508128607594211 
3.1700000000022652, -4.58127486156352 
3.1800000000022863, -4.672649619246424 
3.1900000000023074, -4.674587681520135 
3.2000000000023285, -4.6723328829384805 
3.2100000000023496, -4.659761275195929 
3.2200000000023707, -4.655576821139888 
3.230000000002392, -4.6592448286530255 
3.240000000002413, -4.658258064053497 
3.250000000002434, -4.658377017206973 
3.260000000002455, -4.65727228429554 
3.2700000000024763, -4.656377640960748 
3.2800000000024974, -4.647615790926234 
3.2900000000025185, -4.65643613309934 
3.3000000000025396, -4.672930630267786 
3.3100000000025607, -4.673941565364288 
3.3200000000025818, -4.670293167865156 
3.330000000002603, -4.587749124525976 
3.340000000002624, 2.889238107692246 
3.350000000002645, 3.018644545880339 
3.360000000002666, 3.0222477966033265 
3.3700000000026873, 3.019527141797883 
3.3800000000027084, 2.979617744277164 
3.3900000000027295, 2.142046174817126 
3.4000000000027506, 2.516905888164996 
3.4100000000027717, 2.5330979497995147 
3.420000000002793, 2.5345431064342914 
3.430000000002814, 2.5343680605180237 
3.440000000002835, 2.533711939857638 
3.450000000002856, 2.5320282950724438 
3.460000000002877, 2.5300998506666863 
3.4700000000028983, 2.529583250879618 
3.4800000000029194, 2.5288574324678583 
3.4900000000029405, 2.5235297195530353 
3.5000000000029616, 2.492804514051119 
3.5100000000029827, 2.551746178211654 
3.520000000003004, 2.599866079332182 
3.530000000003025, 2.6055438781249602 
3.540000000003046, 2.6051880972820967 
3.550000000003067, 2.5977044039586614 
3.5600000000030882, 2.3655817596718514 
3.5700000000031094, -4.487732439799745 
3.5800000000031305, -4.561230139845429 
3.5900000000031516, -4.564011153256782 
3.6000000000031727, -4.561606353016499 
3.6100000000031938, -4.542533435383674 
3.620000000003215, -4.4872851067169215 
3.630000000003236, -4.513582853840029 
3.640000000003257, -4.514491802068527 
3.650000000003278, -4.513684783241297 
3.6600000000032993, -4.511690689801723 
3.6700000000033204, -4.510411890729555 
3.6800000000033415, -4.50936048568032 
3.6900000000033626, -4.503776114692208 
3.7000000000033837, -4.513203903691798 
3.710000000003405, -4.516074850263956 
3.720000000003426, -4.5153738778547 
3.730000000003447, -4.5060046061192 
3.740000000003468, -3.656371437801814 
3.750000000003489, 4.43176550873153 
3.7600000000035103, 4.457646347553817 
3.7700000000035314, 4.4555430002567205 
3.7800000000035525, 4.158992441767506 
3.7900000000035736, -6.204685035632713 
3.8000000000035947, -6.21277900371637 
3.810000000003616, -6.208470825726762 
3.820000000003637, -6.105059264156588 
3.830000000003658, -6.163741797473164 
3.840000000003679, -6.163815655090454 
3.8500000000037002, -6.160114096223993 
3.8600000000037213, -6.157066462835149 
3.8700000000037424, -6.156931879295809 
3.8800000000037635, -6.156446260327625 
3.8900000000037847, -6.155328494684744 
3.9000000000038058, -6.153248690321194 
3.910000000003827, -6.147167911730654 
3.920000000003848, -6.158816719789241 
3.930000000003869, -6.158030976421826 
3.94000000000389, -6.126348895513695 
3.9500000000039113, -6.410760464062048 
3.9600000000039324, -6.442270732442469 
3.9700000000039535, -6.439935083292672 
3.9800000000039746, -6.189538462922938 
3.9900000000039957, 4.432589343777325 
4.000000000004016, 4.441349602842804 
4.010000000003993, 4.43749057644144 
4.02000000000397, 4.214419918392006 
4.030000000003946, 4.307657603654732 
4.040000000003923, 4.313642952572015 
4.0500000000039, 4.312884606336817 
4.0600000000038765, 4.30808769326344 
4.070000000003853, 4.304459358598981 
4.08000000000383, 4.305975510941424 
4.090000000003807, 4.304089416753396 
4.100000000003783, 4.306017981795306 
4.11000000000376, 4.30674098575927 
4.120000000003737, 4.305722247112385 
4.130000000003713, 4.296845986393022 
4.14000000000369, 4.292969730254837 
4.150000000003667, 4.351908130016695 
4.1600000000036434, 4.352966576260074 
4.17000000000362, 4.341188329754337 
4.180000000003597, -6.1644098005110575 
4.1900000000035735, -6.379033316397895 
4.20000000000355, -6.378898016429238 
4.210000000003527, -6.34773642502173 
4.220000000003504, -3.841858714287288 
4.23000000000348, -4.612824119186296 
4.240000000003457, -4.619862538885578 
4.250000000003434, -4.618901235011978 
4.26000000000341, -4.613968050657368 
4.270000000003387, -4.604583570513101 
4.280000000003364, -4.608610699741389 
4.2900000000033405, -4.607671302961932 
4.300000000003317, -4.607952376947257 
4.310000000003294, -4.607964609554708 
4.320000000003271, -4.607232805149871 
4.330000000003247, -4.603005583101206 
4.340000000003224, -4.574333785470621 
4.350000000003201, -4.635539848642132 
4.360000000003177, -4.642651750645283 
4.370000000003154, -4.642062519384787 
4.380000000003131, -4.63182638132116 
4.390000000003107, -3.8283447296333106 
4.400000000003084, 2.678105748161797 
4.410000000003061, 2.7109071740804835 
4.4200000000030375, 2.7127316619545434 
4.430000000003014, 2.709838042367804 
4.440000000002991, 2.6857220127144323 
4.450000000002968, 2.5287992081162423 
4.460000000002944, 2.586008008166585 
4.470000000002921, 2.5976276649117214 
4.480000000002898, 2.598613375875515 
4.490000000002874, 2.5983321238043393 
4.500000000002851, 2.5987007756157827 
4.510000000002828, 2.598895906353704 
4.520000000002804, 2.5983249548937675 
4.530000000002781, 2.597727082924673 
4.540000000002758, 2.596318384927712 
4.5500000000027345, 2.5870534925681556 
4.560000000002711, 2.4727431382947658 
4.570000000002688, 2.746211538520478 
4.580000000002665, 2.801544399013236 
4.590000000002641, 2.8052020793354915 
4.600000000002618, 2.803255877828231 
4.610000000002595, 2.7781428567890947 
4.620000000002571, -3.1837830234104616 
4.630000000002548, -4.60618401962553 
4.640000000002525, -4.616350304062426 
4.6500000000025015, -4.615611698658525 
4.660000000002478, -4.608686176304004 
4.670000000002455, -4.5675956849380634 
4.6800000000024315, -4.584008452402735 
4.690000000002408, -4.586165078040565 
4.700000000002385, -4.585403020759977 
4.710000000002362, -4.584338390171101 
4.720000000002338, -4.582813742568923 
4.730000000002315, -4.581908193325056 
4.740000000002292, -4.57445694443867 
4.750000000002268, -4.585345758354317 
4.760000000002245, -4.590622187252892 
4.770000000002222, -4.590350999194779 
4.7800000000021985, -4.583508298932442 
4.790000000002175, -4.15147502208661 
4.800000000002152, 3.6021432660260984 
4.810000000002129, 3.6352500189106323 
4.820000000002105, 3.6352677966536353 
4.830000000002082, 3.618377227805708 
4.840000000002059, -3.700912683146818 
4.850000000002035, -4.84941390995513 
4.860000000002012, -4.855775899586023 
4.870000000001989, -4.854297804648217 
4.880000000001965, -4.844396024712234 
4.890000000001942, -4.83066724497493 
4.900000000001919, -4.837944927488682 
4.9100000000018955, -4.837234616510651 
4.920000000001872, -4.836896359946037 
4.930000000001849, -4.835375599437213 
4.940000000001826, -4.8346552009947725 
4.950000000001802, -4.828025833448626 
4.960000000001779, -4.8350058298129746 
4.970000000001756, -4.84334172228945 
4.980000000001732, -4.8433268157348754 
4.990000000001709, -4.836785017340395 
5.000000000001686, -4.218066199393169 
5.0100000000016625, 3.924931221096738 
