t, s[1].omega / s[0].omega 
0, -0.6600323036328809 
0.009999999999999995, -0.66360297494757 
0.019999999999999934, -0.6677437752488065 
0.029999999999999874, -0.6721002844027801 
0.04000000000000012, -0.6761205177653111 
0.050000000000000405, -0.6792981649723335 
0.06000000000000069, -0.681404217146968 
0.07000000000000098, -0.6824919560474922 
0.08000000000000126, -0.6827456800458533 
0.09000000000000155, -0.6823613521490024 
0.10000000000000184, -0.6815437572159493 
0.11000000000000212, -0.6806515734216781 
0.12000000000000241, -0.6806100288765055 
0.130000000000002, -0.683940221452776 
0.1400000000000009, -0.6971438577863764 
0.1499999999999998, -0.7353196308872633 
0.1599999999999987, -0.8262473653073046 
0.1699999999999976, -0.9932425110920041 
0.1799999999999965, -1.199840117209078 
0.1899999999999954, -1.369165238871937 
0.1999999999999943, -1.478376833522166 
0.2099999999999932, -1.5440923833681564 
0.2199999999999921, -1.5829712473430992 
0.229999999999991, -1.6051483825709618 
0.2399999999999899, -1.6169569924796536 
0.2499999999999888, -1.62266432215477 
0.2599999999999877, -1.6250018656148992 
0.2699999999999866, -1.6255447235973501 
0.2799999999999855, -1.625208911691693 
0.2899999999999844, -1.624650473830354 
0.2999999999999833, -1.624263513775513 
0.3099999999999822, -1.623977503288239 
0.3199999999999811, -1.6235609982880774 
0.32999999999998, -1.6231130019817175 
0.3399999999999789, -1.6229111968789003 
0.3499999999999778, -1.6228459235165036 
0.35999999999997667, -1.6223596959162958 
0.36999999999997557, -1.6206832517318301 
0.37999999999997447, -1.616624177346121 
0.38999999999997337, -1.607964331426452 
0.39999999999997227, -1.5907829708027934 
0.40999999999997117, -1.558939205260587 
0.41999999999997006, -1.503366673562431 
0.42999999999996896, -1.4102754186072985 
0.43999999999996786, -1.2617455056992648 
0.44999999999996676, -1.0570170313500644 
0.45999999999996566, -0.8515693093971258 
0.46999999999996456, -0.711727632624356 
0.47999999999996346, -0.6400253820480857 
0.48999999999996235, -0.6084348589354505 
0.49999999999996125, -0.5957809048545403 
0.5099999999999602, -0.5912552671935787 
0.519999999999959, -0.5899754882775604 
0.529999999999958, -0.5898344234887973 
0.5399999999999568, -0.5899351088002361 
0.5499999999999557, -0.5898822988882411 
0.5599999999999546, -0.5894770999891076 
0.5699999999999535, -0.5886034051240709 
0.5799999999999524, -0.5872172057640244 
0.5899999999999513, -0.5853859914742146 
0.5999999999999502, -0.5833101046996013 
0.6099999999999491, -0.5812663915067036 
0.619999999999948, -0.5794989340442513 
0.6299999999999469, -0.5781438056434938 
0.6399999999999458, -0.5772225845293092 
0.6499999999999447, -0.576669686165545 
0.6599999999999436, -0.5763618384031224 
0.6699999999999425, -0.5761512856976808 
0.6799999999999414, -0.5759091947689464 
0.6899999999999403, -0.5755661585238169 
0.6999999999999392, -0.5751332803991518 
0.7099999999999381, -0.5747096150469565 
0.719999999999937, -0.5744983927745467 
0.7299999999999359, -0.5748500715843231 
0.7399999999999348, -0.5763371079595988 
0.7499999999999337, -0.5798525176569547 
0.7599999999999326, -0.5867104884990981 
0.7699999999999315, -0.5987119347141718 
0.7799999999999304, -0.6181261290278508 
0.7899999999999293, -0.6475399869670737 
0.7999999999999282, -0.6895481165703508 
0.8099999999999271, -0.746293845684193 
0.819999999999926, -0.8188486876171768 
0.8299999999999249, -0.9061640215901405 
0.8399999999999238, -1.0029876234439352 
0.8499999999999227, -1.097451382447731 
0.8599999999999216, -1.173758790004388 
0.8699999999999205, -1.2231280428766564 
0.8799999999999194, -1.2494371951154122 
0.8899999999999183, -1.2617750472884137 
0.8999999999999172, -1.267084386509014 
0.9099999999999161, -1.2690379812118924 
0.919999999999915, -1.2693204431796146 
0.9299999999999139, -1.2687993470759873 
0.9399999999999128, -1.2683452471291843 
0.9499999999999117, -1.2692901355951465 
0.9599999999999106, -1.2728499854732909 
0.9699999999999095, -1.2787602100693438 
0.9799999999999084, -1.2854472325237463 
0.9899999999999073, -1.2915950500694495 
0.9999999999999062, -1.296755688954334 
1.0099999999999052, -1.300978307021965 
1.019999999999904, -1.3044217677680656 
1.029999999999903, -1.3072160806833966 
1.039999999999902, -1.3094486403916907 
1.0499999999999008, -1.311163396699845 
1.0599999999998997, -1.3123559197365673 
1.0699999999998986, -1.3129878972947444 
1.0799999999998975, -1.3130287012456399 
1.0899999999998964, -1.3125007768645456 
1.0999999999998953, -1.3115008121119922 
1.1099999999998942, -1.3101824994098212 
1.119999999999893, -1.3086909188890135 
1.129999999999892, -1.3070894345210036 
1.1399999999998909, -1.3054007593802217 
1.1499999999998898, -1.3037737518130061 
1.1599999999998887, -1.3025366858370657 
1.1699999999998876, -1.3019271167576938 
1.1799999999998865, -1.3017780466484632 
1.1899999999998854, -1.3016056514024288 
1.1999999999998843, -1.3008753629642806 
1.2099999999998832, -1.299046532354371 
1.219999999999882, -1.2954787441504583 
1.229999999999881, -1.2894577756192696 
1.2399999999998799, -1.280436906872741 
1.2499999999998788, -1.2682737577712246 
1.2599999999998777, -1.2531193448382068 
1.2699999999998766, -1.2350163828709064 
1.2799999999998755, -1.2135973269889808 
1.2899999999998744, -1.1881428041854845 
1.2999999999998733, -1.158228823553012 
1.3099999999998722, -1.1253071643731798 
1.319999999999871, -1.0944308736911958 
1.32999999999987, -1.0724420465738997 
1.3399999999998689, -1.0618509444028135 
1.3499999999998678, -1.0590945753416645 
1.3599999999998666, -1.0594270358655788 
1.3699999999998655, -1.0601547064602932 
1.3799999999998644, -1.0602512602823297 
1.3899999999998633, -1.0592178578811209 
1.3999999999998622, -1.056312411602968 
1.4099999999998611, -1.049899518990882 
1.41999999999986, -1.0366532560379178 
1.429999999999859, -1.011251817679777 
1.4399999999998578, -0.9690708972542064 
1.4499999999998567, -0.9125160410479737 
1.4599999999998556, -0.8519814129032068 
1.4699999999998545, -0.7971983355075355 
1.4799999999998534, -0.7518505317661031 
1.4899999999998523, -0.7155497343374766 
1.4999999999998512, -0.6867538457233799 
1.5099999999998501, -0.6640430838357119 
1.519999999999849, -0.6463682844606263 
1.529999999999848, -0.6329596004137111 
1.5399999999998468, -0.6231817475229018 
1.5499999999998457, -0.616429382705673 
1.5599999999998446, -0.6120876160528401 
1.5699999999998435, -0.609549157160752 
1.5799999999998424, -0.6082591492568536 
1.5899999999998413, -0.6077556507793698 
1.5999999999998402, -0.6076876424058304 
1.6099999999998391, -0.6078115620780392 
1.619999999999838, -0.6079789859709558 
1.629999999999837, -0.6081272891881382 
1.6399999999998358, -0.6082743494821364 
1.6499999999998347, -0.6085066207234264 
1.6599999999998336, -0.6089509564414736 
1.6699999999998325, -0.6097352071056719 
1.6799999999998314, -0.6109487808331029 
1.6899999999998303, -0.612602665715047 
1.6999999999998292, -0.6145872269922723 
1.709999999999828, -0.6166576868108156 
1.719999999999827, -0.6184981323759223 
1.729999999999826, -0.619850554477505 
1.7399999999998248, -0.6206057781251351 
1.7499999999998237, -0.6207936764069283 
1.7599999999998226, -0.6205263119406194 
1.7699999999998215, -0.6199789699140797 
1.7799999999998204, -0.6194644390098586 
1.7899999999998193, -0.6196655155133957 
1.7999999999998182, -0.6221746555632456 
1.809999999999817, -0.6306477439686891 
1.819999999999816, -0.6530232707930181 
1.8299999999998149, -0.7046442656771029 
1.8399999999998138, -0.8074718340659832 
1.8499999999998127, -0.9700096330543803 
1.8599999999998116, -1.1554708667988334 
1.8699999999998105, -1.3104043182974112 
1.8799999999998094, -1.4179125851713903 
1.8899999999998083, -1.4867986212249602 
1.8999999999998072, -1.528592214541514 
1.909999999999806, -1.5521713088314413 
1.919999999999805, -1.5643324921262223 
1.9299999999998039, -1.5699994517906393 
1.9399999999998028, -1.5722375844925414 
1.9499999999998017, -1.572719438838504 
1.9599999999998006, -1.572391952023882 
1.9699999999997995, -1.5719636013025773 
1.9799999999997984, -1.5718969434668426 
1.9899999999997973, -1.5721232470133 
1.9999999999997962, -1.5723050368629337 
2.0099999999998173, -1.572371811609295 
2.0199999999998384, -1.572482526411631 
2.0299999999998595, -1.5725916923906897 
2.0399999999998806, -1.5723210680248338 
2.0499999999999017, -1.5711330375781878 
2.059999999999923, -1.568340313481772 
2.069999999999944, -1.5629806944710007 
2.079999999999965, -1.5537857326253548 
2.089999999999986, -1.5392060339498146 
2.100000000000007, -1.5171255511651947 
2.1100000000000283, -1.4838789529165075 
2.1200000000000494, -1.4326744584169755 
2.1300000000000705, -1.3537835635515243 
2.1400000000000916, -1.2466877999623107 
2.1500000000001127, -1.14514804252116 
2.160000000000134, -1.090182511066644 
2.170000000000155, -1.075536739352328 
2.180000000000176, -1.0760868542426842 
2.190000000000197, -1.0789448207924288 
2.2000000000002182, -1.0808141496726327 
2.2100000000002393, -1.0812989870802296 
2.2200000000002604, -1.08025184331385 
2.2300000000002815, -1.0768489555614313 
2.2400000000003026, -1.0684763135585214 
2.2500000000003237, -1.047666103932929 
2.260000000000345, -0.9940489580733372 
2.270000000000366, -0.8651775933632709 
2.280000000000387, -0.6434691895382736 
2.290000000000408, -0.4311253813405337 
2.3000000000004293, -0.3064161060699894 
2.3100000000004504, -0.244868476861173 
2.3200000000004715, -0.21388825334223882 
2.3300000000004926, -0.19711520158269125 
2.3400000000005137, -0.18735320081124512 
2.3500000000005348, -0.1813322925630482 
2.360000000000556, -0.177467143142565 
2.370000000000577, -0.17494743797997833 
2.380000000000598, -0.17335635299096352 
2.390000000000619, -0.17250592963135 
2.4000000000006403, -0.1723729264954798 
2.4100000000006614, -0.1730968306380078 
2.4200000000006825, -0.17504218646787512 
2.4300000000007036, -0.1789691944264337 
2.4400000000007247, -0.1864418537669381 
2.450000000000746, -0.20083192590650617 
2.460000000000767, -0.22994902163668143 
2.470000000000788, -0.29322908516743845 
2.480000000000809, -0.43916817534813923 
2.49000000000083, -0.7530409129229502 
2.5000000000008513, -1.202653360375297 
2.5100000000008724, -1.5405984314817833 
2.5200000000008935, -1.7061260755879029 
2.5300000000009146, -1.7772665926140312 
2.5400000000009357, -1.8068815116787622 
2.550000000000957, -1.8188925220633188 
2.560000000000978, -1.8234765978623213 
2.570000000000999, -1.8248426070642805 
2.58000000000102, -1.82476584377687 
2.5900000000010412, -1.8241782930354318 
2.6000000000010624, -1.8236031436632385 
2.6100000000010835, -1.8229766029624543 
2.6200000000011046, -1.8220488480646402 
2.6300000000011257, -1.8211217019560977 
2.6400000000011468, -1.8207078284138163 
2.650000000001168, -1.8205045009454626 
2.660000000001189, -1.8195258102943026 
2.67000000000121, -1.8162405069225702 
2.680000000001231, -1.80665817489547 
2.6900000000012523, -1.777174718865854 
2.7000000000012734, -1.6779669452174102 
2.7100000000012945, -1.357109486246561 
2.7200000000013156, -0.7449220522369913 
2.7300000000013367, -0.30651731957954154 
2.740000000001358, -0.13433043347971085 
2.750000000001379, -0.06886946059505684 
2.7600000000014, -0.040493916691324086 
2.770000000001421, -0.02655162801764786 
2.780000000001442, -0.019034688007704643 
2.7900000000014633, -0.014743836739371144 
2.8000000000014844, -0.01227338387111585 
2.8100000000015055, -0.0109859005972579 
2.8200000000015266, -0.010637175563611715 
2.8300000000015477, -0.011256071460039686 
2.840000000001569, -0.013173734046974575 
2.85000000000159, -0.01723700970339455 
2.860000000001611, -0.025438467135646875 
2.870000000001632, -0.042792883969124035 
2.8800000000016532, -0.08363953536714344 
2.8900000000016743, -0.19572969220271702 
2.9000000000016954, -0.5415103423559986 
2.9100000000017165, -1.2827005033056902 
2.9200000000017377, -1.8019058776379508 
2.9300000000017588, -1.9745804769891726 
2.94000000000178, -2.0326788978039607 
2.950000000001801, -2.0548985530026203 
2.960000000001822, -2.063798035074986 
2.970000000001843, -2.0671083879372043 
2.9800000000018643, -2.0678463918272723 
2.9900000000018854, -2.0672953956768962 
3.0000000000019065, -2.066045346491266 
3.0100000000019276, -2.0640984427915514 
3.0200000000019487, -2.06106203911782 
3.03000000000197, -2.057625913297566 
3.040000000001991, -2.0560389130999277 
3.050000000002012, -2.0561408108706907 
3.060000000002033, -2.0556468006135407 
3.070000000002054, -2.0523173306762854 
3.0800000000020753, -2.038724845996633 
3.0900000000020964, -1.969976114295878 
3.1000000000021175, -1.662310689650789 
3.1100000000021386, -3.023296118951597 
3.1200000000021597, -3.6986362757357503 
3.130000000002181, -3.7245494806141353 
3.140000000002202, -3.727923712695717 
3.150000000002223, -3.727046120788817 
3.160000000002244, -3.7211439567099425 
3.1700000000022652, -3.6798250514444697 
3.1800000000022863, -2.9300160725766022 
3.1900000000023074, -3.061567374415179 
3.2000000000023285, -3.117606189289324 
3.2100000000023496, -3.122663976020497 
3.2200000000023707, -3.1226303030843416 
3.230000000002392, -3.1220946834328047 
3.240000000002413, -3.1212632768230666 
3.250000000002434, -3.119504774660012 
3.260000000002455, -3.1189284040860064 
3.2700000000024763, -3.1181590240314088 
3.2800000000024974, -3.111830522272073 
3.2900000000025185, -3.082540418166041 
3.3000000000025396, -3.1479140177362344 
3.3100000000025607, -3.1977351112380656 
3.3200000000025818, -3.206952404831822 
3.330000000002603, -3.2088549692954964 
3.340000000002624, -3.207983343984766 
3.350000000002645, -3.2032788714046654 
3.360000000002666, -3.184021820049977 
3.3700000000026873, -3.0171671357350536 
3.3800000000027084, -0.345124566299821 
3.3900000000027295, 0.841615544353586 
3.4000000000027506, 0.9348795856495025 
3.4100000000027717, 0.9516602492163748 
3.420000000002793, 0.9562462059572093 
3.430000000002814, 0.9574794755083529 
3.440000000002835, 0.9574121891000272 
3.450000000002856, 0.9568165532740396 
3.460000000002877, 0.9565055481504311 
3.4700000000028983, 0.9581616747026909 
3.4800000000029194, 0.9642070165529543 
3.4900000000029405, 0.9746070171149255 
3.5000000000029616, 0.9850065180889697 
3.5100000000029827, 0.9919890640846507 
3.520000000003004, 0.9955926935857982 
3.530000000003025, 0.9969055618095558 
3.540000000003046, 0.9964836298537874 
3.550000000003067, 0.9937144322287834 
3.5600000000030882, 0.9845226323296231 
3.5700000000031094, 0.943781667698623 
3.5800000000031305, 0.5782521981613307 
3.5900000000031516, -1.4698860768665751 
3.6000000000031727, -2.058974917520084 
3.6100000000031938, -2.124566492015523 
3.620000000003215, -2.136505769104722 
3.630000000003236, -2.1390438582909197 
3.640000000003257, -2.1390763294836157 
3.650000000003278, -2.138653580089945 
3.6600000000032993, -2.1388415080004344 
3.6700000000033204, -2.1392129708471015 
3.6800000000033415, -2.1391053245749023 
3.6900000000033626, -2.1388648816881846 
3.7000000000033837, -2.1386967863242963 
3.710000000003405, -2.137759313548954 
3.720000000003426, -2.134153298988118 
3.730000000003447, -2.1215736195710084 
3.740000000003468, -2.0685134871155877 
3.750000000003489, -1.764750220704404 
3.7600000000035103, -0.5333666423618759 
3.7700000000035314, 0.19561967197279037 
3.7800000000035525, 0.3346749550513238 
3.7900000000035736, 0.36950075215859907 
3.8000000000035947, 0.38139434517683957 
3.810000000003616, 0.38622678579036357 
3.820000000003637, 0.3883106788080644 
3.830000000003658, 0.3891461056999977 
3.840000000003679, 0.3893771209614455 
3.8500000000037002, 0.38935558254212393 
3.8600000000037213, 0.38935275082591325 
3.8700000000037424, 0.38969274373507956 
3.8800000000037635, 0.39091901559028086 
3.8900000000037847, 0.3940416605482307 
3.9000000000038058, 0.40069278203396463 
3.910000000003827, 0.41236918691483354 
3.920000000003848, 0.4280548459653499 
3.930000000003869, 0.4433775092884469 
3.94000000000389, 0.45458042921223374 
3.9500000000039113, 0.4612419270035849 
3.9600000000039324, 0.46462684157696366 
3.9700000000039535, 0.4658819458598023 
3.9800000000039746, 0.4655362609546202 
3.9900000000039957, 0.46345161395069845 
4.000000000004016, 0.45860887420582525 
4.010000000003993, 0.44848069069084334 
4.02000000000397, 0.42845741546969596 
4.030000000003946, 0.39499655126885763 
4.040000000003923, 0.3560242553256955 
4.0500000000039, 0.3278100155776255 
4.0600000000038765, 0.31403002304520683 
4.070000000003853, 0.308581359637306 
4.08000000000383, 0.30657003919752335 
4.090000000003807, 0.3058003943388737 
4.100000000003783, 0.30542041332693737 
4.11000000000376, 0.30507085419184143 
4.120000000003737, 0.30453096878881514 
4.130000000003713, 0.3035575397921557 
4.14000000000369, 0.3017473817441032 
4.150000000003667, 0.298272222279843 
4.1600000000036434, 0.2911243158146974 
4.17000000000362, 0.27446636900376487 
4.180000000003597, 0.22688326118330907 
4.1900000000035735, 0.04367839866154993 
4.20000000000355, -0.7417453509431756 
4.210000000003527, -1.724752153116065 
4.220000000003504, -1.9710875708845428 
4.23000000000348, -2.019389418869101 
4.240000000003457, -2.0311625938632014 
4.250000000003434, -2.034219123917727 
4.26000000000341, -2.034578177804778 
4.270000000003387, -2.034129824908061 
4.280000000003364, -2.033848443919939 
4.2900000000033405, -2.033724911504184 
4.300000000003317, -2.0332428784382177 
4.310000000003294, -2.0326212684975915 
4.320000000003271, -2.0323601153736504 
4.330000000003247, -2.031973135270266 
4.340000000003224, -2.0301471825131836 
4.350000000003201, -2.0239162634276626 
4.360000000003177, -2.0015339417151545 
4.370000000003154, -1.8996368876386456 
4.380000000003131, -1.3414263272899638 
4.390000000003107, -0.1727035732898591 
4.400000000003084, 0.22088871679878302 
4.410000000003061, 0.3048879525612344 
4.4200000000030375, 0.32952983822949433 
4.430000000003014, 0.3387816586575372 
4.440000000002991, 0.3427472928830017 
4.450000000002968, 0.3445005018998925 
4.460000000002944, 0.34520166756180026 
4.470000000002921, 0.3453833216323472 
4.480000000002898, 0.34535348076702443 
4.490000000002874, 0.34536293130900353 
4.500000000002851, 0.3457321260522613 
4.510000000002828, 0.3470423489925048 
4.520000000002804, 0.3504738187599852 
4.530000000002781, 0.35816164243616255 
4.540000000002758, 0.37248770596304537 
4.5500000000027345, 0.3926692498647563 
4.560000000002711, 0.41269625316456837 
4.570000000002688, 0.42712140691069794 
4.580000000002665, 0.43549128575485796 
4.590000000002641, 0.4397217232537097 
4.600000000002618, 0.44144742227561606 
4.610000000002595, 0.4414770037910366 
4.620000000002571, 0.43990616791878356 
4.630000000002548, 0.43612416045122887 
4.640000000002525, 0.4286009112045681 
4.6500000000025015, 0.41489046788226097 
4.660000000002478, 0.39354313088264464 
4.670000000002455, 0.36860513993101457 
4.6800000000024315, 0.34847579323803796 
4.690000000002408, 0.33674147349371275 
4.700000000002385, 0.33112804467684087 
4.710000000002362, 0.3286483114169433 
4.720000000002338, 0.32755060336763997 
4.730000000002315, 0.32700575798276915 
4.740000000002292, 0.32661092755582893 
4.750000000002268, 0.3261109429181416 
4.760000000002245, 0.3252497309011203 
4.770000000002222, 0.3236409050474994 
4.7800000000021985, 0.3205273478275714 
4.790000000002175, 0.3141080454742714 
4.800000000002152, 0.29919468218011197 
4.810000000002129, 0.25690334805805365 
4.820000000002105, 0.09506551218218365 
4.830000000002082, -0.6296114530680207 
4.840000000002059, -1.6511506090470482 
4.850000000002035, -1.9203720891719773 
4.860000000002012, -1.9722514070439723 
4.870000000001989, -1.9847356625139372 
4.880000000001965, -1.9879932603202923 
4.890000000001942, -1.9884248841459418 
4.900000000001919, -1.9880030430207558 
4.9100000000018955, -1.9878169656780684 
4.920000000001872, -1.9879980519055658 
4.930000000001849, -1.9879336173062128 
4.940000000001826, -1.9875908656365233 
