t, s[1].omega / s[0].omega 
0, -0.8800053704940549 
0.009999999999999995, -0.8805744331779592 
0.019999999999999934, -0.881152932803087 
0.029999999999999874, -0.8816198002738533 
0.04000000000000012, -0.8818454837176711 
0.050000000000000405, -0.881755624619111 
0.06000000000000069, -0.8813699436547588 
0.07000000000000098, -0.8808070617415507 
0.08000000000000126, -0.8802728723477647 
0.09000000000000155, -0.8800346132296906 
0.10000000000000184, -0.8803606182987928 
0.11000000000000212, -0.8814297477014389 
0.12000000000000241, -0.883267409568037 
0.130000000000002, -0.8857626681461845 
0.1400000000000009, -0.8887468307949924 
0.1499999999999998, -0.8920668680211602 
0.1599999999999987, -0.8956178509944879 
0.1699999999999976, -0.8993464072588259 
0.1799999999999965, -0.903247148620968 
0.1899999999999954, -0.9073553902641643 
0.1999999999999943, -0.911723464201548 
0.2099999999999932, -0.9163676993730168 
0.2199999999999921, -0.9211877777226949 
0.229999999999991, -0.925897866325645 
0.2399999999999899, -0.93005911554026 
0.2499999999999888, -0.933263315722753 
0.2599999999999877, -0.9353360098521598 
0.2699999999999866, -0.9363682397658012 
0.2799999999999855, -0.9366011836970973 
0.2899999999999844, -0.9363349100419684 
0.2999999999999833, -0.9359492785204203 
0.3099999999999822, -0.9359972637785845 
0.3199999999999811, -0.9372324895418511 
0.32999999999998, -0.9403976063804438 
0.3399999999999789, -0.9458129056430991 
0.3499999999999778, -0.953158195587777 
0.35999999999997667, -0.9617159134760496 
0.36999999999997557, -0.9708025434912801 
0.37999999999997447, -0.9800075501213612 
0.38999999999997337, -0.9891902272545758 
0.39999999999997227, -0.9983724823135516 
0.40999999999997117, -1.0076167061226786 
0.41999999999997006, -1.0168945155412497 
0.42999999999996896, -1.0259450835904362 
0.43999999999996786, -1.0342067004136402 
0.44999999999996676, -1.0409829839141362 
0.45999999999996566, -1.0458246748748024 
0.46999999999996456, -1.0487663610857942 
0.47999999999996346, -1.0501911025354496 
0.48999999999996235, -1.0505635979663943 
0.49999999999996125, -1.0503166529769272 
0.5099999999999602, -1.0499240508921497 
0.519999999999959, -1.0500309901196196 
0.529999999999958, -1.0514094258715603 
0.5399999999999568, -1.0545723265752798 
0.5499999999999557, -1.0593685499880447 
0.5599999999999546, -1.0651087616132158 
0.5699999999999535, -1.0710755858187888 
0.5799999999999524, -1.0768412426648135 
0.5899999999999513, -1.082256514788983 
0.5999999999999502, -1.087322501776454 
0.6099999999999491, -1.0920925277039772 
0.619999999999948, -1.0966144285870878 
0.6299999999999469, -1.100881096166987 
0.6399999999999458, -1.1047853614365077 
0.6499999999999447, -1.108117434764166 
0.6599999999999436, -1.1106455357304672 
0.6699999999999425, -1.112243874556537 
0.6799999999999414, -1.112959603998315 
0.6899999999999403, -1.1129807051260165 
0.6999999999999392, -1.1125831902173606 
0.7099999999999381, -1.1121133889991854 
0.719999999999937, -1.1119480210299906 
0.7299999999999359, -1.1123561568602198 
0.7399999999999348, -1.113354783375543 
0.7499999999999337, -1.1147477824405994 
0.7599999999999326, -1.116310573202548 
0.7699999999999315, -1.1179047355915221 
0.7799999999999304, -1.1194546045866864 
0.7899999999999293, -1.1208867341757305 
0.7999999999999282, -1.122120192632576 
0.8099999999999271, -1.1230987726131623 
0.819999999999926, -1.123814102110694 
0.8299999999999249, -1.1242946153958007 
0.8399999999999238, -1.1245699638337623 
0.8499999999999227, -1.1246371142878848 
0.8599999999999216, -1.1244526043738337 
0.8699999999999205, -1.1239588102343536 
0.8799999999999194, -1.1231289318539905 
0.8899999999999183, -1.1220018783180434 
0.8999999999999172, -1.120684917311983 
0.9099999999999161, -1.1193166688696805 
0.919999999999915, -1.1180075269733922 
0.9299999999999139, -1.1168130683254274 
0.9399999999999128, -1.1157794683685345 
0.9499999999999117, -1.115001407101121 
0.9599999999999106, -1.1145881531787047 
0.9699999999999095, -1.1145426492694885 
0.9799999999999084, -1.1146952724612769 
0.9899999999999073, -1.1147728643576826 
0.9999999999999062, -1.1145105768803614 
1.0099999999999052, -1.1137153819109347 
1.019999999999904, -1.1122955676032222 
1.029999999999903, -1.1102778896948915 
1.039999999999902, -1.1077851056937855 
1.0499999999999008, -1.104964079855034 
1.0599999999998997, -1.1019144919004975 
1.0699999999998986, -1.0986665955622477 
1.0799999999998975, -1.0952046113065366 
1.0899999999998964, -1.0915029883815772 
1.0999999999998953, -1.0875505846915419 
1.1099999999998942, -1.0833676039751314 
1.119999999999893, -1.079048573271304 
1.129999999999892, -1.0748440616292858 
1.1399999999998909, -1.071198424979372 
1.1499999999998898, -1.068589837602035 
1.1599999999998887, -1.067193828658091 
1.1699999999998876, -1.0667175828214615 
1.1799999999998865, -1.0666079532005415 
1.1899999999998854, -1.0663382230908582 
1.1999999999998843, -1.0654909576018243 
1.2099999999998832, -1.063703475389635 
1.219999999999882, -1.0606552502298974 
1.229999999999881, -1.0561794309934167 
1.2399999999998799, -1.0504062188612817 
1.2499999999998788, -1.0437357823292783 
1.2599999999998777, -1.0366143595805932 
1.2699999999998766, -1.0293321040676648 
1.2799999999998755, -1.0219855087261094 
1.2899999999998744, -1.014549091435748 
1.2999999999998733, -1.0069667446122783 
1.3099999999998722, -0.9992373574687343 
1.319999999999871, -0.9915105091499049 
1.32999999999987, -0.984182629404798 
1.3399999999998689, -0.9778943100574645 
1.3499999999998678, -0.9732874877946814 
1.3599999999998666, -0.9705947400897671 
1.3699999999998655, -0.9694550465289604 
1.3799999999998644, -0.9691691200717903 
1.3899999999998633, -0.9690726174695836 
1.3999999999998622, -0.9686831404772459 
1.4099999999998611, -0.9676458596596416 
1.41999999999986, -0.9656592110665281 
1.429999999999859, -0.9625006063419084 
1.4399999999998578, -0.9581544691174455 
1.4499999999998567, -0.9528994481680039 
1.4599999999998556, -0.9471970625978192 
1.4699999999998545, -0.9414582860114807 
1.4799999999998534, -0.9359056738533017 
1.4899999999998523, -0.9305910564144806 
1.4999999999998512, -0.9254798584380144 
1.5099999999998501, -0.9205254081898065 
1.519999999999849, -0.9157128398123515 
1.529999999999848, -0.9110821665520057 
1.5399999999998468, -0.9067449587422557 
1.5499999999998457, -0.9028919239563825 
1.5599999999998446, -0.899761938839092 
1.5699999999998435, -0.8975471787742354 
1.5799999999998424, -0.8962730591321992 
1.5899999999998413, -0.8957526333772045 
1.5999999999998402, -0.8956621816586928 
1.6099999999998391, -0.8956651269418539 
1.619999999999838, -0.8954916411172753 
1.629999999999837, -0.8949631369044594 
1.6399999999998358, -0.8940026665279708 
1.6499999999998347, -0.8926472181853675 
1.6599999999998336, -0.8910326380279999 
1.6699999999998325, -0.8893302974208852 
1.6799999999998314, -0.8876704402616395 
1.6899999999998303, -0.8861029697335457 
1.6999999999998292, -0.8846065471944538 
1.709999999999828, -0.8831268270152165 
1.719999999999827, -0.8816221400447034 
1.729999999999826, -0.8800977581624547 
1.7399999999998248, -0.8786152129992522 
1.7499999999998237, -0.8772745221790977 
1.7599999999998226, -0.8761797070485615 
1.7699999999998215, -0.8754074679504231 
1.7799999999998204, -0.8749967769916879 
1.7899999999998193, -0.8749576334003712 
1.7999999999998182, -0.8752789999204602 
1.809999999999817, -0.8759229928278585 
1.819999999999816, -0.8768162287778685 
1.8299999999998149, -0.8778584456403609 
1.8399999999998138, -0.8789520325264426 
1.8499999999998127, -0.8800360376760787 
1.8599999999998116, -0.8811046275176194 
1.8699999999998105, -0.8821988830412598 
1.8799999999998094, -0.883373382747345 
1.8899999999998083, -0.8846503874795637 
1.8999999999998072, -0.8859800456000693 
1.909999999999806, -0.887228855696655 
1.919999999999805, -0.888217738028372 
1.9299999999998039, -0.8888009237459172 
1.9399999999998028, -0.8889330664353686 
1.9499999999998017, -0.8886854328539175 
1.9599999999998006, -0.888232252598867 
1.9699999999997995, -0.8878420029319265 
1.9799999999997984, -0.8878619958266425 
1.9899999999997973, -0.888649708076442 
1.9999999999997962, -0.8904448673614395 
2.0099999999998173, -0.8932680223140853 
2.0199999999998384, -0.8969408560653364 
2.0299999999998595, -0.901206685372712 
2.0399999999998806, -0.9058459011280606 
2.0499999999999017, -0.9107256431774898 
2.059999999999923, -0.9157984908362515 
2.069999999999944, -0.9210831799540689 
2.079999999999965, -0.9266365193415032 
2.089999999999986, -0.9325035378920505 
2.100000000000007, -0.9386323190600105 
2.1100000000000283, -0.944771311506815 
2.1200000000000494, -0.9504379476414911 
2.1300000000000705, -0.9550759011914719 
2.1400000000000916, -0.9583416684452981 
2.1500000000001127, -0.960247650852103 
2.160000000000134, -0.9610520474662735 
2.170000000000155, -0.9610882841458064 
2.180000000000176, -0.960715691060348 
2.190000000000197, -0.9604050136399376 
2.2000000000002182, -0.9608558146349522 
2.2100000000002393, -0.9629437097029403 
2.2200000000002604, -0.9673380499037908 
2.2300000000002815, -0.9740404863492198 
2.2400000000003026, -0.9823817073552906 
2.2500000000003237, -0.9914974537624686 
2.260000000000345, -1.000761061448581 
2.270000000000366, -1.0098893515446759 
2.280000000000387, -1.0188416748977664 
2.290000000000408, -1.0276799051325831 
2.3000000000004293, -1.0364399416219539 
2.3100000000004504, -1.0450035780015006 
2.3200000000004715, -1.052998442951155 
2.3300000000004926, -1.0598439789388476 
2.3400000000005137, -1.0650246252701094 
2.3500000000005348, -1.068392141607719 
2.360000000000556, -1.0701875640531 
2.370000000000577, -1.070826305955545 
2.380000000000598, -1.0707309099368305 
2.390000000000619, -1.0703381321796166 
2.4000000000006403, -1.0702013026259487 
2.4100000000006614, -1.070987742054406 
2.4200000000006825, -1.0731941526402407 
2.4300000000007036, -1.0767835048543064 
2.4400000000007247, -1.081226502444933 
2.450000000000746, -1.0859162901916226 
2.460000000000767, -1.090468024407554 
2.470000000000788, -1.0947309120600015 
2.480000000000809, -1.0986825154530702 
2.49000000000083, -1.1023495949588544 
2.5000000000008513, -1.1057709599853263 
2.5100000000008724, -1.1089670632124669 
2.5200000000008935, -1.1119016377986166 
2.5300000000009146, -1.114457140230993 
2.5400000000009357, -1.1164614634478442 
2.550000000000957, -1.1177718625997835 
2.560000000000978, -1.118357665222133 
2.570000000000999, -1.1183199928330558 
2.58000000000102, -1.1178649501449036 
2.5900000000010412, -1.1172759307845648 
2.6000000000010624, -1.1168655840128872 
2.6100000000010835, -1.1168627392281043 
2.6200000000011046, -1.1173033679196522 
2.6300000000011257, -1.1180629011788321 
2.6400000000011468, -1.1189974688085873 
2.650000000001168, -1.1200246451011868 
2.660000000001189, -1.1210883993190053 
2.67000000000121, -1.122100452597944 
2.680000000001231, -1.12294280067576 
2.6900000000012523, -1.123517171379045 
2.7000000000012734, -1.123784190111786 
2.7100000000012945, -1.1237646589071226 
2.7200000000013156, -1.1235077417264812 
2.7300000000013367, -1.123048363589112 
2.740000000001358, -1.122381775099995 
2.750000000001379, -1.1214712157077842 
2.7600000000014, -1.120282748020998 
2.770000000001421, -1.1188236548941857 
2.780000000001442, -1.1171575570677525 
2.7900000000014633, -1.1153826582198731 
2.8000000000014844, -1.11358877204859 
2.8100000000015055, -1.1118428334420665 
2.8200000000015266, -1.11023478493202 
2.8300000000015477, -1.1089256637392526 
2.840000000001569, -1.1080915764369774 
2.85000000000159, -1.1077686941958131 
2.860000000001611, -1.1077691789352966 
2.870000000001632, -1.1077691472374906 
2.8800000000016532, -1.1074461586129314 
2.8900000000016743, -1.1065452968060856 
2.9000000000016954, -1.104903615629531 
2.9100000000017165, -1.1024859661903477 
2.9200000000017377, -1.0994010388034785 
2.9300000000017588, -1.0958422620877948 
2.94000000000178, -1.0919837389016611 
2.950000000001801, -1.087915280338868 
2.960000000001822, -1.083645938269027 
2.970000000001843, -1.0791434954004024 
2.9800000000018643, -1.0743734707414323 
2.9900000000018854, -1.0693323426465766 
3.0000000000019065, -1.0641018765256025 
3.0100000000019276, -1.0589413214562424 
3.0200000000019487, -1.0543453829095815 
3.03000000000197, -1.0508998211760532 
3.040000000001991, -1.0489049304867266 
3.050000000002012, -1.0481207971675035 
3.060000000002033, -1.047948688355864 
3.070000000002054, -1.0477845144016813 
3.0800000000020753, -1.0471621726846232 
3.0900000000020964, -1.0456961816898853 
3.1000000000021175, -1.0430217813550366 
3.1100000000021386, -1.0388644861614809 
3.1200000000021597, -1.0332179944244921 
3.130000000002181, -1.0264269396074408 
3.140000000002202, -1.019012858346978 
3.150000000002223, -1.011400242733169 
3.160000000002244, -1.0037918034620605 
3.1700000000022652, -0.9962128645446802 
3.1800000000022863, -0.9886122067481958 
3.1900000000023074, -0.9809537383906648 
3.2000000000023285, -0.9732996640809576 
3.2100000000023496, -0.9658963627796332 
3.2200000000023707, -0.9592215642297173 
3.230000000002392, -0.9538810018464068 
3.240000000002413, -0.9503013731861933 
3.250000000002434, -0.9484282676402677 
3.260000000002455, -0.9477490387109139 
3.2700000000024763, -0.9476041819514659 
3.2800000000024974, -0.9474458454095304 
3.2900000000025185, -0.9468840107652158 
3.3000000000025396, -0.9456250170535985 
3.3100000000025607, -0.9434450968622932 
3.3200000000025818, -0.940255979351065 
3.330000000002603, -0.9361979110296043 
3.340000000002624, -0.931616915698506 
3.350000000002645, -0.9268960409215415 
3.360000000002666, -0.9222933210374835 
3.3700000000026873, -0.9179049587441194 
3.3800000000027084, -0.9137210067003079 
3.3900000000027295, -0.9096973628520487 
3.4000000000027506, -0.9058054844418384 
3.4100000000027717, -0.9020544362016876 
3.420000000002793, -0.8984960773544465 
3.430000000002814, -0.8952275471934321 
3.440000000002835, -0.892391310340167 
3.450000000002856, -0.8901517109682497 
3.460000000002877, -0.8886299861222738 
3.4700000000028983, -0.8878241545355676 
3.4800000000029194, -0.8875798500301768 
3.4900000000029405, -0.8876433318923567 
3.5000000000029616, -0.8877509236200574 
3.5100000000029827, -0.8876942363372977 
3.520000000003004, -0.887350057489242 
3.530000000003025, -0.8866932705187567 
3.540000000003046, -0.8857929216725122 
3.550000000003067, -0.8847749844075083 
3.5600000000030882, -0.8837597107411318 
3.5700000000031094, -0.8828103857759844 
3.5800000000031305, -0.8819188508832552 
3.5900000000031516, -0.881026092901292 
3.6000000000031727, -0.8800644358375214 
3.6100000000031938, -0.8790028369008311 
3.620000000003215, -0.8778752035143812 
3.630000000003236, -0.8767810455489524 
3.640000000003257, -0.8758593962039656 
3.650000000003278, -0.8752446214482671 
3.6600000000032993, -0.875023924162765 
3.6700000000033204, -0.8752213386878015 
3.6800000000033415, -0.875813188955622 
3.6900000000033626, -0.8767525180392708 
3.7000000000033837, -0.8779800130763811 
3.710000000003405, -0.8794236618477884 
3.720000000003426, -0.8810048849601693 
3.730000000003447, -0.8826589263940173 
3.740000000003468, -0.8843582698740414 
3.750000000003489, -0.8861208706608548 
3.7600000000035103, -0.8879926986313462 
3.7700000000035314, -0.890007153025827 
3.7800000000035525, -0.8921343311361051 
3.7900000000035736, -0.8942434946319031 
3.8000000000035947, -0.8961150274019204 
3.810000000003616, -0.897522498969845 
3.820000000003637, -0.8983375223357987 
3.830000000003658, -0.8985756374345237 
3.840000000003679, -0.8983747200489214 
3.8500000000037002, -0.8979697766561605 
3.8600000000037213, -0.8977002389067217 
3.8700000000037424, -0.8980095893778237 
3.8800000000037635, -0.8993588061264486 
3.8900000000037847, -0.9020437293874795 
3.9000000000038058, -0.9060506717626344 
3.910000000003827, -0.9110967489374756 
3.920000000003848, -0.9168134485847181 
3.930000000003869, -0.922909490544944 
3.94000000000389, -0.929229624892385 
3.9500000000039113, -0.9357385233941622 
3.9600000000039324, -0.9424783811156875 
3.9700000000039535, -0.9495128454911803 
3.9800000000039746, -0.9568420112946543 
3.9900000000039957, -0.9642831951282893 
4.000000000004016, -0.9713790321519857 
4.010000000003993, -0.9774801492955538 
4.02000000000397, -0.9820564111277736 
4.030000000003946, -0.9849769988854005 
4.040000000003923, -0.9864790402896524 
4.0500000000039, -0.9869432821488495 
4.0600000000038765, -0.9867533072965953 
4.070000000003853, -0.9863294029458162 
4.08000000000383, -0.9862679709924558 
4.090000000003807, -0.9874124987424515 
4.100000000003783, -0.9906114352109624 
4.11000000000376, -0.9961863459370663 
4.120000000003737, -1.0036647631777478 
4.130000000003713, -1.012144572170937 
4.14000000000369, -1.0208499242954996 
4.150000000003667, -1.0293700999437443 
4.1600000000036434, -1.0375952706217269 
4.17000000000362, -1.045567739803867 
4.180000000003597, -1.0533544208574246 
4.1900000000035735, -1.0609378679547867 
4.20000000000355, -1.0681183825455483 
4.210000000003527, -1.0744876201423168 
4.220000000003504, -1.0795716573266416 
4.23000000000348, -1.0830970589000815 
4.240000000003457, -1.0851319568465931 
4.250000000003434, -1.0859835815950925 
4.26000000000341, -1.0860305371546293 
4.270000000003387, -1.0856725796320659 
4.280000000003364, -1.0853896840966863 
4.2900000000033405, -1.085752638226292 
4.300000000003317, -1.0872173881375775 
4.310000000003294, -1.0898219206288928 
4.320000000003271, -1.09317789850463 
4.330000000003247, -1.096793154503637 
4.340000000003224, -1.1003369792521314 
4.350000000003201, -1.1036657629177344 
4.360000000003177, -1.1067372210160777 
4.370000000003154, -1.1095483679030795 
4.380000000003131, -1.1121166709303865 
4.390000000003107, -1.1144667978293017 
4.400000000003084, -1.116601259297453 
4.410000000003061, -1.1184678696196473 
4.4200000000030375, -1.1199550759671548 
4.430000000003014, -1.1209358828676423 
4.440000000002991, -1.1213395913749014 
4.450000000002968, -1.1211994969649302 
4.460000000002944, -1.120655382266734 
4.470000000002921, -1.1199308716741083 
4.480000000002898, -1.1192846379641692 
4.490000000002874, -1.1189156417700639 
4.500000000002851, -1.118877086447398 
4.510000000002828, -1.11910154601622 
4.520000000002804, -1.1195111776201636 
4.530000000002781, -1.1200739851541577 
4.540000000002758, -1.1207561362460896 
4.5500000000027345, -1.1214589682763128 
4.560000000002711, -1.122029105476674 
4.570000000002688, -1.1223229908266783 
4.580000000002665, -1.1222606592538797 
4.590000000002641, -1.121841029032078 
4.600000000002618, -1.1211199743617368 
4.610000000002595, -1.1201642433128358 
4.620000000002571, -1.1190093865123512 
4.630000000002548, -1.1176479170204652 
4.640000000002525, -1.1160511846999892 
4.6500000000025015, -1.1142064225138646 
4.660000000002478, -1.1121415271272816 
4.670000000002455, -1.1099189302255297 
4.6800000000024315, -1.1076086452447724 
4.690000000002408, -1.1052839514507042 
4.700000000002385, -1.1030696686172237 
4.710000000002362, -1.1011884856948502 
4.720000000002338, -1.0998912094469908 
4.730000000002315, -1.0992649764578544 
4.740000000002292, -1.0991173583256064 
4.750000000002268, -1.0990769229897963 
4.760000000002245, -1.0987645244802762 
4.770000000002222, -1.0978678652482543 
4.7800000000021985, -1.0961514096914102 
4.790000000002175, -1.0934943606405136 
4.800000000002152, -1.0899494342813414 
4.810000000002129, -1.0857279773758877 
4.820000000002105, -1.0810829719446269 
4.830000000002082, -1.0761892582053352 
4.840000000002059, -1.071107597964962 
4.850000000002035, -1.0658185021491244 
4.860000000002012, -1.0602744495330683 
4.870000000001989, -1.0544482752885977 
4.880000000001965, -1.0483950034973755 
4.890000000001942, -1.0423487853291955 
4.900000000001919, -1.0368048815848563 
4.9100000000018955, -1.0324235116131686 
4.920000000001872, -1.0296585377390282 
4.930000000001849, -1.0284008420690127 
