t, s[1].omega / s[0].omega 
0, -1.1999056187081636 
0.009999999999999995, -1.189862548254968 
0.019999999999999934, -1.178617058233786 
0.029999999999999874, -1.1659941682604253 
0.04000000000000012, -1.1517031819309236 
0.050000000000000405, -1.1356381681579266 
0.06000000000000069, -1.1184747074339838 
0.07000000000000098, -1.102307178961309 
0.08000000000000126, -1.0901420750953918 
0.09000000000000155, -1.0835997307737562 
0.10000000000000184, -1.0815086372379354 
0.11000000000000212, -1.0814788719341142 
0.12000000000000241, -1.0817715334562574 
0.130000000000002, -1.081517466389171 
0.1400000000000009, -1.0801508742197714 
0.1499999999999998, -1.0768545496505206 
0.1599999999999987, -1.0700926525284626 
0.1699999999999976, -1.0573530590978968 
0.1799999999999965, -1.0358580811348939 
0.1899999999999954, -1.004897465700369 
0.1999999999999943, -0.9675848126627787 
0.2099999999999932, -0.9288562897645596 
0.2199999999999921, -0.8922043480526177 
0.229999999999991, -0.8589524505559691 
0.2399999999999899, -0.8292723684361112 
0.2499999999999888, -0.8031256085020029 
0.2599999999999877, -0.7806682817589476 
0.2699999999999866, -0.762251061291292 
0.2799999999999855, -0.7481757083701017 
0.2899999999999844, -0.7383911810064278 
0.2999999999999833, -0.7323478942092969 
0.3099999999999822, -0.7291218515769817 
0.3199999999999811, -0.7277031378203538 
0.32999999999998, -0.727241257422439 
0.3399999999999789, -0.7271363693829465 
0.3499999999999778, -0.7270075231554405 
0.35999999999997667, -0.7266227679265087 
0.36999999999997557, -0.7258537182334847 
0.37999999999997447, -0.7246735370510677 
0.38999999999997337, -0.7231720490674959 
0.39999999999997227, -0.7215353187365634 
0.40999999999997117, -0.7199709686330894 
0.41999999999997006, -0.718626827465837 
0.42999999999996896, -0.71755448492818 
0.43999999999996786, -0.7167179812252366 
0.44999999999996676, -0.7160248551288972 
0.45999999999996566, -0.7153683122779582 
0.46999999999996456, -0.7146727652962898 
0.47999999999996346, -0.7139278194720811 
0.48999999999996235, -0.7132014823494358 
0.49999999999996125, -0.7126373077318497 
0.5099999999999602, -0.7124410940841099 
0.519999999999959, -0.7128538071294893 
0.529999999999958, -0.7141077276022633 
0.5399999999999568, -0.7163775485152082 
0.5499999999999557, -0.719751098735237 
0.5599999999999546, -0.7242374699072962 
0.5699999999999535, -0.7298081301988758 
0.5799999999999524, -0.7364513149585903 
0.5899999999999513, -0.7442222752796168 
0.5999999999999502, -0.7532813193730242 
0.6099999999999491, -0.7639123064641957 
0.619999999999948, -0.7764955274713349 
0.6299999999999469, -0.7913626034126094 
0.6399999999999458, -0.8084154830452779 
0.6499999999999447, -0.8265391321539084 
0.6599999999999436, -0.8434380100435213 
0.6699999999999425, -0.8567524081368564 
0.6799999999999414, -0.865604314224182 
0.6899999999999403, -0.8706788364871043 
0.6999999999999392, -0.8731643493591994 
0.7099999999999381, -0.8740015147643978 
0.719999999999937, -0.8737449454553416 
0.7299999999999359, -0.8727157997174473 
0.7399999999999348, -0.8713222077823627 
0.7499999999999337, -0.8707615869404736 
0.7599999999999326, -0.8745601443728148 
0.7699999999999315, -0.8908870358116632 
0.7799999999999304, -0.9324914117500004 
0.7899999999999293, -1.0071628350276125 
0.7999999999999282, -1.1031654437351253 
0.8099999999999271, -1.196214619107585 
0.819999999999926, -1.271952811250809 
0.8299999999999249, -1.3292849524996444 
0.8399999999999238, -1.3715312149105423 
0.8499999999999227, -1.4015758332616897 
0.8599999999999216, -1.4214950590457518 
0.8699999999999205, -1.4334287226732632 
0.8799999999999194, -1.4397834249772836 
0.8899999999999183, -1.4426968239620463 
0.8999999999999172, -1.4436512059183024 
0.9099999999999161, -1.4435707560925077 
0.919999999999915, -1.4431416160331314 
0.9299999999999139, -1.442978744295187 
0.9399999999999128, -1.4433883877262932 
0.9499999999999117, -1.4441575278500722 
0.9599999999999106, -1.4449191735070899 
0.9699999999999095, -1.44555478222364 
0.9799999999999084, -1.446110555920972 
0.9899999999999073, -1.4465201762135713 
0.9999999999999062, -1.4465446498307286 
1.0099999999999052, -1.445890398784685 
1.019999999999904, -1.4442871213427473 
1.029999999999903, -1.4415157233202662 
1.039999999999902, -1.437427189414239 
1.0499999999999008, -1.4319099928092212 
1.0599999999998997, -1.424779526117024 
1.0699999999998986, -1.4156265704861313 
1.0799999999998975, -1.403662476882845 
1.0899999999998964, -1.3876630581887726 
1.0999999999998953, -1.3665355935896846 
1.1099999999998942, -1.3417010556426345 
1.119999999999893, -1.3201291178754808 
1.129999999999892, -1.3093297224369644 
1.1399999999998909, -1.307650492148826 
1.1499999999998898, -1.30892338882225 
1.1599999999998887, -1.3098649889676621 
1.1699999999998876, -1.3095367127095225 
1.1799999999998865, -1.3071832316752068 
1.1899999999998854, -1.3004797708729663 
1.1999999999998843, -1.281446171448308 
1.2099999999998832, -1.2200480571672536 
1.219999999999882, -1.0003749447665393 
1.229999999999881, -0.42591004365867813 
1.2399999999998799, 0.05319429303083267 
1.2499999999998788, 0.20407105997590663 
1.2599999999998777, 0.24838372022377864 
1.2699999999998766, 0.2642565159185049 
1.2799999999998755, 0.2708907420869925 
1.2899999999998744, 0.27386113542309287 
1.2999999999998733, 0.27512894154655165 
1.3099999999998722, 0.2755198972931404 
1.319999999999871, 0.2754598092505564 
1.32999999999987, 0.2752267577279227 
1.3399999999998689, 0.2750505411865978 
1.3499999999998678, 0.27517291985722747 
1.3599999999998666, 0.2759230391627293 
1.3699999999998655, 0.2778359923581687 
1.3799999999998644, 0.2817865682004319 
1.3899999999998633, 0.2889145396796199 
1.3999999999998622, 0.2998138584832379 
1.4099999999998611, 0.313079113569246 
1.41999999999986, 0.32547257672503715 
1.429999999999859, 0.3345765619004698 
1.4399999999998578, 0.3401534768384451 
1.4499999999998567, 0.34306603525409896 
1.4599999999998556, 0.34413018074861934 
1.4699999999998545, 0.34373442994122316 
1.4799999999998534, 0.3417832286517385 
1.4899999999998523, 0.3376267872042311 
1.4999999999998512, 0.3299713516460717 
1.5099999999998501, 0.31725067781897837 
1.519999999999849, 0.29943925845089664 
1.529999999999848, 0.2802717307228119 
1.5399999999998468, 0.2649824278389615 
1.5499999999998457, 0.25543112430949466 
1.5599999999998446, 0.25025981953494864 
1.5699999999998435, 0.24762350012997864 
1.5799999999998424, 0.2463071954193783 
1.5899999999998413, 0.24565382942103317 
1.5999999999998402, 0.24530278780981804 
1.6099999999998391, 0.24501353041184362 
1.619999999999838, 0.24456717467286704 
1.629999999999837, 0.24369857241249915 
1.6399999999998358, 0.24200212792906045 
1.6499999999998347, 0.2387089568429419 
1.6599999999998336, 0.23205592321645407 
1.6699999999998325, 0.2172402414930982 
1.6799999999998314, 0.17858240894946992 
1.6899999999998303, 0.05560822829308352 
1.6999999999998292, -0.3401114493732661 
1.709999999999828, -0.9203706536839824 
1.719999999999827, -1.1838446477341802 
1.729999999999826, -1.259537484319592 
1.7399999999998248, -1.282379239531503 
1.7499999999998237, -1.2900087422489368 
1.7599999999998226, -1.2924372790757517 
1.7699999999998215, -1.29257664656008 
1.7799999999998204, -1.2913217714805079 
1.7899999999998193, -1.2893688970885562 
1.7999999999998182, -1.2892091534170826 
1.809999999999817, -1.2969005564594696 
1.819999999999816, -1.3169042402827034 
1.8299999999998149, -1.343560546073517 
1.8399999999998138, -1.367904859999235 
1.8499999999998127, -1.3866671562064112 
1.8599999999998116, -1.400563112198649 
1.8699999999998105, -1.4110058044109828 
1.8799999999998094, -1.4190079663868724 
1.8899999999998083, -1.425121472049383 
1.8999999999998072, -1.4295986711010964 
1.909999999999806, -1.4325734002062134 
1.919999999999805, -1.4342056821722788 
1.9299999999998039, -1.4347348476222592 
1.9399999999998028, -1.4344560519637273 
1.9499999999998017, -1.4336917940775291 
1.9599999999998006, -1.4327468606091904 
1.9699999999997995, -1.4317858264833474 
1.9799999999997984, -1.430779872387648 
1.9899999999997973, -1.4297135953452345 
1.9999999999997962, -1.4288060606414272 
2.0099999999998173, -1.4283372094184887 
2.0199999999998384, -1.4282299747548524 
2.0299999999998595, -1.4280157315312487 
2.0399999999998806, -1.4271039551234757 
2.0499999999999017, -1.4248136464987653 
2.059999999999923, -1.4201927705166155 
2.069999999999944, -1.4119506713259837 
2.079999999999965, -1.3986958846532052 
2.089999999999986, -1.3792698844265652 
2.100000000000007, -1.3526235113021123 
2.1100000000000283, -1.3171306137483152 
2.1200000000000494, -1.2700695227045318 
2.1300000000000705, -1.2087783684575326 
2.1400000000000916, -1.135920436890387 
2.1500000000001127, -1.0664204752693518 
2.160000000000134, -1.01965640504044 
2.170000000000155, -0.9992583061290741 
2.180000000000176, -0.9944325714253868 
2.190000000000197, -0.9950230205384598 
2.2000000000002182, -0.9963797393400924 
2.2100000000002393, -0.9970939359451417 
2.2200000000002604, -0.9967655778602044 
2.2300000000002815, -0.9949652976543282 
2.2400000000003026, -0.9906561692831047 
2.2500000000003237, -0.9815085037749588 
2.260000000000345, -0.9630996556008572 
2.270000000000366, -0.929545728225875 
2.280000000000387, -0.8787090043875907 
2.290000000000408, -0.8183805570246914 
2.3000000000004293, -0.761177567987778 
2.3100000000004504, -0.7141687998236368 
2.3200000000004715, -0.6778439694657282 
2.3300000000004926, -0.6501449817539406 
2.3400000000005137, -0.6289219891733784 
2.3500000000005348, -0.612572437764052 
2.360000000000556, -0.6000059030001256 
2.370000000000577, -0.5904789308313114 
2.380000000000598, -0.5834499458774162 
2.390000000000619, -0.5784801023353191 
2.4000000000006403, -0.5751779400810271 
2.4100000000006614, -0.5731793630560345 
2.4200000000006825, -0.572150928778433 
2.4300000000007036, -0.5718030451315232 
2.4400000000007247, -0.5719025237225325 
2.450000000000746, -0.5722801673982757 
2.460000000000767, -0.5728347542195222 
2.470000000000788, -0.5735359167347631 
2.480000000000809, -0.574424400632248 
2.49000000000083, -0.5756041547739253 
2.5000000000008513, -0.577223135083867 
2.5100000000008724, -0.5794441376989429 
2.5200000000008935, -0.5823998089799713 
2.5300000000009146, -0.5861124488094047 
2.5400000000009357, -0.5903810767840476 
2.550000000000957, -0.5947283328878993 
2.560000000000978, -0.5985477403703936 
2.570000000000999, -0.6013968262629699 
2.58000000000102, -0.60315521322958 
2.5900000000010412, -0.603934150402545 
2.6000000000010624, -0.6039040788678403 
2.6100000000010835, -0.6031934365155001 
2.6200000000011046, -0.6018873250229437 
2.6300000000011257, -0.600147393935105 
2.6400000000011468, -0.5986374002881784 
2.650000000001168, -0.6000192115374158 
2.660000000001189, -0.6146338133408278 
2.67000000000121, -0.6844977431141527 
2.680000000001231, -0.9817682371204371 
2.6900000000012523, -1.7149478988682145 
2.7000000000012734, -2.1235242303109683 
2.7100000000012945, -2.2235887413502065 
2.7200000000013156, -2.253766068569006 
2.7300000000013367, -2.2652750535348942 
2.740000000001358, -2.2699554031464304 
2.750000000001379, -2.2714710675899084 
2.7600000000014, -2.271185858675479 
2.770000000001421, -2.269564201152521 
2.780000000001442, -2.266341647382606 
2.7900000000014633, -2.2600765268832315 
2.8000000000014844, -2.249706445831326 
2.8100000000015055, -2.2424154418115982 
2.8200000000015266, -2.243306112100763 
2.8300000000015477, -2.2447070534047318 
2.840000000001569, -2.243688832200534 
2.85000000000159, -2.2385094046843035 
2.860000000001611, -2.228961469392835 
2.870000000001632, -2.2492124345945905 
2.8800000000016532, -2.2930798212139876 
2.8900000000016743, -2.3144880445985727 
2.9000000000016954, -2.3228087959494417 
2.9100000000017165, -2.3262604982806305 
2.9200000000017377, -2.327435366862513 
2.9300000000017588, -2.327013672605251 
2.94000000000178, -2.324915659340134 
2.950000000001801, -2.320273248317649 
2.960000000001822, -2.310186822414477 
2.970000000001843, -2.284229711161722 
2.9800000000018643, -2.207882182719749 
2.9900000000018854, -2.096060064161012 
3.0000000000019065, -2.0977382255038846 
3.0100000000019276, -2.1141149580054943 
3.0200000000019487, -2.1189126380032084 
3.03000000000197, -2.1193020674485434 
3.040000000001991, -2.1176844603257883 
3.050000000002012, -2.1168214321992833 
3.060000000002033, -2.1217135812319055 
3.070000000002054, -2.129097307586949 
3.0800000000020753, -2.1338733654899853 
3.0900000000020964, -2.13626844046589 
3.1000000000021175, -2.1372937596545443 
3.1100000000021386, -2.137170581552869 
3.1200000000021597, -2.1355648345039993 
3.130000000002181, -2.1316072995655286 
3.140000000002202, -2.1233263182276487 
3.150000000002223, -2.105702292657754 
3.160000000002244, -2.0629164984294968 
3.1700000000022652, -1.9340198017817927 
3.1800000000022863, -1.553879574515659 
3.1900000000023074, -1.13680338064406 
3.2000000000023285, -1.0235446282034881 
3.2100000000023496, -1.020249076458086 
3.2200000000023707, -1.0300281218842884 
3.230000000002392, -1.036705353047394 
3.240000000002413, -1.04004413933257 
3.250000000002434, -1.0411813770923115 
3.260000000002455, -1.0405952235491414 
3.2700000000024763, -1.037850082895027 
3.2800000000024974, -1.0308827496468507 
3.2900000000025185, -1.0132364448005053 
3.3000000000025396, -0.964278795233987 
3.3100000000025607, -0.8203542033595527 
3.3200000000025818, -0.48243467748598956 
3.330000000002603, -0.12160708629318066 
3.340000000002624, 0.04331339205098483 
3.350000000002645, 0.10133483194302237 
3.360000000002666, 0.12370352848559567 
3.3700000000026873, 0.133511959600443 
3.3800000000027084, 0.13820419580329737 
3.3900000000027295, 0.14051229724267789 
3.4000000000027506, 0.14159163396442048 
3.4100000000027717, 0.14200747362358734 
3.420000000002793, 0.14208125963639745 
3.430000000002814, 0.14202523394664976 
3.440000000002835, 0.1420101250601013 
3.450000000002856, 0.14223191792749376 
3.460000000002877, 0.14303748588405257 
3.4700000000028983, 0.1452303155462657 
3.4800000000029194, 0.1508424306339413 
3.4900000000029405, 0.164703289390183 
3.5000000000029616, 0.19489181412868656 
3.5100000000029827, 0.24298913132635175 
3.520000000003004, 0.2908347173308058 
3.530000000003025, 0.32177436454575525 
3.540000000003046, 0.337569216985597 
3.550000000003067, 0.34500793839731614 
3.5600000000030882, 0.3483199192952575 
3.5700000000031094, 0.34943460990511593 
3.5800000000031305, 0.3490962629243068 
3.5900000000031516, 0.3474674739310971 
3.6000000000031727, 0.344439215193173 
3.6100000000031938, 0.33991746257081923 
3.620000000003215, 0.33418390333630665 
3.630000000003236, 0.3280841095330723 
3.640000000003257, 0.3226763400794459 
3.650000000003278, 0.31861988172241407 
3.6600000000032993, 0.31598624599224057 
3.6700000000033204, 0.31451327556481223 
3.6800000000033415, 0.3138743799769431 
3.6900000000033626, 0.3137824283890708 
3.7000000000033837, 0.31398758223637574 
3.710000000003405, 0.31425149060662194 
3.720000000003426, 0.3143316609732307 
3.730000000003447, 0.3139633667745415 
3.740000000003468, 0.31279320179678693 
3.750000000003489, 0.31017927913261734 
3.7600000000035103, 0.30462794949383043 
3.7700000000035314, 0.2920091042138562 
3.7800000000035525, 0.2588728572332956 
3.7900000000035736, 0.1552664504401921 
3.8000000000035947, -0.157970798717195 
3.810000000003616, -0.6036501406450838 
3.820000000003637, -0.8266586000195971 
3.830000000003658, -0.900752334511108 
3.840000000003679, -0.9262963948091908 
3.8500000000037002, -0.9360201924137866 
3.8600000000037213, -0.9398080927917747 
3.8700000000037424, -0.9408559490193639 
3.8800000000037635, -0.9400780202319098 
3.8900000000037847, -0.9372012693852257 
3.9000000000038058, -0.9305249152165113 
3.910000000003827, -0.9150075321328307 
3.920000000003848, -0.8750968340599231 
3.930000000003869, -0.7524216147741368 
3.94000000000389, -0.24035301766054767 
3.9500000000039113, 0.9014282077302942 
3.9600000000039324, 1.145493937990935 
3.9700000000039535, 1.1760833408097608 
3.9800000000039746, 1.1825957229450244 
3.9900000000039957, 1.183889668399341 
4.000000000004016, 1.182712064337514 
4.010000000003993, 1.178138995325241 
4.02000000000397, 1.164667905203355 
4.030000000003946, 1.1264181051159499 
4.040000000003923, 1.0620935345121931 
4.0500000000039, 1.0367806310891767 
4.0600000000038765, 1.0420797025265822 
4.070000000003853, 1.0477302789792977 
4.08000000000383, 1.0503266901228114 
4.090000000003807, 1.0508407931390584 
4.100000000003783, 1.0494932182175067 
4.11000000000376, 1.0449759239354903 
4.120000000003737, 1.0317228491057955 
4.130000000003713, 0.9908152281210058 
4.14000000000369, 0.9817703369641839 
4.150000000003667, 1.3203158453938244 
4.1600000000036434, 1.4330931662841664 
4.17000000000362, 1.4511363547797316 
4.180000000003597, 1.4549346926614144 
4.1900000000035735, 1.4549102340064826 
4.20000000000355, 1.4514787555223392 
4.210000000003527, 1.436401178019423 
4.220000000003504, 1.3303522550053137 
4.23000000000348, 0.6442929601038332 
4.240000000003457, 0.44516624503556274 
4.250000000003434, 0.5178706785530103 
4.26000000000341, 0.5495507205737529 
4.270000000003387, 0.5615612638886416 
4.280000000003364, 0.5664642250244121 
4.2900000000033405, 0.568357663489875 
4.300000000003317, 0.5685569478375234 
4.310000000003294, 0.5672463406706345 
4.320000000003271, 0.5636485894016577 
4.330000000003247, 0.5548777576668419 
4.340000000003224, 0.5301725718812693 
4.350000000003201, 0.4360849758916737 
4.360000000003177, -0.10428700052613174 
4.370000000003154, -2.6435657550278058 
4.380000000003131, -3.245990379035743 
4.390000000003107, -3.282492385205053 
4.400000000003084, -3.288788730065272 
4.410000000003061, -3.289583857019136 
4.4200000000030375, -3.287560510117904 
4.430000000003014, -3.2800042018370847 
4.440000000002991, -3.240143277280569 
4.450000000002968, -3.0657011303415276 
4.460000000002944, -3.110329603573244 
4.470000000002921, -3.126051082813948 
4.480000000002898, -3.127521355346233 
4.490000000002874, -3.126920224737143 
4.500000000002851, -3.1270749891308176 
4.510000000002828, -3.1268546129101873 
4.520000000002804, -3.126069375711742 
4.530000000002781, -3.1256569995598174 
4.540000000002758, -3.1230360934185466 
4.5500000000027345, -3.104100012018306 
4.560000000002711, -2.993690233469636 
4.570000000002688, -3.3252004670297666 
4.580000000002665, -3.391500898474012 
4.590000000002641, -3.4002433722929624 
4.600000000002618, -3.401647875880527 
4.610000000002595, -3.4000286198348717 
4.620000000002571, -3.3929538801435464 
4.630000000002548, -3.353087717435365 
4.640000000002525, -2.637967461454427 
4.6500000000025015, -1.3017539659470905 
4.660000000002478, -1.4283549105864521 
4.670000000002455, -1.5100314474686276 
4.6800000000024315, -1.5346075630148144 
4.690000000002408, -1.542009260134835 
4.700000000002385, -1.5439554298284313 
4.710000000002362, -1.5434770443327002 
4.720000000002338, -1.5412881991027487 
4.730000000002315, -1.5387341558781567 
4.740000000002292, -1.5421843034347467 
4.750000000002268, -1.559590707546914 
4.760000000002245, -1.5838444775653753 
4.770000000002222, -1.6033643850853756 
4.7800000000021985, -1.6162313923609442 
4.790000000002175, -1.6245317749930905 
4.800000000002152, -1.6300404247089098 
4.810000000002129, -1.6337335590787696 
4.820000000002105, -1.63610165325135 
4.830000000002082, -1.6373911576837634 
4.840000000002059, -1.6377330397732919 
4.850000000002035, -1.637215053791019 
4.860000000002012, -1.6359165317842952 
4.870000000001989, -1.6338913908828563 
4.880000000001965, -1.6310712175914701 
4.890000000001942, -1.6272184254865967 
4.900000000001919, -1.6223446054002462 
4.9100000000018955, -1.6176438735860004 
4.920000000001872, -1.6151007532775992 
4.930000000001849, -1.6147815097821003 
4.940000000001826, -1.6149131195755213 
4.950000000001802, -1.6140387550014215 
