t, s[1].omega / s[0].omega 
0, -1.4800091515818028 
0.009999999999999995, -1.4805949559975309 
0.019999999999999934, -1.4805322945491164 
0.029999999999999874, -1.4798206283306858 
0.04000000000000012, -1.478475125930792 
0.050000000000000405, -1.4765315717333627 
0.06000000000000069, -1.4739972240318884 
0.07000000000000098, -1.4707901833502277 
0.08000000000000126, -1.466868251331928 
0.09000000000000155, -1.4626830283785757 
0.10000000000000184, -1.4594230190752886 
0.11000000000000212, -1.4579889223762257 
0.12000000000000241, -1.4578245840724333 
0.130000000000002, -1.4576905044482305 
0.1400000000000009, -1.456562319515264 
0.1499999999999998, -1.4531544799583078 
0.1599999999999987, -1.4443749657254072 
0.1699999999999976, -1.421733557632081 
0.1799999999999965, -1.3634572961131615 
0.1899999999999954, -1.2287925152444674 
0.1999999999999943, -0.9979327792595216 
0.2099999999999932, -0.7461573971957929 
0.2199999999999921, -0.5622268953337621 
0.229999999999991, -0.45277544623200594 
0.2399999999999899, -0.39083536092279114 
0.2499999999999888, -0.35517490169658117 
0.2599999999999877, -0.3339112957293462 
0.2699999999999866, -0.3208039155404404 
0.2799999999999855, -0.31253124197981197 
0.2899999999999844, -0.3072641419182033 
0.2999999999999833, -0.3039600739137429 
0.3099999999999822, -0.30201054428503593 
0.3199999999999811, -0.30106082877122753 
0.32999999999998, -0.3009171266775053 
0.3399999999999789, -0.3015017541686361 
0.3499999999999778, -0.30283908203150883 
0.35999999999997667, -0.30506724057396817 
0.36999999999997557, -0.30848038064063166 
0.37999999999997447, -0.3136196946712409 
0.38999999999997337, -0.32145789008062464 
0.39999999999997227, -0.33377764272818905 
0.40999999999997117, -0.35394583227450604 
0.41999999999997006, -0.3883401019396124 
0.42999999999996896, -0.44778305972182403 
0.43999999999996786, -0.5428666551448367 
0.44999999999996676, -0.6613215324301736 
0.45999999999996566, -0.759926343178553 
0.46999999999996456, -0.8163218416858864 
0.47999999999996346, -0.8426155666136624 
0.48999999999996235, -0.854143720635672 
0.49999999999996125, -0.859074402407429 
0.5099999999999602, -0.8608731642592524 
0.519999999999959, -0.8608385060892301 
0.529999999999958, -0.8592025434455562 
0.5399999999999568, -0.8553722581775338 
0.5499999999999557, -0.8475425986336396 
0.5599999999999546, -0.8313993090446601 
0.5699999999999535, -0.7969365769638802 
0.5799999999999524, -0.7187821438806227 
0.5899999999999513, -0.41551621825714535 
0.5999999999999502, 1.9562776433255267 
0.6099999999999491, 2.238538529342585 
0.619999999999948, 2.250880377464301 
0.6299999999999469, 2.25180263582707 
0.6399999999999458, 2.2480606889126102 
0.6499999999999447, 2.2152176547882307 
0.6599999999999436, 0.9528542957781111 
0.6699999999999425, -0.7692759486272673 
0.6799999999999414, -1.0175491247130724 
0.6899999999999403, -1.1023409320331115 
0.6999999999999392, -1.1326990345786214 
0.7099999999999381, -1.1440463735097905 
0.719999999999937, -1.148323460752176 
0.7299999999999359, -1.149477754292421 
0.7399999999999348, -1.1486104925008538 
0.7499999999999337, -1.145339015292345 
0.7599999999999326, -1.13751436441796 
0.7699999999999315, -1.119537063505372 
0.7799999999999304, -1.0819396388714104 
0.7899999999999293, -1.0539400516064177 
0.7999999999999282, -1.5771961676019337 
0.8099999999999271, -2.8302278228587303 
0.819999999999926, -2.9811867516186537 
0.8299999999999249, -3.001723976858351 
0.8399999999999238, -3.006647561768305 
0.8499999999999227, -3.007389614036088 
0.8599999999999216, -3.0057118066611728 
0.8699999999999205, -3.0002169356700104 
0.8799999999999194, -2.9800412042628186 
0.8899999999999183, -2.8900929714073564 
0.8999999999999172, -2.8526769404496646 
0.9099999999999161, -2.87817080381865 
0.919999999999915, -2.8826121803134734 
0.9299999999999139, -2.882376896529249 
0.9399999999999128, -2.8819364590099883 
0.9499999999999117, -2.8831452034394287 
0.9599999999999106, -2.883743535376369 
0.9699999999999095, -2.883575442711976 
0.9799999999999084, -2.883137612476377 
0.9899999999999073, -2.8804527562059796 
0.9999999999999062, -2.8644561281315526 
1.0099999999999052, -2.6564486046040248 
1.019999999999904, 1.366024804448204 
1.029999999999903, 2.45996642579384 
1.039999999999902, 2.4785032347981586 
1.0499999999999008, 2.4797698872944514 
1.0599999999998997, 2.475955083847107 
1.0699999999998986, 2.434055328992297 
1.0799999999998975, 0.46261198922904817 
1.0899999999998964, -0.5484930520654923 
1.0999999999998953, -0.6050236974490104 
1.1099999999998942, -0.628645233091793 
1.119999999999893, -0.64250622350212 
1.129999999999892, -0.6504812160359874 
1.1399999999998909, -0.6549523104142974 
1.1499999999998898, -0.6573145765627847 
1.1599999999998887, -0.6582892627559216 
1.1699999999998876, -0.6581563242358006 
1.1799999999998865, -0.656861543848389 
1.1899999999998854, -0.6540375335925052 
1.1999999999998843, -0.6490353498918959 
1.2099999999998832, -0.6411710218005496 
1.219999999999882, -0.6303664738968568 
1.229999999999881, -0.6177569793208914 
1.2399999999998799, -0.6052736933214161 
1.2499999999998788, -0.5944244120873746 
1.2599999999998777, -0.5857087049946876 
1.2699999999998766, -0.5789322593740477 
1.2799999999998755, -0.5736751167812214 
1.2899999999998744, -0.5695394948726988 
1.2999999999998733, -0.566224444210947 
1.3099999999998722, -0.5635317219632481 
1.319999999999871, -0.5613524115362829 
1.32999999999987, -0.5596481333158654 
1.3399999999998689, -0.5584306453955482 
1.3499999999998678, -0.5577425368369766 
1.3599999999998666, -0.5576412800985724 
1.3699999999998655, -0.5581882947625394 
1.3799999999998644, -0.5594443295100254 
1.3899999999998633, -0.5614722662252319 
1.3999999999998622, -0.5643483263629607 
1.4099999999998611, -0.5681828157274172 
1.41999999999986, -0.5731521027373548 
1.429999999999859, -0.5795444182983693 
1.4399999999998578, -0.5878227321283302 
1.4499999999998567, -0.5987040209012038 
1.4599999999998556, -0.6132255337751865 
1.4699999999998545, -0.6326578093393014 
1.4799999999998534, -0.6578714839663302 
1.4899999999998523, -0.6877255296902413 
1.4999999999998512, -0.7176409287057652 
1.5099999999998501, -0.7417672271090772 
1.519999999999849, -0.7575833343244587 
1.529999999999848, -0.7664841176234881 
1.5399999999998468, -0.7709646898303261 
1.5499999999998457, -0.7728596462238883 
1.5599999999998446, -0.7731354083835085 
1.5699999999998435, -0.7721249687730333 
1.5799999999998424, -0.7696857389939262 
1.5899999999998413, -0.7652127011902728 
1.5999999999998402, -0.7576646639487287 
1.6099999999998391, -0.7465758430546747 
1.619999999999838, -0.7401740324805377 
1.629999999999837, -0.8176983671973345 
1.6399999999998358, -1.7201391796885859 
1.6499999999998347, -2.9706695424908593 
1.6599999999998336, -3.077089527962691 
1.6699999999998325, -3.0922638074119626 
1.6799999999998314, -3.0957614858534823 
1.6899999999998303, -3.095763079779494 
1.6999999999998292, -3.0931419855708873 
1.709999999999828, -3.0844969955006643 
1.719999999999827, -3.044382605701617 
1.729999999999826, -2.9114228516110456 
1.7399999999998248, -2.9392839470906598 
1.7499999999998237, -2.954091122790821 
1.7599999999998226, -2.9557872199446047 
1.7699999999998215, -2.955108470590724 
1.7799999999998204, -2.9554018077188227 
1.7899999999998193, -2.9561201499233714 
1.7999999999998182, -2.9558645077414676 
1.809999999999817, -2.9555437823072355 
1.819999999999816, -2.9542544360586875 
1.8299999999998149, -2.946531545734394 
1.8399999999998138, -2.8737039614668736 
1.8499999999998127, -2.127374825646397 
1.8599999999998116, -4.353412578962962 
1.8699999999998105, -4.416164736916977 
1.8799999999998094, -4.419733191238472 
1.8899999999998083, -4.417864124046405 
1.8999999999998072, -4.402688713954479 
1.909999999999806, -3.504545994359959 
1.919999999999805, 1.670909471138469 
1.9299999999998039, 1.8245504075293812 
1.9399999999998028, 1.835818550514506 
1.9499999999998017, 1.8375823591185465 
1.9599999999998006, 1.8376619264452514 
1.9699999999997995, 1.837409252898605 
1.9799999999997984, 1.836974248895536 
1.9899999999997973, 1.8361508290756923 
1.9999999999997962, 1.835144346447624 
2.0099999999998173, 1.83445912433146 
2.0199999999998384, 1.8339268333078116 
2.0299999999998595, 1.8323282331859094 
2.0399999999998806, 1.825087306706839 
2.0499999999999017, 1.766445070939405 
2.059999999999923, 0.8411281044998173 
2.069999999999944, 3.147258742596578 
2.079999999999965, 3.1959385799188085 
2.089999999999986, 3.197580576945569 
2.100000000000007, 3.1919118345498547 
2.1100000000000283, 2.8889907747420787 
2.1200000000000494, -4.60423822636586 
2.1300000000000705, -4.647763545630853 
2.1400000000000916, -4.6487706553919566 
2.1500000000001127, -4.645729356136882 
2.160000000000134, -4.626974732158432 
2.170000000000155, -4.625729276008377 
2.180000000000176, -4.6295301122772745 
2.190000000000197, -4.628657237236877 
2.2000000000002182, -4.628429798485817 
2.2100000000002393, -4.627066702174213 
2.2200000000002604, -4.626256626851449 
2.2300000000002815, -4.618302066129092 
2.2400000000003026, -4.626924334526143 
2.2500000000003237, -4.638922199342206 
2.260000000000345, -4.639556952860486 
2.270000000000366, -4.635516245289348 
2.280000000000387, -4.527936001256338 
2.290000000000408, 3.075874169528761 
2.3000000000004293, 3.172055138957684 
2.3100000000004504, 3.1746834210545987 
2.3200000000004715, 3.170603691869898 
2.3300000000004926, 3.0676685219028665 
2.3400000000005137, 1.2655558041533372 
2.3500000000005348, 1.897977710686369 
2.360000000000556, 1.9291114818325732 
2.370000000000577, 1.9330354390583555 
2.380000000000598, 1.9334675772023389 
2.390000000000619, 1.9333499019158134 
2.4000000000006403, 1.9334075202465015 
2.4100000000006614, 1.9333859885824278 
2.4200000000006825, 1.9329638798343283 
2.4300000000007036, 1.9324166404443144 
2.4400000000007247, 1.931899784880954 
2.450000000000746, 1.930573813356175 
2.460000000000767, 1.9246510199372167 
2.470000000000788, 1.8762770957136397 
2.480000000000809, 0.7051539357142069 
2.49000000000083, 3.821897881851374 
2.5000000000008513, 3.879624130293082 
2.5100000000008724, 3.880007581180667 
2.5200000000008935, 3.862603533596078 
2.5300000000009146, -5.253703863219141 
2.5400000000009357, -5.560253102251046 
2.550000000000957, -5.561924385979504 
2.560000000000978, -5.556405624905547 
2.570000000000999, -5.495580024084178 
2.58000000000102, -5.526877493290515 
2.5900000000010412, -5.527378055633078 
2.6000000000010624, -5.525700241902343 
2.6100000000010835, -5.522038638158174 
2.6200000000011046, -5.522276892178063 
2.6300000000011257, -5.519866884577359 
2.6400000000011468, -5.5222244585228095 
2.650000000001168, -5.521679600822842 
2.660000000001189, -5.517239455346866 
2.67000000000121, -5.489194658459253 
2.680000000001231, -5.553984427567314 
2.6900000000012523, -5.5558673956372 
2.7000000000012734, -5.550018859404806 
2.7100000000012945, -4.077428043831544 
2.7200000000013156, 3.748693631004982 
2.7300000000013367, 3.758396036976535 
2.740000000001358, 3.756146386489623 
2.750000000001379, 3.682674975228656 
2.7600000000014, 2.9176787336814995 
2.770000000001421, 3.0866098768610817 
2.780000000001442, 3.0912268311113142 
2.7900000000014633, 3.091091997092918 
2.8000000000014844, 3.089219185423564 
2.8100000000015055, 3.084084411320396 
2.8200000000015266, 3.081516705515962 
2.8300000000015477, 3.0826196580273133 
2.840000000001569, 3.081069252818612 
2.85000000000159, 3.076226698944758 
2.860000000001611, 3.085002959942319 
2.870000000001632, 3.092379259202255 
2.8800000000016532, 3.093366591852266 
2.8900000000016743, 3.091570695248809 
2.9000000000016954, 3.0708881661080136 
2.9100000000017165, -3.246909017064516 
2.9200000000017377, -5.435750539969472 
2.9300000000017588, -5.4425510253043266 
2.94000000000178, -5.439777783624404 
2.950000000001801, -5.373098404693669 
2.960000000001822, 2.889576141289506 
2.970000000001843, 3.0486855599392992 
2.9800000000018643, 3.0527376182036887 
2.9900000000018854, 3.0521996787150645 
3.0000000000019065, 3.0482544672057506 
3.0100000000019276, 3.0368750653034913 
3.0200000000019487, 3.0354072590869916 
3.03000000000197, 3.03810245962706 
3.040000000001991, 3.037114666322621 
3.050000000002012, 3.0352818888766393 
3.060000000002033, 3.0398797842240617 
3.070000000002054, 3.04320172620091 
3.0800000000020753, 3.0434514248067996 
3.0900000000020964, 3.041818212215202 
3.1000000000021175, 3.0265193012277143 
3.1100000000021386, 1.7965252139264831 
3.1200000000021597, 4.09646939226484 
3.130000000002181, 4.11078991766275 
3.140000000002202, 4.1085302163513395 
3.150000000002223, 3.937393362589006 
3.160000000002244, -5.887433393873252 
3.1700000000022652, -5.902687866050973 
3.1800000000022863, -5.9003379367219075 
3.1900000000023074, -5.849053369378177 
3.2000000000023285, -5.8507423967861545 
3.2100000000023496, -5.854919129076858 
3.2200000000023707, -5.853186602792723 
3.230000000002392, -5.8476267384666345 
3.240000000002413, -5.848733485837181 
3.250000000002434, -5.846978649748595 
3.260000000002455, -5.847617083639817 
3.2700000000024763, -5.846582799787748 
3.2800000000024974, -5.841430487212021 
3.2900000000025185, -5.844142889119469 
3.3000000000025396, -5.8561069455464 
3.3100000000025607, -5.855025086887246 
3.3200000000025818, -5.814545941294805 
3.330000000002603, 5.689800866287013 
3.340000000002624, 5.780516410081342 
3.350000000002645, 5.776008882416103 
3.360000000002666, -7.5502882629752675 
3.3700000000026873, -7.689751686972985 
3.3800000000027084, -7.685252458435452 
3.3900000000027295, -7.47010565882122 
3.4000000000027506, -7.561255571725051 
3.4100000000027717, -7.558243642605911 
3.420000000002793, -7.544018852497198 
3.430000000002814, -7.549463804793694 
3.440000000002835, -7.547233519833424 
3.450000000002856, -7.54451825597918 
3.460000000002877, -7.542504930022107 
3.4700000000028983, -7.542304817678007 
3.4800000000029194, -7.540427244217916 
3.4900000000029405, -7.533270305252128 
3.5000000000029616, -7.541901682036247 
3.5100000000029827, -7.538641816167117 
3.520000000003004, -7.523548157697728 
3.530000000003025, -7.601550193723315 
3.540000000003046, -7.597602079367535 
3.550000000003067, 5.5066348762323205 
3.5600000000030882, 5.839147963035289 
3.5700000000031094, 5.835975907696975 
3.5800000000031305, -6.437354454085076 
3.5900000000031516, -7.189238637022774 
3.6000000000031727, -7.187648662748373 
3.6100000000031938, -7.113148377419803 
3.620000000003215, -7.15383330576812 
3.630000000003236, -7.152994434048679 
3.640000000003257, -7.145656355561085 
3.650000000003278, -7.147020544039885 
3.6600000000032993, -7.145562485516829 
3.6700000000033204, -7.143711585306012 
3.6800000000033415, -7.141969658340733 
3.6900000000033626, -7.140230812292636 
3.7000000000033837, -7.141890371806701 
3.710000000003405, -7.137851524889787 
3.720000000003426, -7.139072396678631 
3.730000000003447, -7.1614236176044725 
3.740000000003468, -7.157478385464029 
3.750000000003489, 4.293607133011006 
3.7600000000035103, 6.093075428592957 
3.7700000000035314, 6.090617192271268 
3.7800000000035525, -7.596536839007103 
3.7900000000035736, -7.956583344532595 
3.8000000000035947, -7.952102091047321 
3.810000000003616, -7.79291319015409 
3.820000000003637, -7.8480859053535905 
3.830000000003658, -7.8438394350960605 
3.840000000003679, -7.83428165531074 
3.8500000000037002, -7.836120866547614 
3.8600000000037213, -7.832923191249483 
3.8700000000037424, -7.831339222463244 
3.8800000000037635, -7.829352921079969 
3.8900000000037847, -7.82825296023826 
3.9000000000038058, -7.824784346290711 
3.910000000003827, -7.8263202205229945 
3.920000000003848, -7.826549553111708 
3.930000000003869, -7.79753822830714 
3.94000000000389, -7.857079663646816 
3.9500000000039113, -7.85756118458937 
3.9600000000039324, -7.553364878275929 
3.9700000000039535, 6.459594753683258 
3.9800000000039746, 6.4593224328276095 
3.9900000000039957, -6.2641841904217985 
4.000000000004016, -8.277338002724795 
4.010000000003993, -8.272919877075932 
4.02000000000397, -8.145346060137243 
4.030000000003946, -8.17986616960824 
4.040000000003923, -8.173466127832183 
4.0500000000039, -8.16788618474261 
4.0600000000038765, -8.16746600443277 
4.070000000003853, -8.162975130666066 
4.08000000000383, -8.162328042343509 
4.090000000003807, -8.160831713208866 
4.100000000003783, -8.158880372955016 
4.11000000000376, -8.152971129897027 
4.120000000003737, -8.157462976735037 
4.130000000003713, -8.154055648902455 
4.14000000000369, -8.158475414027345 
4.150000000003667, -8.171753772756558 
4.1600000000036434, -8.154393812237549 
4.17000000000362, -9.388020658881455 
4.180000000003597, -9.395818999009931 
4.1900000000035735, -3.049912465018999 
4.20000000000355, 7.400217848391034 
4.210000000003527, 7.390992849226052 
4.220000000003504, 6.874565897592396 
4.23000000000348, 6.885309634173538 
4.240000000003457, 6.868195343951466 
4.250000000003434, 6.863743796717228 
4.26000000000341, 6.8642666011547435 
4.270000000003387, 6.858760412054329 
4.280000000003364, 6.85871435066786 
4.2900000000033405, 6.857362165153148 
4.300000000003317, 6.856196283197266 
4.310000000003294, 6.8545456034265815 
4.320000000003271, 6.8505489537530195 
4.330000000003247, 6.854893367568765 
4.340000000003224, 6.8517533972629465 
4.350000000003201, 6.850492268580425 
4.360000000003177, 6.873755472403464 
4.370000000003154, 6.8624056394790625 
4.380000000003131, 8.462245838621723 
4.390000000003107, 8.472012044968068 
4.400000000003084, -10.371793611721682 
4.410000000003061, -10.461252519927509 
4.4200000000030375, -6.714459995808714 
4.430000000003014, -9.189174721950415 
4.440000000002991, -9.184248506997273 
4.450000000002968, -9.155899999482614 
4.460000000002944, -9.158252283266734 
4.470000000002921, -9.146371191490365 
4.480000000002898, -9.150291843459375 
4.490000000002874, -9.146834847009256 
4.500000000002851, -9.144732293356784 
4.510000000002828, -9.142688744822511 
4.520000000002804, -9.140314492835497 
4.530000000002781, -9.136320551982084 
4.540000000002758, -9.137533367989494 
4.5500000000027345, -9.11811901248058 
4.560000000002711, -9.143059479313123 
4.570000000002688, -9.137975430650993 
4.580000000002665, -9.30396929187405 
4.590000000002641, -9.314041080997391 
4.600000000002618, -7.74558117579635 
4.610000000002595, 7.408220191943 
4.620000000002571, 7.400503553271998 
4.630000000002548, -8.729088871530152 
4.640000000002525, -8.737309904857023 
4.6500000000025015, -8.660868131866929 
4.660000000002478, -8.69232348245506 
4.670000000002455, -8.689586428005704 
4.6800000000024315, -8.680958531624794 
4.690000000002408, -8.681957429698027 
4.700000000002385, -8.677937849237896 
4.710000000002362, -8.676617879267805 
4.720000000002338, -8.674952841279557 
4.730000000002315, -8.672747937741212 
4.740000000002292, -8.66820569409971 
4.750000000002268, -8.670739112054708 
4.760000000002245, -8.660080105741603 
4.770000000002222, -8.679431262401398 
4.7800000000021985, -8.67845945283223 
4.790000000002175, -8.100496999716366 
4.800000000002152, -9.06849199141448 
4.810000000002129, -9.058349266373524 
4.820000000002105, 7.0846039199347075 
4.830000000002082, 7.0900260901655 
4.840000000002059, 5.812493184260355 
4.850000000002035, 5.773514370994488 
4.860000000002012, 5.776105064333126 
4.870000000001989, 5.7631952087173985 
4.880000000001965, 5.750377314374049 
4.890000000001942, 5.754840061245583 
4.900000000001919, 5.753428820762154 
4.9100000000018955, 5.748965749743364 
4.920000000001872, 5.749506699749514 
4.930000000001849, 5.747702178904427 
4.940000000001826, 5.748878860514714 
4.950000000001802, 5.747663708623584 
4.960000000001779, 5.738115656693357 
4.970000000001756, 5.753055618210846 
4.980000000001732, 5.7567140404983395 
4.990000000001709, 5.748395845836673 
5.000000000001686, 6.090179334932334 
5.0100000000016625, 6.153014016833223 
5.020000000001639, 6.145727442734332 
