t, s[1].omega / s[0].omega 
0, -1.2799441718793627 
0.009999999999999995, -1.2738757877835152 
0.019999999999999934, -1.2667988399615362 
0.029999999999999874, -1.2585228978046326 
0.04000000000000012, -1.2487147831116343 
0.050000000000000405, -1.23702461812907 
0.06000000000000069, -1.2235184196940252 
0.07000000000000098, -1.2095211519512066 
0.08000000000000126, -1.1979662013770906 
0.09000000000000155, -1.1914146100768883 
0.10000000000000184, -1.1894227950780263 
0.11000000000000212, -1.1895547026775346 
0.12000000000000241, -1.1898872116244144 
0.130000000000002, -1.1894763775165225 
0.1400000000000009, -1.1876160357893673 
0.1499999999999998, -1.1829826096676577 
0.1599999999999987, -1.172501777323672 
0.1699999999999976, -1.1496393865119456 
0.1799999999999965, -1.1038435919793677 
0.1899999999999954, -1.027383380026886 
0.1999999999999943, -0.9289131900919024 
0.2099999999999932, -0.8304161336906969 
0.2199999999999921, -0.7475018681487604 
0.229999999999991, -0.6835432620201882 
0.2399999999999899, -0.6359885330328526 
0.2499999999999888, -0.6012342043873395 
0.2599999999999877, -0.576196836377001 
0.2699999999999866, -0.5584944275504578 
0.2799999999999855, -0.5463006581107951 
0.2899999999999844, -0.5381924279019528 
0.2999999999999833, -0.5330487618829371 
0.3099999999999822, -0.529991377623362 
0.3199999999999811, -0.5283469789833646 
0.32999999999998, -0.5276166459174955 
0.3399999999999789, -0.527446197453245 
0.3499999999999778, -0.5275983747467274 
0.35999999999997667, -0.5279310061044113 
0.36999999999997557, -0.5283842276708844 
0.37999999999997447, -0.5289746819605035 
0.38999999999997337, -0.5297888312245728 
0.39999999999997227, -0.5309680734192754 
0.40999999999997117, -0.5326859986002581 
0.41999999999997006, -0.5351188255315764 
0.42999999999996896, -0.5383935578634194 
0.43999999999996786, -0.5424874811242306 
0.44999999999996676, -0.5471019036733055 
0.45999999999996566, -0.551649424811713 
0.46999999999996456, -0.5554856330277527 
0.47999999999996346, -0.5582245012416341 
0.48999999999996235, -0.5598249358330765 
0.49999999999996125, -0.560435240435184 
0.5099999999999602, -0.5602098109821368 
0.519999999999959, -0.5592106441387371 
0.529999999999958, -0.5573774874487785 
0.5399999999999568, -0.5545439369895858 
0.5499999999999557, -0.5505733946198567 
0.5599999999999546, -0.5460366314366574 
0.5699999999999535, -0.5454289149797814 
0.5799999999999524, -0.5740084444910311 
0.5899999999999513, -0.8242241857913456 
0.5999999999999502, -3.540517211131727 
0.6099999999999491, -3.956934521899913 
0.619999999999948, -3.9720313463054366 
0.6299999999999469, -3.9734843310565324 
0.6399999999999458, -3.9709525853019407 
0.6499999999999447, -3.9559486341384575 
0.6599999999999436, -3.6298224435633744 
0.6699999999999425, -2.8228770516858557 
0.6799999999999414, -3.061643367153935 
0.6899999999999403, -3.077788731676063 
0.6999999999999392, -3.0793298810870757 
0.7099999999999381, -3.078813562841999 
0.719999999999937, -3.078230490679146 
0.7299999999999359, -3.0767419327650947 
0.7399999999999348, -3.0751728787256676 
0.7499999999999337, -3.0750060526946017 
0.7599999999999326, -3.0730567702784173 
0.7699999999999315, -3.060726706685924 
0.7799999999999304, -3.0427202650205887 
0.7899999999999293, -3.130928771052745 
0.7999999999999282, -3.157663743267084 
0.8099999999999271, -3.1631245623526674 
0.819999999999926, -3.164027362511126 
0.8299999999999249, -3.1623169069402257 
0.8399999999999238, -3.1555812927938396 
0.8499999999999227, -3.12561590342256 
0.8599999999999216, -2.7868536870915372 
0.8699999999999205, 0.09743871932937855 
0.8799999999999194, 0.775322041327569 
0.8899999999999183, 0.8459117472533968 
0.8999999999999172, 0.8608582568527897 
0.9099999999999161, 0.8652817076442426 
0.919999999999915, 0.8665116309164882 
0.9299999999999139, 0.8663535781788397 
0.9399999999999128, 0.8654069066847571 
0.9499999999999117, 0.8642198935959268 
0.9599999999999106, 0.8644961179449107 
0.9699999999999095, 0.8708368486624497 
0.9799999999999084, 0.8877261371816241 
0.9899999999999073, 0.9087031307414245 
0.9999999999999062, 0.9234074580870791 
1.0099999999999052, 0.9308517944808523 
1.019999999999904, 0.9339631759569249 
1.029999999999903, 0.9346561357435608 
1.039999999999902, 0.933367110381381 
1.0499999999999008, 0.928657282036807 
1.0599999999998997, 0.9129120646699983 
1.0699999999998986, 0.8392625440532611 
1.0799999999998975, 0.3667774531986173 
1.0899999999998964, -0.5078617399058907 
1.0999999999998953, -0.7957306821857247 
1.1099999999998942, -0.8745214623328657 
1.119999999999893, -0.9013329371394043 
1.129999999999892, -0.9118262631837013 
1.1399999999998909, -0.9161231905188535 
1.1499999999998898, -0.9175506082272665 
1.1599999999998887, -0.917132318848241 
1.1699999999998876, -0.9147096510685996 
1.1799999999998865, -0.9087411501886529 
1.1899999999998854, -0.8944317719616265 
1.1999999999998843, -0.8568382868982752 
1.2099999999998832, -0.747307468664371 
1.219999999999882, -0.45106812394487256 
1.229999999999881, -0.03829581943365601 
1.2399999999998799, 0.16969968567290683 
1.2499999999998788, 0.23670466383887354 
1.2599999999998777, 0.25986545210152306 
1.2699999999998766, 0.2691443464164105 
1.2799999999998755, 0.27320850326685747 
1.2899999999998744, 0.2749508952538327 
1.2999999999998733, 0.27550111184704906 
1.3099999999998722, 0.275388909866496 
1.319999999999871, 0.27493437756135974 
1.32999999999987, 0.27438821679427366 
1.3399999999998689, 0.2739810259414727 
1.3499999999998678, 0.27395079002683886 
1.3599999999998666, 0.2745847024443269 
1.3699999999998655, 0.27627793993136407 
1.3799999999998644, 0.2795555584310307 
1.3899999999998633, 0.28490865248408637 
1.3999999999998622, 0.2922941502506803 
1.4099999999998611, 0.3006315393391956 
1.41999999999986, 0.3082042640538024 
1.429999999999859, 0.31382578854825527 
1.4399999999998578, 0.3173163359607378 
1.4499999999998567, 0.31903134671073025 
1.4599999999998556, 0.31930894725516934 
1.4699999999998545, 0.3181904631565232 
1.4799999999998534, 0.31525149218225257 
1.4899999999998523, 0.3093592691201853 
1.4999999999998512, 0.29842385228090007 
1.5099999999998501, 0.2800430619883957 
1.519999999999849, 0.2548382084526375 
1.529999999999848, 0.22958589759078948 
1.5399999999998468, 0.21144834236033644 
1.5499999999998457, 0.20119580888059768 
1.5599999999998446, 0.1960183831122883 
1.5699999999998435, 0.19346882006367297 
1.5799999999998424, 0.1922008106413484 
1.5899999999998413, 0.191557843080356 
1.5999999999998402, 0.1912012102696355 
1.6099999999998391, 0.19091054815995834 
1.619999999999838, 0.19048438654854463 
1.629999999999837, 0.18967907570238535 
1.6399999999998358, 0.18813411230113936 
1.6499999999998347, 0.18520435198728313 
1.6599999999998336, 0.1795075672540829 
1.6699999999998325, 0.16757510482107568 
1.6799999999998314, 0.13928942939098984 
1.6899999999998303, 0.061102246613061975 
1.6999999999998292, -0.1663508885810805 
1.709999999999828, -0.58428139193456 
1.719999999999827, -0.8728309690938456 
1.729999999999826, -0.9781277686726977 
1.7399999999998248, -1.0133014225807067 
1.7499999999998237, -1.0260187776549343 
1.7599999999998226, -1.030832498310074 
1.7699999999998215, -1.0323193347440636 
1.7799999999998204, -1.0318871293152767 
1.7899999999998193, -1.0296315376857186 
1.7999999999998182, -1.0247176149979247 
1.809999999999817, -1.0154958230612128 
1.819999999999816, -1.0022917214646543 
1.8299999999998149, -1.0100592722788577 
1.8399999999998138, -1.2027348483268714 
1.8499999999998127, -1.827844419115769 
1.8599999999998116, -2.1826095922620317 
1.8699999999998105, -2.2681992690262955 
1.8799999999998094, -2.293933014724126 
1.8899999999998083, -2.3037653561376907 
1.8999999999998072, -2.3077306340887516 
1.909999999999806, -2.308890130802994 
1.919999999999805, -2.308342492068537 
1.9299999999998039, -2.3063618568928805 
1.9399999999998028, -2.302366564247559 
1.9499999999998017, -2.2942185163485114 
1.9599999999998006, -2.2806549193219348 
1.9699999999997995, -2.2727920286175394 
1.9799999999997984, -2.2748588623092196 
1.9899999999997973, -2.2764761111705196 
1.9999999999997962, -2.275381200079772 
2.0099999999998173, -2.2705148003605093 
2.0199999999998384, -2.265677169716058 
2.0299999999998595, -2.28591756771671 
2.0399999999998806, -2.312108064127839 
2.0499999999999017, -2.3243214178921416 
2.059999999999923, -2.3293158720238516 
2.069999999999944, -2.3313226357172026 
2.079999999999965, -2.331599314337215 
2.089999999999986, -2.330292620038624 
2.100000000000007, -2.326858194828814 
2.1100000000000283, -2.3194761088055995 
2.1200000000000494, -2.302084903802688 
2.1300000000000705, -2.250392573743642 
2.1400000000000916, -2.0843392402880627 
2.1500000000001127, -1.9203785559073299 
2.160000000000134, -1.9433611323185676 
2.170000000000155, -1.963225150013838 
2.180000000000176, -1.9688404459800597 
2.190000000000197, -1.969660626708459 
2.2000000000002182, -1.9683415429080167 
2.2100000000002393, -1.9667715999501887 
2.2200000000002604, -1.969893144362618 
2.2300000000002815, -1.9782549804187457 
2.2400000000003026, -1.9854771356037317 
2.2500000000003237, -1.9896897740771018 
2.260000000000345, -1.991924568350346 
2.270000000000366, -1.9929090794851632 
2.280000000000387, -1.9927781628609555 
2.290000000000408, -1.9913602101852192 
2.3000000000004293, -1.9882279680644466 
2.3100000000004504, -1.982499158382885 
2.3200000000004715, -1.9721802254786251 
2.3300000000004926, -1.9520783112532758 
2.3400000000005137, -1.9074634000319293 
2.3500000000005348, -1.806527134988049 
2.360000000000556, -1.6773058609875033 
2.370000000000577, -1.6465712821741612 
2.380000000000598, -1.6601287812119647 
2.390000000000619, -1.6684217442664129 
2.4000000000006403, -1.671165985596934 
2.4100000000006614, -1.6710298762858506 
2.4200000000006825, -1.6684978317396915 
2.4300000000007036, -1.6633912099269839 
2.4400000000007247, -1.6620468128153132 
2.450000000000746, -1.685732923185228 
2.460000000000767, -1.7288390658550008 
2.470000000000788, -1.7613387741567803 
2.480000000000809, -1.779704845776529 
2.49000000000083, -1.7900086646803128 
2.5000000000008513, -1.7961081065377544 
2.5100000000008724, -1.7997746710148586 
2.5200000000008935, -1.8018067966354383 
2.5300000000009146, -1.8025865884092176 
2.5400000000009357, -1.8023076675113192 
2.550000000000957, -1.8010642697314019 
2.560000000000978, -1.7988519780649281 
2.570000000000999, -1.7954403734476923 
2.58000000000102, -1.7902297355297605 
2.5900000000010412, -1.782857219284248 
2.6000000000010624, -1.7754329616280498 
2.6100000000010835, -1.7721478327599907 
2.6200000000011046, -1.7724855458027775 
2.6300000000011257, -1.7729940262596984 
2.6400000000011468, -1.7719015951404695 
2.650000000001168, -1.7671099212213874 
2.660000000001189, -1.7500613541254217 
2.67000000000121, -1.678911478938561 
2.680000000001231, -1.4136756590988353 
2.6900000000012523, -2.1854755447878054 
2.7000000000012734, -3.986778978515223 
2.7100000000012945, -4.027032865599139 
2.7200000000013156, -4.030727816817302 
2.7300000000013367, -4.029550126865 
2.740000000001358, -4.021343561881198 
2.750000000001379, -3.9154283537186223 
2.7600000000014, -2.2408270642431636 
2.770000000001421, -2.7669485434906553 
2.780000000001442, -2.82371161640424 
2.7900000000014633, -2.8299539714775115 
2.8000000000014844, -2.830328945653306 
2.8100000000015055, -2.829820266742972 
2.8200000000015266, -2.8295454076240825 
2.8300000000015477, -2.8285438239134106 
2.840000000001569, -2.827457491948764 
2.85000000000159, -2.827177214815456 
2.860000000001611, -2.825377601788857 
2.870000000001632, -2.814524402348732 
2.8800000000016532, -2.739743675878922 
2.8900000000016743, -2.904243343557603 
2.9000000000016954, -3.121974344698698 
2.9100000000017165, -3.148806329659055 
2.9200000000017377, -3.1542261200387367 
2.9300000000017588, -3.1550385949667383 
2.94000000000178, -3.1532125462002796 
2.950000000001801, -3.1466033444007353 
2.960000000001822, -3.11757093298129 
2.970000000001843, -2.8537054510532407 
2.9800000000018643, -2.469101704922456 
2.9900000000018854, -2.5982081070347824 
3.0000000000019065, -2.6178798868968576 
3.0100000000019276, -2.620710034650242 
3.0200000000019487, -2.620425584890922 
3.03000000000197, -2.6201648144840317 
3.040000000001991, -2.620853146858327 
3.050000000002012, -2.621019043344692 
3.060000000002033, -2.6206854101240795 
3.070000000002054, -2.620396689164622 
3.0800000000020753, -2.6188370204560263 
3.0900000000020964, -2.6111933551868254 
3.1000000000021175, -2.5593484712617913 
3.1100000000021386, -1.6795926106117878 
3.1200000000021597, 1.6896539935920205 
3.130000000002181, 1.8550005806053549 
3.140000000002202, 1.8666663588421273 
3.150000000002223, 1.8680758943104299 
3.160000000002244, 1.8659100003338973 
3.1700000000022652, 1.8543185987298938 
3.1800000000022863, 1.7642471136053246 
3.1900000000023074, 1.4287594290810732 
3.2000000000023285, 1.5117216775658917 
3.2100000000023496, 1.5420353263990618 
3.2200000000023707, 1.5482171114225562 
3.230000000002392, 1.5492719857985293 
3.240000000002413, 1.5486074092208437 
3.250000000002434, 1.5476531535608098 
3.260000000002455, 1.548997980326058 
3.2700000000024763, 1.5545717820956342 
3.2800000000024974, 1.5609565490069497 
3.2900000000025185, 1.5648418570913312 
3.3000000000025396, 1.5663786351399083 
3.3100000000025607, 1.5663038967566105 
3.3200000000025818, 1.5642375464136093 
3.330000000002603, 1.5552473006096812 
3.340000000002624, 1.4807372167662103 
3.350000000002645, -1.6963593515522244 
3.360000000002666, -3.501784490652387 
3.3700000000026873, -3.5463273869430685 
3.3800000000027084, -3.5513245918084038 
3.3900000000027295, -3.5510545041084702 
3.4000000000027506, -3.547879021206158 
3.4100000000027717, -3.534799532236756 
3.420000000002793, -3.505607928654789 
3.430000000002814, -3.5152689297395994 
3.440000000002835, -3.5183658320913773 
3.450000000002856, -3.5174612120792537 
3.460000000002877, -3.5178452327817125 
3.4700000000028983, -3.5187574369499806 
3.4800000000029194, -3.5184253582750777 
3.4900000000029405, -3.5177961686853814 
3.5000000000029616, -3.513268457502877 
3.5100000000029827, -3.4628193192656402 
3.520000000003004, -3.5377593168480375 
3.530000000003025, -3.7926334891420352 
3.540000000003046, -3.8088545366723734 
3.550000000003067, -3.8108208010179467 
3.5600000000030882, -3.8090415631527685 
3.5700000000031094, -3.7991822870314236 
3.5800000000031305, -3.6866763700788674 
3.5900000000031516, 0.2643631189198139 
3.6000000000031727, 1.3780296772910314 
3.6100000000031938, 1.4281164412910683 
3.620000000003215, 1.435692421142629 
3.630000000003236, 1.4372837004554486 
3.640000000003257, 1.437420801724223 
3.650000000003278, 1.4373651417984439 
3.6600000000032993, 1.4377621358148247 
3.6700000000033204, 1.4387267670281338 
3.6800000000033415, 1.4398223096155565 
3.6900000000033626, 1.4405888326962148 
3.7000000000033837, 1.4408843203970907 
3.710000000003405, 1.4406608372716168 
3.720000000003426, 1.4395247515591445 
3.730000000003447, 1.4356364131867205 
3.740000000003468, 1.4177926040001927 
3.750000000003489, 1.2074628601413668 
3.7600000000035103, -2.8779013220441763 
3.7700000000035314, -3.416228250196087 
3.7800000000035525, -3.4438836359325125 
3.7900000000035736, -3.44803374962965 
3.8000000000035947, -3.447700651237928 
3.810000000003616, -3.444250231486695 
3.820000000003637, -3.429690890014219 
3.830000000003658, -3.372626060191345 
3.840000000003679, -3.3803762025502073 
3.8500000000037002, -3.389186991693741 
3.8600000000037213, -3.3894566077148403 
3.8700000000037424, -3.3888937639798065 
3.8800000000037635, -3.389597835301786 
3.8900000000037847, -3.3892997770912907 
3.9000000000038058, -3.388823391941351 
3.910000000003827, -3.387474133060612 
3.920000000003848, -3.3771036099789837 
3.930000000003869, -3.2770242010495876 
3.94000000000389, -3.5332711373928243 
3.9500000000039113, -3.6092016291155518 
3.9600000000039324, -3.6173612294036603 
3.9700000000039535, -3.6182695052062206 
3.9800000000039746, -3.61581338419765 
3.9900000000039957, -3.604070244678492 
4.000000000004016, -3.482776682569964 
4.010000000003993, -0.23057067983688734 
4.02000000000397, 1.0770525154255355 
4.030000000003946, 1.1585683739942967 
4.040000000003923, 1.1716543427896577 
4.0500000000039, 1.1748577107335298 
4.0600000000038765, 1.1754738450334425 
4.070000000003853, 1.1752315149228294 
4.08000000000383, 1.1750652133477115 
4.090000000003807, 1.1761089043026514 
4.100000000003783, 1.1793431955225184 
4.11000000000376, 1.1841802905264098 
4.120000000003737, 1.1886713489431435 
4.130000000003713, 1.1916105912571606 
4.14000000000369, 1.1929836357522696 
4.150000000003667, 1.1930396519863384 
4.1600000000036434, 1.191489205553456 
4.17000000000362, 1.1859938274131447 
4.180000000003597, 1.1618227294285965 
4.1900000000035735, 0.9129588192013722 
4.20000000000355, -2.419304544103885 
4.210000000003527, -3.0382316073265168 
4.220000000003504, -3.073640786238008 
4.23000000000348, -3.0786847423070913 
4.240000000003457, -3.078862976754456 
4.250000000003434, -3.0773241897141093 
4.26000000000341, -3.0732991793366873 
4.270000000003387, -3.064578206685778 
4.280000000003364, -3.0616965288528566 
4.2900000000033405, -3.063884712622856 
4.300000000003317, -3.0630354028803684 
4.310000000003294, -3.059494614183556 
4.320000000003271, -3.063961588989731 
4.330000000003247, -3.0718778152590978 
4.340000000003224, -3.074568039782211 
4.350000000003201, -3.0749863117078045 
4.360000000003177, -3.073467050660538 
4.370000000003154, -3.065912134315878 
4.380000000003131, -3.0177182942328806 
4.390000000003107, -2.11338521372689 
4.400000000003084, 0.9334936723726294 
4.410000000003061, 1.122949406729378 
4.4200000000030375, 1.1438771200848186 
4.430000000003014, 1.1485460193261416 
4.440000000002991, 1.1495777743516211 
4.450000000002968, 1.149150925248118 
4.460000000002944, 1.1476548960424882 
4.470000000002921, 1.1450515826567789 
4.480000000002898, 1.1414631250783267 
4.490000000002874, 1.1376416918915233 
4.500000000002851, 1.1347200387853258 
4.510000000002828, 1.1331929019534364 
4.520000000002804, 1.132617119937168 
4.530000000002781, 1.1322268174090881 
4.540000000002758, 1.1312342772299557 
4.5500000000027345, 1.128252214053727 
4.560000000002711, 1.1181479233473606 
4.570000000002688, 1.0657432904506594 
4.580000000002665, 0.31795022333916967 
4.590000000002641, -3.0270961512160453 
4.600000000002618, -3.256438329841198 
4.610000000002595, -3.277105237250242 
4.620000000002571, -3.281008731167656 
4.630000000002548, -3.280869592300219 
4.640000000002525, -3.277839355359248 
4.6500000000025015, -3.2665104586247424 
4.660000000002478, -3.20771336998276 
4.670000000002455, -3.1622070259817443 
4.6800000000024315, -3.1868431592374438 
4.690000000002408, -3.190471477023271 
4.700000000002385, -3.18996848409614 
4.710000000002362, -3.189928005292059 
4.720000000002338, -3.190503714204609 
4.730000000002315, -3.190054818466667 
4.740000000002292, -3.189653920586574 
4.750000000002268, -3.1880193072248657 
4.760000000002245, -3.1765179466441493 
4.770000000002222, -3.0507729209979924 
4.7800000000021985, -3.3999089298393192 
4.790000000002175, -3.5721913195472235 
4.800000000002152, -3.5862516119368073 
4.810000000002129, -3.5883610052248294 
4.820000000002105, -3.5870061990605557 
4.830000000002082, -3.5800425355180865 
4.840000000002059, -3.5332656866104935 
4.850000000002035, -2.3833596552473586 
4.860000000002012, -1.2327182506730616 
4.870000000001989, -1.3864413630036814 
4.880000000001965, -1.46331277147521 
4.890000000001942, -1.4867722380621269 
4.900000000001919, -1.4940378628398618 
4.9100000000018955, -1.4960058644663727 
4.920000000001872, -1.4955569564639057 
4.930000000001849, -1.493295010016665 
4.940000000001826, -1.4901182629126182 
4.950000000001802, -1.4919742473498283 
4.960000000001779, -1.5103292232979784 
4.970000000001756, -1.5415350163168366 
