t, s[1].omega / s[0].omega 
0, -0.799905944530424 
0.009999999999999995, -0.7910878978267293 
0.019999999999999934, -0.7833972871477858 
0.029999999999999874, -0.77667408658711 
0.04000000000000012, -0.7707361813432632 
0.050000000000000405, -0.7654517633400186 
0.06000000000000069, -0.7607575340476326 
0.07000000000000098, -0.7566520585292368 
0.08000000000000126, -0.753178198511364 
0.09000000000000155, -0.7503981745234166 
0.10000000000000184, -0.7483607470216735 
0.11000000000000212, -0.7470654103265733 
0.12000000000000241, -0.7464386255705177 
0.130000000000002, -0.7463378186253631 
0.1400000000000009, -0.746583505213027 
0.1499999999999998, -0.7470027297016318 
0.1599999999999987, -0.74746575443791 
0.1699999999999976, -0.7479087326333675 
0.1799999999999965, -0.7483407196471628 
0.1899999999999954, -0.7488308147770115 
0.1999999999999943, -0.7494742207379614 
0.2099999999999932, -0.7503471033995915 
0.2199999999999921, -0.751463604693999 
0.229999999999991, -0.7527449781762794 
0.2399999999999899, -0.7540189140676202 
0.2499999999999888, -0.7550716828580624 
0.2599999999999877, -0.7557374166043677 
0.2699999999999866, -0.7559621201959825 
0.2799999999999855, -0.7558087572187041 
0.2899999999999844, -0.7554397697048182 
0.2999999999999833, -0.7551274507784018 
0.3099999999999822, -0.7553014832477252 
0.3199999999999811, -0.7565926939188281 
0.32999999999998, -0.7597966005828757 
0.3399999999999789, -0.7657000817584354 
0.3499999999999778, -0.7748263991071191 
0.35999999999997667, -0.7872741751591815 
0.36999999999997557, -0.8027860232178542 
0.37999999999997447, -0.8209934825145361 
0.38999999999997337, -0.8416634815091463 
0.39999999999997227, -0.8648107025131188 
0.40999999999997117, -0.890608261744625 
0.41999999999997006, -0.9190081866874769 
0.42999999999996896, -0.9489875226068772 
0.43999999999996786, -0.9778192943746277 
0.44999999999996676, -1.0017320981011795 
0.45999999999996566, -1.0183714431327802 
0.46999999999996456, -1.0282217032847876 
0.47999999999996346, -1.0333258620335553 
0.48999999999996235, -1.0355822698232031 
0.49999999999996125, -1.0361867117408283 
0.5099999999999602, -1.035805946190028 
0.519999999999959, -1.0349624108158042 
0.529999999999958, -1.034559532160142 
0.5399999999999568, -1.036482621008887 
0.5499999999999557, -1.0434953415134032 
0.5599999999999546, -1.0573534224035306 
0.5699999999999535, -1.0767086037684748 
0.5799999999999524, -1.098097650263822 
0.5899999999999513, -1.118682866138165 
0.5999999999999502, -1.1373089020283706 
0.6099999999999491, -1.15392521813881 
0.619999999999948, -1.16881050324782 
0.6299999999999469, -1.1821113373795815 
0.6399999999999458, -1.193652497189214 
0.6499999999999447, -1.2030034405559527 
0.6599999999999436, -1.2098074119505784 
0.6699999999999425, -1.2141201632037641 
0.6799999999999414, -1.2164073320111115 
0.6899999999999403, -1.2172717402942503 
0.6999999999999392, -1.217257838674081 
0.7099999999999381, -1.2168663662494383 
0.719999999999937, -1.2166454654752419 
0.7299999999999359, -1.2171105308437868 
0.7399999999999348, -1.2184392518581215 
0.7499999999999337, -1.2203538477374278 
0.7599999999999326, -1.2224272691301952 
0.7699999999999315, -1.224394058522271 
0.7799999999999304, -1.226163686739204 
0.7899999999999293, -1.2276917882715417 
0.7999999999999282, -1.2289152257785467 
0.8099999999999271, -1.2297760591918232 
0.819999999999926, -1.2302569509893002 
0.8299999999999249, -1.2303805918825568 
0.8399999999999238, -1.2301792658763782 
0.8499999999999227, -1.2296626376279485 
0.8599999999999216, -1.2288091798932235 
0.8699999999999205, -1.2275876348517136 
0.8799999999999194, -1.2259917418130015 
0.8899999999999183, -1.2240591334820412 
0.8999999999999172, -1.221853314889414 
0.9099999999999161, -1.2194260111606732 
0.919999999999915, -1.2168314228837305 
0.9299999999999139, -1.2142369299751465 
0.9399999999999128, -1.212011589503923 
0.9499999999999117, -1.2105619284924714 
0.9599999999999106, -1.2099580638734961 
0.9699999999999095, -1.2098186024615585 
0.9799999999999084, -1.2095856759439925 
0.9899999999999073, -1.2087451508036762 
0.9999999999999062, -1.206797804357561 
1.0099999999999052, -1.2031820381620126 
1.019999999999904, -1.1973582215425274 
1.029999999999903, -1.189070138142322 
1.039999999999902, -1.1785143376494294 
1.0499999999999008, -1.1661513324154327 
1.0599999999998997, -1.1523344786578382 
1.0699999999998986, -1.1371103957422826 
1.0799999999998975, -1.1202782425596953 
1.0899999999998964, -1.101661022688628 
1.0999999999998953, -1.081629157441825 
1.1099999999998942, -1.0617982707607492 
1.119999999999893, -1.0451182313285288 
1.129999999999892, -1.0342269637247559 
1.1399999999998909, -1.0292367972907142 
1.1499999999998898, -1.0279851187616331 
1.1599999999998887, -1.028150062158248 
1.1699999999998876, -1.028351319161445 
1.1799999999998865, -1.027913550571871 
1.1899999999998854, -1.0263221073203197 
1.1999999999998843, -1.0228031564103974 
1.2099999999998832, -1.0160608218434732 
1.219999999999882, -1.0043896802582486 
1.229999999999881, -0.9866266411973783 
1.2399999999998799, -0.9635649737151402 
1.2499999999998788, -0.9379257658941309 
1.2599999999998777, -0.9124955524871637 
1.2699999999998766, -0.8887752239791025 
1.2799999999998755, -0.8671285910071896 
1.2899999999998744, -0.8474490733755689 
1.2999999999998733, -0.8296332474437131 
1.3099999999998722, -0.813790444253429 
1.319999999999871, -0.8002602259326457 
1.32999999999987, -0.7894668847255344 
1.3399999999998689, -0.7816609138124392 
1.3499999999998678, -0.7766966860500873 
1.3599999999998666, -0.7740183587138951 
1.3699999999998655, -0.7728639031004888 
1.3799999999998644, -0.7725145419417382 
1.3899999999998633, -0.7724294906301732 
1.3999999999998622, -0.7722505149832276 
1.4099999999998611, -0.7717521630116078 
1.41999999999986, -0.7708089214169049 
1.429999999999859, -0.7694032918400919 
1.4399999999998578, -0.7676437453914035 
1.4499999999998567, -0.7657350935555705 
1.4599999999998556, -0.7638916036805053 
1.4699999999998545, -0.7622539034788265 
1.4799999999998534, -0.7608608869871799 
1.4899999999998523, -0.7596692193989235 
1.4999999999998512, -0.758593534327296 
1.5099999999998501, -0.7575522794532817 
1.519999999999849, -0.7565079439752911 
1.529999999999848, -0.7554894696741514 
1.5399999999998468, -0.754592585954237 
1.5499999999998457, -0.7539616557477737 
1.5599999999998446, -0.7537572042283653 
1.5699999999998435, -0.754115991077162 
1.5799999999998424, -0.7551184704368187 
1.5899999999998413, -0.7567792213342582 
1.5999999999998402, -0.7590625691780518 
1.6099999999998391, -0.7619110340946259 
1.619999999999838, -0.7652730125198807 
1.629999999999837, -0.769125006224354 
1.6399999999998358, -0.7734896855013447 
1.6499999999998347, -0.7784483712411026 
1.6599999999998336, -0.784138990001916 
1.6699999999998325, -0.7907215895013338 
1.6799999999998314, -0.7982826458140574 
1.6899999999998303, -0.8066561537933087 
1.6999999999998292, -0.8152340420792855 
1.709999999999828, -0.8230220676942948 
1.719999999999827, -0.8291120309806796 
1.729999999999826, -0.833174078486981 
1.7399999999998248, -0.8354470106387704 
1.7499999999998237, -0.836382930089342 
1.7599999999998226, -0.8363853487284517 
1.7699999999998215, -0.8357774899835964 
1.7799999999998204, -0.8349624686687347 
1.7899999999998193, -0.8348002602799086 
1.7999999999998182, -0.8372734258647705 
1.809999999999817, -0.8462249418838829 
1.819999999999816, -0.8670868195510432 
1.8299999999998149, -0.9040726494138852 
1.8399999999998138, -0.9559812137583638 
1.8499999999998127, -1.0158011041816544 
1.8599999999998116, -1.075616103222338 
1.8699999999998105, -1.1307054034048023 
1.8799999999998094, -1.179327973268719 
1.8899999999998083, -1.2206694521701773 
1.8999999999998072, -1.253629516872715 
1.909999999999806, -1.2772908576959332 
1.919999999999805, -1.2921789188649853 
1.9299999999998039, -1.3003814229787916 
1.9399999999998028, -1.304337794615311 
1.9499999999998017, -1.3058705321085804 
1.9599999999998006, -1.306084590854006 
1.9699999999997995, -1.305712063728326 
1.9799999999997984, -1.3054842818084882 
1.9899999999997973, -1.3061664252037883 
1.9999999999997962, -1.3080614189676059 
2.0099999999998173, -1.3107115831508047 
2.0199999999998384, -1.3134249324161775 
2.0299999999998595, -1.315822835841864 
2.0399999999998806, -1.3178289334471973 
2.0499999999999017, -1.3194416264660125 
2.059999999999923, -1.32062834063098 
2.069999999999944, -1.321350427689405 
2.079999999999965, -1.3216017651887415 
2.089999999999986, -1.3214066455387865 
2.100000000000007, -1.320790520732025 
2.1100000000000283, -1.3197543683379682 
2.1200000000000494, -1.3182736656880711 
2.1300000000000705, -1.316319697901997 
2.1400000000000916, -1.313878359311253 
2.1500000000001127, -1.3109389727196863 
2.160000000000134, -1.3074696326450357 
2.170000000000155, -1.3034790628100126 
2.180000000000176, -1.299250356027208 
2.190000000000197, -1.2955449697746169 
2.2000000000002182, -1.293227995950843 
2.2100000000002393, -1.2923999900908196 
2.2200000000002604, -1.2922956224952444 
2.2300000000002815, -1.292011311824242 
2.2400000000003026, -1.2908075492685442 
2.2500000000003237, -1.287782465685561 
2.260000000000345, -1.2813298986684964 
2.270000000000366, -1.2686898731197025 
2.280000000000387, -1.246258449858805 
2.290000000000408, -1.211408858982519 
2.3000000000004293, -1.164510015528958 
2.3100000000004504, -1.1084047329763793 
2.3200000000004715, -1.0462800288436898 
2.3300000000004926, -0.981069283875789 
2.3400000000005137, -0.9166016605086614 
2.3500000000005348, -0.858379252178295 
2.360000000000556, -0.8120781798897438 
2.370000000000577, -0.7805117508607733 
2.380000000000598, -0.7623037909003545 
2.390000000000619, -0.7535211111348459 
2.4000000000006403, -0.7501182294421322 
2.4100000000006614, -0.7492248091223576 
2.4200000000006825, -0.7492114814460795 
2.4300000000007036, -0.7492665748014319 
2.4400000000007247, -0.7489853099098505 
2.450000000000746, -0.7481162475436041 
2.460000000000767, -0.7464579111204916 
2.470000000000788, -0.7438819732538635 
2.480000000000809, -0.7404405279805852 
2.49000000000083, -0.7364352299163259 
2.5000000000008513, -0.7323169419337214 
2.5100000000008724, -0.7284743005263896 
2.5200000000008935, -0.725104278635425 
2.5300000000009146, -0.7222270858575633 
2.5400000000009357, -0.7197644252562736 
2.550000000000957, -0.7176110415409246 
2.560000000000978, -0.7156833523819871 
2.570000000000999, -0.7139469108624368 
2.58000000000102, -0.7124232884825095 
2.5900000000010412, -0.7111787889168449 
2.6000000000010624, -0.710301546385831 
2.6100000000010835, -0.7098756589390409 
2.6200000000011046, -0.7099609662205462 
2.6300000000011257, -0.7105841382144947 
2.6400000000011468, -0.7117410956953931 
2.650000000001168, -0.7134065701175163 
2.660000000001189, -0.7155471607921448 
2.67000000000121, -0.7181373342818607 
2.680000000001231, -0.7211786486210288 
2.6900000000012523, -0.7247194457004981 
2.7000000000012734, -0.7288678145169702 
2.7100000000012945, -0.7337870019942038 
2.7200000000013156, -0.7396564381944706 
2.7300000000013367, -0.7465695694989298 
2.740000000001358, -0.7543480874401026 
2.750000000001379, -0.7623598575822343 
2.7600000000014, -0.7696102095644194 
2.770000000001421, -0.7752350810999118 
2.780000000001442, -0.7789504206045375 
2.7900000000014633, -0.7809952576372562 
2.8000000000014844, -0.7817839440797869 
2.8100000000015055, -0.781670523690663 
2.8200000000015266, -0.7809240815276162 
2.8300000000015477, -0.7798818810934774 
2.840000000001569, -0.7793554318202502 
2.85000000000159, -0.7815522265942711 
2.860000000001611, -0.7918222174904865 
2.870000000001632, -0.8206665193797276 
2.8800000000016532, -0.8821312586941357 
2.8900000000016743, -0.9816063476462074 
2.9000000000016954, -1.1010666984847877 
2.9100000000017165, -1.2116034747791464 
2.9200000000017377, -1.2987564693396738 
2.9300000000017588, -1.3627691861107254 
2.94000000000178, -1.4078750923079075 
2.950000000001801, -1.437802318308678 
2.960000000001822, -1.4559256858639273 
2.970000000001843, -1.465770925361865 
2.9800000000018643, -1.4705153927823553 
2.9900000000018854, -1.4724019652688227 
3.0000000000019065, -1.4727632563142021 
3.0100000000019276, -1.4724254461293849 
3.0200000000019487, -1.4720759080781842 
3.03000000000197, -1.4722308982725738 
3.040000000001991, -1.4728919308061754 
3.050000000002012, -1.4736688739255897 
3.060000000002033, -1.4743145162366273 
3.070000000002054, -1.4748543582603448 
3.0800000000020753, -1.475299033883736 
3.0900000000020964, -1.475456264440462 
3.1000000000021175, -1.4750141856142107 
3.1100000000021386, -1.4736500053824206 
3.1200000000021597, -1.4710622269227729 
3.130000000002181, -1.4669967824017478 
3.140000000002202, -1.4612499553920033 
3.150000000002223, -1.4535756660192714 
3.160000000002244, -1.4434959261159739 
3.1700000000022652, -1.4300607155113678 
3.1800000000022863, -1.411654875911276 
3.1900000000023074, -1.3864069986252292 
3.2000000000023285, -1.3549416281691442 
3.2100000000023496, -1.3255046655878455 
3.2200000000023707, -1.309551947010212 
3.230000000002392, -1.3065436195184201 
3.240000000002413, -1.3080978287998835 
3.250000000002434, -1.3095215601460455 
3.260000000002455, -1.3096522281678298 
3.2700000000024763, -1.3079506727884547 
3.2800000000024974, -1.302713721449338 
3.2900000000025185, -1.2879374291415453 
3.3000000000025396, -1.2406957898214086 
3.3100000000025607, -1.0622238649965436 
3.3200000000025818, -0.45256036950392575 
3.330000000002603, 0.2193028498890397 
3.340000000002624, 0.4089374210671878 
3.350000000002645, 0.45397957686588697 
3.360000000002666, 0.4679512566828648 
3.3700000000026873, 0.4731490053803685 
3.3800000000027084, 0.475103786531146 
3.3900000000027295, 0.4755347903204655 
3.4000000000027506, 0.47508185273917675 
3.4100000000027717, 0.4740588266325966 
3.420000000002793, 0.4727157920166821 
3.430000000002814, 0.4713242534419638 
3.440000000002835, 0.4701647819727012 
3.450000000002856, 0.46947283349853863 
3.460000000002877, 0.46939344607411027 
3.4700000000028983, 0.46995684728955756 
3.4800000000029194, 0.47106143707068016 
3.4900000000029405, 0.47247296062791583 
3.5000000000029616, 0.47387224856598387 
3.5100000000029827, 0.47494475197859015 
3.520000000003004, 0.47543855275448277 
3.530000000003025, 0.47511840392602733 
3.540000000003046, 0.47357792883163813 
3.550000000003067, 0.46977321311773207 
3.5600000000030882, 0.46057846485652937 
3.5700000000031094, 0.43492932363249626 
3.5800000000031305, 0.34454033665870876 
3.5900000000031516, -0.005509784727298327 
3.6000000000031727, -0.6094018561637735 
3.6100000000031938, -0.8953096782274624 
3.620000000003215, -0.9807540914406248 
3.630000000003236, -1.0083782334680147 
3.640000000003257, -1.0184561668833942 
3.650000000003278, -1.022240867700988 
3.6600000000032993, -1.0232050468643796 
3.6700000000033204, -1.0223047274420614 
3.6800000000033415, -1.0192475333716744 
3.6900000000033626, -1.0123745263575767 
3.7000000000033837, -0.9974946946105645 
3.710000000003405, -0.9663604788784086 
3.720000000003426, -0.9182863750459299 
3.730000000003447, -1.043489043032405 
3.740000000003468, -3.0296021673389224 
3.750000000003489, -3.4750920890761163 
3.7600000000035103, -3.4999501755603495 
3.7700000000035314, -3.503884335028423 
3.7800000000035525, -3.5035556329815316 
3.7900000000035736, -3.4995844513195635 
3.8000000000035947, -3.480770711001292 
3.810000000003616, -3.278377262158268 
3.820000000003637, -3.0957723857961623 
3.830000000003658, -3.173282668153821 
3.840000000003679, -3.1804561412993126 
3.8500000000037002, -3.1806596271105088 
3.8600000000037213, -3.1801609902515944 
3.8700000000037424, -3.179714104069326 
3.8800000000037635, -3.178298935287987 
3.8900000000037847, -3.1776340066427897 
3.9000000000038058, -3.176866483183958 
3.910000000003827, -3.170628915042149 
3.920000000003848, -3.1357826810977465 
3.930000000003869, -3.210455503582353 
3.94000000000389, -3.2710169280457166 
3.9500000000039113, -3.281018178389222 
3.9600000000039324, -3.2829625804767937 
3.9700000000039535, -3.2820067556239385 
3.9800000000039746, -3.276928402274072 
3.9900000000039957, -3.2545115269961484 
4.000000000004016, -3.009151980927114 
4.010000000003993, 0.12392542413953019 
4.02000000000397, 0.9247545618239924 
4.030000000003946, 0.9909214995086953 
4.040000000003923, 1.003643610201929 
4.0500000000039, 1.0071271375880912 
4.0600000000038765, 1.0079392388372166 
4.070000000003853, 1.0077127593869473 
4.08000000000383, 1.007213026561644 
4.090000000003807, 1.0074612496525348 
4.100000000003783, 1.01023288319929 
4.11000000000376, 1.0168950899297693 
4.120000000003737, 1.0256790747806832 
4.130000000003713, 1.0329980533186391 
4.14000000000369, 1.03741527805489 
4.150000000003667, 1.0394428722277858 
4.1600000000036434, 1.0397438318514953 
4.17000000000362, 1.03825472991624 
4.180000000003597, 1.0330122796253525 
4.1900000000035735, 1.0129481426421705 
4.20000000000355, 0.8743134002230567 
4.210000000003527, -0.9530028707967274 
4.220000000003504, -2.354103290821305 
4.23000000000348, -2.458624103356507 
4.240000000003457, -2.4730924448152747 
4.250000000003434, -2.4757610385058566 
4.26000000000341, -2.475720825731302 
4.270000000003387, -2.4750914159824573 
4.280000000003364, -2.4742911801400687 
4.2900000000033405, -2.4727167166687334 
4.300000000003317, -2.4711015121686364 
4.310000000003294, -2.470759394925378 
4.320000000003271, -2.4701681080356224 
4.330000000003247, -2.46624738466266 
4.340000000003224, -2.4457539724651616 
4.350000000003201, -2.3173021305172483 
4.360000000003177, -2.6415968411293163 
4.370000000003154, -3.0967871668630735 
4.380000000003131, -3.1401117504155978 
4.390000000003107, -3.1479679361723325 
4.400000000003084, -3.1495466334454565 
4.410000000003061, -3.148391064749716 
4.4200000000030375, -3.143584203027987 
4.430000000003014, -3.1249268087542954 
4.440000000002991, -2.996602332570899 
4.450000000002968, -2.786019724730881 
4.460000000002944, -2.8632564308237347 
4.470000000002921, -2.875438157465857 
4.480000000002898, -2.8766884572534392 
4.490000000002874, -2.876106990850195 
4.500000000002851, -2.8763075444693325 
4.510000000002828, -2.876517568034372 
4.520000000002804, -2.875951121200116 
4.530000000002781, -2.8755986824476394 
4.540000000002758, -2.87436021903943 
4.5500000000027345, -2.867024991825962 
4.560000000002711, -2.8047642212726105 
4.570000000002688, -2.4019893949003013 
4.580000000002665, -3.77512509134644 
4.590000000002641, -3.8509514395528632 
4.600000000002618, -3.857517647807703 
4.610000000002595, -3.8575915125161737 
4.620000000002571, -3.853447699831431 
4.630000000002548, -3.8270045650293163 
4.640000000002525, -3.0586122542204923 
4.6500000000025015, -2.255394872860386 
4.660000000002478, -2.5206257369651337 
4.670000000002455, -2.5491857474894086 
4.6800000000024315, -2.5534092970618074 
4.690000000002408, -2.553533967018814 
4.700000000002385, -2.5530893588987547 
4.710000000002362, -2.55338532360094 
4.720000000002338, -2.553430884828047 
4.730000000002315, -2.5529101913051315 
4.740000000002292, -2.5526145234963034 
4.750000000002268, -2.5517730727197647 
4.760000000002245, -2.5474600167873502 
4.770000000002222, -2.5240045115532865 
4.7800000000021985, -2.271649603780809 
4.790000000002175, 0.9819383404809978 
4.800000000002152, 1.948902167215652 
4.810000000002129, 1.977737712827032 
4.820000000002105, 1.9811125022253548 
4.830000000002082, 1.98011860265895 
4.840000000002059, 1.9725668288515266 
4.850000000002035, 1.9111226151551175 
4.860000000002012, 1.3674739627541908 
4.870000000001989, 1.4532814107583565 
4.880000000001965, 1.5091776177022276 
4.890000000001942, 1.5189668652282982 
4.900000000001919, 1.5209404148541683 
4.9100000000018955, 1.5207420659018722 
4.920000000001872, 1.519958790938455 
4.930000000001849, 1.5204464975093372 
4.940000000001826, 1.524165066835963 
4.950000000001802, 1.5296073069961178 
