t, s[1].omega / s[0].omega 
0, -0.5899977469061273 
0.009999999999999995, -0.589941279496643 
0.019999999999999934, -0.5901784129695886 
0.029999999999999874, -0.5905942923520315 
0.04000000000000012, -0.5910277787567296 
0.050000000000000405, -0.5913240883863935 
0.06000000000000069, -0.5913874915931543 
0.07000000000000098, -0.5912038310013439 
0.08000000000000126, -0.5908369386471714 
0.09000000000000155, -0.5904315537192585 
0.10000000000000184, -0.5902546013284088 
0.11000000000000212, -0.590798667319835 
0.12000000000000241, -0.5929724057291857 
0.130000000000002, -0.5984045543924721 
0.1400000000000009, -0.6098671168273978 
0.1499999999999998, -0.6317293053317858 
0.1599999999999987, -0.6700845895398785 
0.1699999999999976, -0.7316676602218256 
0.1799999999999965, -0.8204170505041046 
0.1899999999999954, -0.9324417945523809 
0.1999999999999943, -1.0542297401511809 
0.2099999999999932, -1.167690178278519 
0.2199999999999921, -1.2579452517162497 
0.229999999999991, -1.318825653338861 
0.2399999999999899, -1.3538275909568918 
0.2499999999999888, -1.3714964517203716 
0.2599999999999877, -1.3796229137305667 
0.2699999999999866, -1.3830169898200133 
0.2799999999999855, -1.3841010487181518 
0.2899999999999844, -1.3840371382078778 
0.2999999999999833, -1.3835644311394728 
0.3099999999999822, -1.3834853071639204 
0.3199999999999811, -1.3845503982096723 
0.32999999999998, -1.386798430663156 
0.3399999999999789, -1.3895246835804298 
0.3499999999999778, -1.3920669351977761 
0.35999999999997667, -1.3941851938033003 
0.36999999999997557, -1.395862886616694 
0.37999999999997447, -1.3970856528951447 
0.38999999999997337, -1.397805857260462 
0.39999999999997227, -1.397986396404821 
0.40999999999997117, -1.39762085320273 
0.41999999999997006, -1.396719488598941 
0.42999999999996896, -1.3952832023789818 
0.43999999999996786, -1.3932865523765448 
0.44999999999996676, -1.3906772382196173 
0.45999999999996566, -1.3873780386283097 
0.46999999999996456, -1.3832740427751684 
0.47999999999996346, -1.3782273931075792 
0.48999999999996235, -1.3722743597248326 
0.49999999999996125, -1.3660987134898652 
0.5099999999999602, -1.3612220416671632 
0.519999999999959, -1.3588311032697367 
0.529999999999958, -1.3584157329899837 
0.5399999999999568, -1.3585685027507428 
0.5499999999999557, -1.3582382517121885 
0.5599999999999546, -1.3566439720218448 
0.5699999999999535, -1.3524406115592853 
0.5799999999999524, -1.3422204451141213 
0.5899999999999513, -1.3171869403923888 
0.5999999999999502, -1.2571247225904683 
0.6099999999999491, -1.1306895201530556 
0.619999999999948, -0.9327854668379125 
0.6299999999999469, -0.7263259128329246 
0.6399999999999458, -0.5737187648934922 
0.6499999999999447, -0.47944760573046336 
0.6599999999999436, -0.42406269402165914 
0.6699999999999425, -0.39123081202339877 
0.6799999999999414, -0.3712510559277326 
0.6899999999999403, -0.3587783575627328 
0.6999999999999392, -0.3508573391037467 
0.7099999999999381, -0.3458087049955213 
0.719999999999937, -0.3426483414695697 
0.7299999999999359, -0.3407853169516249 
0.7399999999999348, -0.3398621762586544 
0.7499999999999337, -0.3396696895014094 
0.7599999999999326, -0.34010302738143067 
0.7699999999999315, -0.3411438493229625 
0.7799999999999304, -0.34286224715811775 
0.7899999999999293, -0.34543876525645933 
0.7999999999999282, -0.34921333800385296 
0.8099999999999271, -0.354778792822657 
0.819999999999926, -0.36315424670459506 
0.8299999999999249, -0.37608744353594087 
0.8399999999999238, -0.3964647302166075 
0.8499999999999227, -0.42832448550647956 
0.8599999999999216, -0.4745267922350636 
0.8699999999999205, -0.5302210934224169 
0.8799999999999194, -0.5807489046151724 
0.8899999999999183, -0.6150281636400673 
0.8999999999999172, -0.6340695154224627 
0.9099999999999161, -0.6436806099902503 
0.919999999999915, -0.6482970186618845 
0.9299999999999139, -0.6502655776274759 
0.9399999999999128, -0.6506203711908491 
0.9499999999999117, -0.6496330965272148 
0.9599999999999106, -0.6469547051255848 
0.9699999999999095, -0.6413151725759708 
0.9799999999999084, -0.6294202436864607 
0.9899999999999073, -0.6030295758609064 
0.9999999999999062, -0.5437118191971675 
1.0099999999999052, -0.4282408549888296 
1.019999999999904, -0.27853705050119115 
1.029999999999903, -0.1647695991966687 
1.039999999999902, -0.10404247781572676 
1.0499999999999008, -0.07454148261004583 
1.0599999999998997, -0.05967257462573731 
1.0699999999998986, -0.05164604544197384 
1.0799999999998975, -0.04703063335617223 
1.0899999999998964, -0.044242454695819326 
1.0999999999998953, -0.04249248506357049 
1.1099999999998942, -0.041358709911908646 
1.119999999999893, -0.04060872657583654 
1.129999999999892, -0.04012460848685057 
1.1399999999998909, -0.03987312145290831 
1.1499999999998898, -0.0399039163027359 
1.1599999999998887, -0.04037879104504782 
1.1699999999998876, -0.041647928174597684 
1.1799999999998865, -0.04436683404641969 
1.1899999999998854, -0.04925770549961037 
1.1999999999998843, -0.05228599058088146 
1.2099999999998832, 0.0016060855953945713 
1.219999999999882, 0.3987598962160403 
1.229999999999881, 0.8443969937848592 
1.2399999999998799, 0.9412298550570026 
1.2499999999998788, 0.9609464935281714 
1.2599999999998777, 0.9662832068293159 
1.2699999999998766, 0.9675503108969735 
1.2799999999998755, 0.9667865504858477 
1.2899999999998744, 0.9638397497296335 
1.2999999999998733, 0.9570437153605523 
1.3099999999998722, 0.9433113403390173 
1.319999999999871, 0.9222111277182696 
1.32999999999987, 0.9037013143514356 
1.3399999999998689, 0.8963857787555316 
1.3499999999998678, 0.8958805030707578 
1.3599999999998666, 0.8968716939763276 
1.3699999999998655, 0.8975016949162902 
1.3799999999998644, 0.8972795054584554 
1.3899999999998633, 0.8956934105806482 
1.3999999999998622, 0.8911145625523111 
1.4099999999998611, 0.8770648260612776 
1.41999999999986, 0.817567821226896 
1.429999999999859, 0.4180595337547765 
1.4399999999998578, -1.869785116106017 
1.4499999999998567, -4.2379748882998385 
1.4599999999998556, -4.2739614681803255 
1.4699999999998545, -4.276569814006806 
1.4799999999998534, -4.274505860900419 
1.4899999999998523, -4.259871683535947 
1.4999999999998512, -3.8943410784851133 
1.5099999999998501, -3.9119325474270754 
1.519999999999849, -3.9485011832681685 
1.529999999999848, -3.950289156965733 
1.5399999999998468, -3.9493623605701016 
1.5499999999998457, -3.946935257509785 
1.5599999999998446, -3.9429936779510895 
1.5699999999998435, -3.943601957907821 
1.5799999999998424, -3.942488496434661 
1.5899999999998413, -3.9397722606592955 
1.5999999999998402, -3.9451588873054577 
1.6099999999998391, -3.9474134465257906 
1.619999999999838, -3.947252151106406 
1.629999999999837, -3.9439209481589765 
1.6399999999998358, -3.9020177250760093 
1.6499999999998347, -2.2383294890665786 
1.6599999999998336, -5.4262498187356885 
1.6699999999998325, -5.446882798923772 
1.6799999999998314, -5.446090847025242 
1.6899999999998303, -5.4282897798782805 
1.6999999999998292, -2.184830178203558 
1.709999999999828, -3.746313985779474 
1.719999999999827, -3.8138045953877033 
1.729999999999826, -3.8173806204657397 
1.7399999999998248, -3.8167007596502662 
1.7499999999998237, -3.8143115803531424 
1.7599999999998226, -3.808334326157394 
1.7699999999998215, -3.807586259114141 
1.7799999999998204, -3.808395223531575 
1.7899999999998193, -3.8061491264848626 
1.7999999999998182, -3.8074274656060405 
1.809999999999817, -3.810742108525138 
1.819999999999816, -3.811209411069798 
1.8299999999998149, -3.8102129921378394 
1.8399999999998138, -3.80218766804589 
1.8499999999998127, -3.628861608341134 
1.8599999999998116, -4.324646674322168 
1.8699999999998105, -4.632719931536017 
1.8799999999998094, -4.640010525523008 
1.8899999999998083, -4.639058670200237 
1.8999999999998072, -4.628421775956189 
1.909999999999806, -4.146350554516964 
1.919999999999805, -3.553643204917462 
1.9299999999998039, -3.7085783163100894 
1.9399999999998028, -3.7154553860942636 
1.9499999999998017, -3.71534674097279 
1.9599999999998006, -3.7138547577534156 
1.9699999999997995, -3.709896373135584 
1.9799999999997984, -3.7069034932843286 
1.9899999999997973, -3.707949116858258 
1.9999999999997962, -3.7062758852936732 
2.0099999999998173, -3.7042856094517838 
2.0199999999998384, -3.7102056782952886 
2.0299999999998595, -3.7125992499042217 
2.0399999999998806, -3.712616246194789 
2.0499999999999017, -3.71007379159498 
2.059999999999923, -3.6879060168525384 
2.069999999999944, -2.5930094494661677 
2.079999999999965, 2.801531046092719 
2.089999999999986, 2.861315222481701 
2.100000000000007, 2.8640099281038416 
2.1100000000000283, 2.861207367370097 
2.1200000000000494, 2.8257809241183542 
2.1300000000000705, 2.1107861883999073 
2.1400000000000916, 2.45692644361635 
2.1500000000001127, 2.4755570678318954 
2.160000000000134, 2.4773431145670908 
2.170000000000155, 2.477241122684169 
2.180000000000176, 2.4765377636263315 
2.190000000000197, 2.474836172594044 
2.2000000000002182, 2.4727527059476526 
2.2100000000002393, 2.472047942010105 
2.2200000000002604, 2.4715956954627107 
2.2300000000002815, 2.468239482335621 
2.2400000000003026, 2.451127786768228 
2.2500000000003237, 2.466091535789587 
2.260000000000345, 2.5170071436638213 
2.270000000000366, 2.525402268402364 
2.280000000000387, 2.5260371823651027 
2.290000000000408, 2.522406152917277 
2.3000000000004293, 2.4773115017561436 
2.3100000000004504, -3.5807843242324173 
2.3200000000004715, -4.373252573645282 
2.3300000000004926, -4.38426782936149 
2.3400000000005137, -4.384052986975249 
2.3500000000005348, -4.3792753911953195 
2.360000000000556, -4.345529255563223 
2.370000000000577, -4.343456066411586 
2.380000000000598, -4.350868440411808 
2.390000000000619, -4.350430035655596 
2.4000000000006403, -4.349782759901918 
2.4100000000006614, -4.3481078147034875 
2.4200000000006825, -4.347501570549857 
2.4300000000007036, -4.345448504762788 
2.4400000000007247, -4.33873448136374 
2.450000000000746, -4.352091730089567 
2.460000000000767, -4.355854226394877 
2.470000000000788, -4.355432381429217 
2.480000000000809, -4.348768859682961 
2.49000000000083, -4.120170493894596 
2.5000000000008513, 3.1224005526151166 
2.5100000000008724, 3.219068231779987 
2.5200000000008935, 3.2216450619302597 
2.5300000000009146, 3.2177916193633584 
2.5400000000009357, 3.1297547123326406 
2.550000000000957, 2.6679512172016357 
2.560000000000978, 2.8161167514031797 
2.570000000000999, 2.8219014604107624 
2.58000000000102, 2.8221395647901377 
2.5900000000010412, 2.8211438031062337 
2.6000000000010624, 2.818243199055304 
2.6100000000010835, 2.8147091342883366 
2.6200000000011046, 2.8145834033631543 
2.6300000000011257, 2.8144165802982846 
2.6400000000011468, 2.810768610069659 
2.650000000001168, 2.8057906274810867 
2.660000000001189, 2.8224022213217697 
2.67000000000121, 2.8303004561514555 
2.680000000001231, 2.83132150377115 
2.6900000000012523, 2.8292802822091483 
2.7000000000012734, 2.807548426111569 
2.7100000000012945, -2.314151672741535 
2.7200000000013156, -4.958466318966443 
2.7300000000013367, -4.96999585829561 
2.740000000001358, -4.969113488926231 
2.750000000001379, -4.956987363806201 
2.7600000000014, -4.575802564463385 
2.770000000001421, -4.773795525059211 
2.780000000001442, -4.781156141929921 
2.7900000000014633, -4.780273752306575 
2.8000000000014844, -4.776586978313917 
2.8100000000015055, -4.771615410133977 
2.8200000000015266, -4.77344140198753 
2.8300000000015477, -4.771882680616791 
2.840000000001569, -4.772720080133873 
2.85000000000159, -4.77269097656417 
2.860000000001611, -4.771794711653644 
2.870000000001632, -4.763617118400141 
2.8800000000016532, -4.75733325796301 
2.8900000000016743, -4.802303754781736 
2.9000000000016954, -4.805200919489783 
2.9100000000017165, -4.802911089346951 
2.9200000000017377, -4.769260199281986 
2.9300000000017588, 2.3646806696979064 
2.94000000000178, 2.9427396230280003 
2.950000000001801, 2.949931870168103 
2.960000000001822, 2.949162713441827 
2.970000000001843, 2.9395128733254188 
2.9800000000018643, 2.840948523998253 
2.9900000000018854, 2.853415949277584 
3.0000000000019065, 2.869041043356588 
3.0100000000019276, 2.8703007823515327 
3.0200000000019487, 2.870104636830762 
3.03000000000197, 2.8699768001203116 
3.040000000001991, 2.8691260375482077 
3.050000000002012, 2.8680351623824403 
3.060000000002033, 2.8674573816573945 
3.070000000002054, 2.864877141680938 
3.0800000000020753, 2.8470585211724813 
3.0900000000020964, 2.8640400966819644 
3.1000000000021175, 2.911661709135166 
3.1100000000021386, 2.9169516942772598 
3.1200000000021597, 2.91626449558668 
3.130000000002181, 2.9057266216929247 
3.140000000002202, 1.6218264382043266 
3.150000000002223, -4.825806469859839 
3.160000000002244, -4.848047061210869 
3.1700000000022652, -4.848180362275269 
3.1800000000022863, -4.8421538184837445 
3.1900000000023074, -4.763212472534881 
3.2000000000023285, -4.785755720794135 
3.2100000000023496, -4.79206774973083 
3.2200000000023707, -4.791281993629963 
3.230000000002392, -4.789149276315847 
3.240000000002413, -4.786376809563118 
3.250000000002434, -4.786623667458538 
3.260000000002455, -4.783809707512981 
3.2700000000024763, -4.786550201673927 
3.2800000000024974, -4.787637532997225 
3.2900000000025185, -4.78668734542842 
3.3000000000025396, -4.7756409380009455 
3.3100000000025607, -4.720506639515288 
3.3200000000025818, -4.887338719958352 
3.330000000002603, -4.893277106081867 
3.340000000002624, -4.891739799792871 
3.350000000002645, -4.872144667512195 
3.360000000002666, 0.4322681265097602 
3.3700000000026873, 2.8309289120416765 
3.3800000000027084, 2.8439495542039905 
3.3900000000027295, 2.84443525557156 
3.4000000000027506, 2.8412514600842185 
3.4100000000027717, 2.8247894599558165 
3.420000000002793, 2.8031053490409095 
3.430000000002814, 2.8132501318997494 
3.440000000002835, 2.8156236097769036 
3.450000000002856, 2.8149857753789855 
3.460000000002877, 2.815085053659813 
3.4700000000028983, 2.816889669149652 
3.4800000000029194, 2.817611008848119 
3.4900000000029405, 2.817249858095229 
3.5000000000029616, 2.815839000195242 
3.5100000000029827, 2.8064069128032014 
3.520000000003004, 2.6338056374250063 
3.530000000003025, 2.9997598756186177 
3.540000000003046, 3.035730097074446 
3.550000000003067, 3.037542723081552 
3.5600000000030882, 3.0334690232194665 
3.5700000000031094, 2.929929693573382 
3.5800000000031305, -4.3125027587270095 
3.5900000000031516, -4.47422516410387 
3.6000000000031727, -4.478317119216243 
3.6100000000031938, -4.4768810096123115 
3.620000000003215, -4.468913106963114 
3.630000000003236, -4.449928616577478 
3.640000000003257, -4.4588680425897405 
3.650000000003278, -4.459181764832538 
3.6600000000032993, -4.458567431613686 
3.6700000000033204, -4.457963392869859 
3.6800000000033415, -4.457015613881721 
3.6900000000033626, -4.455609855916874 
3.7000000000033837, -4.445300472510409 
3.710000000003405, -4.460615937907233 
3.720000000003426, -4.469761313712586 
3.730000000003447, -4.4701905215418405 
3.740000000003468, -4.4661241356516825 
3.750000000003489, -4.386907782427629 
3.7600000000035103, 2.699346349163159 
3.7700000000035314, 2.9397171963688695 
3.7800000000035525, 2.9449990863327207 
3.7900000000035736, 2.9435124641970423 
3.8000000000035947, 2.926377329884299 
3.810000000003616, 2.6141482552026574 
3.820000000003637, 2.742790503710556 
3.830000000003658, 2.7598352900936507 
3.840000000003679, 2.761185655240189 
3.8500000000037002, 2.760972627776736 
3.8600000000037213, 2.760185332508763 
3.8700000000037424, 2.7582919096028626 
3.8800000000037635, 2.756700700191732 
3.8900000000037847, 2.756424690365739 
3.9000000000038058, 2.7547481104550964 
3.910000000003827, 2.7449626794445963 
3.920000000003848, 2.7440238339848517 
3.930000000003869, 2.7825832381255724 
3.94000000000389, 2.7900625866959805 
3.9500000000039113, 2.790391438369315 
3.9600000000039324, 2.785950153053177 
3.9700000000039535, 2.69508832581886 
3.9800000000039746, -4.617412484758352 
3.9900000000039957, -4.766738629883816 
4.000000000004016, -4.770597694484634 
4.010000000003993, -4.7683500926642015 
4.02000000000397, -4.747160348204467 
4.030000000003946, -4.653248227463692 
4.040000000003923, -4.697572113386797 
4.0500000000039, -4.698945632482302 
4.0600000000038765, -4.697764966232805 
4.070000000003853, -4.694474588597197 
4.08000000000383, -4.693322517954792 
4.090000000003807, -4.6928295571878476 
4.100000000003783, -4.690622849540754 
4.11000000000376, -4.694023711837915 
4.120000000003737, -4.694349369460541 
4.130000000003713, -4.692779401664927 
4.14000000000369, -4.670806821644138 
4.150000000003667, -4.707287439840255 
4.1600000000036434, -4.805256028161164 
4.17000000000362, -4.80907191621528 
4.180000000003597, -4.806878316097036 
4.1900000000035735, -4.779989213535924 
4.20000000000355, 1.348343089974483 
4.210000000003527, 2.726471808678711 
4.220000000003504, 2.738338650802884 
4.23000000000348, 2.7388873971156897 
4.240000000003457, 2.7362407666672093 
4.250000000003434, 2.7242282329174565 
4.26000000000341, 2.7045763029578875 
4.270000000003387, 2.711020778106669 
4.280000000003364, 2.7138685221518495 
4.2900000000033405, 2.713263927427021 
4.300000000003317, 2.7126054897377867 
4.310000000003294, 2.715068066606368 
4.320000000003271, 2.7171842675221063 
4.330000000003247, 2.717468395118827 
4.340000000003224, 2.716609364863129 
4.350000000003201, 2.711988171056162 
4.360000000003177, 2.6428532104048648 
4.370000000003154, 2.859469221563196 
4.380000000003131, 3.1825649409700754 
4.390000000003107, 3.189002386048517 
4.400000000003084, 3.1873757911921627 
4.410000000003061, 3.158824088824398 
4.4200000000030375, -2.2861264350230606 
4.430000000003014, -4.100722714686396 
4.440000000002991, -4.11904433443157 
4.450000000002968, -4.119655042297816 
4.460000000002944, -4.11761502806456 
4.470000000002921, -4.109819072283953 
4.480000000002898, -4.103827295485207 
4.490000000002874, -4.107290774929261 
4.500000000002851, -4.1064417820278285 
4.510000000002828, -4.106329786684747 
4.520000000002804, -4.1072677058497336 
4.530000000002781, -4.106886791912162 
4.540000000002758, -4.105605478774751 
4.5500000000027345, -4.0935626310625235 
4.560000000002711, -4.062252462117862 
4.570000000002688, -4.175014166841687 
4.580000000002665, -4.185243311148936 
4.590000000002641, -4.185754211913642 
4.600000000002618, -4.181734441301423 
4.610000000002595, -4.1439104260380475 
4.620000000002571, -0.23435225578322055 
4.630000000002548, 2.0755344030335863 
4.640000000002525, 2.1044936550437408 
4.6500000000025015, 2.1075596037595794 
4.660000000002478, 2.1074575256695005 
4.670000000002455, 2.105570914094063 
4.6800000000024315, 2.100660464375077 
4.690000000002408, 2.0929058052210063 
4.700000000002385, 2.08968647499348 
4.710000000002362, 2.0908800560909824 
4.720000000002338, 2.0912395177931886 
4.730000000002315, 2.0891547742712793 
4.740000000002292, 2.0823946400084106 
4.750000000002268, 2.082335770388627 
4.760000000002245, 2.109614457404648 
4.770000000002222, 2.122825670278611 
4.7800000000021985, 2.12594783043119 
4.790000000002175, 2.125707212114544 
4.800000000002152, 2.121441444360818 
4.810000000002129, 2.0826165544265436 
4.820000000002105, -1.6454035722104383 
4.830000000002082, -3.987906491255534 
4.840000000002059, -4.014641429039727 
4.850000000002035, -4.016554482785507 
4.860000000002012, -4.014730996628851 
4.870000000001989, -4.005847238925043 
4.880000000001965, -3.972075029048386 
4.890000000001942, -3.982787951886563 
4.900000000001919, -3.986233748611158 
4.9100000000018955, -3.985517869877795 
4.920000000001872, -3.9853863046706985 
4.930000000001849, -3.984562474614642 
4.940000000001826, -3.983911660914322 
4.950000000001802, -3.982275211956268 
4.960000000001779, -3.9698482510329116 
4.970000000001756, -3.984041267712805 
4.980000000001732, -4.008763874482982 
4.990000000001709, -4.0120323835118255 
5.000000000001686, -4.01128145529821 
5.0100000000016625, -4.003992301989248 
