t, s[1].omega / s[0].omega 
0, -1.457322086452312 
0.009999999999999995, -1.104465135137524 
0.019999999999999934, -0.6955528563832712 
0.029999999999999874, -0.42673956523403656 
0.04000000000000012, -0.29773079020315774 
0.050000000000000405, -0.23857236561585043 
0.06000000000000069, -0.2098699732157338 
0.07000000000000098, -0.19494620511749935 
0.08000000000000126, -0.18674871797260517 
0.09000000000000155, -0.18210812546068186 
0.10000000000000184, -0.17950808814878863 
0.11000000000000212, -0.17819362973520841 
0.12000000000000241, -0.17779565465174965 
0.130000000000002, -0.17816998586187632 
0.1400000000000009, -0.1793380142027954 
0.1499999999999998, -0.18149034578352272 
0.1599999999999987, -0.18505366483842617 
0.1699999999999976, -0.19086106264833463 
0.1799999999999965, -0.2005456447073346 
0.1899999999999954, -0.21747997856426116 
0.1999999999999943, -0.24911817495046154 
0.2099999999999932, -0.3126906758680849 
0.2199999999999921, -0.44441006704943675 
0.229999999999991, -0.6788534460908096 
0.2399999999999899, -0.9352870049605342 
0.2499999999999888, -1.085559239133492 
0.2599999999999877, -1.1461566756555637 
0.2699999999999866, -1.1684966077142684 
0.2799999999999855, -1.1768636299500883 
0.2899999999999844, -1.179868133672301 
0.2999999999999833, -1.1804530921287353 
0.3099999999999822, -1.1796136699622821 
0.3199999999999811, -1.1778378298363958 
0.32999999999998, -1.1764159319010161 
0.3399999999999789, -1.1795918884237686 
0.3499999999999778, -1.1947990493107838 
0.35999999999997667, -1.2246728505761812 
0.36999999999997557, -1.2607528471145653 
0.37999999999997447, -1.2932287856355282 
0.38999999999997337, -1.318868891211805 
0.39999999999997227, -1.3385445905501308 
0.40999999999997117, -1.353827502843464 
0.41999999999997006, -1.3658116013444623 
0.42999999999996896, -1.375033991224751 
0.43999999999996786, -1.3817187216773783 
0.44999999999996676, -1.3860806358672826 
0.45999999999996566, -1.3884970558248744 
0.46999999999996456, -1.389461460175458 
0.47999999999996346, -1.3894637572377273 
0.48999999999996235, -1.3889599041800615 
0.49999999999996125, -1.3883838370252435 
0.5099999999999602, -1.3880322562583056 
0.519999999999959, -1.3879075522189281 
0.529999999999958, -1.3878434375526485 
0.5399999999999568, -1.3877941404332839 
0.5499999999999557, -1.3878620391369738 
0.5599999999999546, -1.3880502819100076 
0.5699999999999535, -1.388121698571973 
0.5799999999999524, -1.3877115770457324 
0.5899999999999513, -1.3864469502548167 
0.5999999999999502, -1.383972592810526 
0.6099999999999491, -1.3799897583315415 
0.619999999999948, -1.3743190360420245 
0.6299999999999469, -1.3668768632149244 
0.6399999999999458, -1.3575233980524561 
0.6499999999999447, -1.3458692207848384 
0.6599999999999436, -1.3311350350820494 
0.6699999999999425, -1.3122036204160978 
0.6799999999999414, -1.2883703931925554 
0.6899999999999403, -1.2616280048165784 
0.6999999999999392, -1.2387815680812753 
0.7099999999999381, -1.2265599238451501 
0.719999999999937, -1.223690313847134 
0.7299999999999359, -1.2245049437571147 
0.7399999999999348, -1.2255011799008055 
0.7499999999999337, -1.2255241599233293 
0.7599999999999326, -1.22397562639008 
0.7699999999999315, -1.2194825425637528 
0.7799999999999304, -1.2079406865298972 
0.7899999999999293, -1.1768976581114559 
0.7999999999999282, -1.0903173659564218 
0.8099999999999271, -0.8796328218943732 
0.819999999999926, -0.5690436130142518 
0.8299999999999249, -0.3414492205690709 
0.8399999999999238, -0.2313050954255904 
0.8499999999999227, -0.18106936246553676 
0.8599999999999216, -0.15637367527474083 
0.8699999999999205, -0.14308349902074802 
0.8799999999999194, -0.13537038757780598 
0.8899999999999183, -0.13063987084934764 
0.8999999999999172, -0.12764557195080992 
0.9099999999999161, -0.12576177320546394 
0.919999999999915, -0.12468684928277404 
0.9299999999999139, -0.12432351810006015 
0.9399999999999128, -0.12474947252750164 
0.9499999999999117, -0.12626286034447665 
0.9599999999999106, -0.12954173970043095 
0.9699999999999095, -0.1360570844354521 
0.9799999999999084, -0.14916421437768404 
0.9899999999999073, -0.1772468152339713 
0.9999999999999062, -0.24362870168331532 
1.0099999999999052, -0.4167979142978133 
1.019999999999904, -0.8371534945483765 
1.029999999999903, -1.4010416418778135 
1.039999999999902, -1.7234331709916244 
1.0499999999999008, -1.8507556193715662 
1.0599999999998997, -1.9015189296098332 
1.0699999999998986, -1.9226898751829775 
1.0799999999998975, -1.9314773536081364 
1.0899999999998964, -1.9348089956998737 
1.0999999999998953, -1.935616880949151 
1.1099999999998942, -1.9352176563978893 
1.119999999999893, -1.934308643511195 
1.129999999999892, -1.933100252455692 
1.1399999999998909, -1.9313441446006514 
1.1499999999998898, -1.9291989860177974 
1.1599999999998887, -1.9277918971803611 
1.1699999999998876, -1.92752643670723 
1.1799999999998865, -1.9271611665304444 
1.1899999999998854, -1.9250392637854348 
1.1999999999998843, -1.9174155208328378 
1.2099999999998832, -1.8866641987055046 
1.219999999999882, -1.7094339102500438 
1.229999999999881, -0.523298348631074 
1.2399999999998799, 0.6641793195467397 
1.2499999999998788, 0.8131554773630019 
1.2599999999998777, 0.8383354398044197 
1.2699999999998766, 0.845032582616617 
1.2799999999998755, 0.8469499119128063 
1.2899999999998744, 0.8468847627043576 
1.2999999999998733, 0.8453961314183844 
1.3099999999998722, 0.8423438546175925 
1.319999999999871, 0.837470372436302 
1.32999999999987, 0.8310957107190559 
1.3399999999998689, 0.8246242260750003 
1.3499999999998678, 0.8197414520284436 
1.3599999999998666, 0.8169962902318012 
1.3699999999998655, 0.8158000080822596 
1.3799999999998644, 0.8153199867549841 
1.3899999999998633, 0.8149160194751388 
1.3999999999998622, 0.8140562234972137 
1.4099999999998611, 0.8119424362822546 
1.41999999999986, 0.80642551570475 
1.429999999999859, 0.7888746860302646 
1.4399999999998578, 0.7023879510277558 
1.4499999999998567, -0.2311085104084801 
1.4599999999998556, -2.5109413827277693 
1.4699999999998545, -2.7684563415261447 
1.4799999999998534, -2.8027752673239315 
1.4899999999998523, -2.810524382333091 
1.4999999999998512, -2.812106938095263 
1.5099999999998501, -2.8113358818672802 
1.519999999999849, -2.808675635030366 
1.529999999999848, -2.8018501710838914 
1.5399999999998468, -2.7870973870906774 
1.5499999999998457, -2.7811487803959114 
1.5599999999998446, -2.7850898281041263 
1.5699999999998435, -2.7857527367437074 
1.5799999999998424, -2.7834035249666105 
1.5899999999998413, -2.7826169104088962 
1.5999999999998402, -2.790188081868526 
1.6099999999998391, -2.7956006983310053 
1.619999999999838, -2.79742803046077 
1.629999999999837, -2.7976348560865882 
1.6399999999998358, -2.79597046690209 
1.6499999999998347, -2.789186102761127 
1.6599999999998336, -2.759116273032296 
1.6699999999998325, -2.526855192983566 
1.6799999999998314, -0.30999485900995694 
1.6899999999998303, 0.7018541288731818 
1.6999999999998292, 0.7918165334144309 
1.709999999999828, 0.809189253030867 
1.719999999999827, 0.8142675658815659 
1.729999999999826, 0.8159295589096548 
1.7399999999998248, 0.8163403995939541 
1.7499999999998237, 0.8162624587777432 
1.7599999999998226, 0.8161039643349696 
1.7699999999998215, 0.8161906073515407 
1.7799999999998204, 0.8168021268686525 
1.7899999999998193, 0.8180806192783378 
1.7999999999998182, 0.8199045292811681 
1.809999999999817, 0.821893291599441 
1.819999999999816, 0.8236033604962374 
1.8299999999998149, 0.8247267823782689 
1.8399999999998138, 0.8250960594096297 
1.8499999999998127, 0.824495514075213 
1.8599999999998116, 0.8222451501513983 
1.8699999999998105, 0.8158670653238742 
1.8799999999998094, 0.794026720744837 
1.8899999999998083, 0.671209730755898 
1.8999999999998072, -0.6436975319389628 
1.909999999999806, -2.292950291953109 
1.919999999999805, -2.4508200098075252 
1.9299999999998039, -2.472105052799571 
1.9399999999998028, -2.4762785597741046 
1.9499999999998017, -2.4766785059915204 
1.9599999999998006, -2.4760332751403777 
1.9699999999997995, -2.475079487416503 
1.9799999999997984, -2.4733074356816447 
1.9899999999997973, -2.4710445886375867 
1.9999999999997962, -2.470283819961038 
2.0099999999998173, -2.470154474806395 
2.0199999999998384, -2.4678952838960937 
2.0299999999998595, -2.456547841709186 
2.0399999999998806, -2.3961898775685055 
2.0499999999999017, -2.4652014410002154 
2.059999999999923, -2.8079487485322714 
2.069999999999944, -2.8678882598514317 
2.079999999999965, -2.880021563369234 
2.089999999999986, -2.883374060645947 
2.100000000000007, -2.883652978199512 
2.1100000000000283, -2.8816504438909174 
2.1200000000000494, -2.875648769486576 
2.1300000000000705, -2.8550473299595542 
2.1400000000000916, -2.7526312862518445 
2.1500000000001127, -2.6140860784810642 
2.160000000000134, -2.6612592601389697 
2.170000000000155, -2.6732139535620822 
2.180000000000176, -2.674763232336889 
2.190000000000197, -2.674057309030698 
2.2000000000002182, -2.6742465324837275 
2.2100000000002393, -2.675693432028716 
2.2200000000002604, -2.676268582307568 
2.2300000000002815, -2.6762201273547825 
2.2400000000003026, -2.675789713538668 
2.2500000000003237, -2.6732556185964067 
2.260000000000345, -2.660814417011445 
2.270000000000366, -2.5587238672949075 
2.280000000000387, -0.5364775918852256 
2.290000000000408, 1.3664058623250388 
2.3000000000004293, 1.4434960333783216 
2.3100000000004504, 1.4532906869760525 
2.3200000000004715, 1.4550298276375688 
2.3300000000004926, 1.4539717570383763 
2.3400000000005137, 1.4492521256893294 
2.3500000000005348, 1.433969638867024 
2.360000000000556, 1.390018042284958 
2.370000000000577, 1.3426215299383035 
2.380000000000598, 1.3437869278305117 
2.390000000000619, 1.351761719327881 
2.4000000000006403, 1.3551156235976007 
2.4100000000006614, 1.355645627780186 
2.4200000000006825, 1.3539822620673763 
2.4300000000007036, 1.3489493941898076 
2.4400000000007247, 1.3389283561353316 
2.450000000000746, 1.3457324830850976 
2.460000000000767, 1.404096754080222 
2.470000000000788, 1.4410678423362535 
2.480000000000809, 1.4523297873905119 
2.49000000000083, 1.4553579105359036 
2.5000000000008513, 1.455263623710039 
2.5100000000008724, 1.4519253581125389 
2.5200000000008935, 1.436321490521318 
2.5300000000009146, 1.2835174595278598 
2.5400000000009357, -1.4987843806466026 
2.550000000000957, -2.548773791635601 
2.560000000000978, -2.6085899613491064 
2.570000000000999, -2.616719085872463 
2.58000000000102, -2.6178217238754127 
2.5900000000010412, -2.6173425330163065 
2.6000000000010624, -2.616666527953865 
2.6100000000010835, -2.6153993229196826 
2.6200000000011046, -2.613460473904966 
2.6300000000011257, -2.612692772278641 
2.6400000000011468, -2.6124503528031786 
2.650000000001168, -2.6097529324728397 
2.660000000001189, -2.5952569738481106 
2.67000000000121, -2.5214809160867917 
2.680000000001231, -2.712957292733889 
2.6900000000012523, -2.905308881811389 
2.7000000000012734, -2.9350967987787078 
2.7100000000012945, -2.9419703303993314 
2.7200000000013156, -2.9436272271016373 
2.7300000000013367, -2.942811335863163 
2.740000000001358, -2.939125089575812 
2.750000000001379, -2.9276059797432574 
2.7600000000014, -2.8737350548453784 
2.770000000001421, -2.610135519327081 
2.780000000001442, -2.604084026131763 
2.7900000000014633, -2.642453649441029 
2.8000000000014844, -2.648567400913715 
2.8100000000015055, -2.648916816474723 
2.8200000000015266, -2.648282229172876 
2.8300000000015477, -2.6490000483388356 
2.840000000001569, -2.649963226256811 
2.85000000000159, -2.6500147681759696 
2.860000000001611, -2.649843257604865 
2.870000000001632, -2.6490017700929553 
2.8800000000016532, -2.6447203082817237 
2.8900000000016743, -2.621291830030794 
2.9000000000016954, -2.3508765609440103 
2.9100000000017165, 0.8880372630209183 
2.9200000000017377, 1.5300409382587823 
2.9300000000017588, 1.5616753849130287 
2.94000000000178, 1.5665483106874138 
2.950000000001801, 1.5667866687367724 
2.960000000001822, 1.5639556571444726 
2.970000000001843, 1.5531636230873171 
2.9800000000018643, 1.5092539807500496 
2.9900000000018854, 1.4123407111718627 
3.0000000000019065, 1.4057191945147989 
3.0100000000019276, 1.4219559658157843 
3.0200000000019487, 1.4277922951743398 
3.03000000000197, 1.4291354869498547 
3.040000000001991, 1.4282172413494714 
3.050000000002012, 1.4251707725115512 
3.060000000002033, 1.4210121522568262 
3.070000000002054, 1.4272127187404229 
3.0800000000020753, 1.4525136117813697 
3.0900000000020964, 1.4717241665506782 
3.1000000000021175, 1.479343174995917 
3.1100000000021386, 1.481651453731884 
3.1200000000021597, 1.4814038761126584 
3.130000000002181, 1.4780596883157078 
3.140000000002202, 1.4621196063587991 
3.150000000002223, 1.2831685818555234 
3.160000000002244, -2.480087207033347 
3.1700000000022652, -3.128763893793621 
3.1800000000022863, -3.157393960373061 
3.1900000000023074, -3.1609043346817276 
3.2000000000023285, -3.1606050810192463 
3.2100000000023496, -3.158877211055591 
3.2200000000023707, -3.154411776602331 
3.230000000002392, -3.147751777199721 
3.240000000002413, -3.148190846558803 
3.250000000002434, -3.148888233850518 
3.260000000002455, -3.1460558335668787 
3.2700000000024763, -3.144103542530413 
3.2800000000024974, -3.1543719121590703 
3.2900000000025185, -3.159970293149457 
3.3000000000025396, -3.161318942084992 
3.3100000000025607, -3.160808861479646 
3.3200000000025818, -3.156775818820085 
3.330000000002603, -3.134807520227427 
3.340000000002624, -2.857349228055273 
3.350000000002645, 0.6737149989899652 
3.360000000002666, 1.1855779187612776 
3.3700000000026873, 1.2199100538413319 
3.3800000000027084, 1.2263503559585829 
3.3900000000027295, 1.2277967394964189 
3.4000000000027506, 1.2274969377812814 
3.4100000000027717, 1.2259642371517907 
3.420000000002793, 1.2230449246898014 
3.430000000002814, 1.2186980278092114 
3.440000000002835, 1.2138466578515978 
3.450000000002856, 1.2102334437449958 
3.460000000002877, 1.2086120364370099 
3.4700000000028983, 1.2082051795876443 
3.4800000000029194, 1.207918558745153 
3.4900000000029405, 1.2067922852028221 
3.5000000000029616, 1.2030379835601885 
3.5100000000029827, 1.1889467885915628 
3.520000000003004, 1.0993684194076798 
3.530000000003025, -0.42194173240310145 
3.540000000003046, -3.559939059275236 
3.550000000003067, -3.658498820034159 
3.5600000000030882, -3.6675564326072854 
3.5700000000031094, -3.6684740465620314 
3.5800000000031305, -3.665964896979907 
3.5900000000031516, -3.6540390745503863 
3.6000000000031727, -3.5318707895420003 
3.6100000000031938, -3.3120687519050427 
3.620000000003215, -3.396880121500908 
3.630000000003236, -3.403662866618466 
3.640000000003257, -3.4036624686231973 
3.650000000003278, -3.403107348404454 
3.6600000000032993, -3.402069389459208 
3.6700000000033204, -3.4002520899749356 
3.6800000000033415, -3.3999714961827623 
3.6900000000033626, -3.398156312546255 
3.7000000000033837, -3.386091506780815 
3.710000000003405, -3.391890613019954 
3.720000000003426, -3.4350834400434813 
3.730000000003447, -3.444089762934573 
3.740000000003468, -3.4456034678127936 
3.750000000003489, -3.4442539483720958 
3.7600000000035103, -3.436989519942025 
3.7700000000035314, -3.389769714995036 
3.7800000000035525, -2.0037975684367098 
3.7900000000035736, 1.3217058922836944 
3.8000000000035947, 1.4246366828498682 
3.810000000003616, 1.4360841437210008 
3.820000000003637, 1.4384409365674686 
3.830000000003658, 1.4387174291811056 
3.840000000003679, 1.4381643510073152 
3.8500000000037002, 1.436998678598843 
3.8600000000037213, 1.4352434053647949 
3.8700000000037424, 1.4331946676180183 
3.8800000000037635, 1.4315210752898548 
3.8900000000037847, 1.4306317037471825 
3.9000000000038058, 1.430190451755686 
3.910000000003827, 1.4293741026266313 
3.920000000003848, 1.426622552296302 
3.930000000003869, 1.4155372267917878 
3.94000000000389, 1.3351907724819676 
3.9500000000039113, -0.599594781505583 
3.9600000000039324, -3.8458658506950565 
3.9700000000039535, -3.9095163369784762 
3.9800000000039746, -3.91515935612548 
3.9900000000039957, -3.914828602240282 
4.000000000004016, -3.9097913873824224 
4.010000000003993, -3.871592006268583 
4.02000000000397, -3.252020746527113 
4.030000000003946, -3.4691496376292763 
4.040000000003923, -3.4947650060261766 
4.0500000000039, -3.496526461259241 
4.0600000000038765, -3.4959017152870997 
4.070000000003853, -3.4948484228354366 
4.08000000000383, -3.492319610215069 
4.090000000003807, -3.4913743877964705 
4.100000000003783, -3.4909833398516836 
4.11000000000376, -3.485501338644678 
4.120000000003737, -3.480577625841588 
4.130000000003713, -3.506319947314059 
4.14000000000369, -3.5143100509755847 
4.150000000003667, -3.5156182117549477 
4.1600000000036434, -3.5142426001989593 
4.17000000000362, -3.5059766121236797 
4.180000000003597, -3.4333025472933683 
4.1900000000035735, -0.40549748307120764 
4.20000000000355, 1.4720429227016523 
4.210000000003527, 1.5219859160243228 
4.220000000003504, 1.5287156569397746 
4.23000000000348, 1.5298865376755804 
4.240000000003457, 1.529218982166596 
4.250000000003434, 1.5268899149847628 
4.26000000000341, 1.5221320172030752 
4.270000000003387, 1.5149931726328327 
4.280000000003364, 1.50897557626673 
4.2900000000033405, 1.5071647071986933 
4.300000000003317, 1.5075329140225366 
4.310000000003294, 1.5076219715176717 
4.320000000003271, 1.506060871858635 
4.330000000003247, 1.4996395120730233 
4.340000000003224, 1.4703931961864303 
4.350000000003201, 1.359086327797037 
4.360000000003177, 1.736574808618347 
4.370000000003154, 1.8645366332225588 
4.380000000003131, 1.8782313385173093 
4.390000000003107, 1.880239956199325 
4.400000000003084, 1.8785860775560301 
4.410000000003061, 1.8682116511098825 
4.4200000000030375, 1.7470606160312605 
4.430000000003014, -1.1042439029814182 
4.440000000002991, -2.3376546588731477 
4.450000000002968, -2.421991104690752 
4.460000000002944, -2.433268265133567 
4.470000000002921, -2.4350973949028196 
4.480000000002898, -2.4348145456108727 
4.490000000002874, -2.4345008569409794 
4.500000000002851, -2.4345168862326707 
4.510000000002828, -2.433996913598516 
4.520000000002804, -2.4332853701451844 
4.530000000002781, -2.4330095972929056 
4.540000000002758, -2.4319910711257555 
4.5500000000027345, -2.427076739511414 
4.560000000002711, -2.401414400994846 
4.570000000002688, -2.1512512930447056 
4.580000000002665, 0.7613144266030322 
4.590000000002641, 1.8247511260279627 
4.600000000002618, 1.860011230991811 
4.610000000002595, 1.864353578794703 
4.620000000002571, 1.863955188437561 
4.630000000002548, 1.8587882471718473 
4.640000000002525, 1.8276153340387302 
4.6500000000025015, 1.5402439240600665 
4.660000000002478, 1.406619539147883 
4.670000000002455, 1.482420883611731 
4.6800000000024315, 1.4973261230718697 
4.690000000002408, 1.5005452355206281 
4.700000000002385, 1.5007242391504871 
4.710000000002362, 1.4997459714828634 
4.720000000002338, 1.4991983829439053 
4.730000000002315, 1.5020792947657826 
4.740000000002292, 1.5088889408974615 
4.750000000002268, 1.5151376969498154 
4.760000000002245, 1.5185342821100525 
4.770000000002222, 1.5197168908777368 
4.7800000000021985, 1.5193022533358802 
4.790000000002175, 1.5164471158935373 
4.800000000002152, 1.5035129893417298 
4.810000000002129, 1.3701206279497429 
4.820000000002105, -2.637047063014968 
4.830000000002082, -3.461436149768044 
4.840000000002059, -3.4913126640690337 
4.850000000002035, -3.4949233579035193 
4.860000000002012, -3.4942983260682183 
4.870000000001989, -3.4907932202141216 
4.880000000001965, -3.4771456866554318 
4.890000000001942, -3.456483314100544 
4.900000000001919, -3.464733189324366 
4.9100000000018955, -3.46661043614895 
4.920000000001872, -3.465425994404465 
4.930000000001849, -3.4663149445830035 
4.940000000001826, -3.467595201332807 
4.950000000001802, -3.4674599527822627 
4.960000000001779, -3.4667737061041373 
4.970000000001756, -3.4618325490338875 
4.980000000001732, -3.4036932642501916 
