t, s[1].omega / s[0].omega 
0, -1.2199974203377584 
0.009999999999999995, -1.219594407360286 
0.019999999999999934, -1.2188835491899848 
0.029999999999999874, -1.2178215666378764 
0.04000000000000012, -1.21638380433429 
0.050000000000000405, -1.2145955519685094 
0.06000000000000069, -1.21252175560555 
0.07000000000000098, -1.210217636017458 
0.08000000000000126, -1.207708815357757 
0.09000000000000155, -1.205081751889732 
0.10000000000000184, -1.2026266744698597 
0.11000000000000212, -1.2007972777112297 
0.12000000000000241, -1.1998564620759278 
0.130000000000002, -1.199576600503209 
0.1400000000000009, -1.1993997736036375 
0.1499999999999998, -1.1987503038493406 
0.1599999999999987, -1.1971046744800398 
0.1699999999999976, -1.1939275247961885 
0.1799999999999965, -1.1887318204979287 
0.1899999999999954, -1.1813202420042515 
0.1999999999999943, -1.171948754341868 
0.2099999999999932, -1.1611331814537138 
0.2199999999999921, -1.1492709741401599 
0.229999999999991, -1.1364374447284902 
0.2399999999999899, -1.1224173124937555 
0.2499999999999888, -1.1068716194747747 
0.2599999999999877, -1.089658765729293 
0.2699999999999866, -1.071413125243442 
0.2799999999999855, -1.0541491922348665 
0.2899999999999844, -1.0408244901576993 
0.2999999999999833, -1.0332123766603893 
0.3099999999999822, -1.030394315965606 
0.3199999999999811, -1.0300313664057996 
0.32999999999998, -1.0302470261040961 
0.3399999999999789, -1.0300368263271586 
0.3499999999999778, -1.0287921780370493 
0.35999999999997667, -1.0257896310535126 
0.36999999999997557, -1.0198646754418061 
0.37999999999997447, -1.009458223508172 
0.38999999999997337, -0.9934592168192753 
0.39999999999997227, -0.972557345822717 
0.40999999999997117, -0.9492916163651037 
0.41999999999997006, -0.9262728610781341 
0.42999999999996896, -0.904846544383602 
0.43999999999996786, -0.8852370648376784 
0.44999999999996676, -0.8672026817662685 
0.45999999999996566, -0.8504969491715582 
0.46999999999996456, -0.8350934851108345 
0.47999999999996346, -0.8212657550664874 
0.48999999999996235, -0.8095308863554191 
0.49999999999996125, -0.8004265114488917 
0.5099999999999602, -0.7941882109395818 
0.519999999999959, -0.7905470428939844 
0.529999999999958, -0.788822432510616 
0.5399999999999568, -0.7882157975964181 
0.5499999999999557, -0.7880563506014557 
0.5599999999999546, -0.7878775775021107 
0.5699999999999535, -0.7873811042310964 
0.5799999999999524, -0.7863916422542439 
0.5899999999999513, -0.784857917030173 
0.5999999999999502, -0.7828787136517484 
0.6099999999999491, -0.7806816255903263 
0.619999999999948, -0.7785245384195058 
0.6299999999999469, -0.77658855039221 
0.6399999999999458, -0.7749364504131452 
0.6499999999999447, -0.773532905570266 
0.6599999999999436, -0.7722890264253619 
0.6699999999999425, -0.771111961013192 
0.6799999999999414, -0.7699502974090904 
0.6899999999999403, -0.7688221470085858 
0.6999999999999392, -0.7678171525561182 
0.7099999999999381, -0.7670742073772366 
0.719999999999937, -0.7667423236376762 
0.7299999999999359, -0.7669374418190322 
0.7399999999999348, -0.767713963816785 
0.7499999999999337, -0.7690640245182369 
0.7599999999999326, -0.7709391666029111 
0.7699999999999315, -0.7732770721534657 
0.7799999999999304, -0.7760218425611646 
0.7899999999999293, -0.7791391826538183 
0.7999999999999282, -0.7826321207328131 
0.8099999999999271, -0.7865562774235715 
0.819999999999926, -0.7910250278908978 
0.8299999999999249, -0.7961902394232988 
0.8399999999999238, -0.8021790664008004 
0.8499999999999227, -0.8089632027552429 
0.8599999999999216, -0.8161802539040595 
0.8699999999999205, -0.823071781983346 
0.8799999999999194, -0.8287656344464545 
0.8899999999999183, -0.8327565724870734 
0.8999999999999172, -0.8350793917557079 
0.9099999999999161, -0.8360774071096365 
0.919999999999915, -0.8361362716170369 
0.9299999999999139, -0.8356206185631395 
0.9399999999999128, -0.8350289166831951 
0.9499999999999117, -0.835362180040546 
0.9599999999999106, -0.838650861020404 
0.9699999999999095, -0.8482021979979066 
0.9799999999999084, -0.8676067971147828 
0.9899999999999073, -0.8982623363493032 
0.9999999999999062, -0.9376856572190599 
1.0099999999999052, -0.9810787099676664 
1.019999999999904, -1.0244261866199849 
1.029999999999903, -1.065837322705544 
1.039999999999902, -1.1048636041095254 
1.0499999999999008, -1.1411915619066744 
1.0599999999998997, -1.1736100678841228 
1.0699999999998986, -1.1999652933826144 
1.0799999999998975, -1.2186014234716747 
1.0899999999998964, -1.2298867318924243 
1.0999999999998953, -1.235796253287281 
1.1099999999998942, -1.238415680444538 
1.119999999999893, -1.2391824481394793 
1.129999999999892, -1.2389934771422095 
1.1399999999998909, -1.2386247926115224 
1.1499999999998898, -1.239035068894363 
1.1599999999998887, -1.2410670982588523 
1.1699999999998876, -1.2446796209150377 
1.1799999999998865, -1.2489688520724465 
1.1899999999998854, -1.2530641944597791 
1.1999999999998843, -1.256603836189587 
1.2099999999998832, -1.259568263206916 
1.219999999999882, -1.2620186235243063 
1.229999999999881, -1.2639980779415565 
1.2399999999998799, -1.2655429338054998 
1.2499999999998788, -1.2666952294201024 
1.2599999999998777, -1.2674834109524142 
1.2699999999998766, -1.2678971087457134 
1.2799999999998755, -1.2678884566370783 
1.2899999999998744, -1.267408441559852 
1.2999999999998733, -1.266455953725638 
1.3099999999998722, -1.2651034571317887 
1.319999999999871, -1.263471182041233 
1.32999999999987, -1.2616520061660883 
1.3399999999998689, -1.2596672752214029 
1.3499999999998678, -1.2575619418375208 
1.3599999999998666, -1.2555763770230102 
1.3699999999998655, -1.254123583334302 
1.3799999999998644, -1.2534300443986834 
1.3899999999998633, -1.2532416779466637 
1.3999999999998622, -1.2529986026862212 
1.4099999999998611, -1.2521234737784315 
1.41999999999986, -1.2500530822935274 
1.429999999999859, -1.2461736932349055 
1.4399999999998578, -1.2399252616033025 
1.4499999999998567, -1.2310845474276646 
1.4599999999998556, -1.2198965892208238 
1.4699999999998545, -1.2068018941340166 
1.4799999999998534, -1.1920238683156268 
1.4899999999998523, -1.175376016474819 
1.4999999999998512, -1.1563318098942739 
1.5099999999998501, -1.1343551174684467 
1.519999999999849, -1.109699708097929 
1.529999999999848, -1.084685291646228 
1.5399999999998468, -1.0639508207782349 
1.5499999999998457, -1.0513775619553427 
1.5599999999998446, -1.0464786895860698 
1.5699999999998435, -1.0457562711664599 
1.5799999999998424, -1.0462171428164417 
1.5899999999998413, -1.0463832798864285 
1.5999999999998402, -1.0455655820603376 
1.6099999999998391, -1.0430623821061442 
1.619999999999838, -1.0375655397548897 
1.629999999999837, -1.02671361064617 
1.6399999999998358, -1.0073780688029943 
1.6499999999998347, -0.9778917110950285 
1.6599999999998336, -0.9409567685932105 
1.6699999999998325, -0.9024096297411432 
1.6799999999998314, -0.8667537857364648 
1.6899999999998303, -0.8355025604457836 
1.6999999999998292, -0.808425565485142 
1.709999999999828, -0.784879744958979 
1.719999999999827, -0.7644065776235218 
1.729999999999826, -0.7468697352335665 
1.7399999999998248, -0.732378566240865 
1.7499999999998237, -0.7210971018668839 
1.7599999999998226, -0.7130190684963537 
1.7699999999998215, -0.7078249677898615 
1.7799999999998204, -0.70490826759591 
1.7899999999998193, -0.70354022669831 
1.7999999999998182, -0.7030504712963667 
1.809999999999817, -0.7029256848497603 
1.819999999999816, -0.7028191268050636 
1.8299999999998149, -0.7025209031305492 
1.8399999999998138, -0.7019366723507037 
1.8499999999998127, -0.701086169695311 
1.8599999999998116, -0.7000936766394104 
1.8699999999998105, -0.699139365699829 
1.8799999999998094, -0.6983855558543233 
1.8899999999998083, -0.6979224092522449 
1.8999999999998072, -0.6977502820728924 
1.909999999999806, -0.6977856585151836 
1.919999999999805, -0.6978859622531876 
1.9299999999998039, -0.6978996492122999 
1.9399999999998028, -0.697727995798841 
1.9499999999998017, -0.6973666159407375 
1.9599999999998006, -0.6969172123177159 
1.9699999999997995, -0.6965902959388907 
1.9799999999997984, -0.6967134554965562 
1.9899999999997973, -0.6977301121476522 
1.9999999999997962, -0.7001564585204769 
2.0099999999998173, -0.7044829974992548 
2.0199999999998384, -0.7110577944462111 
2.0299999999998595, -0.7200254776299422 
2.0399999999998806, -0.731370340459686 
2.0499999999999017, -0.7450432494912061 
2.059999999999923, -0.76111026826136 
2.069999999999944, -0.7798713529829333 
2.079999999999965, -0.8019143144292066 
2.089999999999986, -0.8280231480887181 
2.100000000000007, -0.8587039912213686 
2.1100000000000283, -0.8929934215503998 
2.1200000000000494, -0.9270673734820809 
2.1300000000000705, -0.9552570106749357 
2.1400000000000916, -0.9742477296981 
2.1500000000001127, -0.9850029214711306 
2.160000000000134, -0.9903397348711238 
2.170000000000155, -0.9925737925187758 
2.180000000000176, -0.9930300125934866 
2.190000000000197, -0.9923860002170711 
2.2000000000002182, -0.9911885415255188 
2.2100000000002393, -0.9906369953414436 
2.2200000000002604, -0.9938169591394846 
2.2300000000002815, -1.0062502361548167 
2.2400000000003026, -1.032586710628531 
2.2500000000003237, -1.0706127762789983 
2.260000000000345, -1.112088915893926 
2.270000000000366, -1.1502161858243596 
2.280000000000387, -1.1828062191041153 
2.290000000000408, -1.2103640845586745 
2.3000000000004293, -1.2339065169869738 
2.3100000000004504, -1.2539563107192617 
2.3200000000004715, -1.270346019908295 
2.3300000000004926, -1.2826133782678384 
2.3400000000005137, -1.2907112958428986 
2.3500000000005348, -1.2953182829497965 
2.360000000000556, -1.2974698463503318 
2.370000000000577, -1.2980941955869858 
2.380000000000598, -1.2979078711919732 
2.390000000000619, -1.2975709944364267 
2.4000000000006403, -1.2977414192812653 
2.4100000000006614, -1.2987634175341682 
2.4200000000006825, -1.3003974998168242 
2.4300000000007036, -1.3021452713068582 
2.4400000000007247, -1.3037127125118777 
2.450000000000746, -1.3050546322963996 
2.460000000000767, -1.3061662920687627 
2.470000000000788, -1.3069614090856985 
2.480000000000809, -1.3073156381972841 
2.49000000000083, -1.3071489384134858 
2.5000000000008513, -1.306455350461968 
2.5100000000008724, -1.30527904656959 
2.5200000000008935, -1.3036650689840168 
2.5300000000009146, -1.3016207984433634 
2.5400000000009357, -1.2991108433040486 
2.550000000000957, -1.2960749159187723 
2.560000000000978, -1.2924348146087101 
2.570000000000999, -1.288076946040197 
2.58000000000102, -1.2828819264480535 
2.5900000000010412, -1.276946857373534 
2.6000000000010624, -1.2709938947096606 
2.6100000000010835, -1.2663941351867671 
2.6200000000011046, -1.2640864523760986 
2.6300000000011257, -1.2635571672033672 
2.6400000000011468, -1.263530409818285 
2.650000000001168, -1.2629618732219776 
2.660000000001189, -1.260979675976116 
2.67000000000121, -1.256235113424874 
2.680000000001231, -1.246108184775763 
2.6900000000012523, -1.2262421391423446 
2.7000000000012734, -1.1919508323609924 
2.7100000000012945, -1.1422398178883104 
2.7200000000013156, -1.081758095266254 
2.7300000000013367, -1.0169673883713923 
2.740000000001358, -0.95227766248301 
2.750000000001379, -0.8901833380628901 
2.7600000000014, -0.8329410840787732 
2.770000000001421, -0.7833397370192938 
2.780000000001442, -0.7440165731323883 
2.7900000000014633, -0.7161038269227087 
2.8000000000014844, -0.6985918538866871 
2.8100000000015055, -0.6889677237911455 
2.8200000000015266, -0.6844097503487852 
2.8300000000015477, -0.6826334072374876 
2.840000000001569, -0.6821301409952647 
2.85000000000159, -0.6820263248014591 
2.860000000001611, -0.6818443486165803 
2.870000000001632, -0.6813165849536962 
2.8800000000016532, -0.6802945313467824 
2.8900000000016743, -0.678743803633654 
2.9000000000016954, -0.6767757022541524 
2.9100000000017165, -0.6746336902059621 
2.9200000000017377, -0.6725971590159341 
2.9300000000017588, -0.6708692198638311 
2.94000000000178, -0.6695295767622831 
2.950000000001801, -0.6685502516531597 
2.960000000001822, -0.6678316152381284 
2.970000000001843, -0.6672420100736451 
2.9800000000018643, -0.6666639321440713 
2.9900000000018854, -0.6660386643945436 
3.0000000000019065, -0.6653930360554459 
3.0100000000019276, -0.664846244150939 
3.0200000000019487, -0.6646069004069113 
3.03000000000197, -0.6649627374227062 
3.040000000001991, -0.6662531777010867 
3.050000000002012, -0.6688183265972774 
3.060000000002033, -0.6729380920354557 
3.070000000002054, -0.6787932428587458 
3.0800000000020753, -0.6864752729846075 
3.0900000000020964, -0.6960462373582067 
3.1000000000021175, -0.7076278380343279 
3.1100000000021386, -0.7214971883877079 
3.1200000000021597, -0.7381745454040738 
3.130000000002181, -0.7584758245784722 
3.140000000002202, -0.783420660812878 
3.150000000002223, -0.8136823605032666 
3.160000000002244, -0.848162662616922 
3.1700000000022652, -0.8824471248797657 
3.1800000000022863, -0.9103503031950405 
3.1900000000023074, -0.928727421154799 
3.2000000000023285, -0.9389463704604871 
3.2100000000023496, -0.9439515752599759 
3.2200000000023707, -0.9459951113488163 
3.230000000002392, -0.9463082085973926 
3.240000000002413, -0.9454752389490014 
3.250000000002434, -0.9439209685587532 
3.260000000002455, -0.942728019789102 
3.2700000000024763, -0.9454052296110813 
3.2800000000024974, -0.9603778431057688 
3.2900000000025185, -0.9994356197767879 
3.3000000000025396, -1.0653001142448555 
3.3100000000025607, -1.142249553715173 
3.3200000000025818, -1.2114616013353978 
3.330000000002603, -1.2662806021948203 
3.340000000002624, -1.3084541592956689 
3.350000000002645, -1.341121549113484 
3.360000000002666, -1.3662376693014338 
3.3700000000026873, -1.3846099270928642 
3.3800000000027084, -1.3968261266427198 
3.3900000000027295, -1.4039871583960393 
3.4000000000027506, -1.4075871831198927 
3.4100000000027717, -1.4089741330095695 
3.420000000002793, -1.409114645022345 
3.430000000002814, -1.408740431042943 
3.440000000002835, -1.4085176852154158 
3.450000000002856, -1.408863973621809 
3.460000000002877, -1.4096546486839043 
3.4700000000028983, -1.4104848037874065 
3.4800000000029194, -1.4111588442845873 
3.4900000000029405, -1.4117303394979157 
3.5000000000029616, -1.4122108033222547 
3.5100000000029827, -1.4124096806379725 
3.520000000003004, -1.412032678473008 
3.530000000003025, -1.4108093423195387 
3.540000000003046, -1.408548102801643 
3.550000000003067, -1.40515975819345 
3.5600000000030882, -1.4006308761368214 
3.5700000000031094, -1.3949265590820867 
3.5800000000031305, -1.387869850648065 
3.5900000000031516, -1.3790341382213591 
3.6000000000031727, -1.3676477533948703 
3.6100000000031938, -1.3526421396914157 
3.620000000003215, -1.333425180795474 
3.630000000003236, -1.3122198208898324 
3.640000000003257, -1.2956018963896567 
3.650000000003278, -1.2884255409104604 
3.6600000000032993, -1.2878182868287191 
3.6700000000033204, -1.2888687734425595 
3.6800000000033415, -1.2892483209868721 
3.6900000000033626, -1.288067311253576 
3.7000000000033837, -1.2839527956909065 
3.710000000003405, -1.2726200020473186 
3.720000000003426, -1.2396577230744135 
3.730000000003447, -1.136289000374555 
3.740000000003468, -0.851079072117046 
3.750000000003489, -0.43973175399198433 
3.7600000000035103, -0.19469108121655873 
3.7700000000035314, -0.09741664186099365 
3.7800000000035525, -0.05776179697988145 
3.7900000000035736, -0.03943883856863699 
3.8000000000035947, -0.029967773644437267 
3.810000000003616, -0.024649381825335555 
3.820000000003637, -0.02149199942408645 
3.830000000003658, -0.019561554091912448 
3.840000000003679, -0.018393997734524638 
3.8500000000037002, -0.017771702451070855 
3.8600000000037213, -0.017643487035245965 
3.8700000000037424, -0.018123924080894156 
3.8800000000037635, -0.01958225523284864 
3.8900000000037847, -0.02292338863773548 
3.9000000000038058, -0.030424271087188516 
3.910000000003827, -0.048500444060341534 
3.920000000003848, -0.09857151786109955 
3.930000000003869, -0.2718733857551593 
3.94000000000389, -1.2278854135850068 
3.9500000000039113, -3.2103630413693223 
3.9600000000039324, -3.339784794043061 
3.9700000000039535, -3.353467555765486 
3.9800000000039746, -3.356061002904604 
3.9900000000039957, -3.355240226867096 
4.000000000004016, -3.350539130381532 
4.010000000003993, -3.3294424914124385 
4.02000000000397, -3.1041617072941277 
4.030000000003946, -2.7078688249141902 
4.040000000003923, -2.8364678165882524 
4.0500000000039, -2.8507418133293956 
4.0600000000038765, -2.8521717355696494 
4.070000000003853, -2.8516514120309444 
4.08000000000383, -2.851937279287586 
4.090000000003807, -2.8520497667838685 
4.100000000003783, -2.851283356862015 
4.11000000000376, -2.850863182026262 
4.120000000003737, -2.849549859789965 
4.130000000003713, -2.8413027571499994 
4.14000000000369, -2.7635875287545035 
4.150000000003667, -2.0753660199094135 
4.1600000000036434, -4.406515942926119 
4.17000000000362, -4.459808449807777 
4.180000000003597, -4.462847008501733 
4.1900000000035735, -4.460517570253825 
4.20000000000355, -4.440686681311981 
4.210000000003527, -2.1008128432731246 
4.220000000003504, 2.419621350531414 
4.23000000000348, 2.447792615229377 
4.240000000003457, 2.4500919696742516 
4.250000000003434, 2.4496107714513524 
4.26000000000341, 2.4469672049560716 
4.270000000003387, 2.440101451301268 
4.280000000003364, 2.4334387416981444 
4.2900000000033405, 2.434315072682675 
4.300000000003317, 2.435228506377085 
4.310000000003294, 2.4329704249784885 
4.320000000003271, 2.4241432166675803 
4.330000000003247, 2.431507673950353 
4.340000000003224, 2.459825381219208 
4.350000000003201, 2.4676267802116714 
4.360000000003177, 2.4686259486845805 
4.370000000003154, 2.466316899665938 
4.380000000003131, 2.4457499413674313 
4.390000000003107, -0.19027682183217093 
4.400000000003084, -4.419431033321643 
4.410000000003061, -4.446617494246758 
4.4200000000030375, -4.44806930691668 
4.430000000003014, -4.444549412165089 
4.440000000002991, -4.40974912323361 
4.450000000002968, -4.203249046310688 
4.460000000002944, -4.286930198280364 
4.470000000002921, -4.290051379347436 
4.480000000002898, -4.2892901841104285 
4.490000000002874, -4.287300673833204 
4.500000000002851, -4.2841336547374675 
4.510000000002828, -4.284462698530851 
4.520000000002804, -4.280525862730768 
4.530000000002781, -4.283032789166709 
4.540000000002758, -4.290187902985512 
4.5500000000027345, -4.290806209703375 
4.560000000002711, -4.288590365329269 
4.570000000002688, -4.256619185455094 
4.580000000002665, 2.1736451051174823 
4.590000000002641, 3.4863888466417357 
4.600000000002618, 3.4932775725115186 
4.610000000002595, 3.490620147522569 
4.620000000002571, 3.4024612427382714 
4.630000000002548, -5.234855912490696 
4.640000000002525, -5.284329428683651 
4.6500000000025015, -5.284390014842104 
4.660000000002478, -5.276757531502433 
4.670000000002455, -5.225722490001809 
4.6800000000024315, -5.250959670128808 
4.690000000002408, -5.251086476006208 
4.700000000002385, -5.249917600133537 
4.710000000002362, -5.2468188219068015 
4.720000000002338, -5.246652707826505 
4.730000000002315, -5.242391608523832 
4.740000000002292, -5.247954365452754 
4.750000000002268, -5.248686261286641 
4.760000000002245, -5.246316460207656 
4.770000000002222, -5.162385804751066 
4.7800000000021985, -5.4193784205104825 
4.790000000002175, -5.44208697861389 
4.800000000002152, -5.441480858559499 
4.810000000002129, -5.422848366405224 
4.820000000002105, 2.6376240412898664 
4.830000000002082, 3.40019283893143 
4.840000000002059, 3.4054742852183475 
4.850000000002035, 3.4031524499648027 
4.860000000002012, 3.3680278618557464 
4.870000000001989, 3.1968280652173062 
4.880000000001965, 3.2670177569681584 
4.890000000001942, 3.2704484450285207 
4.900000000001919, 3.2702137903101858 
4.9100000000018955, 3.2696386488186766 
4.920000000001872, 3.2675693987319243 
4.930000000001849, 3.2661885029739537 
4.940000000001826, 3.265915221800589 
4.950000000001802, 3.260939681790967 
