t, s[1].omega / s[0].omega 
0, -0.5599668557748023 
0.009999999999999995, -0.5570484127396819 
0.019999999999999934, -0.5548146089413472 
0.029999999999999874, -0.553094392318203 
0.04000000000000012, -0.5517230369358335 
0.050000000000000405, -0.5505726690362814 
0.06000000000000069, -0.549573825276954 
0.07000000000000098, -0.5487273688889706 
0.08000000000000126, -0.5481079685572354 
0.09000000000000155, -0.5478655670555818 
0.10000000000000184, -0.548229460364089 
0.11000000000000212, -0.54951407838407 
0.12000000000000241, -0.552122915082563 
0.130000000000002, -0.5565495699062195 
0.1400000000000009, -0.5633812437946774 
0.1499999999999998, -0.5733174336944007 
0.1599999999999987, -0.5872221108522757 
0.1699999999999976, -0.6062295826454835 
0.1799999999999965, -0.6319188855457349 
0.1899999999999954, -0.6665366699675971 
0.1999999999999943, -0.7130904541461831 
0.2099999999999932, -0.7745979703181101 
0.2199999999999921, -0.8507969444234185 
0.229999999999991, -0.9321038338140843 
0.2399999999999899, -1.0003321462612873 
0.2499999999999888, -1.0441558833284654 
0.2599999999999877, -1.0670708019679886 
0.2699999999999866, -1.0777451594747398 
0.2799999999999855, -1.0823538970693753 
0.2899999999999844, -1.0840026050996712 
0.2999999999999833, -1.0840465644550359 
0.3099999999999822, -1.083088734748869 
0.3199999999999811, -1.0817252021994574 
0.32999999999998, -1.0815703104894139 
0.3399999999999789, -1.086522807378596 
0.3499999999999778, -1.1018814893452409 
0.35999999999997667, -1.1289210521960586 
0.36999999999997557, -1.1618508127597613 
0.37999999999997447, -1.1935272962797576 
0.38999999999997337, -1.2206449272249795 
0.39999999999997227, -1.2430656918147565 
0.40999999999997117, -1.2616405366288994 
0.41999999999997006, -1.277060468541914 
0.42999999999996896, -1.2895627427687788 
0.43999999999996786, -1.2990815433819913 
0.44999999999996676, -1.305623461497985 
0.45999999999996566, -1.30954405196699 
0.46999999999996456, -1.31147422838048 
0.47999999999996346, -1.3120686059670512 
0.48999999999996235, -1.3118844016468096 
0.49999999999996125, -1.3114373718740473 
0.5099999999999602, -1.3112347626121172 
0.519999999999959, -1.311586215236347 
0.529999999999958, -1.31240327233694 
0.5399999999999568, -1.3133778933667837 
0.5499999999999557, -1.3143130711938773 
0.5599999999999546, -1.3151765950219487 
0.5699999999999535, -1.3159352990141215 
0.5799999999999524, -1.3164550319396078 
0.5899999999999513, -1.3165533418889432 
0.5999999999999502, -1.316084651355156 
0.6099999999999491, -1.3149795647730227 
0.619999999999948, -1.3132428471975597 
0.6299999999999469, -1.3109175614268898 
0.6399999999999458, -1.30803249067881 
0.6499999999999447, -1.3045660081912274 
0.6599999999999436, -1.3004383891829485 
0.6699999999999425, -1.2955136308904884 
0.6799999999999414, -1.289606040535657 
0.6899999999999403, -1.282570814429079 
0.6999999999999392, -1.2746351926805057 
0.7099999999999381, -1.2669114354938142 
0.719999999999937, -1.261246724933279 
0.7299999999999359, -1.2586374669674785 
0.7399999999999348, -1.2581912237852895 
0.7499999999999337, -1.2583409949440225 
0.7599999999999326, -1.2580059950180749 
0.7699999999999315, -1.2564122618427191 
0.7799999999999304, -1.2523501707950522 
0.7899999999999293, -1.2431411932011545 
0.7999999999999282, -1.2231658103020462 
0.8099999999999271, -1.1832090611275479 
0.819999999999926, -1.1151747052116894 
0.8299999999999249, -1.0226731160781055 
0.8399999999999238, -0.9220621724776666 
0.8499999999999227, -0.8292281098018777 
0.8599999999999216, -0.7517357840625711 
0.8699999999999205, -0.6908933747751907 
0.8799999999999194, -0.6452579035855728 
0.8899999999999183, -0.6124470328287968 
0.8999999999999172, -0.5898682513533824 
0.9099999999999161, -0.5750514102403322 
0.919999999999915, -0.5658319229472644 
0.9299999999999139, -0.5604430159760514 
0.9399999999999128, -0.5575346641571948 
0.9499999999999117, -0.556137146767526 
0.9599999999999106, -0.555591983125875 
0.9699999999999095, -0.5554735788260566 
0.9799999999999084, -0.5555203940400252 
0.9899999999999073, -0.5555869870381086 
0.9999999999999062, -0.5556193151740974 
1.0099999999999052, -0.5556448807797023 
1.019999999999904, -0.5557606022442345 
1.029999999999903, -0.5561056745094253 
1.039999999999902, -0.5568242337704608 
1.0499999999999008, -0.5580297663002893 
1.0599999999998997, -0.5597681746185668 
1.0699999999998986, -0.561968473253132 
1.0799999999998975, -0.5644021583889678 
1.0899999999998964, -0.5667173847834276 
1.0999999999998953, -0.5685742521846777 
1.1099999999998942, -0.5697812009436751 
1.119999999999893, -0.5703170341712747 
1.129999999999892, -0.5702600783122933 
1.1399999999998909, -0.5697228584166425 
1.1499999999998898, -0.5688571936614213 
1.1599999999998887, -0.5679800902946784 
1.1699999999998876, -0.5679693851762073 
1.1799999999998865, -0.5714278638430863 
1.1899999999998854, -0.5862599994576756 
1.1999999999998843, -0.6371220872595844 
1.2099999999998832, -0.7977822008394645 
1.219999999999882, -1.1878019203953996 
1.229999999999881, -1.6172846431974839 
1.2399999999998799, -1.8203996454834226 
1.2499999999998788, -1.8980762067936567 
1.2599999999998777, -1.9311915178900776 
1.2699999999998766, -1.9466666598619526 
1.2799999999998755, -1.9539642678485083 
1.2899999999998744, -1.9570781927343621 
1.2999999999998733, -1.9579264725164882 
1.3099999999998722, -1.957487756800358 
1.319999999999871, -1.9562889789038682 
1.32999999999987, -1.954453969524716 
1.3399999999998689, -1.9516690438326325 
1.3499999999998678, -1.948061122068959 
1.3599999999998666, -1.9454118883153377 
1.3699999999998655, -1.9449404623075477 
1.3799999999998644, -1.9450000197731891 
1.3899999999998633, -1.9436563218900353 
1.3999999999998622, -1.9380506981097145 
1.4099999999998611, -1.9153255579640729 
1.41999999999986, -1.7891892965192462 
1.429999999999859, -0.9129562892167362 
1.4399999999998578, 1.8316279754195233 
1.4499999999998567, 2.0325513907670887 
1.4599999999998556, 2.044405950695602 
1.4699999999998545, 2.0455754358333205 
1.4799999999998534, 2.0427102951780616 
1.4899999999998523, 2.023912135332322 
1.4999999999998512, 1.7169006219296912 
1.5099999999998501, 0.9758254035749054 
1.519999999999849, 1.200440461167021 
1.529999999999848, 1.2414144929521647 
1.5399999999998468, 1.2500750081485528 
1.5499999999998457, 1.2521591081969365 
1.5599999999998446, 1.2520728118173818 
1.5699999999998435, 1.250965581473964 
1.5799999999998424, 1.25000919942138 
1.5899999999998413, 1.25230976566423 
1.5999999999998402, 1.2610061534860921 
1.6099999999998391, 1.2720516524121472 
1.619999999999838, 1.279571731303384 
1.629999999999837, 1.28316733779832 
1.6399999999998358, 1.2842945970739967 
1.6499999999998347, 1.2836024841954772 
1.6599999999998336, 1.2799524675699465 
1.6699999999998325, 1.2647239297247184 
1.6799999999998314, 1.1382453355213813 
1.6899999999998303, -1.700426487739391 
1.6999999999998292, -2.9797430045382987 
1.709999999999828, -3.032677736737848 
1.719999999999827, -3.0392667901429595 
1.729999999999826, -3.0397932574132853 
1.7399999999998248, -3.0386359145232467 
1.7499999999998237, -3.0358022924108115 
1.7599999999998226, -3.0296199406617466 
1.7699999999998215, -3.026266051223105 
1.7799999999998204, -3.0277466982433046 
1.7899999999998193, -3.0269226413676855 
1.7999999999998182, -3.0222055305216395 
1.809999999999817, -3.025302810676377 
1.819999999999816, -3.03850191996231 
1.8299999999998149, -3.0435994596260825 
1.8399999999998138, -3.0448324514376797 
1.8499999999998127, -3.0441320598046215 
1.8599999999998116, -3.0398060425106244 
1.8699999999998105, -3.0200149085060066 
1.8799999999998094, -2.854386669651794 
1.8899999999998083, -0.22153635826344656 
1.8999999999998072, 0.9677554067406489 
1.909999999999806, 1.0390609690864412 
1.919999999999805, 1.0512763987663418 
1.9299999999998039, 1.0544974443237938 
1.9399999999998028, 1.0552883505217234 
1.9499999999998017, 1.055150331721534 
1.9599999999998006, 1.0545693315532874 
1.9699999999997995, 1.0537750913451842 
1.9799999999997984, 1.0529406642485104 
1.9899999999997973, 1.0522251925502917 
1.9999999999997962, 1.051737096672359 
2.0099999999998173, 1.0514746182547345 
2.0199999999998384, 1.0513081291653559 
2.0299999999998595, 1.0509971234650364 
2.0399999999998806, 1.050137128357569 
2.0499999999999017, 1.0477901083953913 
2.059999999999923, 1.0406715668506497 
2.069999999999944, 1.010409804206051 
2.079999999999965, 0.722340690397479 
2.089999999999986, -2.3291522426709617 
2.100000000000007, -2.9849736500724857 
2.1100000000000283, -3.032364477864169 
2.1200000000000494, -3.0405204156495564 
2.1300000000000705, -3.0417864472182767 
2.1400000000000916, -3.040627717355 
2.1500000000001127, -3.036957772279738 
2.160000000000134, -3.02601614982819 
2.170000000000155, -3.0085273102682466 
2.180000000000176, -3.011460574583775 
2.190000000000197, -3.0144476137293466 
2.2000000000002182, -3.013503396793717 
2.2100000000002393, -3.0120284537538895 
2.2200000000002604, -3.0158985768968978 
2.2300000000002815, -3.019249957350021 
2.2400000000003026, -3.0201530271154997 
2.2500000000003237, -3.0199009779413517 
2.260000000000345, -3.0172517542480892 
2.270000000000366, -3.0029555555194296 
2.280000000000387, -2.8495063695266554 
2.290000000000408, 0.38822661651960944 
2.3000000000004293, 1.3217475546084696 
2.3100000000004504, 1.364651080453792 
2.3200000000004715, 1.3714947507467834 
2.3300000000004926, 1.372695247500054 
2.3400000000005137, 1.3716174309653653 
2.3500000000005348, 1.3678006440539177 
2.360000000000556, 1.3584038407303205 
2.370000000000577, 1.340084814010457 
2.380000000000598, 1.3217209247565873 
2.390000000000619, 1.317164595209944 
2.4000000000006403, 1.3192213109019177 
2.4100000000006614, 1.3209169377829377 
2.4200000000006825, 1.32105389358914 
2.4300000000007036, 1.319073241845082 
2.4400000000007247, 1.3121531307317 
2.450000000000746, 1.2881174271197213 
2.460000000000767, 1.2433713337897845 
2.470000000000788, 1.451008445042424 
2.480000000000809, 1.5694290708747616 
2.49000000000083, 1.5887720958843086 
2.5000000000008513, 1.5926332848861071 
2.5100000000008724, 1.5925194594612535 
2.5200000000008935, 1.5885945241630106 
2.5300000000009146, 1.568141571394696 
2.5400000000009357, 1.3229009363259119 
2.550000000000957, -0.6942705878532897 
2.560000000000978, -1.4464307548108983 
2.570000000000999, -1.5819065279013484 
2.58000000000102, -1.6115709074227005 
2.5900000000010412, -1.61950159094599 
2.6000000000010624, -1.621496635434117 
2.6100000000010835, -1.6211761617949865 
2.6200000000011046, -1.6197633093884811 
2.6300000000011257, -1.619329594503586 
2.6400000000011468, -1.623658468645766 
2.650000000001168, -1.6328052586760513 
2.660000000001189, -1.642011946520573 
2.67000000000121, -1.648722164930836 
2.680000000001231, -1.653160971135416 
2.6900000000012523, -1.6560514671673654 
2.7000000000012734, -1.6578332552113682 
2.7100000000012945, -1.6587085302534479 
2.7200000000013156, -1.6587705461141649 
2.7300000000013367, -1.6580482095982934 
2.740000000001358, -1.6565068871226245 
2.750000000001379, -1.6540367119021764 
2.7600000000014, -1.6504097836070677 
2.770000000001421, -1.645155806055786 
2.780000000001442, -1.6374344769929465 
2.7900000000014633, -1.6265411638708855 
2.8000000000014844, -1.6142929141604831 
2.8100000000015055, -1.606464074671274 
2.8200000000015266, -1.6052100518594297 
2.8300000000015477, -1.6063045084184213 
2.840000000001569, -1.6066862791894672 
2.85000000000159, -1.6052321887994416 
2.860000000001611, -1.5998517166629704 
2.870000000001632, -1.5820735374005586 
2.8800000000016532, -1.5120661435632352 
2.8900000000016743, -1.1841391862585768 
2.9000000000016954, 0.6077589745835349 
2.9100000000017165, 1.8621450852146118 
2.9200000000017377, 1.90926297901752 
2.9300000000017588, 1.914579413876676 
2.94000000000178, 1.914455759422426 
2.950000000001801, 1.9096632151950321 
2.960000000001822, 1.8780555687511609 
2.970000000001843, 1.4408098542693324 
2.9800000000018643, 1.1247259564084415 
2.9900000000018854, 1.2589195546604883 
3.0000000000019065, 1.2840823199725995 
3.0100000000019276, 1.2898520530268676 
3.0200000000019487, 1.2910527944621315 
3.03000000000197, 1.2905165681160644 
3.040000000001991, 1.2891910409403227 
3.050000000002012, 1.2888273737654803 
3.060000000002033, 1.2934229390124148 
3.070000000002054, 1.3039440283977712 
3.0800000000020753, 1.3138434073880805 
3.0900000000020964, 1.3194311803997163 
3.1000000000021175, 1.3217287310096153 
3.1100000000021386, 1.321995637544446 
3.1200000000021597, 1.3202247788769665 
3.130000000002181, 1.3131809635014147 
3.140000000002202, 1.2744071122740142 
3.150000000002223, 0.5488087759010327 
3.160000000002244, -2.91812669939882 
3.1700000000022652, -3.103127924184092 
3.1800000000022863, -3.1182459328841157 
3.1900000000023074, -3.1202419306909537 
3.2000000000023285, -3.119529349029525 
3.2100000000023496, -3.117256722964251 
3.2200000000023707, -3.1113998216106538 
3.230000000002392, -3.1047487270981313 
3.240000000002413, -3.1061908692225524 
3.250000000002434, -3.1066178476164583 
3.260000000002455, -3.103552639121946 
3.2700000000024763, -3.103066169591468 
3.2800000000024974, -3.112749434832768 
3.2900000000025185, -3.117411701962255 
3.3000000000025396, -3.1185079733258445 
3.3100000000025607, -3.117841532068708 
3.3200000000025818, -3.113402327363674 
3.330000000002603, -3.0891697829040856 
3.340000000002624, -2.7794765554481944 
3.350000000002645, 0.6657348259335425 
3.360000000002666, 1.1461971185598914 
3.3700000000026873, 1.1807414627185298 
3.3800000000027084, 1.187390936531558 
3.3900000000027295, 1.1889479442222863 
3.4000000000027506, 1.1887494465058017 
3.4100000000027717, 1.1873862350548166 
3.420000000002793, 1.1847938704662648 
3.430000000002814, 1.1809607960535877 
3.440000000002835, 1.1766001650907927 
3.450000000002856, 1.1731199799190997 
3.460000000002877, 1.1713149954616149 
3.4700000000028983, 1.1707170893899665 
3.4800000000029194, 1.17040305101886 
3.4900000000029405, 1.169505725247761 
3.5000000000029616, 1.1666448976354744 
3.5100000000029827, 1.1567750257705591 
3.520000000003004, 1.1050635307805101 
3.530000000003025, 0.3743882200435876 
3.540000000003046, -3.1888761088401023 
3.550000000003067, -3.4178465077334153 
3.5600000000030882, -3.435685715084742 
3.5700000000031094, -3.438711253489938 
3.5800000000031305, -3.438004516121802 
3.5900000000031516, -3.4335782776943886 
3.6000000000031727, -3.412716335409094 
3.6100000000031938, -3.271391209704288 
3.620000000003215, -3.2703671852980185 
3.630000000003236, -3.2935104469010925 
3.640000000003257, -3.2956718969030163 
3.650000000003278, -3.295104629465623 
3.6600000000032993, -3.2950566520185385 
3.6700000000033204, -3.2944698002317487 
3.6800000000033415, -3.293502436960342 
3.6900000000033626, -3.293058003072076 
3.7000000000033837, -3.289531620172485 
3.710000000003405, -3.2632184110605325 
3.720000000003426, -3.282649216341506 
3.730000000003447, -3.3980122200365215 
3.740000000003468, -3.4144838549738368 
3.750000000003489, -3.417385104936784 
3.7600000000035103, -3.416837647571556 
3.7700000000035314, -3.4123668025748493 
3.7800000000035525, -3.391357073508331 
3.7900000000035736, -3.12028669510429 
3.8000000000035947, 0.5046893674123656 
3.810000000003616, 1.1205828194443814 
3.820000000003637, 1.165622629700355 
3.830000000003658, 1.1740879625921985 
3.840000000003679, 1.176214227976197 
3.8500000000037002, 1.1765451441590213 
3.8600000000037213, 1.1763779578671396 
3.8700000000037424, 1.176551699880271 
3.8800000000037635, 1.1778937982795707 
3.8900000000037847, 1.180702475116359 
3.9000000000038058, 1.1841628965545323 
3.910000000003827, 1.1870632758316582 
3.920000000003848, 1.1888370667976684 
3.930000000003869, 1.1894947352843757 
3.94000000000389, 1.1890277426270157 
3.9500000000039113, 1.1867005799969508 
3.9600000000039324, 1.1785983260957875 
3.9700000000039535, 1.1365854912716524 
3.9800000000039746, 0.4749741668506074 
3.9900000000039957, -2.8731742183449143 
4.000000000004016, -3.1041580902626613 
4.010000000003993, -3.123774625109334 
4.02000000000397, -3.1267562007113052 
4.030000000003946, -3.1263114895198187 
4.040000000003923, -3.124038097542491 
4.0500000000039, -3.117673437503829 
4.0600000000038765, -3.1064482827604727 
4.070000000003853, -3.106939433330786 
4.08000000000383, -3.1089799296522975 
4.090000000003807, -3.107486890703886 
4.100000000003783, -3.105581062726448 
4.11000000000376, -3.1112968308046107 
4.120000000003737, -3.1155428981557054 
4.130000000003713, -3.1166253053679758 
4.14000000000369, -3.1162491620419934 
4.150000000003667, -3.112876891990184 
4.1600000000036434, -3.0936401805653633 
4.17000000000362, -2.8337605481529304 
4.180000000003597, 0.8305688548514419 
4.1900000000035735, 1.3131266570547167 
4.20000000000355, 1.342907423127253 
4.210000000003527, 1.3482274700569639 
4.220000000003504, 1.3490722370850312 
4.23000000000348, 1.3478970502534486 
4.240000000003457, 1.344292502005819 
4.250000000003434, 1.3363722279265169 
4.26000000000341, 1.3230515883713598 
4.270000000003387, 1.3107776518989724 
4.280000000003364, 1.306994588890799 
4.2900000000033405, 1.3078632517822328 
4.300000000003317, 1.3088706949885518 
4.310000000003294, 1.3086850593423427 
4.320000000003271, 1.3063432884686088 
4.330000000003247, 1.298028495980359 
4.340000000003224, 1.2639575915674963 
4.350000000003201, 1.1586510782269033 
4.360000000003177, 1.5623268022621046 
4.370000000003154, 1.724936007594728 
4.380000000003131, 1.7429347938728987 
4.390000000003107, 1.745936138552151 
4.400000000003084, 1.7451271245884104 
4.410000000003061, 1.738902535676372 
4.4200000000030375, 1.695689555728298 
4.430000000003014, 0.8386717702102947 
4.440000000002991, -0.8586070279947146 
4.450000000002968, -1.19353805638867 
4.460000000002944, -1.280667894015354 
4.470000000002921, -1.3064603344105408 
4.480000000002898, -1.3149454397368818 
4.490000000002874, -1.3176355281733232 
4.500000000002851, -1.3177316252682896 
4.510000000002828, -1.315893431385979 
4.520000000002804, -1.3118573028023515 
4.530000000002781, -1.3066708054709726 
4.540000000002758, -1.3114305500011347 
4.5500000000027345, -1.3555293630124725 
4.560000000002711, -1.4416281054419016 
4.570000000002688, -1.5208325776866425 
4.580000000002665, -1.5714554616983687 
4.590000000002641, -1.6015365445631704 
4.600000000002618, -1.6201034533319507 
4.610000000002595, -1.6320261718219307 
4.620000000002571, -1.6396668547342501 
4.630000000002548, -1.6442763696675216 
4.640000000002525, -1.646678508225471 
4.6500000000025015, -1.6475126571549736 
4.660000000002478, -1.6472878302388831 
4.670000000002455, -1.6464174488982946 
4.6800000000024315, -1.6452015191131852 
4.690000000002408, -1.6436960059835766 
4.700000000002385, -1.6417924079341222 
4.710000000002362, -1.6397187566232696 
4.720000000002338, -1.6382451087951846 
4.730000000002315, -1.6377642808145692 
4.740000000002292, -1.6376028814358237 
4.750000000002268, -1.6367058236694731 
4.760000000002245, -1.633747367800595 
4.770000000002222, -1.6256308974402565 
4.7800000000021985, -1.603062220776041 
4.790000000002175, -1.537785058785038 
4.800000000002152, -1.359137973466498 
4.810000000002129, -1.002695502461703 
4.820000000002105, -0.6208553987737153 
4.830000000002082, -0.3910561712666135 
4.840000000002059, -0.28137126866824824 
4.850000000002035, -0.22884042526109077 
4.860000000002012, -0.20182790810589393 
4.870000000001989, -0.18688481396632237 
4.880000000001965, -0.17812844781930345 
4.890000000001942, -0.1728096960022923 
4.900000000001919, -0.16956512612463084 
4.9100000000018955, -0.167697887850287 
4.920000000001872, -0.16686693335336258 
4.930000000001849, -0.16695333458464895 
4.940000000001826, -0.16801715870311662 
4.950000000001802, -0.17031945530648882 
4.960000000001779, -0.17442237775556393 
4.970000000001756, -0.18143051979495056 
4.980000000001732, -0.19354625565836983 
