t, s[1].omega / s[0].omega 
0, -0.6800322945097158 
0.009999999999999995, -0.6835774378821288 
0.019999999999999934, -0.6876354633133376 
0.029999999999999874, -0.6918495010780349 
0.04000000000000012, -0.6956872015106541 
0.050000000000000405, -0.698678336879421 
0.06000000000000069, -0.7006247816536417 
0.07000000000000098, -0.701592892340648 
0.08000000000000126, -0.7017693724131931 
0.09000000000000155, -0.7013582055155602 
0.10000000000000184, -0.7005972748946342 
0.11000000000000212, -0.6999298958957835 
0.12000000000000241, -0.7004433325413937 
0.130000000000002, -0.7048332453898186 
0.1400000000000009, -0.7192302088417944 
0.1499999999999998, -0.7555919539487731 
0.1599999999999987, -0.8310309211281298 
0.1699999999999976, -0.9543737160159711 
0.1799999999999965, -1.1038842789195966 
0.1899999999999954, -1.2398779049115816 
0.1999999999999943, -1.3427181327867213 
0.2099999999999932, -1.4141928300210256 
0.2199999999999921, -1.46140147273763 
0.229999999999991, -1.4905420802832923 
0.2399999999999899, -1.5069418853746264 
0.2499999999999888, -1.5152634982195015 
0.2599999999999877, -1.518994831764523 
0.2699999999999866, -1.5202814995302418 
0.2799999999999855, -1.5203190600809708 
0.2899999999999844, -1.5198890400950824 
0.2999999999999833, -1.5196449352812533 
0.3099999999999822, -1.5199005366599245 
0.3199999999999811, -1.5204256872960384 
0.32999999999998, -1.520877377230674 
0.3399999999999789, -1.5212153178940604 
0.3499999999999778, -1.5215348716801358 
0.35999999999997667, -1.5217243409259356 
0.36999999999997557, -1.5214416448236638 
0.37999999999997447, -1.5202604505636237 
0.38999999999997337, -1.5177027174551057 
0.39999999999997227, -1.5132331677052 
0.40999999999997117, -1.506303839953532 
0.41999999999997006, -1.4963353009715359 
0.42999999999996896, -1.4824758438932792 
0.43999999999996786, -1.4631124479529465 
0.44999999999996676, -1.435262837464793 
0.45999999999996566, -1.394685518983775 
0.46999999999996456, -1.340317149109262 
0.47999999999996346, -1.285855258525223 
0.48999999999996235, -1.2546206218562739 
0.49999999999996125, -1.2475979644929815 
0.5099999999999602, -1.2495681584573126 
0.519999999999959, -1.2520042748137927 
0.529999999999958, -1.2530396720116368 
0.5399999999999568, -1.2524451272083232 
0.5499999999999557, -1.249495995540033 
0.5599999999999546, -1.241352391689112 
0.5699999999999535, -1.2179781773938254 
0.5799999999999524, -1.1397636804867401 
0.5899999999999513, -0.8406610500297285 
0.5999999999999502, -0.07873001035108489 
0.6099999999999491, 0.37632985644070344 
0.619999999999948, 0.47910166384183156 
0.6299999999999469, 0.5055258346839813 
0.6399999999999458, 0.5143022434812765 
0.6499999999999447, 0.517572520549163 
0.6599999999999436, 0.5185862634263592 
0.6699999999999425, 0.5183919340332374 
0.6799999999999414, 0.5173853403236337 
0.6899999999999403, 0.5157933076109049 
0.6999999999999392, 0.5138675241526884 
0.7099999999999381, 0.5119312044845021 
0.719999999999937, 0.5103129219978577 
0.7299999999999359, 0.5092444692544247 
0.7399999999999348, 0.508807109989981 
0.7499999999999337, 0.5089386966942524 
0.7599999999999326, 0.5094667722474451 
0.7699999999999315, 0.5101495144554338 
0.7799999999999304, 0.5107226543268341 
0.7899999999999293, 0.5109310992448168 
0.7999999999999282, 0.510500574906359 
0.8099999999999271, 0.5089880875480018 
0.819999999999926, 0.5053434759575677 
0.8299999999999249, 0.49643978234427255 
0.8399999999999238, 0.47060715025221783 
0.8499999999999227, 0.36849947870101774 
0.8599999999999216, -0.162045986422586 
0.8699999999999205, -1.210625246725138 
0.8799999999999194, -1.5587268630394735 
0.8899999999999183, -1.6287978378430783 
0.8999999999999172, -1.6460534153716755 
0.9099999999999161, -1.6509375359327478 
0.919999999999915, -1.6519888375919145 
0.9299999999999139, -1.651535719971955 
0.9399999999999128, -1.6509383328903457 
0.9499999999999117, -1.6519752450522134 
0.9599999999999106, -1.6553273712269676 
0.9699999999999095, -1.6593576110347261 
0.9799999999999084, -1.6625704597162028 
0.9899999999999073, -1.6647654958636184 
0.9999999999999062, -1.666177959746274 
1.0099999999999052, -1.6668888594319902 
1.019999999999904, -1.6668144772046234 
1.029999999999903, -1.6658229329085228 
1.039999999999902, -1.6637676622105317 
1.0499999999999008, -1.6604570666613174 
1.0599999999998997, -1.6555681636703792 
1.0699999999998986, -1.6484701350426345 
1.0799999999998975, -1.637877837356959 
1.0899999999998964, -1.621317140533162 
1.0999999999998953, -1.5953787814653535 
1.1099999999998942, -1.5614279615244204 
1.119999999999893, -1.535758279449294 
1.129999999999892, -1.5299463889374905 
1.1399999999998909, -1.5326551904047503 
1.1499999999998898, -1.5349610955386324 
1.1599999999998887, -1.535355256579955 
1.1699999999998876, -1.5335038236327272 
1.1799999999998865, -1.5273445579612888 
1.1899999999998854, -1.5092067506341231 
1.1999999999998843, -1.4587481350579297 
1.2099999999998832, -1.4300814046389212 
1.219999999999882, -2.098486147306138 
1.229999999999881, -2.6152769533070312 
1.2399999999998799, -2.6901092577710797 
1.2499999999998788, -2.7065138197444734 
1.2599999999998777, -2.7115348105838195 
1.2699999999998766, -2.7127484056954905 
1.2799999999998755, -2.7118318749902057 
1.2899999999998744, -2.7085940715331183 
1.2999999999998733, -2.700019962158117 
1.3099999999998722, -2.6728685913087595 
1.319999999999871, -2.6197791216363546 
1.32999999999987, -2.622540445429541 
1.3399999999998689, -2.6319822047344936 
1.3499999999998678, -2.6336037003467028 
1.3599999999998666, -2.6324495713975695 
1.3699999999998655, -2.6321061258033622 
1.3799999999998644, -2.635513600176642 
1.3899999999998633, -2.6383443097506283 
1.3999999999998622, -2.6393565891106543 
1.4099999999998611, -2.639447638834077 
1.41999999999986, -2.638151457902603 
1.429999999999859, -2.632640176463588 
1.4399999999998578, -2.608243236588129 
1.4499999999998567, -2.433454309091017 
1.4599999999998556, -0.683702560351293 
1.4699999999998545, 0.591363089874206 
1.4799999999998534, 0.7161433606717635 
1.4899999999998523, 0.7391116666302285 
1.4999999999998512, 0.745731256506661 
1.5099999999998501, 0.7479525088579356 
1.519999999999849, 0.7485477677557957 
1.529999999999848, 0.7484096154659804 
1.5399999999998468, 0.7479395243557155 
1.5499999999998457, 0.7474117722739966 
1.5599999999998446, 0.7470707273346305 
1.5699999999998435, 0.7471172227113836 
1.5799999999998424, 0.7476413693165594 
1.5899999999998413, 0.7485645752038723 
1.5999999999998402, 0.7496553686493648 
1.6099999999998391, 0.7506243603246043 
1.619999999999838, 0.751217381266969 
1.629999999999837, 0.7512145063399451 
1.6399999999998358, 0.7502870355789326 
1.6499999999998347, 0.7475805188418274 
1.6599999999998336, 0.7402246560857082 
1.6699999999998325, 0.7154635786244017 
1.6799999999998314, 0.5806172615965087 
1.6899999999998303, -0.6932984932978123 
1.6999999999998292, -2.2308889229351343 
1.709999999999828, -2.395535997957499 
1.719999999999827, -2.418733317901254 
1.729999999999826, -2.423441142028249 
1.7399999999998248, -2.4240347857901705 
1.7499999999998237, -2.4234608498674115 
1.7599999999998226, -2.4226231959352025 
1.7699999999998215, -2.4211468447488307 
1.7799999999998204, -2.4190135038071645 
1.7899999999998193, -2.4179741652063895 
1.7999999999998182, -2.417885445253552 
1.809999999999817, -2.4163250179801468 
1.819999999999816, -2.4084162610927167 
1.8299999999998149, -2.3642726297985 
1.8399999999998138, -2.2370649312982316 
1.8499999999998127, -2.8507605358771615 
1.8599999999998116, -3.0128023841236704 
1.8699999999998105, -3.0341831713513083 
1.8799999999998094, -3.0391421880027303 
1.8899999999998083, -3.0399112628658096 
1.8999999999998072, -3.0382073639449176 
1.909999999999806, -3.0324413610307004 
1.919999999999805, -3.0104052330948683 
1.9299999999998039, -2.879149989831547 
1.9399999999998028, -2.750932329141059 
1.9499999999998017, -2.805012267683938 
1.9599999999998006, -2.814284982386034 
1.9699999999997995, -2.815114036051872 
1.9799999999997984, -2.8144695629815657 
1.9899999999997973, -2.8149393675791314 
1.9999999999997962, -2.815531157528947 
2.0099999999998173, -2.8152578266249177 
2.0199999999998384, -2.814967584433248 
2.0299999999998595, -2.81377610793877 
2.0399999999998806, -2.8071781192373675 
2.0499999999999017, -2.7560371019439214 
2.059999999999923, -1.819379656409327 
2.069999999999944, 2.822300864767922 
2.079999999999965, 2.968620896162416 
2.089999999999986, 2.973119939207637 
2.100000000000007, 2.970912147958282 
2.1100000000000283, 2.936998762576479 
2.1200000000000494, -2.781351430297911 
2.1300000000000705, -4.006427925592838 
2.1400000000000916, -4.020980434662894 
2.1500000000001127, -4.021330827984306 
2.160000000000134, -4.019272417434513 
2.170000000000155, -4.011631724994379 
2.180000000000176, -4.006279543140141 
2.190000000000197, -4.009328512390426 
2.2000000000002182, -4.008090568905496 
2.2100000000002393, -4.00834312772074 
2.2200000000002604, -4.010256539436615 
2.2300000000002815, -4.010129901939136 
2.2400000000003026, -4.008908195802757 
2.2500000000003237, -3.997027133823399 
2.260000000000345, -3.8246363104265106 
2.270000000000366, -4.214737886749258 
2.280000000000387, -4.240633311929103 
2.290000000000408, -4.242661721172321 
2.3000000000004293, -4.240199060566574 
2.3100000000004504, -4.221523705341105 
2.3200000000004715, -3.0809895908397222 
2.3300000000004926, 2.1046295223853795 
2.3400000000005137, 2.1592954502637345 
2.3500000000005348, 2.16381018765408 
2.360000000000556, 2.1640947185909 
2.370000000000577, 2.1628370433429502 
2.380000000000598, 2.1593520954393495 
2.390000000000619, 2.1532548300320364 
2.4000000000006403, 2.1495143783834583 
2.4100000000006614, 2.1500407071855827 
2.4200000000006825, 2.1503232528087173 
2.4300000000007036, 2.1479542030798173 
2.4400000000007247, 2.137953206428002 
2.450000000000746, 2.1318188911056124 
2.460000000000767, 2.1830372910268205 
2.470000000000788, 2.202427478916954 
2.480000000000809, 2.2060903923162622 
2.49000000000083, 2.205703252873984 
2.5000000000008513, 2.200123434151087 
2.5100000000008724, 2.1318878873721356 
2.5200000000008935, -3.5291026332515676 
2.5300000000009146, -4.142428238857476 
2.5400000000009357, -4.155147816758893 
2.550000000000957, -4.155428282041265 
2.560000000000978, -4.151868481218633 
2.570000000000999, -4.129438519093998 
2.58000000000102, -4.1043158922769365 
2.5900000000010412, -4.118284201189703 
2.6000000000010624, -4.118755356475053 
2.6100000000010835, -4.118228443404437 
2.6200000000011046, -4.117666869290043 
2.6300000000011257, -4.116429938514292 
2.6400000000011468, -4.115694988786968 
2.650000000001168, -4.108264295757679 
2.660000000001189, -4.107724530513495 
2.67000000000121, -4.135762209335825 
2.680000000001231, -4.139633636273246 
2.6900000000012523, -4.1390186364544945 
2.7000000000012734, -4.131411431885741 
2.7100000000012945, -3.9751261165613534 
2.7200000000013156, 2.034008953462572 
2.7300000000013367, 2.223261943239902 
2.740000000001358, 2.2316172906808402 
2.750000000001379, 2.231988918729579 
2.7600000000014, 2.228511029579184 
2.770000000001421, 2.2103477549951784 
2.780000000001442, 2.13529353749447 
2.7900000000014633, 2.133406644947362 
2.8000000000014844, 2.1487348980876346 
2.8100000000015055, 2.1516273610481402 
2.8200000000015266, 2.1512284642894546 
2.8300000000015477, 2.150293225853471 
2.840000000001569, 2.1520845754580917 
2.85000000000159, 2.1560000972567854 
2.860000000001611, 2.158332436063192 
2.870000000001632, 2.158870518436428 
2.8800000000016532, 2.1581661907180627 
2.8900000000016743, 2.154560687105131 
2.9000000000016954, 2.1257027506354254 
2.9100000000017165, -0.18094772684057325 
2.9200000000017377, -4.282121342614053 
2.9300000000017588, -4.314990437401116 
2.94000000000178, -4.317311544526343 
2.950000000001801, -4.314855431604227 
2.960000000001822, -4.296355632729019 
2.970000000001843, -3.740313139159093 
2.9800000000018643, -3.888657083509711 
2.9900000000018854, -3.9159763752689924 
3.0000000000019065, -3.917167695846085 
3.0100000000019276, -3.9162190863886375 
3.0200000000019487, -3.913698857654352 
3.03000000000197, -3.9101663786605947 
3.040000000001991, -3.9107905502049434 
3.050000000002012, -3.9087858727102947 
3.060000000002033, -3.9060348359245296 
3.070000000002054, -3.9145139635554207 
3.0800000000020753, -3.9171318499912133 
3.0900000000020964, -3.916924092142794 
3.1000000000021175, -3.9128113610877464 
3.1100000000021386, -3.8558520783481085 
3.1200000000021597, 1.811967142740071 
3.130000000002181, 2.789717575310224 
3.140000000002202, 2.8009566834841153 
3.150000000002223, 2.80076636021018 
3.160000000002244, 2.791595016465125 
3.1700000000022652, 2.462932764864548 
3.1800000000022863, 0.6017723088894216 
3.1900000000023074, 1.1268507706139939 
3.2000000000023285, 1.1949932666357834 
3.2100000000023496, 1.2073562647000857 
3.2200000000023707, 1.2104010312296798 
3.230000000002392, 1.210792985132953 
3.240000000002413, 1.210099309962048 
3.250000000002434, 1.2092979803355208 
3.260000000002455, 1.2103922605916375 
3.2700000000024763, 1.2160924056068474 
3.2800000000024974, 1.2252345373419085 
3.2900000000025185, 1.232955739021167 
3.3000000000025396, 1.2373218728743018 
3.3100000000025607, 1.2391191487312938 
3.3200000000025818, 1.2391488533498944 
3.330000000002603, 1.2371429406781507 
3.340000000002624, 1.2296233170026707 
3.350000000002645, 1.190190211704787 
3.360000000002666, 0.560022673884143 
3.3700000000026873, -2.7524328446322954 
3.3800000000027084, -2.985042263285328 
3.3900000000027295, -3.0039201582194055 
3.4000000000027506, -3.0066587391242967 
3.4100000000027717, -3.006273942161048 
3.420000000002793, -3.0046012654193883 
3.430000000002814, -3.0005618366453204 
3.440000000002835, -2.9942796800267493 
3.450000000002856, -2.9938504876305436 
3.460000000002877, -2.994763318926423 
3.4700000000028983, -2.99244811308692 
3.4800000000029194, -2.9873073596356208 
3.4900000000029405, -2.9977713631459446 
3.5000000000029616, -3.009356643954067 
3.5100000000029827, -3.0129654310517795 
3.520000000003004, -3.0136663209367347 
3.530000000003025, -3.0123074057784502 
3.540000000003046, -3.0061120360700992 
3.550000000003067, -2.9769509872438866 
3.5600000000030882, -2.6957894638239805 
3.5700000000031094, 0.26086257837876 
3.5800000000031305, 0.9532284068786241 
3.5900000000031516, 1.005583472455926 
3.6000000000031727, 1.015761187703734 
3.6100000000031938, 1.018582480333441 
3.620000000003215, 1.0192968901590798 
3.630000000003236, 1.0192296899214066 
3.640000000003257, 1.0188787216841353 
3.650000000003278, 1.0185209563387736 
3.6600000000032993, 1.0183373366419644 
3.6700000000033204, 1.018403778922309 
3.6800000000033415, 1.0186732849032687 
3.6900000000033626, 1.019007409019913 
3.7000000000033837, 1.0192318411452048 
3.710000000003405, 1.0191490064457644 
3.720000000003426, 1.018447208292275 
3.730000000003447, 1.0163518300223666 
3.740000000003468, 1.010146638339513 
3.750000000003489, 0.9857151686930397 
3.7600000000035103, 0.7922401100377833 
3.7700000000035314, -1.8654481254449564 
3.7800000000035525, -2.920442250802949 
3.7900000000035736, -2.9857874454554127 
3.8000000000035947, -2.995791427353841 
3.810000000003616, -2.9974220627881025 
3.820000000003637, -2.996554956309159 
3.830000000003658, -2.9937382030399577 
3.840000000003679, -2.986108264030576 
3.8500000000037002, -2.974017220117052 
3.8600000000037213, -2.9748275472804955 
3.8700000000037424, -2.977059699868515 
3.8800000000037635, -2.975789593303244 
3.8900000000037847, -2.9733155347601485 
3.9000000000038058, -2.978598833486702 
3.910000000003827, -2.9842810268154216 
3.920000000003848, -2.9861184281640254 
3.930000000003869, -2.9862675689045433 
3.94000000000389, -2.9844332645730813 
3.9500000000039113, -2.975750223240416 
3.9600000000039324, -2.919591452913357 
3.9700000000039535, -1.912026886221541 
3.9800000000039746, 0.8724734766448995 
3.9900000000039957, 1.0567808605205316 
4.000000000004016, 1.0786206395115387 
4.010000000003993, 1.0836657167048172 
4.02000000000397, 1.084881753041092 
4.030000000003946, 1.084599672955507 
4.040000000003923, 1.083302585025314 
4.0500000000039, 1.0810283277979593 
4.0600000000038765, 1.0778909393082887 
4.070000000003853, 1.0744484390470643 
4.08000000000383, 1.0715962088663062 
4.090000000003807, 1.0698745963863159 
4.100000000003783, 1.0690948662610988 
4.11000000000376, 1.0686787507434015 
4.120000000003737, 1.0679833201895435 
4.130000000003713, 1.066096617120089 
4.14000000000369, 1.0604691038040608 
4.150000000003667, 1.038585339876977 
4.1600000000036434, 0.873401479651512 
4.17000000000362, -1.7393965641391655 
4.180000000003597, -3.0420656177344565 
4.1900000000035735, -3.1113744688031706 
4.20000000000355, -3.1225013603609946 
4.210000000003527, -3.1247175068493114 
4.220000000003504, -3.123940648077753 
4.23000000000348, -3.1203487582777307 
4.240000000003457, -3.107975031943341 
4.250000000003434, -3.0654707966789236 
4.26000000000341, -3.0562898635254863 
4.270000000003387, -3.067339638001974 
4.280000000003364, -3.0688188071756324 
4.2900000000033405, -3.067776476158009 
4.300000000003317, -3.068463147720921 
4.310000000003294, -3.0701628866383364 
4.320000000003271, -3.070447123374085 
4.330000000003247, -3.0702101611044776 
4.340000000003224, -3.068528633118347 
4.350000000003201, -3.0582319544780696 
4.360000000003177, -2.9316310076592407 
4.370000000003154, 0.7011862762214255 
4.380000000003131, 2.7336942755679874 
4.390000000003107, 2.7540912558060278 
4.400000000003084, 2.755031979989162 
4.410000000003061, 2.749686751255212 
4.4200000000030375, 2.6397677216871225 
4.430000000003014, -2.5151538513266294 
4.440000000002991, -3.239417527406259 
4.450000000002968, -3.262884807210176 
4.460000000002944, -3.2650412423476594 
4.470000000002921, -3.2644655029326914 
4.480000000002898, -3.2630731830744786 
4.490000000002874, -3.259758465977847 
4.500000000002851, -3.2572661766718896 
4.510000000002828, -3.2577905023794775 
4.520000000002804, -3.2559608924239023 
4.530000000002781, -3.248401400164944 
4.540000000002758, -3.258637370427551 
4.5500000000027345, -3.2747244048960282 
4.560000000002711, -3.27889739242651 
4.570000000002688, -3.2794701216682887 
4.580000000002665, -3.27751568996998 
4.590000000002641, -3.267877451972472 
4.600000000002618, -3.197494793094262 
4.610000000002595, -1.283969022070727 
4.620000000002571, 1.181804050025011 
4.630000000002548, 1.2730814244126774 
4.640000000002525, 1.2850026638638594 
4.6500000000025015, 1.2876780752076353 
4.660000000002478, 1.2880360748838648 
4.670000000002455, 1.2873432137598664 
4.6800000000024315, 1.2857962639462062 
4.690000000002408, 1.2834054967207345 
4.700000000002385, 1.280503525968848 
4.710000000002362, 1.277931874929091 
4.720000000002338, 1.2763968832644284 
4.730000000002315, 1.2757694941667022 
4.740000000002292, 1.2753518908238433 
4.750000000002268, 1.2742552685307582 
4.760000000002245, 1.2706988066509255 
4.770000000002222, 1.256851861384642 
4.7800000000021985, 1.1591829796788686 
4.790000000002175, -0.9642026494404838 
4.800000000002152, -3.4859125664261668 
4.810000000002129, -3.556688018592829 
4.820000000002105, -3.564722587240869 
4.830000000002082, -3.565541009769018 
4.840000000002059, -3.5631177282131126 
4.850000000002035, -3.5524355033122843 
4.860000000002012, -3.465832675254739 
4.870000000001989, -3.3171586975323755 
4.880000000001965, -3.3789566688761754 
4.890000000001942, -3.384996624187734 
4.900000000001919, -3.3848842561120094 
4.9100000000018955, -3.384458126631351 
4.920000000001872, -3.383780330788318 
4.930000000001849, -3.3823195752221134 
4.940000000001826, -3.381963486302525 
4.950000000001802, -3.3799360741257436 
4.960000000001779, -3.3655868290636244 
4.970000000001756, -3.366082036547142 
4.980000000001732, -3.4333027454886227 
4.990000000001709, -3.4460934606367433 
5.000000000001686, -3.44832039657571 
