t, s[1].omega / s[0].omega 
0, -1.1799974452670008 
0.009999999999999995, -1.179598521746691 
0.019999999999999934, -1.1789049572759145 
0.029999999999999874, -1.1778967798832363 
0.04000000000000012, -1.1765709111489506 
0.050000000000000405, -1.1749629680252502 
0.06000000000000069, -1.1731482359061443 
0.07000000000000098, -1.1712194157260811 
0.08000000000000126, -1.1692664781350257 
0.09000000000000155, -1.1673987300564412 
0.10000000000000184, -1.1657925927966382 
0.11000000000000212, -1.1646633522192749 
0.12000000000000241, -1.164111767809838 
0.130000000000002, -1.1639968262049414 
0.1400000000000009, -1.1639989028493731 
0.1499999999999998, -1.1637730206255126 
0.1599999999999987, -1.163016112060483 
0.1699999999999976, -1.161454113129749 
0.1799999999999965, -1.1588492086674604 
0.1899999999999954, -1.1550684111328342 
0.1999999999999943, -1.1501492746540767 
0.2099999999999932, -1.144267644265278 
0.2199999999999921, -1.137618729688652 
0.229999999999991, -1.1303184998823133 
0.2399999999999899, -1.1223886576189412 
0.2499999999999888, -1.113814459203631 
0.2599999999999877, -1.104663681739636 
0.2699999999999866, -1.0952748798878513 
0.2799999999999855, -1.0864431217099142 
0.2899999999999844, -1.079320752585564 
0.2999999999999833, -1.07478150876751 
0.3099999999999822, -1.0727312309553667 
0.3199999999999811, -1.0722451305349385 
0.32999999999998, -1.072305495026139 
0.3399999999999789, -1.072222349401915 
0.3499999999999778, -1.0715583825172241 
0.35999999999997667, -1.0698874611714275 
0.36999999999997557, -1.0665913981386135 
0.37999999999997447, -1.0607880964058578 
0.38999999999997337, -1.051542928459726 
0.39999999999997227, -1.038427982330385 
0.40999999999997117, -1.0219902892163026 
0.41999999999997006, -1.0034976649631726 
0.42999999999996896, -0.9842004459815374 
0.43999999999996786, -0.9649038344384971 
0.44999999999996676, -0.9460522529333776 
0.45999999999996566, -0.9280258610051094 
0.46999999999996456, -0.9113948595164174 
0.47999999999996346, -0.8969903775653731 
0.48999999999996235, -0.885689232034325 
0.49999999999996125, -0.8779667957546609 
0.5099999999999602, -0.8735600772904032 
0.519999999999959, -0.8715849603997812 
0.529999999999958, -0.870993309338837 
0.5399999999999568, -0.8709485841198237 
0.5499999999999557, -0.8709166037249358 
0.5599999999999546, -0.8705726964609243 
0.5699999999999535, -0.869681787692881 
0.5799999999999524, -0.8680350788737584 
0.5899999999999513, -0.8654733929688566 
0.5999999999999502, -0.8619824485217025 
0.6099999999999491, -0.8577678265485679 
0.619999999999948, -0.8531958295889052 
0.6299999999999469, -0.8486254035417724 
0.6399999999999458, -0.8442811038502601 
0.6499999999999447, -0.8402419266021915 
0.6599999999999436, -0.836499381433975 
0.6699999999999425, -0.8330210782156693 
0.6799999999999414, -0.8297918606323156 
0.6899999999999403, -0.8268295970709854 
0.6999999999999392, -0.8241826391846437 
0.7099999999999381, -0.8219183056751417 
0.719999999999937, -0.8201081335281828 
0.7299999999999359, -0.8188095019824354 
0.7399999999999348, -0.8180426154489358 
0.7499999999999337, -0.8177701600524486 
0.7599999999999326, -0.817894097096271 
0.7699999999999315, -0.8182766789336755 
0.7799999999999304, -0.8187759045885444 
0.7899999999999293, -0.8192785480546603 
0.7999999999999282, -0.8197212735507137 
0.8099999999999271, -0.8200976966068609 
0.819999999999926, -0.8204487392121438 
0.8299999999999249, -0.8208348545616003 
0.8399999999999238, -0.8212980953181983 
0.8499999999999227, -0.8218297620348627 
0.8599999999999216, -0.8223589334120195 
0.8699999999999205, -0.8227722643856421 
0.8799999999999194, -0.8229611484368171 
0.8899999999999183, -0.8228701041490849 
0.8999999999999172, -0.8225194248659076 
0.9099999999999161, -0.822004120961487 
0.919999999999915, -0.8214900346148989 
0.9299999999999139, -0.8212136340789918 
0.9399999999999128, -0.8214667675525968 
0.9499999999999117, -0.822543462287433 
0.9599999999999106, -0.8246569945621957 
0.9699999999999095, -0.8278767524118427 
0.9799999999999084, -0.8321319288210395 
0.9899999999999073, -0.8372760068957946 
0.9999999999999062, -0.8431644232774781 
1.0099999999999052, -0.8497063412362122 
1.019999999999904, -0.8568804057218558 
1.029999999999903, -0.8647159076796388 
1.039999999999902, -0.8732324130830506 
1.0499999999999008, -0.882324267454581 
1.0599999999998997, -0.8916084252200716 
1.0699999999998986, -0.9003573951756948 
1.0799999999998975, -0.9077085416704946 
1.0899999999998964, -0.9131020815968016 
1.0999999999998953, -0.916529779832908 
1.1099999999998942, -0.9183691101624367 
1.119999999999893, -0.9190747707683944 
1.129999999999892, -0.9190145466545451 
1.1399999999998909, -0.9184833298031295 
1.1499999999998898, -0.9178433529220603 
1.1599999999998887, -0.9177697687704495 
1.1699999999998876, -0.9195290375722827 
1.1799999999998865, -0.9249875755774154 
1.1899999999998854, -0.9359257566890454 
1.1999999999998843, -0.9528741645145422 
1.2099999999998832, -0.9746374317647553 
1.219999999999882, -0.99910390982835 
1.229999999999881, -1.024392962263658 
1.2399999999998799, -1.0493138125375803 
1.2499999999998788, -1.0731283909273974 
1.2599999999998777, -1.0950865837711985 
1.2699999999998766, -1.114150904115545 
1.2799999999998755, -1.1292239225931664 
1.2899999999998744, -1.1397986293338707 
1.2999999999998733, -1.1463276969098581 
1.3099999999998722, -1.1498636183258113 
1.319999999999871, -1.151456438442615 
1.32999999999987, -1.1518637108365573 
1.3399999999998689, -1.1515922070188966 
1.3499999999998678, -1.1510936291324696 
1.3599999999998666, -1.150972992458811 
1.3699999999998655, -1.1519941870861028 
1.3799999999998644, -1.1546771809263043 
1.3899999999998633, -1.1588409786865406 
1.3999999999998622, -1.1637603768861187 
1.4099999999998611, -1.1687321087787297 
1.41999999999986, -1.1733705631766278 
1.429999999999859, -1.1775494948292753 
1.4399999999998578, -1.1812610270217154 
1.4499999999998567, -1.1845303645201721 
1.4599999999998556, -1.1873761992491172 
1.4699999999998545, -1.1897855538629085 
1.4799999999998534, -1.1917034505929847 
1.4899999999998523, -1.1930535451781175 
1.4999999999998512, -1.1937862921994598 
1.5099999999998501, -1.19392101011926 
1.519999999999849, -1.1935552397436373 
1.529999999999848, -1.1928526005564417 
1.5399999999998468, -1.1920234330480215 
1.5499999999998457, -1.1912780574825974 
1.5599999999998446, -1.1907489740850385 
1.5699999999998435, -1.1904573037503294 
1.5799999999998424, -1.1903755170242747 
1.5899999999998413, -1.1904970055898674 
1.5999999999998402, -1.1908106791338153 
1.6099999999998391, -1.1912278208514775 
1.619999999999838, -1.1915748223069933 
1.629999999999837, -1.1916565261361112 
1.6399999999998358, -1.1913143269769804 
1.6499999999998347, -1.1904524061901818 
1.6599999999998336, -1.1890472848633729 
1.6699999999998325, -1.187138357929279 
1.6799999999998314, -1.184792032414486 
1.6899999999998303, -1.1820594006640817 
1.6999999999998292, -1.1789569169878398 
1.709999999999828, -1.1754756357581804 
1.719999999999827, -1.1716026307380827 
1.729999999999826, -1.1673441504217792 
1.7399999999998248, -1.1627696459980934 
1.7499999999998237, -1.1581067792250017 
1.7599999999998226, -1.1538372916228465 
1.7699999999998215, -1.1505952133272537 
1.7799999999998204, -1.1487561830762016 
1.7899999999998193, -1.1481040773364786 
1.7999999999998182, -1.148021812904803 
1.809999999999817, -1.147902393767442 
1.819999999999816, -1.1472875258461697 
1.8299999999998149, -1.145746594406471 
1.8399999999998138, -1.142714229265928 
1.8499999999998127, -1.1374411231720545 
1.8599999999998116, -1.12918150176305 
1.8699999999998105, -1.1175965214651828 
1.8799999999998094, -1.1030094067998382 
1.8899999999998083, -1.0861704912317052 
1.8999999999998072, -1.067791809286106 
1.909999999999806, -1.048337002463072 
1.919999999999805, -1.028173462451302 
1.9299999999998039, -1.0079293416544797 
1.9399999999998028, -0.9888368397071249 
1.9499999999998017, -0.9726988362035007 
1.9599999999998006, -0.9611326150424029 
1.9699999999997995, -0.9545011534058755 
1.9799999999997984, -0.9516944117363286 
1.9899999999997973, -0.9510193670422973 
1.9999999999997962, -0.9511187941923245 
2.0099999999998173, -0.9512078635263084 
2.0199999999998384, -0.950867547262258 
2.0299999999998595, -0.9497819851560196 
2.0399999999998806, -0.9475629765180074 
2.0499999999999017, -0.9436952235488235 
2.059999999999923, -0.9376670744700526 
2.069999999999944, -0.929308575440241 
2.079999999999965, -0.9190793454842241 
2.089999999999986, -0.9079106517742568 
2.100000000000007, -0.8967038960003345 
2.1100000000000283, -0.8859999908158006 
2.1200000000000494, -0.8759967356966788 
2.1300000000000705, -0.8667178739149783 
2.1400000000000916, -0.8581614214156433 
2.1500000000001127, -0.8503847750576531 
2.160000000000134, -0.8435339703416188 
2.170000000000155, -0.8378192040757784 
2.180000000000176, -0.8334341367178644 
2.190000000000197, -0.830444410423606 
2.2000000000002182, -0.8287141082146509 
2.2100000000002393, -0.8279312245578867 
2.2200000000002604, -0.8277137889897876 
2.2300000000002815, -0.8277151757560322 
2.2400000000003026, -0.8276722842896399 
2.2500000000003237, -0.8274050216127449 
2.260000000000345, -0.8268060304608256 
2.270000000000366, -0.8258453210727634 
2.280000000000387, -0.8245799586797393 
2.290000000000408, -0.8231372807130242 
2.3000000000004293, -0.8216613627447347 
2.3100000000004504, -0.820254562855026 
2.3200000000004715, -0.818950607095959 
2.3300000000004926, -0.8177249881849369 
2.3400000000005137, -0.8165277126384461 
2.3500000000005348, -0.8153210252749237 
2.360000000000556, -0.8141075027216129 
2.370000000000577, -0.8129403724640992 
2.380000000000598, -0.8119160147157798 
2.390000000000619, -0.8111523849713362 
2.4000000000006403, -0.8107593179109365 
2.4100000000006614, -0.8108114648656037 
2.4200000000006825, -0.811335568171342 
2.4300000000007036, -0.812314843263423 
2.4400000000007247, -0.8137026618810662 
2.450000000000746, -0.8154370946281544 
2.460000000000767, -0.8174547955448304 
2.470000000000788, -0.8197061453055803 
2.480000000000809, -0.8221696843736803 
2.49000000000083, -0.8248582198289709 
2.5000000000008513, -0.8278074211533486 
2.5100000000008724, -0.8310411849494146 
2.5200000000008935, -0.8345160130696649 
2.5300000000009146, -0.8380645394215904 
2.5400000000009357, -0.8413882291956346 
2.550000000000957, -0.8441487627110842 
2.560000000000978, -0.8461183222633564 
2.570000000000999, -0.847260878692737 
2.58000000000102, -0.8476903972423946 
2.5900000000010412, -0.8475872779626149 
2.6000000000010624, -0.8471659553022961 
2.6100000000010835, -0.8467214843939997 
2.6200000000011046, -0.8467367838881706 
2.6300000000011257, -0.8479878837124805 
2.6400000000011468, -0.8515167964112251 
2.650000000001168, -0.8583461335843066 
2.660000000001189, -0.8690282105765286 
2.67000000000121, -0.883388457593943 
2.680000000001231, -0.9007045058301852 
2.6900000000012523, -0.9201292363578808 
2.7000000000012734, -0.9409924599268346 
2.7100000000012945, -0.9628115789623013 
2.7200000000013156, -0.9850472470869558 
2.7300000000013367, -1.0067389300639962 
2.740000000001358, -1.0263260429660357 
2.750000000001379, -1.0421013758684605 
2.7600000000014, -1.0531862573482014 
2.770000000001421, -1.0599901214059524 
2.780000000001442, -1.063662235569299 
2.7900000000014633, -1.0653281284514078 
2.8000000000014844, -1.0657681586367407 
2.8100000000015055, -1.0654712077073605 
2.8200000000015266, -1.0648454855256642 
2.8300000000015477, -1.0645009892828248 
2.840000000001569, -1.0654836530316492 
2.85000000000159, -1.0690845602138108 
2.860000000001611, -1.0759931865724557 
2.870000000001632, -1.0856146836178548 
2.8800000000016532, -1.0965336493313027 
2.8900000000016743, -1.1074990927657589 
2.9000000000016954, -1.1178564019682047 
2.9100000000017165, -1.1274096958197861 
2.9200000000017377, -1.1361509311522178 
2.9300000000017588, -1.1440636802518018 
2.94000000000178, -1.151022383154555 
2.950000000001801, -1.1567946000586056 
2.960000000001822, -1.161158381630479 
2.970000000001843, -1.1640597619033681 
2.9800000000018643, -1.1656637954279092 
2.9900000000018854, -1.1662663440301324 
3.0000000000019065, -1.1661883162478286 
3.0100000000019276, -1.1657528256006395 
3.0200000000019487, -1.165323169572685 
3.03000000000197, -1.1652875031702172 
3.040000000001991, -1.165907301515255 
3.050000000002012, -1.167162284530039 
3.060000000002033, -1.1688121384922 
3.070000000002054, -1.1706014333255008 
3.0800000000020753, -1.1723676411638642 
3.0900000000020964, -1.1740134109522986 
3.1000000000021175, -1.1754585686028807 
3.1100000000021386, -1.1766363200153065 
3.1200000000021597, -1.1775107979791244 
3.130000000002181, -1.1780803298492935 
3.140000000002202, -1.1783594023531463 
3.150000000002223, -1.1783534755070055 
3.160000000002244, -1.1780462971676458 
3.1700000000022652, -1.1774105705157525 
3.1800000000022863, -1.1764353121278257 
3.1900000000023074, -1.1751512939960786 
3.2000000000023285, -1.1736377810311387 
3.2100000000023496, -1.1720027739197483 
3.2200000000023707, -1.1703480454365869 
3.230000000002392, -1.1687598765950118 
3.240000000002413, -1.1673495995705323 
3.250000000002434, -1.1662800725541116 
3.260000000002455, -1.165684826011695 
3.2700000000024763, -1.1655274297108342 
3.2800000000024974, -1.165575161987761 
3.2900000000025185, -1.1655142417497215 
3.3000000000025396, -1.1650526109354886 
3.3100000000025607, -1.1639399017374086 
3.3200000000025818, -1.1619699542024182 
3.330000000002603, -1.1590225087645094 
3.340000000002624, -1.155112686889384 
3.350000000002645, -1.1503737310528468 
3.360000000002666, -1.1449670283705844 
3.3700000000026873, -1.1389969765275711 
3.3800000000027084, -1.1324882089779202 
3.3900000000027295, -1.1254199285707869 
3.4000000000027506, -1.1178023380445534 
3.4100000000027717, -1.1098080930451746 
3.420000000002793, -1.1019489293212281 
3.430000000002814, -1.095133867044443 
3.440000000002835, -1.090310690277751 
3.450000000002856, -1.0877815492490244 
3.460000000002877, -1.0869662943954825 
3.4700000000028983, -1.086924810621683 
3.4800000000029194, -1.0869052481715584 
3.4900000000029405, -1.0864237707846942 
3.5000000000029616, -1.0850699022330592 
3.5100000000029827, -1.0822958996691254 
3.520000000003004, -1.0773095296667292 
3.530000000003025, -1.0692021397333422 
3.540000000003046, -1.0574110256980003 
3.550000000003067, -1.0422172701376984 
3.5600000000030882, -1.0246671419833007 
3.5700000000031094, -1.0059375794910559 
3.5800000000031305, -0.9868531060228924 
3.5900000000031516, -0.9678862665492158 
3.6000000000031727, -0.949428437251148 
3.6100000000031938, -0.9320724034038002 
3.620000000003215, -0.916736045890795 
3.630000000003236, -0.9044731053406945 
3.640000000003257, -0.8959664042410157 
3.650000000003278, -0.8910709372870734 
3.6600000000032993, -0.8888767607484542 
3.6700000000033204, -0.888229771627761 
3.6800000000033415, -0.8881961749756254 
3.6900000000033626, -0.8881866541549572 
3.7000000000033837, -0.8878512095060387 
3.710000000003405, -0.8869354628086551 
3.720000000003426, -0.885196976919614 
3.730000000003447, -0.8824184297223205 
3.740000000003468, -0.8785176840012431 
3.750000000003489, -0.873667810740575 
3.7600000000035103, -0.86827334484034 
3.7700000000035314, -0.8627812665346436 
3.7800000000035525, -0.8575011286762099 
3.7900000000035736, -0.8525638478002096 
3.8000000000035947, -0.8479816497141892 
3.810000000003616, -0.8437248016621582 
3.820000000003637, -0.8397738936434213 
3.830000000003658, -0.8361431414143994 
3.840000000003679, -0.8328832382520961 
3.8500000000037002, -0.8300727500873526 
3.8600000000037213, -0.8278010267151494 
3.8700000000037424, -0.8261403759955112 
3.8800000000037635, -0.8251104272455102 
3.8900000000037847, -0.8246515934599022 
3.9000000000038058, -0.8246283874381704 
3.910000000003827, -0.8248644043314431 
3.920000000003848, -0.8251878329204821 
3.930000000003869, -0.8254658849714074 
3.94000000000389, -0.8256232187868788 
3.9500000000039113, -0.8256482027023451 
3.9600000000039324, -0.8255850325213758 
3.9700000000039535, -0.8255066751018519 
3.9800000000039746, -0.8254750958210645 
3.9900000000039957, -0.8255069865193277 
4.000000000004016, -0.8255608925684482 
4.010000000003993, -0.8255524326597119 
4.02000000000397, -0.8253930865910573 
4.030000000003946, -0.8250333778865766 
4.040000000003923, -0.8244886299726479 
4.0500000000039, -0.8238438717196409 
4.0600000000038765, -0.8232491534659566 
4.070000000003853, -0.8229083389452274 
4.08000000000383, -0.8230500168086508 
4.090000000003807, -0.8238744592849294 
4.100000000003783, -0.8254968983270652 
4.11000000000376, -0.8279234825201869 
4.120000000003737, -0.8310752817491418 
4.130000000003713, -0.8348394612106249 
4.14000000000369, -0.8391161756619365 
4.150000000003667, -0.8438462440884722 
4.1600000000036434, -0.849019978038401 
4.17000000000362, -0.8546672982242518 
4.180000000003597, -0.8608208225939669 
4.1900000000035735, -0.867440115174689 
4.20000000000355, -0.874303789626923 
4.210000000003527, -0.8809377553089328 
4.220000000003504, -0.8867101382180411 
4.23000000000348, -0.8911173034240065 
4.240000000003457, -0.894022282682361 
4.250000000003434, -0.8956190688080741 
4.26000000000341, -0.8962285049322933 
4.270000000003387, -0.8961515145228274 
4.280000000003364, -0.8956590121404107 
4.2900000000033405, -0.8950984789930331 
4.300000000003317, -0.8950906800438352 
4.310000000003294, -0.8967397160433 
4.320000000003271, -0.9016174219889098 
4.330000000003247, -0.9112276942932593 
4.340000000003224, -0.9261286282933267 
4.350000000003201, -0.9455343605844394 
4.360000000003177, -0.9678508539432524 
4.370000000003154, -0.9915394030580943 
4.380000000003131, -1.0155403159975935 
4.390000000003107, -1.0391432104060756 
4.400000000003084, -1.061593154074528 
4.410000000003061, -1.08177532693881 
4.4200000000030375, -1.0983458788364109 
4.430000000003014, -1.1104129623200054 
4.440000000002991, -1.118124606134454 
4.450000000002968, -1.122457400451121 
4.460000000002944, -1.1245428996393385 
4.470000000002921, -1.125243820344165 
4.480000000002898, -1.1251222026696563 
4.490000000002874, -1.1246129787925665 
4.500000000002851, -1.1242626346056865 
4.510000000002828, -1.12487562413575 
4.520000000002804, -1.1272771844329605 
4.530000000002781, -1.131700360118344 
4.540000000002758, -1.137539339699237 
4.5500000000027345, -1.1438632745002013 
4.560000000002711, -1.1499970136212831 
4.570000000002688, -1.1556459351964332 
4.580000000002665, -1.160749587722198 
4.590000000002641, -1.1653330390770615 
4.600000000002618, -1.169423286812957 
4.610000000002595, -1.1730047817959022 
4.620000000002571, -1.1760020621834744 
4.630000000002548, -1.1783039857472495 
4.640000000002525, -1.1798288012105826 
4.6500000000025015, -1.1805846660130712 
4.660000000002478, -1.1806791308582751 
4.670000000002455, -1.1802918035043795 
4.6800000000024315, -1.1796540564176374 
4.690000000002408, -1.1790310225067222 
4.700000000002385, -1.1786559782940924 
4.710000000002362, -1.1786316166705095 
4.720000000002338, -1.1789133807846492 
4.730000000002315, -1.1794061677565386 
4.740000000002292, -1.1800436504277365 
4.750000000002268, -1.1807665507542455 
4.760000000002245, -1.1814704853942328 
4.770000000002222, -1.1820109067001459 
4.7800000000021985, -1.1822524084128143 
4.790000000002175, -1.1821083550909646 
4.800000000002152, -1.181553166209586 
4.810000000002129, -1.1806110610723428 
4.820000000002105, -1.1793263998644654 
4.830000000002082, -1.1777316809980931 
4.840000000002059, -1.1758343727949006 
4.850000000002035, -1.1736283386291715 
4.860000000002012, -1.1711160158703298 
4.870000000001989, -1.1683222541455476 
4.880000000001965, -1.1652963168553951 
4.890000000001942, -1.1621279769112682 
4.900000000001919, -1.1590058122618323 
4.9100000000018955, -1.1562686745785788 
4.920000000001872, -1.1543074162891744 
4.930000000001849, -1.1532883847885316 
