t, s[1].omega / s[0].omega 
0, -0.20062631274046958 
0.009999999999999995, -0.2971085800728049 
0.019999999999999934, -0.4976059234190792 
0.029999999999999874, -0.777274068042722 
0.04000000000000012, -0.9749659677675137 
0.050000000000000405, -1.0595659354763132 
0.06000000000000069, -1.0906990000207788 
0.07000000000000098, -1.102331855430148 
0.08000000000000126, -1.106710507111218 
0.09000000000000155, -1.1079858431949092 
0.10000000000000184, -1.1075207794903734 
0.11000000000000212, -1.1056508128440812 
0.12000000000000241, -1.1025972871229468 
0.130000000000002, -1.1003696172652115 
0.1400000000000009, -1.1078967488537959 
0.1499999999999998, -1.1453202306027592 
0.1599999999999987, -1.2242394027340895 
0.1699999999999976, -1.3175362556518808 
0.1799999999999965, -1.392274484008017 
0.1899999999999954, -1.4430748162958578 
0.1999999999999943, -1.4768796273101137 
0.2099999999999932, -1.499806541833272 
0.2199999999999921, -1.5153453616498722 
0.229999999999991, -1.5254320324954844 
0.2399999999999899, -1.5314272709144525 
0.2499999999999888, -1.5345195498724478 
0.2599999999999877, -1.5357086482677564 
0.2699999999999866, -1.535744008749785 
0.2799999999999855, -1.535199858934664 
0.2899999999999844, -1.5345464629409944 
0.2999999999999833, -1.534014173854588 
0.3099999999999822, -1.533502430956045 
0.3199999999999811, -1.5328968452159626 
0.32999999999998, -1.5323744268714854 
0.3399999999999789, -1.5321668849392704 
0.3499999999999778, -1.5321101236820214 
0.35999999999997667, -1.5316750609070715 
0.36999999999997557, -1.5301937853557601 
0.37999999999997447, -1.5267463234919014 
0.38999999999997337, -1.5198614148027536 
0.39999999999997227, -1.5073755209307949 
0.40999999999997117, -1.486589405963776 
0.41999999999997006, -1.454307996101429 
0.42999999999996896, -1.4060278533857158 
0.43999999999996786, -1.3346347980878432 
0.44999999999996676, -1.2322910843063 
0.45999999999996566, -1.1040960615875266 
0.46999999999996456, -0.9847015345032417 
0.47999999999996346, -0.9098688135783851 
0.48999999999996235, -0.8780462280411759 
0.49999999999996125, -0.8690870516185438 
0.5099999999999602, -0.8683800236227439 
0.519999999999959, -0.8695686019492201 
0.529999999999958, -0.8705817827953753 
0.5399999999999568, -0.870852817834059 
0.5499999999999557, -0.8701268422590094 
0.5599999999999546, -0.8679896971365203 
0.5699999999999535, -0.863617815602885 
0.5799999999999524, -0.855677549673581 
0.5899999999999513, -0.8427186071489665 
0.5999999999999502, -0.8244379967236505 
0.6099999999999491, -0.8028144470728489 
0.619999999999948, -0.7811185281408206 
0.6299999999999469, -0.7617198095543294 
0.6399999999999458, -0.7453502843307034 
0.6499999999999447, -0.7317568782027362 
0.6599999999999436, -0.7204118499754929 
0.6699999999999425, -0.7108464397066714 
0.6799999999999414, -0.7027391099052192 
0.6899999999999403, -0.6959073145777854 
0.6999999999999392, -0.6902688671535534 
0.7099999999999381, -0.6857936755257195 
0.719999999999937, -0.6824534839520113 
0.7299999999999359, -0.6801789230336116 
0.7399999999999348, -0.6788368799305113 
0.7499999999999337, -0.6782368009398334 
0.7599999999999326, -0.6781610944489084 
0.7699999999999315, -0.6784034591554444 
0.7799999999999304, -0.6788002320476922 
0.7899999999999293, -0.6792501189295646 
0.7999999999999282, -0.6797240592197504 
0.8099999999999271, -0.6802636429063665 
0.819999999999926, -0.6809624398391072 
0.8299999999999249, -0.6819306831041599 
0.8399999999999238, -0.6832521217530435 
0.8499999999999227, -0.6849387967944274 
0.8599999999999216, -0.686888597084401 
0.8699999999999205, -0.6888734599055416 
0.8799999999999194, -0.6906014609055333 
0.8899999999999183, -0.6918382406484161 
0.8999999999999172, -0.6924931944756777 
0.9099999999999161, -0.6926136812134216 
0.919999999999915, -0.6923390692825383 
0.9299999999999139, -0.6918957957275716 
0.9399999999999128, -0.6916787612370492 
0.9499999999999117, -0.6924392793727789 
0.9599999999999106, -0.6955763614012466 
0.9699999999999095, -0.7034433008336309 
0.9799999999999084, -0.7194015788833392 
0.9899999999999073, -0.7471945200061231 
0.9999999999999062, -0.7894353389606745 
1.0099999999999052, -0.8459101507599955 
1.019999999999904, -0.9132233866039832 
1.029999999999903, -0.9863100826764966 
1.039999999999902, -1.060119597485301 
1.0499999999999008, -1.1297125363727365 
1.0599999999998997, -1.1895145744663704 
1.0699999999998986, -1.23441499668011 
1.0799999999998975, -1.2630500167860437 
1.0899999999998964, -1.2787217875485415 
1.0999999999998953, -1.286330229212747 
1.1099999999998942, -1.2896044757326655 
1.119999999999893, -1.2906472125866402 
1.129999999999892, -1.2905465878834301 
1.1399999999998909, -1.2900621074290213 
1.1499999999998898, -1.290115716933364 
1.1599999999998887, -1.291701777644004 
1.1699999999998876, -1.2950503413583767 
1.1799999999998865, -1.2993192680979415 
1.1899999999998854, -1.3034979776678863 
1.1999999999998843, -1.3071037046744396 
1.2099999999998832, -1.3100758718617616 
1.219999999999882, -1.3124737296293865 
1.229999999999881, -1.3143439477598495 
1.2399999999998799, -1.3157210783116549 
1.2499999999998788, -1.3166421068587133 
1.2599999999998777, -1.3171342767538758 
1.2699999999998766, -1.3171966635276129 
1.2799999999998755, -1.3168023446060833 
1.2899999999998744, -1.315926288605377 
1.2999999999998733, -1.3145796863144799 
1.3099999999998722, -1.3128212188156612 
1.319999999999871, -1.310723938681337 
1.32999999999987, -1.308323206700382 
1.3399999999998689, -1.30565030581966 
1.3499999999998678, -1.3029111859400657 
1.3599999999998666, -1.3006090152106753 
1.3699999999998655, -1.299248984139439 
1.3799999999998644, -1.298797546237891 
1.3899999999998633, -1.2986731905250077 
1.3999999999998622, -1.2981896896060676 
1.4099999999998611, -1.2967028919748051 
1.41999999999986, -1.2933937071417225 
1.429999999999859, -1.2870326333200728 
1.4399999999998578, -1.2760594310477296 
1.4499999999998567, -1.2591860225111329 
1.4599999999998556, -1.2360790373569852 
1.4699999999998545, -1.2072113349067155 
1.4799999999998534, -1.1730039907099312 
1.4899999999998523, -1.1333642986042756 
1.4999999999998512, -1.0882858443038086 
1.5099999999998501, -1.0395743475585744 
1.519999999999849, -0.9927126129631114 
1.529999999999848, -0.9556359246554169 
1.5399999999998468, -0.9330800916395197 
1.5499999999998457, -0.9231026916269999 
1.5599999999998446, -0.920328308064365 
1.5699999999998435, -0.9203506018313894 
1.5799999999998424, -0.9208962911667526 
1.5899999999998413, -0.9210487263691227 
1.5999999999998402, -0.9203830946499487 
1.6099999999998391, -0.9184612229989428 
1.619999999999838, -0.9145642607827156 
1.629999999999837, -0.9076315201619618 
1.6399999999998358, -0.8966368248364229 
1.6499999999998347, -0.8815226121887975 
1.6599999999998336, -0.8638198719280309 
1.6699999999998325, -0.8458209118554858 
1.6799999999998314, -0.8291757843695807 
1.6899999999998303, -0.814464902784584 
1.6999999999998292, -0.8016056361398073 
1.709999999999828, -0.7903097405440994 
1.719999999999827, -0.7803238419685307 
1.729999999999826, -0.7715128560830703 
1.7399999999998248, -0.7638677494464654 
1.7499999999998237, -0.7574719213787416 
1.7599999999998226, -0.7524340630535435 
1.7699999999998215, -0.7488004829074029 
1.7799999999998204, -0.746483252412372 
1.7899999999998193, -0.7452474926979347 
1.7999999999998182, -0.7447665377297946 
1.809999999999817, -0.744705616147403 
1.819999999999816, -0.7447853078708588 
1.8299999999998149, -0.7448087114107308 
1.8399999999998138, -0.7446678780493764 
1.8499999999998127, -0.7443461063032308 
1.8599999999998116, -0.7439114648333252 
1.8699999999998105, -0.7434854924573789 
1.8799999999998094, -0.7431899696379738 
1.8899999999998083, -0.7430974432880807 
1.8999999999998072, -0.7432043771054335 
1.909999999999806, -0.7434291774623478 
1.919999999999805, -0.7436376130024952 
1.9299999999998039, -0.7436955969367689 
1.9399999999998028, -0.7435268883957155 
1.9499999999998017, -0.7431452756257044 
1.9599999999998006, -0.7426595027213022 
1.9699999999997995, -0.742272925946021 
1.9799999999997984, -0.7422866198340061 
1.9899999999997973, -0.74308632190576 
1.9999999999997962, -0.745085442474288 
2.0099999999998173, -0.7486261784471806 
2.0199999999998384, -0.7538895727324776 
2.0299999999998595, -0.7608779636273042 
2.0399999999998806, -0.7694842189751521 
2.0499999999999017, -0.7796029657652922 
2.059999999999923, -0.7912280346164093 
2.069999999999944, -0.8045066456969862 
2.079999999999965, -0.8197349471753878 
2.089999999999986, -0.837250351168431 
2.100000000000007, -0.8571137109348431 
2.1100000000000283, -0.8785086994982031 
2.1200000000000494, -0.8992526561085485 
2.1300000000000705, -0.9164811390791116 
2.1400000000000916, -0.9285120561853082 
2.1500000000001127, -0.93569502820674 
2.160000000000134, -0.9394237363184855 
2.170000000000155, -0.9409900438589194 
2.180000000000176, -0.9412166526614658 
2.190000000000197, -0.9405764004790467 
2.2000000000002182, -0.9395005597587239 
2.2100000000002393, -0.9389222079478522 
2.2200000000002604, -0.9412000456979625 
2.2300000000002815, -0.9509134866641717 
2.2400000000003026, -0.973465506457309 
2.2500000000003237, -1.0103146122399707 
2.260000000000345, -1.0560578386486477 
2.270000000000366, -1.102690225773507 
2.280000000000387, -1.1451819622438186 
2.290000000000408, -1.182150857288498 
2.3000000000004293, -1.2138166651277116 
2.3100000000004504, -1.240371467929461 
2.3200000000004715, -1.261478394114941 
2.3300000000004926, -1.2767386967731984 
2.3400000000005137, -1.2864886563855404 
2.3500000000005348, -1.2919300834713794 
2.360000000000556, -1.2945080236367046 
2.370000000000577, -1.2953659833546192 
2.380000000000598, -1.2952799912951327 
2.390000000000619, -1.294881283994117 
2.4000000000006403, -1.2948445461884077 
2.4100000000006614, -1.2957127165246964 
2.4200000000006825, -1.2974774885800016 
2.4300000000007036, -1.2996368570660979 
2.4400000000007247, -1.3017206207454453 
2.450000000000746, -1.3035444956732227 
2.460000000000767, -1.3050787920680764 
2.470000000000788, -1.3062823777743318 
2.480000000000809, -1.3070794417729172 
2.49000000000083, -1.307412695985748 
2.5000000000008513, -1.3072738964243276 
2.5100000000008724, -1.3066905420067818 
2.5200000000008935, -1.3056908248557808 
2.5300000000009146, -1.3042763309429262 
2.5400000000009357, -1.302421294811502 
2.550000000000957, -1.3000927075372721 
2.560000000000978, -1.297264403834488 
2.570000000000999, -1.2939040153007093 
2.58000000000102, -1.2899685750813699 
2.5900000000010412, -1.2855173548444008 
2.6000000000010624, -1.280979115774684 
2.6100000000010835, -1.27725966382279 
2.6200000000011046, -1.2751544634564265 
2.6300000000011257, -1.2745174782469182 
2.6400000000011468, -1.274453603242609 
2.650000000001168, -1.27407883165826 
2.660000000001189, -1.2726704921397234 
2.67000000000121, -1.2692739709505465 
2.680000000001231, -1.2621718649389657 
2.6900000000012523, -1.2485309958582902 
2.7000000000012734, -1.2249592349012468 
2.7100000000012945, -1.1895025571660454 
2.7200000000013156, -1.1432924693972253 
2.7300000000013367, -1.0894642206355791 
2.740000000001358, -1.031042477139113 
2.750000000001379, -0.9706070159673544 
2.7600000000014, -0.9114486845183075 
2.770000000001421, -0.8582834201871051 
2.780000000001442, -0.8160091502076993 
2.7900000000014633, -0.7871102700231022 
2.8000000000014844, -0.7704062210289612 
2.8100000000015055, -0.7623689941812563 
2.8200000000015266, -0.7592954435432764 
2.8300000000015477, -0.7585251587159781 
2.840000000001569, -0.7585372932903368 
2.85000000000159, -0.7585690279936754 
2.860000000001611, -0.7582325864307291 
2.870000000001632, -0.7572777781635989 
2.8800000000016532, -0.755500021301149 
2.8900000000016743, -0.7527748060103795 
2.9000000000016954, -0.7491721690435516 
2.9100000000017165, -0.745018493787418 
2.9200000000017377, -0.7407782999200057 
2.9300000000017588, -0.7368361478300115 
2.94000000000178, -0.7333766963897635 
2.950000000001801, -0.7304100722250534 
2.960000000001822, -0.7278539820089784 
2.970000000001843, -0.7256051355522398 
2.9800000000018643, -0.7235861400831656 
2.9900000000018854, -0.7217699983342825 
3.0000000000019065, -0.7201834666218755 
3.0100000000019276, -0.7188928863567169 
3.0200000000019487, -0.7179801607918337 
3.03000000000197, -0.717518244404119 
3.040000000001991, -0.717554273612574 
3.050000000002012, -0.7181039542899879 
3.060000000002033, -0.7191551428298857 
3.070000000002054, -0.7206763179403545 
3.0800000000020753, -0.7226280415395715 
3.0900000000020964, -0.7249783706013727 
3.1000000000021175, -0.7277222554807143 
3.1100000000021386, -0.7309005952339891 
3.1200000000021597, -0.7346104565641813 
3.130000000002181, -0.7389959420555499 
3.140000000002202, -0.7442055928676465 
3.150000000002223, -0.7502944520679067 
3.160000000002244, -0.7570634707045785 
3.1700000000022652, -0.7639282693887984 
3.1800000000022863, -0.7700392664561864 
3.1900000000023074, -0.7747054865503954 
3.2000000000023285, -0.7777282684105236 
3.2100000000023496, -0.7793223485772142 
3.2200000000023707, -0.7798344445736085 
3.230000000002392, -0.7795696316339493 
3.240000000002413, -0.778800528612807 
3.250000000002434, -0.7779529223606566 
3.260000000002455, -0.7780558389571046 
3.2700000000024763, -0.7816473253789948 
3.2800000000024974, -0.7941449072597238 
3.2900000000025185, -0.8245783678412144 
3.3000000000025396, -0.882380246774187 
3.3100000000025607, -0.9680185848615974 
3.3200000000025818, -1.067081178816465 
3.330000000002603, -1.1608061096672921 
3.340000000002624, -1.2392346383302753 
3.350000000002645, -1.3008300595018603 
3.360000000002666, -1.3467837639225082 
3.3700000000026873, -1.3785527681974572 
3.3800000000027084, -1.3982854539161096 
3.3900000000027295, -1.4091646387417263 
3.4000000000027506, -1.4144840435847874 
3.4100000000027717, -1.4166799863356339 
3.420000000002793, -1.4172070447457012 
3.430000000002814, -1.4169359709753802 
3.440000000002835, -1.4165868064903269 
3.450000000002856, -1.4168152666028562 
3.460000000002877, -1.417821153230229 
3.4700000000028983, -1.4192097796167817 
3.4800000000029194, -1.420524416936693 
3.4900000000029405, -1.4216193656324487 
3.5000000000029616, -1.4225096127925618 
3.5100000000029827, -1.4231264287435326 
3.520000000003004, -1.4232908968538525 
3.530000000003025, -1.4228129332266068 
3.540000000003046, -1.4215546955234988 
3.550000000003067, -1.419444888257841 
3.5600000000030882, -1.416458477241984 
3.5700000000031094, -1.4125612648431334 
3.5800000000031305, -1.4076418135844857 
3.5900000000031516, -1.4014505335372296 
3.6000000000031727, -1.3935417369623428 
3.6100000000031938, -1.383279262410412 
3.620000000003215, -1.3702214739349643 
3.630000000003236, -1.3554257827766383 
3.640000000003257, -1.342810367488733 
3.650000000003278, -1.3363976285536492 
3.6600000000032993, -1.335335046946572 
3.6700000000033204, -1.3360648352241336 
3.6800000000033415, -1.3364151929000738 
3.6900000000033626, -1.3354855733932296 
3.7000000000033837, -1.3321387110738976 
3.710000000003405, -1.3230244293854256 
3.720000000003426, -1.2970447024236482 
3.730000000003447, -1.2156056901115773 
3.740000000003468, -0.9678814841008284 
3.750000000003489, -0.511057137240231 
3.7600000000035103, -0.18442902904231037 
3.7700000000035314, -0.056235995984613596 
3.7800000000035525, -0.007790590382665441 
3.7900000000035736, 0.012803023548766442 
3.8000000000035947, 0.022621222659096166 
3.810000000003616, 0.02772316087876463 
3.820000000003637, 0.030481512807355327 
3.830000000003658, 0.03196068594684793 
3.840000000003679, 0.032677229542110955 
3.8500000000037002, 0.03288100937993242 
3.8600000000037213, 0.03266105442316015 
3.8700000000037424, 0.031970430941323055 
3.8800000000037635, 0.030585989146253545 
3.8900000000037847, 0.02796461732009799 
3.9000000000038058, 0.022876613033165176 
3.910000000003827, 0.012627241533837564 
3.920000000003848, -0.006676612963425696 
3.930000000003869, -0.010569057308059928 
3.94000000000389, 0.41631524969868294 
3.9500000000039113, 1.2315419519319877 
3.9600000000039324, 1.345161099372419 
3.9700000000039535, 1.3609772172066616 
3.9800000000039746, 1.3642811133272885 
3.9900000000039957, 1.3640941806746496 
4.000000000004016, 1.3607150904072403 
4.010000000003993, 1.348149016445037 
4.02000000000397, 1.2922222445529707 
4.030000000003946, 1.1132508032812511 
4.040000000003923, 1.0578640519976914 
4.0500000000039, 1.0859364101552398 
4.0600000000038765, 1.0984053213317018 
4.070000000003853, 1.1026351521426925 
4.08000000000383, 1.1036058287075001 
4.090000000003807, 1.102609780357829 
4.100000000003783, 1.0992668523509423 
4.11000000000376, 1.091915151115232 
4.120000000003737, 1.08296481566138 
4.130000000003713, 1.111970845340475 
4.14000000000369, 1.188489186936313 
4.150000000003667, 1.2277309913848788 
4.1600000000036434, 1.239842327389868 
4.17000000000362, 1.2433688170844979 
4.180000000003597, 1.2436669358129107 
4.1900000000035735, 1.241260897448141 
4.20000000000355, 1.2318851060288236 
4.210000000003527, 1.1831121095612274 
4.220000000003504, 0.7055691789586372 
4.23000000000348, -0.5829088404585459 
4.240000000003457, -0.956947835903941 
4.250000000003434, -1.0519312352894439 
4.26000000000341, -1.0821118875696025 
4.270000000003387, -1.0930278427315014 
4.280000000003364, -1.0971092404149565 
4.2900000000033405, -1.098182839406467 
4.300000000003317, -1.0972900251910414 
4.310000000003294, -1.094064303579573 
4.320000000003271, -1.0864807370147063 
4.330000000003247, -1.06916338586522 
4.340000000003224, -1.0310668460810373 
4.350000000003201, -0.9751487852364857 
4.360000000003177, -1.2465668427749452 
4.370000000003154, -3.1721774460828405 
4.380000000003131, -3.3969395369774227 
4.390000000003107, -3.415021403943451 
4.400000000003084, -3.418202595761462 
4.410000000003061, -3.417645990575042 
4.4200000000030375, -3.4134521216765554 
4.430000000003014, -3.3944384097451916 
4.440000000002991, -3.217680741778745 
4.450000000002968, -3.070039904973967 
4.460000000002944, -3.136727436778432 
4.470000000002921, -3.1435431901023065 
4.480000000002898, -3.143704985933446 
4.490000000002874, -3.1432432206177827 
4.500000000002851, -3.1430118896424637 
4.510000000002828, -3.141850496517105 
4.520000000002804, -3.1411859155957176 
4.530000000002781, -3.140438103178476 
4.540000000002758, -3.1346189827168365 
4.5500000000027345, -3.0952398484068038 
4.560000000002711, -3.166319968108039 
4.570000000002688, -3.2693088735527867 
4.580000000002665, -3.2843662886996854 
4.590000000002641, -3.2873326144640047 
4.600000000002618, -3.286970083344633 
4.610000000002595, -3.2832261499051834 
4.620000000002571, -3.268151747718618 
4.630000000002548, -3.1459694379513246 
4.640000000002525, -1.0611577120141487 
4.6500000000025015, 0.41352907709798786 
4.660000000002478, 0.6094670497946593 
4.670000000002455, 0.6479902211389285 
4.6800000000024315, 0.6592951113164931 
4.690000000002408, 0.6632712377836573 
4.700000000002385, 0.6644516108963063 
4.710000000002362, 0.6640576844811628 
4.720000000002338, 0.6621767500479849 
4.730000000002315, 0.6580595329618126 
4.740000000002292, 0.649806013363541 
4.750000000002268, 0.6359586707048017 
4.760000000002245, 0.6435580202992293 
4.770000000002222, 0.7888576243825817 
4.7800000000021985, 0.945903165647222 
4.790000000002175, 0.995265120272714 
4.800000000002152, 1.0085210136883678 
4.810000000002129, 1.0124095113191678 
4.820000000002105, 1.0129864169317369 
4.830000000002082, 1.0112421520667454 
4.840000000002059, 1.0054559337542366 
4.850000000002035, 0.98768869588262 
4.860000000002012, 0.9292225955254262 
4.870000000001989, 0.8021206659236517 
4.880000000001965, 0.733739623055848 
4.890000000001942, 0.7368903092728385 
4.900000000001919, 0.7459878466865946 
4.9100000000018955, 0.7509757144403737 
4.920000000001872, 0.7531718354995185 
4.930000000001849, 0.753647833909221 
4.940000000001826, 0.7526004935575166 
