t, s[1].omega / s[0].omega 
0, -1.1608969489217276 
0.009999999999999995, -1.241128686795731 
0.019999999999999934, -1.2992534402497653 
0.029999999999999874, -1.335096452507612 
0.04000000000000012, -1.3541326946517673 
0.050000000000000405, -1.3631510078530293 
0.06000000000000069, -1.366990172581835 
0.07000000000000098, -1.368264430425469 
0.08000000000000126, -1.36826672662824 
0.09000000000000155, -1.3678242889186956 
0.10000000000000184, -1.367827461396357 
0.11000000000000212, -1.3690895995078132 
0.12000000000000241, -1.3716130498653685 
0.130000000000002, -1.3745962234515736 
0.1400000000000009, -1.377325183296842 
0.1499999999999998, -1.3795690221119967 
0.1599999999999987, -1.3813413757471185 
0.1699999999999976, -1.382648590161491 
0.1799999999999965, -1.3834497093290463 
0.1899999999999954, -1.3837117158693186 
0.1999999999999943, -1.3834372355015856 
0.2099999999999932, -1.3826484833757116 
0.2199999999999921, -1.3813557864737211 
0.229999999999991, -1.3795386024987253 
0.2399999999999899, -1.3771489637247192 
0.2499999999999888, -1.3741203718349566 
0.2599999999999877, -1.3703538938163007 
0.2699999999999866, -1.3657015689393814 
0.2799999999999855, -1.3600861874881875 
0.2899999999999844, -1.353918866497203 
0.2999999999999833, -1.348510835636666 
0.3099999999999822, -1.3453549006176941 
0.3199999999999811, -1.3444764760017596 
0.32999999999998, -1.3445481568121638 
0.3399999999999789, -1.3443243738726927 
0.3499999999999778, -1.3429224332776335 
0.35999999999997667, -1.3390724166797394 
0.36999999999997557, -1.329770815589704 
0.37999999999997447, -1.3077294125449959 
0.38999999999997337, -1.257833540178757 
0.39999999999997227, -1.1600811612868691 
0.40999999999997117, -1.0129676161979009 
0.41999999999997006, -0.8516671687861462 
0.42999999999996896, -0.7153576984225116 
0.43999999999996786, -0.6166546165134588 
0.44999999999996676, -0.5500971662492127 
0.45999999999996566, -0.5064005756267708 
0.46999999999996456, -0.4779499664446454 
0.47999999999996346, -0.45949282600528746 
0.48999999999996235, -0.4475911555233111 
0.49999999999996125, -0.4400160922737298 
0.5099999999999602, -0.43531365294457647 
0.519999999999959, -0.43252602044614596 
0.529999999999958, -0.43101806791032804 
0.5399999999999568, -0.4303695663914867 
0.5499999999999557, -0.430308202450456 
0.5599999999999546, -0.43066926783071063 
0.5699999999999535, -0.4313743340750504 
0.5799999999999524, -0.4324240789398951 
0.5899999999999513, -0.4339008417808327 
0.5999999999999502, -0.4359771668540982 
0.6099999999999491, -0.43893023105598816 
0.619999999999948, -0.44316417244815137 
0.6299999999999469, -0.44922543496955997 
0.6399999999999458, -0.4577348793673345 
0.6499999999999447, -0.46906233654606816 
0.6599999999999436, -0.48264414813262346 
0.6699999999999425, -0.49652493189984426 
0.6799999999999414, -0.5082478426777934 
0.6899999999999403, -0.5165123507224703 
0.6999999999999392, -0.5215364211925871 
0.7099999999999381, -0.5241685682254331 
0.719999999999937, -0.525136104751598 
0.7299999999999359, -0.5247971917921691 
0.7399999999999348, -0.5230809377375114 
0.7499999999999337, -0.5193092363283742 
0.7599999999999326, -0.5115540807867882 
0.7699999999999315, -0.4946441153824992 
0.7799999999999304, -0.45443578703717724 
0.7899999999999293, -0.3576816979499222 
0.7999999999999282, -0.17871636309735645 
0.8099999999999271, -0.002837902468949126 
0.819999999999926, 0.08986232005028999 
0.8299999999999249, 0.12838449135020563 
0.8399999999999238, 0.1446913282082542 
0.8499999999999227, 0.1521274221254318 
0.8599999999999216, 0.15566279665438645 
0.8699999999999205, 0.15726694269144492 
0.8799999999999194, 0.15781257067132742 
0.8899999999999183, 0.1577553520411708 
0.8999999999999172, 0.15739130815905128 
0.9099999999999161, 0.15695288176247932 
0.919999999999915, 0.15664519951496683 
0.9299999999999139, 0.15667831150509096 
0.9399999999999128, 0.15733163380209825 
0.9499999999999117, 0.1590775413563589 
0.9599999999999106, 0.16277738866024644 
0.9699999999999095, 0.16984573085125698 
0.9799999999999084, 0.18184367697756124 
0.9899999999999073, 0.19865346011824242 
0.9999999999999062, 0.21671103312722134 
1.0099999999999052, 0.23141473729890513 
1.019999999999904, 0.24105217068225837 
1.029999999999903, 0.24652896758167991 
1.039999999999902, 0.24925709290133025 
1.0499999999999008, 0.2501946959520791 
1.0599999999998997, 0.24977628388187734 
1.0699999999998986, 0.24804246095170818 
1.0799999999998975, 0.24477613466186993 
1.0899999999998964, 0.23972227090439263 
1.0999999999998953, 0.2329944621819476 
1.1099999999998942, 0.22544967079800196 
1.119999999999893, 0.21843852035787098 
1.129999999999892, 0.21297212521767728 
1.1399999999998909, 0.20928104275208254 
1.1499999999998898, 0.20708408971018524 
1.1599999999998887, 0.20598964158306293 
1.1699999999998876, 0.20567585495701368 
1.1799999999998865, 0.2058968109403762 
1.1899999999998854, 0.20643232147630344 
1.1999999999998843, 0.20704939862974436 
1.2099999999998832, 0.20749825275618305 
1.219999999999882, 0.20752416767176923 
1.229999999999881, 0.2068463076347545 
1.2399999999998799, 0.20504836101698953 
1.2499999999998788, 0.20129908187735093 
1.2599999999998777, 0.19366463980679588 
1.2699999999998766, 0.17729854547087082 
1.2799999999998755, 0.14001011795982904 
1.2899999999998744, 0.0580080777024806 
1.2999999999998733, -0.07392170662483902 
1.3099999999998722, -0.19031511317882846 
1.319999999999871, -0.25054875061547016 
1.32999999999987, -0.27587261352798953 
1.3399999999998689, -0.2866873720362205 
1.3499999999998678, -0.2916496693465303 
1.3599999999998666, -0.2939872609050252 
1.3699999999998655, -0.2949333318527174 
1.3799999999998644, -0.2949646716998821 
1.3899999999998633, -0.29424468183047775 
1.3999999999998622, -0.2928163321556304 
1.4099999999998611, -0.2907332530736916 
1.41999999999986, -0.2881687663299155 
1.429999999999859, -0.2854498686025764 
1.4399999999998578, -0.2829650481466159 
1.4499999999998567, -0.28101843568758644 
1.4599999999998556, -0.2797635260440323 
1.4699999999998545, -0.2792388459271547 
1.4799999999998534, -0.27942564794972974 
1.4899999999998523, -0.2802630816402292 
1.4999999999998512, -0.28161652087280925 
1.5099999999998501, -0.2832460530260549 
1.519999999999849, -0.2848388622485608 
1.529999999999848, -0.28610830892356404 
1.5399999999998468, -0.28687477633025915 
1.5499999999998457, -0.287058884466914 
1.5599999999998446, -0.2866050797314742 
1.5699999999998435, -0.2853751816599446 
1.5799999999998424, -0.2829885506714527 
1.5899999999998413, -0.2784558962813823 
1.5999999999998402, -0.2690998599298569 
1.6099999999998391, -0.24709679318658603 
1.619999999999838, -0.18985322742690394 
1.629999999999837, -0.056277209324962385 
1.6399999999998358, 0.12472897895638455 
1.6499999999998347, 0.23926370814854875 
1.6599999999998336, 0.28618842142213824 
1.6699999999998325, 0.3044475769560071 
1.6799999999998314, 0.3120511745760631 
1.6899999999998303, 0.31530589350850446 
1.6999999999998292, 0.3164771388760025 
1.709999999999828, 0.31643932733497043 
1.719999999999827, 0.31557194258456445 
1.729999999999826, 0.3141137829395228 
1.7399999999998248, 0.31232064328110654 
1.7499999999998237, 0.3105015065703429 
1.7599999999998226, 0.3089670536624912 
1.7699999999998215, 0.3079626636996645 
1.7799999999998204, 0.30764784953456586 
1.7899999999998193, 0.30811270042514194 
1.7999999999998182, 0.3093776524612407 
1.809999999999817, 0.3113454104096707 
1.819999999999816, 0.313742684598356 
1.8299999999998149, 0.3161458866452935 
1.8399999999998138, 0.31812356121369517 
1.8499999999998127, 0.3193756458007769 
1.8599999999998116, 0.319731945965452 
1.8699999999998105, 0.31900648510033053 
1.8799999999998094, 0.31674405694573937 
1.8899999999998083, 0.31174452396710783 
1.8999999999998072, 0.30090502024867616 
1.909999999999806, 0.27634668571226867 
1.919999999999805, 0.22148673638286515 
1.9299999999998039, 0.12523937465028165 
1.9399999999998028, 0.027941504049589134 
1.9499999999998017, -0.0262686149532562 
1.9599999999998006, -0.04830332986392992 
1.9699999999997995, -0.05690885666716057 
1.9799999999997984, -0.06049571743951272 
1.9899999999997973, -0.062075834332497304 
1.9999999999997962, -0.06273310748590233 
2.0099999999998173, -0.0628912125219265 
2.0199999999998384, -0.06274480189214139 
2.0299999999998595, -0.06242140729647001 
2.0399999999998806, -0.06205280529907146 
2.0499999999999017, -0.061806577990670755 
2.059999999999923, -0.06189577433414247 
2.069999999999944, -0.06259026953006956 
2.079999999999965, -0.06426614998196434 
2.089999999999986, -0.0675327965727138 
2.100000000000007, -0.0734757260100256 
2.1100000000000283, -0.08400662704338353 
2.1200000000000494, -0.1019657528324605 
2.1300000000000705, -0.12955703227979476 
2.1400000000000916, -0.16387200311244834 
2.1500000000001127, -0.19562064685687308 
2.160000000000134, -0.21774100409039035 
2.170000000000155, -0.23052903487105927 
2.180000000000176, -0.2372910415280381 
2.190000000000197, -0.24066825735834643 
2.2000000000002182, -0.24211091950678867 
2.2100000000002393, -0.24228562627496286 
2.2200000000002604, -0.24142368603964726 
2.2300000000002815, -0.23952636389557141 
2.2400000000003026, -0.23652787130255842 
2.2500000000003237, -0.23249282344199895 
2.260000000000345, -0.22779684005946246 
2.270000000000366, -0.2230959821266593 
2.280000000000387, -0.21902975128379693 
2.290000000000408, -0.21594734823974515 
2.3000000000004293, -0.21389854299490724 
2.3100000000004504, -0.2127835299657838 
2.3200000000004715, -0.2124722525118102 
2.3300000000004926, -0.21283354639648047 
2.3400000000005137, -0.21370446549149266 
2.3500000000005348, -0.21485758015837836 
2.360000000000556, -0.21601918663539693 
2.370000000000577, -0.21693844559848702 
2.380000000000598, -0.21744396542151465 
2.390000000000619, -0.21743484687155043 
2.4000000000006403, -0.21681222584714033 
2.4100000000006614, -0.2153682822557131 
2.4200000000006825, -0.21258776171069105 
2.4300000000007036, -0.20716895285508233 
2.4400000000007247, -0.19569354460574487 
2.450000000000746, -0.16915753360276375 
2.460000000000767, -0.10837312930971528 
2.470000000000788, -0.001456277217180816 
2.480000000000809, 0.10641298759912654 
2.49000000000083, 0.16980799526232387 
2.5000000000008513, 0.19866051763284273 
2.5100000000008724, 0.21140982415598578 
2.5200000000008935, 0.21723228398181815 
2.5300000000009146, 0.2198526407720319 
2.5400000000009357, 0.22078755251827956 
2.550000000000957, 0.2206967910619429 
2.560000000000978, 0.2199219288156143 
2.570000000000999, 0.21871962123408423 
2.58000000000102, 0.2173529369517683 
2.5900000000010412, 0.21609427552899896 
2.6000000000010624, 0.2151920651120111 
2.6100000000010835, 0.21485858896762325 
2.6200000000011046, 0.21529822439448773 
2.6300000000011257, 0.21674458528002152 
2.6400000000011468, 0.21944138900828802 
2.650000000001168, 0.22349296326959278 
2.660000000001189, 0.22860353761178143 
2.67000000000121, 0.23397527373587151 
2.680000000001231, 0.23865549288976787 
2.6900000000012523, 0.2420492110361228 
2.7000000000012734, 0.2440430210032281 
2.7100000000012945, 0.24475039806628307 
2.7200000000013156, 0.24421877587603466 
2.7300000000013367, 0.24222068820803927 
2.740000000001358, 0.2380524701020669 
2.750000000001379, 0.23029894258479572 
2.7600000000014, 0.2169014909778785 
2.770000000001421, 0.19670854989708506 
2.780000000001442, 0.17277285706184672 
2.7900000000014633, 0.15187022126619384 
2.8000000000014844, 0.13795554468883744 
2.8100000000015055, 0.13011088411929678 
2.8200000000015266, 0.12597492871677615 
2.8300000000015477, 0.12383555031275195 
2.840000000001569, 0.12276292648733893 
2.85000000000159, 0.12228216596356678 
2.860000000001611, 0.12212493840686378 
2.870000000001632, 0.12209306966206612 
2.8800000000016532, 0.12199106443707189 
2.8900000000016743, 0.12159369262379435 
2.9000000000016954, 0.12061355928140845 
2.9100000000017165, 0.11861736672150769 
2.9200000000017377, 0.11480329625706717 
2.9300000000017588, 0.10743434702185854 
2.94000000000178, 0.09235533588164122 
2.950000000001801, 0.05922966012175399 
2.960000000001822, -0.014306205274692554 
2.970000000001843, -0.14701913044118126 
2.9800000000018643, -0.2892504234289027 
2.9900000000018854, -0.37437648159920495 
3.0000000000019065, -0.41212686188653447 
3.0100000000019276, -0.42826140835724785 
3.0200000000019487, -0.43553687752383635 
3.03000000000197, -0.4389099985867834 
3.040000000001991, -0.4402824260087657 
3.050000000002012, -0.4403611463645797 
3.060000000002033, -0.4393076527724542 
3.070000000002054, -0.43697025329988215 
3.0800000000020753, -0.4330257413568324 
3.0900000000020964, -0.4272267027743114 
3.1000000000021175, -0.41980291812248954 
3.1100000000021386, -0.4116818510646086 
3.1200000000021597, -0.4040850873089403 
3.130000000002181, -0.39783589858844853 
3.140000000002202, -0.3931276082046175 
3.150000000002223, -0.3897633427807099 
3.160000000002244, -0.38743330311303825 
3.1700000000022652, -0.3858449673283337 
3.1800000000022863, -0.3847524587132031 
3.1900000000023074, -0.38395856628104225 
3.2000000000023285, -0.38332159854787917 
3.2100000000023496, -0.3827662744052072 
3.2200000000023707, -0.38229188762594224 
3.230000000002392, -0.38198363629926246 
3.240000000002413, -0.38204681930528317 
3.250000000002434, -0.38289672467550423 
3.260000000002455, -0.3853676260347439 
3.2700000000024763, -0.39118956888563367 
3.2800000000024974, -0.4041080766690115 
3.2900000000025185, -0.43259500785171545 
3.3000000000025396, -0.4961832174242423 
3.3100000000025607, -0.635688662671983 
3.3200000000025818, -0.8974834946579691 
3.330000000002603, -1.2233692953064346 
3.340000000002624, -1.4672458147946226 
3.350000000002645, -1.6029393295378314 
3.360000000002666, -1.672476492181676 
3.3700000000026873, -1.707154897320067 
3.3800000000027084, -1.723738953004799 
3.3900000000027295, -1.7311654844268087 
3.4000000000027506, -1.7340991021621774 
3.4100000000027717, -1.7348361797291503 
3.420000000002793, -1.7345344081367613 
3.430000000002814, -1.7339245281075635 
3.440000000002835, -1.733394460849348 
3.450000000002856, -1.7328221731807756 
3.460000000002877, -1.7320171672604179 
3.4700000000028983, -1.7312672946735876 
3.4800000000029194, -1.7309516647930927 
3.4900000000029405, -1.7307695169063861 
3.5000000000029616, -1.729885365504213 
3.5100000000029827, -1.7270817252952455 
3.520000000003004, -1.7197095758790835 
3.530000000003025, -1.700738963474119 
3.540000000003046, -1.6517971800667386 
3.550000000003067, -1.5308636140066585 
3.5600000000030882, -1.275197086040201 
3.5700000000031094, -0.8980899494181589 
3.5800000000031305, -0.5700620620736878 
3.5900000000031516, -0.3832944497135283 
3.6000000000031727, -0.2925187595721187 
3.6100000000031938, -0.2480626272695957 
3.620000000003215, -0.2250164810841279 
3.630000000003236, -0.2123610791717022 
3.640000000003257, -0.20511015478072708 
3.650000000003278, -0.20087991028327315 
3.6600000000032993, -0.19847173557926243 
3.6700000000033204, -0.1972678409720346 
3.6800000000033415, -0.19696323718782757 
3.6900000000033626, -0.19744788647503497 
3.7000000000033837, -0.1987663262537845 
3.710000000003405, -0.20113125770286472 
3.720000000003426, -0.204997764632999 
3.730000000003447, -0.211241818747739 
3.740000000003468, -0.22156469806576817 
3.750000000003489, -0.2394426197504694 
3.7600000000035103, -0.2724447730984185 
3.7700000000035314, -0.33767489393133765 
3.7800000000035525, -0.4697725165591957 
3.7900000000035736, -0.6989848557233793 
3.8000000000035947, -0.9466610511564626 
3.810000000003616, -1.0929004694317117 
3.820000000003637, -1.1526301848297948 
3.830000000003658, -1.174827098730283 
3.840000000003679, -1.1831690902123506 
3.8500000000037002, -1.186168317100177 
3.8600000000037213, -1.1867575337241303 
3.8700000000037424, -1.185942848908472 
3.8800000000037635, -1.1842465661493322 
3.8900000000037847, -1.1830134698074959 
3.9000000000038058, -1.1863871293172854 
3.910000000003827, -1.2010585980274306 
3.920000000003848, -1.22866719411785 
3.930000000003869, -1.2612506191862924 
3.94000000000389, -1.2904138450072127 
3.9500000000039113, -1.313553941929828 
3.9600000000039324, -1.3314720846952777 
3.9700000000039535, -1.3455255407102906 
3.9800000000039746, -1.356653208975945 
3.9900000000039957, -1.365305059973069 
4.000000000004016, -1.3716472359315302 
4.010000000003993, -1.375834004765346 
4.02000000000397, -1.378177556415101 
4.030000000003946, -1.3791189717412258 
4.040000000003923, -1.3791167417271353 
4.0500000000039, -1.3786095422036537 
4.0600000000038765, -1.3780209248138395 
4.070000000003853, -1.3776476026938653 
4.08000000000383, -1.3775035176953079 
4.090000000003807, -1.3774301510074687 
4.100000000003783, -1.3773768667081139 
4.11000000000376, -1.377440885203057 
4.120000000003737, -1.3776327085979314 
4.130000000003713, -1.3777285881013703 
4.14000000000369, -1.3773736887249428 
4.150000000003667, -1.3762056627684125 
4.1600000000036434, -1.373886578786507 
4.17000000000362, -1.370139923450267 
4.180000000003597, -1.3648096557902991 
4.1900000000035735, -1.3578399497699478 
4.20000000000355, -1.3491356571344 
4.210000000003527, -1.338387056555731 
4.220000000003504, -1.3249446803436609 
4.23000000000348, -1.3078456857860168 
4.240000000003457, -1.2863755530421352 
4.250000000003434, -1.2618907509533874 
4.26000000000341, -1.239948867601765 
4.270000000003387, -1.2271170046055708 
4.280000000003364, -1.2234392690951386 
4.2900000000033405, -1.223919255747751 
4.300000000003317, -1.2248927760418917 
4.310000000003294, -1.2250206287135543 
4.320000000003271, -1.2236885734385075 
4.330000000003247, -1.219685345047064 
4.340000000003224, -1.2094831982248266 
4.350000000003201, -1.182644514580714 
4.360000000003177, -1.1097387448581961 
4.370000000003154, -0.9330125867566263 
4.380000000003131, -0.6543316856101756 
4.390000000003107, -0.42352198573723304 
4.400000000003084, -0.3004649155933568 
4.410000000003061, -0.2414532921597702 
4.4200000000030375, -0.2117115776025776 
4.430000000003014, -0.19547312339145673 
4.440000000002991, -0.18595002809576533 
4.450000000002968, -0.1800531569512444 
4.460000000002944, -0.1762770025640704 
4.470000000002921, -0.17385205400980408 
4.480000000002898, -0.17238819387527615 
4.490000000002874, -0.17172099356810605 
4.500000000002851, -0.17185477959702183 
4.510000000002828, -0.17296882094102387 
4.520000000002804, -0.17549248231220307 
4.530000000002781, -0.18029940690063945 
4.540000000002758, -0.18916295284145015 
4.5500000000027345, -0.20585810975195792 
4.560000000002711, -0.23897791563196744 
4.570000000002688, -0.30926801998730347 
4.580000000002665, -0.46536823792119114 
4.590000000002641, -0.7813291604464478 
4.600000000002618, -1.2093629457847588 
4.610000000002595, -1.5285502220844926 
4.620000000002571, -1.6856150213885588 
4.630000000002548, -1.751341576752388 
4.640000000002525, -1.7774097536086757 
4.6500000000025015, -1.78745555844293 
4.660000000002478, -1.7910631035720819 
4.670000000002455, -1.791962805718453 
4.6800000000024315, -1.7917102694567624 
4.690000000002408, -1.7911969982980476 
4.700000000002385, -1.7908852950599905 
4.710000000002362, -1.7905919097975371 
4.720000000002338, -1.790048424822461 
4.730000000002315, -1.7895173415128351 
4.740000000002292, -1.7893167481011059 
4.750000000002268, -1.7890718997636141 
4.760000000002245, -1.7878957268726126 
4.770000000002222, -1.7843443685998577 
4.7800000000021985, -1.7749233747747493 
4.790000000002175, -1.7498629603566527 
4.800000000002152, -1.6822769686104486 
4.810000000002129, -1.5082400610782984 
4.820000000002105, -1.1477853545309522 
4.830000000002082, -0.702010864838435 
4.840000000002059, -0.4066934919202714 
4.850000000002035, -0.2676843847665683 
4.860000000002012, -0.20495809052693334 
4.870000000001989, -0.17468845788289797 
4.880000000001965, -0.15888292198489992 
4.890000000001942, -0.15009412494188606 
4.900000000001919, -0.14502071121060162 
