t, s[1].omega / s[0].omega 
0, -1.3299973423129452 
0.009999999999999995, -1.3295321020951447 
0.019999999999999934, -1.3286498325543143 
0.029999999999999874, -1.3273038506478392 
0.04000000000000012, -1.3254624596904359 
0.050000000000000405, -1.323124629181811 
0.06000000000000069, -1.3202755328050944 
0.07000000000000098, -1.316830373876804 
0.08000000000000126, -1.3127278075484274 
0.09000000000000155, -1.308264893800398 
0.10000000000000184, -1.3043671491921371 
0.11000000000000212, -1.302051970744012 
0.12000000000000241, -1.3013137659939311 
0.130000000000002, -1.301150756600549 
0.1400000000000009, -1.300480645367703 
0.1499999999999998, -1.2983208028626971 
0.1599999999999987, -1.2932434706641665 
0.1699999999999976, -1.282748746724573 
0.1799999999999965, -1.2633321772365882 
0.1899999999999954, -1.2323430424637318 
0.1999999999999943, -1.190535787380418 
0.2099999999999932, -1.1414110974329554 
0.2199999999999921, -1.0879368746718983 
0.229999999999991, -1.0311664151732869 
0.2399999999999899, -0.9714244813476036 
0.2499999999999888, -0.9103979482601717 
0.2599999999999877, -0.852678842084587 
0.2699999999999866, -0.8047984672349336 
0.2799999999999855, -0.7713316213240706 
0.2899999999999844, -0.7519821458434071 
0.2999999999999833, -0.7428282726366481 
0.3099999999999822, -0.739424622177011 
0.3199999999999811, -0.7385936185529516 
0.32999999999998, -0.7385659957758307 
0.3399999999999789, -0.7384734129317453 
0.3499999999999778, -0.7378709731419651 
0.35999999999997667, -0.7364694509678957 
0.36999999999997557, -0.7340686371902418 
0.37999999999997447, -0.7306469866512912 
0.38999999999997337, -0.7264805766291124 
0.39999999999997227, -0.7220870524977063 
0.40999999999997117, -0.7179716390201728 
0.41999999999997006, -0.7144190355500333 
0.42999999999996896, -0.711480934626124 
0.43999999999996786, -0.7090698014058417 
0.44999999999996676, -0.70704743535112 
0.45999999999996566, -0.7052836862969762 
0.46999999999996456, -0.7036964363164203 
0.47999999999996346, -0.7022742616224382 
0.48999999999996235, -0.7010761693725993 
0.49999999999996125, -0.7002095936643704 
0.5099999999999602, -0.6997955518381727 
0.519999999999959, -0.6999335343631091 
0.529999999999958, -0.7006791040622634 
0.5399999999999568, -0.7020413450997998 
0.5499999999999557, -0.7039966486179476 
0.5599999999999546, -0.7065089469799274 
0.5699999999999535, -0.7095495548206288 
0.5799999999999524, -0.7131168190520045 
0.5899999999999513, -0.7172584547912872 
0.5999999999999502, -0.7220957733836226 
0.6099999999999491, -0.7278433787121056 
0.619999999999948, -0.7348114253357421 
0.6299999999999469, -0.7433579399700788 
0.6399999999999458, -0.7537140650173962 
0.6499999999999447, -0.7656011520988615 
0.6599999999999436, -0.7778280334181391 
0.6699999999999425, -0.7885511490061409 
0.6799999999999414, -0.7964029232653116 
0.6899999999999403, -0.8012305868691962 
0.6999999999999392, -0.8036772450403017 
0.7099999999999381, -0.8044693279719061 
0.719999999999937, -0.804117659558315 
0.7299999999999359, -0.8029997056805923 
0.7399999999999348, -0.8017603159317084 
0.7499999999999337, -0.8023442931539991 
0.7599999999999326, -0.8103524744322128 
0.7699999999999315, -0.8385907831619214 
0.7799999999999304, -0.9058458915571954 
0.7899999999999293, -1.0171105814732917 
0.7999999999999282, -1.1424310684056063 
0.8099999999999271, -1.2469805702861907 
0.819999999999926, -1.3230855787731675 
0.8299999999999249, -1.3777116725055456 
0.8399999999999238, -1.4177823879381237 
0.8499999999999227, -1.4470261712079346 
0.8599999999999216, -1.4671355591294986 
0.8699999999999205, -1.4795427686953868 
0.8799999999999194, -1.4862233287119804 
0.8899999999999183, -1.4892418737588264 
0.8999999999999172, -1.4901613080250804 
0.9099999999999161, -1.4900298550878448 
0.919999999999915, -1.489673486644923 
0.9299999999999139, -1.4897042387686164 
0.9399999999999128, -1.4901567202456536 
0.9499999999999117, -1.490608396641045 
0.9599999999999106, -1.4908199836788687 
0.9699999999999095, -1.4909353171300093 
0.9799999999999084, -1.4910954613480778 
0.9899999999999073, -1.4910844902172176 
0.9999999999999062, -1.4904261071462337 
1.0099999999999052, -1.4885824518833046 
1.019999999999904, -1.4850052059556476 
1.029999999999903, -1.4792057130057916 
1.039999999999902, -1.470851392517814 
1.0499999999999008, -1.4596656827991676 
1.0599999999998997, -1.4450527784164338 
1.0699999999998986, -1.4255587727270176 
1.0799999999998975, -1.398217953252621 
1.0899999999998964, -1.3582121507006808 
1.0999999999998953, -1.3018807498371676 
1.1099999999998942, -1.2388765997992373 
1.119999999999893, -1.1959288758886177 
1.129999999999892, -1.1823410321587122 
1.1399999999998909, -1.1827447394315098 
1.1499999999998898, -1.1852597396302247 
1.1599999999998887, -1.1865300621602695 
1.1699999999998876, -1.1859572654380923 
1.1799999999998865, -1.1826181040985544 
1.1899999999998854, -1.1731365824680708 
1.1999999999998843, -1.1458535015863258 
1.2099999999998832, -1.059450572819037 
1.219999999999882, -0.8008547007370455 
1.229999999999881, -0.37634592647296355 
1.2399999999998799, -0.11429610853208505 
1.2499999999998788, -0.016534918135682995 
1.2599999999998777, 0.020404014349225962 
1.2699999999998766, 0.03629697510172909 
1.2799999999998755, 0.04395569711658802 
1.2899999999998744, 0.047880620441203545 
1.2999999999998733, 0.049907058776057986 
1.3099999999998722, 0.05089022356787091 
1.319999999999871, 0.051280427569756336 
1.32999999999987, 0.051335357408077556 
1.3399999999998689, 0.05120354387973204 
1.3499999999998678, 0.05096409774586842 
1.3599999999998666, 0.0506608843682357 
1.3699999999998655, 0.05037966042818405 
1.3799999999998644, 0.05056961882823987 
1.3899999999998633, 0.053699805560443445 
1.3999999999998622, 0.07356578744830357 
1.4099999999998611, 0.17961173869421088 
1.41999999999986, 0.4840971749322088 
1.429999999999859, 0.7089749830655554 
1.4399999999998578, 0.772797706358541 
1.4499999999998567, 0.7901803106905646 
1.4599999999998556, 0.7956441001447986 
1.4699999999998545, 0.7970524777134858 
1.4799999999998534, 0.796177263752763 
1.4899999999998523, 0.7925652492380745 
1.4999999999998512, 0.7832474587252338 
1.5099999999998501, 0.7597028184064287 
1.519999999999849, 0.7069177659848895 
1.529999999999848, 0.635302483112836 
1.5399999999998468, 0.5942813090101873 
1.5499999999998457, 0.5847575811994707 
1.5599999999998446, 0.5849960782239524 
1.5699999999998435, 0.5865227621134314 
1.5799999999998424, 0.5875712854162639 
1.5899999999998413, 0.5878715582351131 
1.5999999999998402, 0.5872575036124865 
1.6099999999998391, 0.5852094913523486 
1.619999999999838, 0.5801514725553266 
1.629999999999837, 0.5667877242647182 
1.6399999999998358, 0.5216689812780417 
1.6499999999998347, 0.2823236449175787 
1.6599999999998336, -1.1455559615418605 
1.6699999999998325, -2.268216993271205 
1.6799999999998314, -2.4571431998792113 
1.6899999999998303, -2.499139894690181 
1.6999999999998292, -2.511392665908797 
1.709999999999828, -2.5150020910934883 
1.719999999999827, -2.515366970796289 
1.729999999999826, -2.5141072818309587 
1.7399999999998248, -2.511196143505628 
1.7499999999998237, -2.504557370053436 
1.7599999999998226, -2.493480191734146 
1.7699999999998215, -2.4896351654832896 
1.7799999999998204, -2.491871980903798 
1.7899999999998193, -2.49157986388136 
1.7999999999998182, -2.4860502683565837 
1.809999999999817, -2.476109501548858 
1.819999999999816, -2.507054003897343 
1.8299999999998149, -2.5416828503235243 
1.8399999999998138, -2.5536196865108916 
1.8499999999998127, -2.5576121718168743 
1.8599999999998116, -2.558760932486847 
1.8699999999998105, -2.5579931117742047 
1.8799999999998094, -2.554800435873539 
1.8899999999998083, -2.546906930871528 
1.8999999999998072, -2.5257242022759145 
1.909999999999806, -2.4434053831212967 
1.919999999999805, -1.8576178410422604 
1.9299999999998039, -0.3590390330623389 
1.9399999999998028, 0.07384454728659569 
1.9499999999998017, 0.16938693278352018 
1.9599999999998006, 0.19910159240688713 
1.9699999999997995, 0.21074983754114496 
1.9799999999997984, 0.21590008909888456 
1.9899999999997973, 0.21814913099127464 
1.9999999999997962, 0.21876641686630274 
2.0099999999998173, 0.21812580835740497 
2.0199999999998384, 0.2160604601325499 
2.0299999999998595, 0.21174481316694357 
2.0399999999998806, 0.20294780599268072 
2.0499999999999017, 0.1833993852451714 
2.059999999999923, 0.13237276659155475 
2.069999999999944, -0.03356837393321424 
2.079999999999965, -0.616429683599536 
2.089999999999986, -1.5674854467887491 
2.100000000000007, -2.0122529455250735 
2.1100000000000283, -2.1411617432052883 
2.1200000000000494, -2.1799872831216556 
2.1300000000000705, -2.1924546380449508 
2.1400000000000916, -2.196289155065407 
2.1500000000001127, -2.1969220033526873 
2.160000000000134, -2.196279053519482 
2.170000000000155, -2.195060276173998 
2.180000000000176, -2.1928634144104597 
2.190000000000197, -2.189228553423922 
2.2000000000002182, -2.1861448348327404 
2.2100000000002393, -2.185720973589645 
2.2200000000002604, -2.1855237594098154 
2.2300000000002815, -2.1822634155278218 
2.2400000000003026, -2.166116523400559 
2.2500000000003237, -2.05814917117766 
2.260000000000345, -1.5099507641172867 
2.270000000000366, -4.45014484725876 
2.280000000000387, -4.566808807743942 
2.290000000000408, -4.571312222148352 
2.3000000000004293, -4.569466747603604 
2.3100000000004504, -4.552536262332255 
2.3200000000004715, -2.971770076850267 
2.3300000000004926, 2.70662337965184 
2.3400000000005137, 2.7328503531627293 
2.3500000000005348, 2.734477531334139 
2.360000000000556, 2.732874232744474 
2.370000000000577, 2.724884180137029 
2.380000000000598, 2.7028958606019957 
2.390000000000619, 2.702797571596073 
2.4000000000006403, 2.7074617252460937 
2.4100000000006614, 2.707038131974777 
2.4200000000006825, 2.7034909929676223 
2.4300000000007036, 2.7067564183876884 
2.4400000000007247, 2.716278491492008 
2.450000000000746, 2.7194211510815682 
2.460000000000767, 2.7194053360102104 
2.470000000000788, 2.7165050630946466 
2.480000000000809, 2.682032027720329 
2.49000000000083, -3.7863612719353994 
2.5000000000008513, -4.605363564248917 
2.5100000000008724, -4.616166397169118 
2.5200000000008935, -4.615809666398922 
2.5300000000009146, -4.607484146090044 
2.5400000000009357, -4.339171215298651 
2.550000000000957, 2.439236188948108 
2.560000000000978, 2.5227101381744164 
2.570000000000999, 2.527145362780559 
2.58000000000102, 2.5272353811516886 
2.5900000000010412, 2.5260396311879942 
2.6000000000010624, 2.522532910383249 
2.6100000000010835, 2.517373989291564 
2.6200000000011046, 2.5163717502116953 
2.6300000000011257, 2.517025707278647 
2.6400000000011468, 2.514851962558787 
2.650000000001168, 2.5010043726302706 
2.660000000001189, 2.496421129712591 
2.67000000000121, 2.5710544400999873 
2.680000000001231, 2.585038270386126 
2.6900000000012523, 2.5865925838135566 
2.7000000000012734, 2.583981011645063 
2.7100000000012945, 2.5560432007068843 
2.7200000000013156, -1.8057864044547856 
2.7300000000013367, -4.6015400855128075 
2.740000000001358, -4.622350443270831 
2.750000000001379, -4.622868328954934 
2.7600000000014, -4.617407052407544 
2.770000000001421, -4.52349885904802 
2.780000000001442, -4.430117128212741 
2.7900000000014633, -4.4578961636052306 
2.8000000000014844, -4.458187174868032 
2.8100000000015055, -4.457172059767415 
2.8200000000015266, -4.453421814633307 
2.8300000000015477, -4.452691460651154 
2.840000000001569, -4.450956228318106 
2.85000000000159, -4.447782789182928 
2.860000000001611, -4.457705613282917 
2.870000000001632, -4.4590706940537785 
2.8800000000016532, -4.457599667378178 
2.8900000000016743, -4.435946207520622 
2.9000000000016954, 1.9424442945179536 
2.9100000000017165, 3.796613121390761 
2.9200000000017377, 3.8025464821179114 
2.9300000000017588, 3.798334585074577 
2.94000000000178, 3.354796829989076 
2.950000000001801, -6.007654039010247 
2.960000000001822, -6.020733559808252 
2.970000000001843, -6.017547885820105 
2.9800000000018643, -5.8735211731432155 
2.9900000000018854, -5.902134631532983 
3.0000000000019065, -5.9057610292048865 
3.0100000000019276, -5.903543579465831 
3.0200000000019487, -5.895839514780823 
3.03000000000197, -5.898173438092807 
3.040000000001991, -5.896800967068101 
3.050000000002012, -5.897210958872913 
3.060000000002033, -5.895928105959651 
3.070000000002054, -5.885099008265721 
3.0800000000020753, -5.90316834942367 
3.0900000000020964, -5.908943993006586 
3.1000000000021175, -5.906076228263009 
3.1100000000021386, -5.422316207931342 
3.1200000000021597, 4.834927550439877 
3.130000000002181, 4.8412805376934465 
3.140000000002202, 4.830549327562937 
3.150000000002223, -6.8653258931120344 
3.160000000002244, -7.094477248188049 
3.1700000000022652, -7.0924797457558615 
3.1800000000022863, -6.594645502606484 
3.1900000000023074, -6.650991304313966 
3.2000000000023285, -6.653046817259669 
3.2100000000023496, -6.646068517552605 
3.2200000000023707, -6.639125977078336 
3.230000000002392, -6.6407245653585445 
3.240000000002413, -6.639501207440739 
3.250000000002434, -6.637016344520307 
3.260000000002455, -6.6340389457570925 
3.2700000000024763, -6.6364726672223044 
3.2800000000024974, -6.636449950055973 
3.2900000000025185, -6.628942159538842 
3.3000000000025396, -6.656098566543844 
3.3100000000025607, -6.677330936828119 
3.3200000000025818, -6.674040125625758 
3.330000000002603, -2.291468354821794 
3.340000000002624, 4.795603840598391 
3.350000000002645, 4.7979374980777525 
3.360000000002666, 4.771846360394234 
3.3700000000026873, -6.938783698800558 
3.3800000000027084, -6.969365806523602 
3.3900000000027295, -6.964827749364464 
3.4000000000027506, -6.737603269873054 
3.4100000000027717, -6.859918777426404 
3.420000000002793, -6.858634365076216 
3.430000000002814, -6.847488722567069 
3.440000000002835, -6.851121865374634 
3.450000000002856, -6.849895361927193 
3.460000000002877, -6.848031057360025 
3.4700000000028983, -6.8464350102110725 
3.4800000000029194, -6.843373785453648 
3.4900000000029405, -6.847815112694124 
3.5000000000029616, -6.845224694081919 
3.5100000000029827, -6.761316813373016 
3.520000000003004, -6.91045876986899 
3.530000000003025, -6.909808618288642 
3.540000000003046, -6.770796801263448 
3.550000000003067, 4.85475056772334 
3.5600000000030882, 4.862916661777829 
3.5700000000031094, 4.853289082918647 
3.5800000000031305, -6.789503195681961 
3.5900000000031516, -6.935789081097013 
3.6000000000031727, -6.933539497763276 
3.6100000000031938, -6.7677887697457635 
3.620000000003215, -6.856102600046545 
3.630000000003236, -6.855860688088839 
3.640000000003257, -6.848275413330947 
3.650000000003278, -6.848534768739893 
3.6600000000032993, -6.847316628953083 
3.6700000000033204, -6.8462297689691045 
3.6800000000033415, -6.844604595912246 
3.6900000000033626, -6.838359513293281 
3.7000000000033837, -6.84616713002508 
3.710000000003405, -6.8445992960462885 
3.720000000003426, -6.732329250814057 
3.730000000003447, -6.934535356740793 
3.740000000003468, -6.936209694212742 
3.750000000003489, -6.905411717941973 
3.7600000000035103, 4.752794612966607 
3.7700000000035314, 4.779411886123287 
3.7800000000035525, 4.775739174929524 
3.7900000000035736, -0.6304620760381494 
3.8000000000035947, -6.681001370639109 
3.810000000003616, -6.681851445979322 
3.820000000003637, -6.659982084949104 
3.830000000003658, -6.62439079393946 
3.840000000003679, -6.630179306420148 
3.8500000000037002, -6.627590387601636 
3.8600000000037213, -6.621980045030995 
3.8700000000037424, -6.62257577041873 
3.8800000000037635, -6.6222210609133585 
3.8900000000037847, -6.620741418319672 
3.9000000000038058, -6.616979879603051 
3.910000000003827, -6.619679502862043 
3.920000000003848, -6.6247877475998935 
3.930000000003869, -6.620810338847027 
3.94000000000389, -6.231986142925337 
3.9500000000039113, -7.045526648201732 
3.9600000000039324, -7.045211326347568 
3.9700000000039535, -6.936423336076724 
3.9800000000039746, 4.774645252753717 
3.9900000000039957, 4.78880066979189 
4.000000000004016, 4.783391224206839 
4.010000000003993, -3.468779223960874 
4.02000000000397, -5.790561836508772 
4.030000000003946, -5.7928368975640145 
4.040000000003923, -5.787958991696963 
4.0500000000039, -5.7604849538100655 
4.0600000000038765, -5.773818065193534 
4.070000000003853, -5.773028677284016 
4.08000000000383, -5.771460664251755 
4.090000000003807, -5.769721877283368 
4.100000000003783, -5.766393253699667 
4.11000000000376, -5.769300179919233 
4.120000000003737, -5.771718033771494 
4.130000000003713, -5.76969200455942 
4.14000000000369, -5.664118149662658 
4.150000000003667, -5.950440335863141 
4.1600000000036434, -5.9613361226069 
4.17000000000362, -5.958188796748855 
4.180000000003597, -5.735151682685052 
4.1900000000035735, 3.7164500694634093 
4.20000000000355, 3.7439006674839703 
4.210000000003527, 3.7433504854891417 
4.220000000003504, 3.7182444705754754 
4.23000000000348, 1.324273272678536 
4.240000000003457, 2.295606261662708 
4.250000000003434, 2.328884918912392 
4.26000000000341, 2.3318579359889298 
4.270000000003387, 2.3318039532571877 
4.280000000003364, 2.3316942143533814 
4.2900000000033405, 2.33163538039912 
4.300000000003317, 2.3307767408742577 
4.310000000003294, 2.3297998327701857 
4.320000000003271, 2.3293644891899077 
4.330000000003247, 2.3277672647409755 
4.340000000003224, 2.316740140122457 
4.350000000003201, 2.1293456512316378 
4.360000000003177, 2.9615433161913662 
4.370000000003154, 3.1532604758339398 
4.380000000003131, 3.1584500961906965 
4.390000000003107, 3.156059514840209 
4.400000000003084, 3.108388196885271 
4.410000000003061, -5.123325940176944 
4.4200000000030375, -5.3579801947273475 
4.430000000003014, -5.360540032983516 
4.440000000002991, -5.355599714515727 
4.450000000002968, -5.2222073352394665 
4.460000000002944, -5.2628803615025745 
4.470000000002921, -5.267631296347541 
4.480000000002898, -5.266484593883953 
4.490000000002874, -5.261810155355268 
4.500000000002851, -5.261303358516634 
4.510000000002828, -5.259306167403837 
4.520000000002804, -5.260950224982787 
4.530000000002781, -5.262178723093816 
4.540000000002758, -5.260946714585322 
4.5500000000027345, -5.238792479517457 
4.560000000002711, -5.318762308735147 
4.570000000002688, -5.358968895700828 
4.580000000002665, -5.359392957247921 
4.590000000002641, -5.348664381709127 
4.600000000002618, -2.150412358393632 
4.610000000002595, 3.136334317508928 
4.620000000002571, 3.1516652643295187 
4.630000000002548, 3.151337170502855 
4.640000000002525, 3.1387060892650216 
4.6500000000025015, 2.5001390791753266 
4.660000000002478, 2.492812055824964 
4.670000000002455, 2.5417573372212208 
4.6800000000024315, 2.5452672568395602 
4.690000000002408, 2.5451743049477096 
4.700000000002385, 2.5450757885756556 
4.710000000002362, 2.5448774888209966 
4.720000000002338, 2.5437121335949926 
4.730000000002315, 2.5428111470275927 
4.740000000002292, 2.542335647988503 
4.750000000002268, 2.5390125839935824 
4.760000000002245, 2.5071433350431866 
4.770000000002222, 2.407980353658074 
4.7800000000021985, 2.8771058170891757 
4.790000000002175, 2.894478185623937 
4.800000000002152, 2.895150941403062 
4.810000000002129, 2.8884906913081623 
4.820000000002105, 2.630418583276442 
4.830000000002082, -5.026561991954768 
4.840000000002059, -5.084731976870172 
4.850000000002035, -5.085794960969628 
4.860000000002012, -5.07992729619525 
4.870000000001989, -4.950465679644265 
4.880000000001965, -4.988989612041072 
4.890000000001942, -4.994656514151894 
4.900000000001919, -4.9937717778364235 
4.9100000000018955, -4.990580640067526 
4.920000000001872, -4.988569347931928 
4.930000000001849, -4.987611232823164 
4.940000000001826, -4.986117480307621 
4.950000000001802, -4.9911356515732095 
4.960000000001779, -4.990908357553042 
4.970000000001756, -4.986412251782452 
4.980000000001732, -4.7325347584040145 
4.990000000001709, -5.3030289732663185 
5.000000000001686, -5.318278028556005 
