t, s[1].omega / s[0].omega 
0, -1.2034420452846377 
0.009999999999999995, -1.4774513245011165 
0.019999999999999934, -1.6143133429950258 
0.029999999999999874, -1.6703005068878418 
0.04000000000000012, -1.6916142704365815 
0.050000000000000405, -1.6995026206112356 
0.06000000000000069, -1.702164150610073 
0.07000000000000098, -1.7026518338006695 
0.08000000000000126, -1.7022956741997355 
0.09000000000000155, -1.7020001165128158 
0.10000000000000184, -1.7022344534400715 
0.11000000000000212, -1.7026980450005493 
0.12000000000000241, -1.702959936058957 
0.130000000000002, -1.7030650705579877 
0.1400000000000009, -1.703183743028499 
0.1499999999999998, -1.7030913042890163 
0.1599999999999987, -1.7022153883068896 
0.1699999999999976, -1.699724288154743 
0.1799999999999965, -1.6942075487875297 
0.1899999999999954, -1.6831506322784613 
0.1999999999999943, -1.6623195516265672 
0.2099999999999932, -1.6245674337889653 
0.2199999999999921, -1.5565414992601023 
0.229999999999991, -1.4327110965636192 
0.2399999999999899, -1.2235530277212878 
0.2499999999999888, -0.9677993575209387 
0.2599999999999877, -0.7820400777965675 
0.2699999999999866, -0.6933623304940519 
0.2799999999999855, -0.6593855605504579 
0.2899999999999844, -0.6481578183550489 
0.2999999999999833, -0.6452689642379148 
0.3099999999999822, -0.645083095625835 
0.3199999999999811, -0.6455185377557403 
0.32999999999998, -0.6458230043512075 
0.3399999999999789, -0.645697999457808 
0.3499999999999778, -0.6449664617614399 
0.35999999999997667, -0.6434679290719177 
0.36999999999997557, -0.6410809988306811 
0.37999999999997447, -0.6378324746765234 
0.38999999999997337, -0.6339952723847636 
0.39999999999997227, -0.6300294975059612 
0.40999999999997117, -0.6263719126948502 
0.41999999999997006, -0.6232689521945457 
0.42999999999996896, -0.6207659134314203 
0.43999999999996786, -0.6187829424058895 
0.44999999999996676, -0.61718910268165 
0.45999999999996566, -0.6158526980316031 
0.46999999999996456, -0.6146769090366905 
0.47999999999996346, -0.613623881750417 
0.48999999999996235, -0.6127248255802725 
0.49999999999996125, -0.6120783746132451 
0.5099999999999602, -0.611842357036314 
0.519999999999959, -0.6122206098391874 
0.529999999999958, -0.6134437539125258 
0.5399999999999568, -0.6157459284621607 
0.5499999999999557, -0.6193456137545439 
0.5599999999999546, -0.6244417239158029 
0.5699999999999535, -0.6312331735307444 
0.5799999999999524, -0.6399640153757045 
0.5899999999999513, -0.6509920580277072 
0.5999999999999502, -0.6648773410912188 
0.6099999999999491, -0.682478554530793 
0.619999999999948, -0.7049992395071494 
0.6299999999999469, -0.7337689023126819 
0.6399999999999458, -0.7692439715671012 
0.6499999999999447, -0.8088990044253824 
0.6599999999999436, -0.8461237421122437 
0.6699999999999425, -0.8741413178474801 
0.6799999999999414, -0.8913531900508687 
0.6899999999999403, -0.9005118104470314 
0.6999999999999392, -0.9048966035434691 
0.7099999999999381, -0.9066380044895173 
0.719999999999937, -0.9068031445752698 
0.7299999999999359, -0.9058225036438664 
0.7399999999999348, -0.9038612880592171 
0.7499999999999337, -0.9013896405053256 
0.7599999999999326, -0.9008357870277687 
0.7699999999999315, -0.9112008280324085 
0.7799999999999304, -0.95610035131107 
0.7899999999999293, -1.068782028534873 
0.7999999999999282, -1.2378596301630118 
0.8099999999999271, -1.3895326992790484 
0.819999999999926, -1.488481614317482 
0.8299999999999249, -1.547644720925867 
0.8399999999999238, -1.5834022255464535 
0.8499999999999227, -1.6051248485944398 
0.8599999999999216, -1.6178498416919926 
0.8699999999999205, -1.6247342457088405 
0.8799999999999194, -1.6279936945981746 
0.8899999999999183, -1.629121333300074 
0.8999999999999172, -1.6290590640828317 
0.9099999999999161, -1.6284553865360831 
0.919999999999915, -1.6277787842406135 
0.9299999999999139, -1.6271518799720674 
0.9399999999999128, -1.62639832924187 
0.9499999999999117, -1.6255306806579284 
0.9599999999999106, -1.6249197598230958 
0.9699999999999095, -1.6247278321118883 
0.9799999999999084, -1.6244999169498908 
0.9899999999999073, -1.6234618243055614 
0.9999999999999062, -1.6205388745432294 
1.0099999999999052, -1.6136403898597578 
1.019999999999904, -1.5983461289916174 
1.029999999999903, -1.5662030311869706 
1.039999999999902, -1.5034468758062027 
1.0499999999999008, -1.391432850021522 
1.0599999999998997, -1.2130070755867166 
1.0699999999998986, -0.9784790847213364 
1.0799999999998975, -0.7520427710717477 
1.0899999999998964, -0.594975653497929 
1.0999999999998953, -0.5072432115122829 
1.1099999999998942, -0.46240356432170593 
1.119999999999893, -0.43999684138557055 
1.129999999999892, -0.42884704961908904 
1.1399999999998909, -0.4233536185699269 
1.1499999999998898, -0.42072866334186665 
1.1599999999998887, -0.419560972896828 
1.1699999999998876, -0.41912110544355585 
1.1799999999998865, -0.41902665623271584 
1.1899999999998854, -0.41908157464350404 
1.1999999999998843, -0.4192030894107672 
1.2099999999998832, -0.4193932911489947 
1.219999999999882, -0.41972865574852875 
1.229999999999881, -0.42034937439062386 
1.2399999999998799, -0.4214435545693657 
1.2499999999998788, -0.4232332150211624 
1.2599999999998777, -0.4259606962080024 
1.2699999999998766, -0.4298431020142968 
1.2799999999998755, -0.4349396717737437 
1.2899999999998744, -0.4409382570696646 
1.2999999999998733, -0.44706496707511373 
1.3099999999998722, -0.45238415092752254 
1.319999999999871, -0.4563005083225867 
1.32999999999987, -0.4587315396082051 
1.3399999999998689, -0.4598811731449265 
1.3499999999998678, -0.45995409876945226 
1.3599999999998666, -0.45897938977636404 
1.3699999999998655, -0.45666701822623795 
1.3799999999998644, -0.4521015070298585 
1.3899999999998633, -0.44282020837691893 
1.3999999999998622, -0.4217805541413699 
1.4099999999998611, -0.36730268995328974 
1.41999999999986, -0.22291734763974919 
1.429999999999859, 0.03299345237676385 
1.4399999999998578, 0.22349652877900322 
1.4499999999998567, 0.2982257198738483 
1.4599999999998556, 0.324612066848593 
1.4699999999998545, 0.3348721202856867 
1.4799999999998534, 0.3391733833729321 
1.4899999999998523, 0.340863407038822 
1.4999999999998512, 0.34116586011313055 
1.5099999999998501, 0.3405855772037863 
1.519999999999849, 0.3393989820689149 
1.529999999999848, 0.33785527239996554 
1.5399999999998468, 0.3362401303472516 
1.5499999999998457, 0.33484931990085304 
1.5599999999998446, 0.3339330788065641 
1.5699999999998435, 0.33366944026388573 
1.5799999999998424, 0.33416837057358806 
1.5899999999998413, 0.33546288132982116 
1.5999999999998402, 0.3374576519063452 
1.6099999999998391, 0.3398730589519005 
1.619999999999838, 0.3422787225880221 
1.629999999999837, 0.3442431046702728 
1.6399999999998358, 0.3454714973243146 
1.6499999999998347, 0.3457967768441184 
1.6599999999998336, 0.34502471001386154 
1.6699999999998325, 0.34266326783528617 
1.6799999999998314, 0.3373862963670746 
1.6899999999998303, 0.32563517582321655 
1.6999999999998292, 0.29780421334657275 
1.709999999999828, 0.23185961677396022 
1.719999999999827, 0.11166639255113797 
1.729999999999826, -0.005750911701578993 
1.7399999999998248, -0.0658624385460038 
1.7499999999998237, -0.08884806374378978 
1.7599999999998226, -0.09758795562767132 
1.7699999999998215, -0.10123592615298085 
1.7799999999998204, -0.10287352117003483 
1.7899999999998193, -0.10357729727836858 
1.7999999999998182, -0.10376039997498943 
1.809999999999817, -0.1036073538094471 
1.819999999999816, -0.10323475070149753 
1.8299999999998149, -0.10276367376060495 
1.8399999999998138, -0.1023525647337185 
1.8499999999998127, -0.10220298979566089 
1.8599999999998116, -0.10255659354769771 
1.8699999999998105, -0.10371593849270544 
1.8799999999998094, -0.1061189209729095 
1.8899999999998083, -0.11047661115618912 
1.8999999999998072, -0.11793417504387023 
1.909999999999806, -0.13002494074153287 
1.919999999999805, -0.1477747605133971 
1.9299999999998039, -0.16961948152856823 
1.9399999999998028, -0.1907341069547661 
1.9499999999998017, -0.20672017031402193 
1.9599999999998006, -0.21679508382870552 
1.9699999999997995, -0.2224650897431592 
1.9799999999997984, -0.22536231373366555 
1.9899999999997973, -0.2265208405001291 
1.9999999999997962, -0.2264362040063655 
2.0099999999998173, -0.22524274979605044 
2.0199999999998384, -0.2228536427192877 
2.0299999999998595, -0.21911568648811947 
2.0399999999998806, -0.21405298979428422 
2.0499999999999017, -0.2081231208759812 
2.059999999999923, -0.20218612712916917 
2.069999999999944, -0.19707690815663742 
2.079999999999965, -0.193214834409218 
2.089999999999986, -0.19060931831728503 
2.100000000000007, -0.18908351097092585 
2.1100000000000283, -0.18844133980490857 
2.1200000000000494, -0.18851193769623037 
2.1300000000000705, -0.1891203275408314 
2.1400000000000916, -0.19004854870195972 
2.1500000000001127, -0.19103926361062598 
2.160000000000134, -0.19184906062893703 
2.170000000000155, -0.19230044793060214 
2.180000000000176, -0.1922801992087533 
2.190000000000197, -0.19168016601005666 
2.2000000000002182, -0.1902921768778559 
2.2100000000002393, -0.18761601631528174 
2.2200000000002604, -0.18240224182777293 
2.2300000000002815, -0.17141478588937015 
2.2400000000003026, -0.1463495557598916 
2.2500000000003237, -0.09031445012799441 
2.260000000000345, 0.005904327512361418 
2.270000000000366, 0.10301630647473978 
2.280000000000387, 0.16162068133586352 
2.290000000000408, 0.18908173127370123 
2.3000000000004293, 0.2014604364200976 
2.3100000000004504, 0.20717975492105384 
2.3200000000004715, 0.20976837813373103 
2.3300000000004926, 0.21068978075575293 
2.3400000000005137, 0.21058719113225605 
2.3500000000005348, 0.20979599354164052 
2.360000000000556, 0.20857074668366007 
2.370000000000577, 0.20717512807571298 
2.380000000000598, 0.20588353699192616 
2.390000000000619, 0.20494568072169286 
2.4000000000006403, 0.20457301901688701 
2.4100000000006614, 0.2049680233358325 
2.4200000000006825, 0.20636591950241945 
2.4300000000007036, 0.20902468680960024 
2.4400000000007247, 0.21308463610739645 
2.450000000000746, 0.218297138880307 
2.460000000000767, 0.22387891462049186 
2.470000000000788, 0.2288301164794755 
2.480000000000809, 0.2324866607062271 
2.49000000000083, 0.23470000218637802 
2.5000000000008513, 0.2355919945556467 
2.5100000000008724, 0.2352473738512355 
2.5200000000008935, 0.23350367875291567 
2.5300000000009146, 0.2297751362419464 
2.5400000000009357, 0.2228644849624804 
2.550000000000957, 0.21102662921516058 
2.560000000000978, 0.19320531253170029 
2.570000000000999, 0.1717322349789432 
2.58000000000102, 0.1523236484221805 
2.5900000000010412, 0.13885987415778894 
2.6000000000010624, 0.1309949400781213 
2.6100000000010835, 0.12674604063489453 
2.6200000000011046, 0.12452041476420717 
2.6300000000011257, 0.12340626074926034 
2.6400000000011468, 0.12292414650386234 
2.650000000001168, 0.12279999463860014 
2.660000000001189, 0.12283169295054097 
2.67000000000121, 0.12282164380499365 
2.680000000001231, 0.12254674754921344 
2.6900000000012523, 0.12173301817149881 
2.7000000000012734, 0.11998642392784645 
2.7100000000012945, 0.1166036773396566 
2.7200000000013156, 0.11009702814499808 
2.7300000000013367, 0.09698257955859747 
2.740000000001358, 0.0687649377128796 
2.750000000001379, 0.006938741700243579 
2.7600000000014, -0.10715589578392778 
2.770000000001421, -0.23916405931318646 
2.780000000001442, -0.3249127160185942 
2.7900000000014633, -0.364520155552556 
2.8000000000014844, -0.38160030781263266 
2.8100000000015055, -0.38930434972781625 
2.8200000000015266, -0.3929076092178985 
2.8300000000015477, -0.39445262950936577 
2.840000000001569, -0.3947217148979645 
2.85000000000159, -0.3939481416796893 
2.860000000001611, -0.3920842961615068 
2.870000000001632, -0.3889590962588495 
2.8800000000016532, -0.3844840932449143 
2.8900000000016743, -0.3789180857011248 
2.9000000000016954, -0.3729614771993514 
2.9100000000017165, -0.36745952551183536 
2.9200000000017377, -0.36297211980377686 
2.9300000000017588, -0.3596423284523232 
2.94000000000178, -0.35734925639090026 
2.950000000001801, -0.3558834819858567 
2.960000000001822, -0.35502875474148554 
2.970000000001843, -0.3545782046107616 
2.9800000000018643, -0.3543390446128048 
2.9900000000018854, -0.3541509186676482 
3.0000000000019065, -0.35390934563035537 
3.0100000000019276, -0.3535775150001341 
3.0200000000019487, -0.3531886360305239 
3.03000000000197, -0.35286205935731957 
3.040000000001991, -0.35287232559159964 
3.050000000002012, -0.3538519190450391 
3.060000000002033, -0.35735867531027066 
3.070000000002054, -0.36758222723674205 
3.0800000000020753, -0.3971602568182081 
3.0900000000020964, -0.490186179224505 
3.1000000000021175, -0.8140317369487828 
3.1100000000021386, -1.5956612744273353 
3.1200000000021597, -2.06994687173811 
3.130000000002181, -2.189154790569059 
3.140000000002202, -2.224713162972672 
3.150000000002223, -2.2381308733424325 
3.160000000002244, -2.2435970224359876 
3.1700000000022652, -2.2454869749465285 
3.1800000000022863, -2.245444041481284 
3.1900000000023074, -2.2440934383094886 
3.2000000000023285, -2.2413872435811286 
3.2100000000023496, -2.236288226697472 
3.2200000000023707, -2.2277654707232903 
3.230000000002392, -2.2207321300878196 
3.240000000002413, -2.2207360904615903 
3.250000000002434, -2.2220220421542445 
3.260000000002455, -2.2211932053127694 
3.2700000000024763, -2.2162410115966003 
3.2800000000024974, -2.203587899956008 
3.2900000000025185, -2.2162250491779174 
3.3000000000025396, -2.2796943254882214 
3.3100000000025607, -2.3142405157428696 
3.3200000000025818, -2.3269193055836372 
3.330000000002603, -2.332022977579108 
3.340000000002624, -2.3340459328468786 
3.350000000002645, -2.3342671215351265 
3.360000000002666, -2.332921438127276 
3.3700000000026873, -2.32955962170666 
3.3800000000027084, -2.3224188382167497 
3.3900000000027295, -2.3053414303806554 
3.4000000000027506, -2.258031924860616 
3.4100000000027717, -2.1738395298439315 
3.420000000002793, -2.1624221222806583 
3.430000000002814, -2.17690501366973 
3.440000000002835, -2.1816850724542434 
3.450000000002856, -2.1820403481192856 
3.460000000002877, -2.180295601585763 
3.4700000000028983, -2.179433482223544 
3.4800000000029194, -2.1848296786119867 
3.4900000000029405, -2.1923207013380415 
3.5000000000029616, -2.196836768321993 
3.5100000000029827, -2.1989858308275014 
3.520000000003004, -2.1997924020344204 
3.530000000003025, -2.19937745395927 
3.540000000003046, -2.1972452610069646 
3.550000000003067, -2.192122881985618 
3.5600000000030882, -2.180861583007451 
3.5700000000031094, -2.1543385142480957 
3.5800000000031305, -2.078413195454379 
3.5900000000031516, -1.8027928339798471 
3.6000000000031727, -1.1391694039465492 
3.6100000000031938, -0.7276873678845841 
3.620000000003215, -0.6138911892828333 
3.630000000003236, -0.5858912523660885 
3.640000000003257, -0.5799895158306599 
3.650000000003278, -0.5797557319405109 
3.6600000000032993, -0.5806967835230582 
3.6700000000033204, -0.5815546911083348 
3.6800000000033415, -0.5819774126258463 
3.6900000000033626, -0.5818388922742594 
3.7000000000033837, -0.5810333885932424 
3.710000000003405, -0.5794347279782601 
3.720000000003426, -0.57695121753198 
3.730000000003447, -0.5736477137534759 
3.740000000003468, -0.5698356240443203 
3.750000000003489, -0.5659935924856019 
3.7600000000035103, -0.562549254109207 
3.7700000000035314, -0.5597260062135769 
3.7800000000035525, -0.5575486654328525 
3.7900000000035736, -0.5559238707614427 
3.8000000000035947, -0.5547084984012767 
3.810000000003616, -0.5537525522086616 
3.820000000003637, -0.5529323869392677 
3.830000000003658, -0.5521788101217443 
3.840000000003679, -0.551494315259959 
3.8500000000037002, -0.5509605895180694 
3.8600000000037213, -0.5507464260573803 
3.8700000000037424, -0.5511242355559949 
3.8800000000037635, -0.552495045079626 
3.8900000000037847, -0.5554155493022768 
3.9000000000038058, -0.5606198255358232 
3.910000000003827, -0.5690332905533467 
3.920000000003848, -0.5817863352587064 
3.930000000003869, -0.6002460242949447 
3.94000000000389, -0.6260891355921158 
3.9500000000039113, -0.6614245295953991 
3.9600000000039324, -0.7088952004005697 
3.9700000000039535, -0.7714216160643277 
3.9800000000039746, -0.8505657298690645 
3.9900000000039957, -0.9419942939308387 
4.000000000004016, -1.0306654600125464 
4.010000000003993, -1.0977428792142718 
4.02000000000397, -1.1372748077288666 
4.030000000003946, -1.1568015695312162 
4.040000000003923, -1.1655584124653413 
4.0500000000039, -1.1691667429952644 
4.0600000000038765, -1.1702785583829187 
4.070000000003853, -1.1700516725359336 
4.08000000000383, -1.1691504633922474 
4.090000000003807, -1.1685683320439006 
4.100000000003783, -1.1703667012977026 
4.11000000000376, -1.177143455972077 
4.120000000003737, -1.1893793450984342 
4.130000000003713, -1.2043482009790811 
4.14000000000369, -1.2188728943246183 
4.150000000003667, -1.2314726735696928 
4.1600000000036434, -1.242039987421881 
4.17000000000362, -1.2509408782731886 
4.180000000003597, -1.2585314260670877 
4.1900000000035735, -1.2650046105977588 
4.20000000000355, -1.27037274791076 
4.210000000003527, -1.2745307878440082 
4.220000000003504, -1.2773908421721345 
4.23000000000348, -1.279005763476533 
4.240000000003457, -1.2795835727475369 
4.250000000003434, -1.27942281263781 
4.26000000000341, -1.2788695379621973 
4.270000000003387, -1.278290889372725 
4.280000000003364, -1.2779652431685042 
4.2900000000033405, -1.2779398645988755 
4.300000000003317, -1.2780827076396886 
4.310000000003294, -1.2782962705883747 
4.320000000003271, -1.278599089472047 
4.330000000003247, -1.2789956402213762 
4.340000000003224, -1.279348227713229 
4.350000000003201, -1.2794136064712514 
4.360000000003177, -1.2789517612403434 
4.370000000003154, -1.2777902426659848 
4.380000000003131, -1.2758517865461907 
4.390000000003107, -1.2731571905423158 
4.400000000003084, -1.2697818482339462 
4.410000000003061, -1.2657825521340005 
4.4200000000030375, -1.2611455436319718 
4.430000000003014, -1.255774383938302 
4.440000000002991, -1.249499458150996 
4.450000000002968, -1.2421183132164475 
4.460000000002944, -1.233564027425041 
4.470000000002921, -1.2243235341884635 
4.480000000002898, -1.215868945217896 
4.490000000002874, -1.2101107546773937 
4.500000000002851, -1.2076589553349688 
4.510000000002828, -1.2073034878903932 
4.520000000002804, -1.2074654651338892 
4.530000000002781, -1.2071359338032512 
4.540000000002758, -1.205603843217869 
4.5500000000027345, -1.2017982731462273 
4.560000000002711, -1.1935025414845575 
4.570000000002688, -1.1764962952720885 
4.580000000002665, -1.1447859176607365 
4.590000000002641, -1.0943611055667706 
4.600000000002618, -1.0286416219193764 
4.610000000002595, -0.9571650276613408 
4.620000000002571, -0.8884966225406753 
4.630000000002548, -0.8270988926118965 
4.640000000002525, -0.7746896808845889 
4.6500000000025015, -0.73187398427744 
4.660000000002478, -0.6986985671915613 
4.670000000002455, -0.6746077814051701 
4.6800000000024315, -0.6583926130975108 
4.690000000002408, -0.6483768914818173 
4.700000000002385, -0.6427679254838579 
4.710000000002362, -0.6399805231516679 
4.720000000002338, -0.6388076332133714 
4.730000000002315, -0.6384315638585291 
4.740000000002292, -0.6383428076937192 
4.750000000002268, -0.6382392441109029 
4.760000000002245, -0.637950875316167 
4.770000000002222, -0.6374057080285028 
4.7800000000021985, -0.6366267921303396 
4.790000000002175, -0.6357281236080455 
4.800000000002152, -0.6348780224576338 
4.810000000002129, -0.6342363737109308 
4.820000000002105, -0.6339028254794079 
4.830000000002082, -0.6338948435295366 
4.840000000002059, -0.6341458692076524 
4.850000000002035, -0.6345188295648662 
4.860000000002012, -0.6348455839918208 
4.870000000001989, -0.6349877262641421 
4.880000000001965, -0.6348856722636932 
4.890000000001942, -0.6345739269418077 
4.900000000001919, -0.6341809625518082 
4.9100000000018955, -0.6339482357901218 
