t, s[1].omega / s[0].omega 
0, -1.1783294889304132 
0.009999999999999995, -0.9975598379809127 
0.019999999999999934, -0.8172136255463167 
0.029999999999999874, -0.6720788874396174 
0.04000000000000012, -0.5731444603414731 
0.050000000000000405, -0.5122183071472887 
0.06000000000000069, -0.47656168638212704 
0.07000000000000098, -0.4561878340686337 
0.08000000000000126, -0.4447258170554771 
0.09000000000000155, -0.43840097255007676 
0.10000000000000184, -0.43502663213238 
0.11000000000000212, -0.4333398139481601 
0.12000000000000241, -0.4326093601844094 
0.130000000000002, -0.4324127984757144 
0.1400000000000009, -0.4325122099998889 
0.1499999999999998, -0.4327889995081213 
0.1599999999999987, -0.4332141046238969 
0.1699999999999976, -0.43383684552243074 
0.1799999999999965, -0.4347787006650795 
0.1899999999999954, -0.4362252101361014 
0.1999999999999943, -0.43841839039360025 
0.2099999999999932, -0.4416480880553076 
0.2199999999999921, -0.44621145536807055 
0.229999999999991, -0.45227181452265147 
0.2399999999999899, -0.4595835763135316 
0.2499999999999888, -0.4672842989780614 
0.2599999999999877, -0.47416793373111776 
0.2699999999999866, -0.47936966545808135 
0.2799999999999855, -0.4827181846978276 
0.2899999999999844, -0.48448786575671754 
0.2999999999999833, -0.48500683994993354 
0.3099999999999822, -0.48442728598809215 
0.3199999999999811, -0.4825972471949013 
0.32999999999998, -0.4788403497150256 
0.3399999999999789, -0.4713000186576887 
0.3499999999999778, -0.4548266547077991 
0.35999999999997667, -0.4139193814303009 
0.36999999999997557, -0.30404889676080826 
0.37999999999997447, -0.0701357211643833 
0.38999999999997337, 0.161500261529061 
0.39999999999997227, 0.26626857099782375 
0.40999999999997117, 0.30326013498289656 
0.41999999999997006, 0.317235200430903 
0.42999999999996896, 0.3230458358266777 
0.43999999999996786, 0.3254745465645514 
0.44999999999996676, 0.32622522560356104 
0.45999999999996566, 0.3259795791386507 
0.46999999999996456, 0.32507399479413734 
0.47999999999996346, 0.32376227828448206 
0.48999999999996235, 0.32231263908915564 
0.49999999999996125, 0.3210080215894872 
0.5099999999999602, 0.32010484423934443 
0.519999999999959, 0.31980691769208147 
0.529999999999958, 0.3202683151163881 
0.5399999999999568, 0.3215881693683366 
0.5499999999999557, 0.3237540530243585 
0.5599999999999546, 0.3265480893904319 
0.5699999999999535, 0.32952382257243107 
0.5799999999999524, 0.33215209227439496 
0.5899999999999513, 0.3340363790972741 
0.5999999999999502, 0.334984857612628 
0.6099999999999491, 0.3348893204842863 
0.619999999999948, 0.33349848864483705 
0.6299999999999469, 0.3300747525601627 
0.6399999999999458, 0.3226634137193315 
0.6499999999999447, 0.30625951787795397 
0.6599999999999436, 0.269198111803198 
0.6699999999999425, 0.19543405431297 
0.6799999999999414, 0.09939264754478924 
0.6899999999999403, 0.0316181684227589 
0.6999999999999392, 0.0010042027194647185 
0.7099999999999381, -0.010644574749220032 
0.719999999999937, -0.015228822656004245 
0.7299999999999359, -0.01714927101593523 
0.7399999999999348, -0.017949916797767345 
0.7499999999999337, -0.0182074106977728 
0.7599999999999326, -0.01816903422606392 
0.7699999999999315, -0.017978079319507678 
0.7799999999999304, -0.017765192525141978 
0.7899999999999293, -0.017690527427084123 
0.7999999999999282, -0.017965841250487936 
0.8099999999999271, -0.018881829821844002 
0.819999999999926, -0.02088102120484 
0.8299999999999249, -0.024739750014488537 
0.8399999999999238, -0.031969908103171775 
0.8499999999999227, -0.04561331037290645 
0.8599999999999216, -0.07131519210514634 
0.8699999999999205, -0.11618726862597865 
0.8799999999999194, -0.17859167225459133 
0.8899999999999183, -0.23820596300509359 
0.8999999999999172, -0.27737281984996986 
0.9099999999999161, -0.29793646628117487 
0.919999999999915, -0.30797360572689836 
0.9299999999999139, -0.31282852911598485 
0.9399999999999128, -0.3150613818476585 
0.9499999999999117, -0.31577632886846035 
0.9599999999999106, -0.3153885363830652 
0.9699999999999095, -0.3139677672808392 
0.9799999999999084, -0.31141930996080747 
0.9899999999999073, -0.30766481192223244 
0.9999999999999062, -0.3028729191474552 
1.0099999999999052, -0.2975966812512737 
1.019999999999904, -0.29259669402308 
1.029999999999903, -0.2884603249099029 
1.039999999999902, -0.2854076292811485 
1.0499999999999008, -0.28338425722105315 
1.0599999999998997, -0.2822287573928359 
1.0699999999998986, -0.2817628653019071 
1.0799999999998975, -0.2818028663113931 
1.0899999999998964, -0.2821457432768193 
1.0999999999998953, -0.28257662950077156 
1.1099999999998942, -0.28290576859712085 
1.119999999999893, -0.28300310391589567 
1.129999999999892, -0.28279988922747656 
1.1399999999998909, -0.282260155884626 
1.1499999999998898, -0.2813408321425289 
1.1599999999998887, -0.2799427963832738 
1.1699999999998876, -0.2778083631781423 
1.1799999999998865, -0.27414886421561924 
1.1899999999998854, -0.2658136642504475 
1.1999999999998843, -0.23610023477137726 
1.2099999999998832, -0.08057875395506499 
1.219999999999882, 0.4875166888794972 
1.229999999999881, 0.8523980908099075 
1.2399999999998799, 0.9208015956621374 
1.2499999999998788, 0.9359028330905617 
1.2599999999998777, 0.9401432442997175 
1.2699999999998766, 0.9409341034168628 
1.2799999999998755, 0.9396561569307889 
1.2899999999998744, 0.9356594925799795 
1.2999999999998733, 0.9262312089201105 
1.3099999999998722, 0.90627358641675 
1.319999999999871, 0.8755286651389277 
1.32999999999987, 0.8511211261898157 
1.3399999999998689, 0.843396010601893 
1.3499999999998678, 0.8436084248832924 
1.3599999999998666, 0.8450386715352805 
1.3699999999998655, 0.8458764380764421 
1.3799999999998644, 0.8457552546506857 
1.3899999999998633, 0.8442342851872409 
1.3999999999998622, 0.8397805634329156 
1.4099999999998611, 0.8263278979480168 
1.41999999999986, 0.7701165820246998 
1.429999999999859, 0.3286648178832179 
1.4399999999998578, -2.581289158797176 
1.4499999999998567, -3.2277497914196 
1.4599999999998556, -3.2658330496624783 
1.4699999999998545, -3.272409787407613 
1.4799999999998534, -3.2732922184528688 
1.4899999999998523, -3.2713841792742477 
1.4999999999998512, -3.2643193620163493 
1.5099999999998501, -3.2290363665617177 
1.519999999999849, -3.0928707717572976 
1.529999999999848, -3.127466674791426 
1.5399999999998468, -3.1407574055471974 
1.5499999999998457, -3.1418968353665626 
1.5599999999998446, -3.141262357208799 
1.5699999999998435, -3.141581006845896 
1.5799999999998424, -3.1414602169002843 
1.5899999999998413, -3.1407904061125245 
1.5999999999998402, -3.1403227670318112 
1.6099999999998391, -3.137211756658427 
1.619999999999838, -3.1136379366937517 
1.629999999999837, -2.9812608665090723 
1.6399999999998358, -3.397257779919579 
1.6499999999998347, -3.4582502124315084 
1.6599999999998336, -3.4660512465118556 
1.6699999999998325, -3.4671031226088758 
1.6799999999998314, -3.465048528321791 
1.6899999999998303, -3.456186223271466 
1.6999999999998292, -3.3945859721921607 
1.709999999999828, -2.186169143404398 
1.719999999999827, -1.477387036700083 
1.729999999999826, -1.6650407828600353 
1.7399999999998248, -1.7232334375577107 
1.7499999999998237, -1.7377435201771703 
1.7599999999998226, -1.7415227265695339 
1.7699999999998215, -1.7418581500650496 
1.7799999999998204, -1.7405811493159553 
1.7899999999998193, -1.7394289653621406 
1.7999999999998182, -1.7423708673849851 
1.809999999999817, -1.7505620921785137 
1.819999999999816, -1.7590607068194604 
1.8299999999998149, -1.7649795352010316 
1.8399999999998138, -1.7686453905361332 
1.8499999999998127, -1.77084289799107 
1.8599999999998116, -1.7719676766501127 
1.8699999999998105, -1.7721432533202883 
1.8799999999998094, -1.7713778800828526 
1.8899999999998083, -1.7695970134635395 
1.8999999999998072, -1.7666041445012168 
1.909999999999806, -1.76197359108521 
1.919999999999805, -1.7547873347006384 
1.9299999999998039, -1.7431059341872768 
1.9399999999998028, -1.723762517881065 
1.9499999999998017, -1.6966457863322273 
1.9599999999998006, -1.6756811188681855 
1.9699999999997995, -1.6722012301566334 
1.9799999999997984, -1.6752168250989978 
1.9899999999997973, -1.6770535579220134 
1.9999999999997962, -1.6767646727607328 
2.0099999999998173, -1.6736470175946985 
2.0199999999998384, -1.6642528024541292 
2.0299999999998595, -1.6412924746538748 
2.0399999999998806, -1.6413826263094407 
2.0499999999999017, -1.8450060492492089 
2.059999999999923, -2.054124149465207 
2.069999999999944, -2.128175532344062 
2.079999999999965, -2.15400341302609 
2.089999999999986, -2.164877194428475 
2.100000000000007, -2.1698849880557347 
2.1100000000000283, -2.1719606037009256 
2.1200000000000494, -2.1722306362485555 
2.1300000000000705, -2.171124763090558 
2.1400000000000916, -2.1686142895572305 
2.1500000000001127, -2.163906902209831 
2.160000000000134, -2.1549357832110574 
2.170000000000155, -2.141355407324345 
2.180000000000176, -2.133632849569228 
2.190000000000197, -2.135198022109365 
2.2000000000002182, -2.1368598437574637 
2.2100000000002393, -2.136092168530998 
2.2200000000002604, -2.1316073661420267 
2.2300000000002815, -2.1221250366839595 
2.2400000000003026, -2.1338918667690256 
2.2500000000003237, -2.181840482250519 
2.260000000000345, -2.2114189162733835 
2.270000000000366, -2.223582660317836 
2.280000000000387, -2.2288442393914414 
2.290000000000408, -2.231130718182908 
2.3000000000004293, -2.2316709746834777 
2.3100000000004504, -2.23077204715828 
2.3200000000004715, -2.228226634212347 
2.3300000000004926, -2.2230849750170405 
2.3400000000005137, -2.2123421166837973 
2.3500000000005348, -2.1865717406062153 
2.360000000000556, -2.128489832833597 
2.370000000000577, -2.081642204058829 
2.380000000000598, -2.089262818757053 
2.390000000000619, -2.0973263561843183 
2.4000000000006403, -2.099427521293646 
2.4100000000006614, -2.0985647698782905 
2.4200000000006825, -2.0959120416522743 
2.4300000000007036, -2.096405086324201 
2.4400000000007247, -2.106263211324788 
2.450000000000746, -2.1168499820279894 
2.460000000000767, -2.1228442401591536 
2.470000000000788, -2.1257797875112923 
2.480000000000809, -2.127050693262315 
2.49000000000083, -2.127044449294658 
2.5000000000008513, -2.125626182292013 
2.5100000000008724, -2.12224888660057 
2.5200000000008935, -2.1156054771798956 
2.5300000000009146, -2.102321560015784 
2.5400000000009357, -2.0720253863701203 
2.550000000000957, -1.9891418488670163 
2.560000000000978, -1.788029189534558 
2.570000000000999, -1.6387508237756054 
2.58000000000102, -1.6467681047375844 
2.5900000000010412, -1.6649417245795555 
2.6000000000010624, -1.671929385165337 
2.6100000000010835, -1.673777244415073 
2.6200000000011046, -1.6730555167893457 
2.6300000000011257, -1.6701477354079663 
2.6400000000011468, -1.6663978372655286 
2.650000000001168, -1.671708368874 
2.660000000001189, -1.6967130317387966 
2.67000000000121, -1.7256077531148406 
2.680000000001231, -1.7449477367905253 
2.6900000000012523, -1.7562104793410935 
2.7000000000012734, -1.7629033039367727 
2.7100000000012945, -1.767006382706955 
2.7200000000013156, -1.7694427830328352 
2.7300000000013367, -1.7706425979655283 
2.740000000001358, -1.7708084434739295 
2.750000000001379, -1.770025949612199 
2.7600000000014, -1.7683038005707232 
2.770000000001421, -1.765535362015094 
2.780000000001442, -1.761338872574261 
2.7900000000014633, -1.7550013423488888 
2.8000000000014844, -1.7464774231777753 
2.8100000000015055, -1.738869590996869 
2.8200000000015266, -1.736252761878098 
2.8300000000015477, -1.7368872836863165 
2.840000000001569, -1.7373247354890222 
2.85000000000159, -1.7360170107993516 
2.860000000001611, -1.7307225943775406 
2.870000000001632, -1.7120916250302716 
2.8800000000016532, -1.6349226820144256 
2.8900000000016743, -1.343550949770516 
2.9000000000016954, -1.8240843840254268 
2.9100000000017165, -4.428162073179612 
2.9200000000017377, -4.464196389434134 
2.9300000000017588, -4.466367129488981 
2.94000000000178, -4.463501428794039 
2.950000000001801, -4.437549072353499 
2.960000000001822, -1.7886834066805097 
2.970000000001843, 1.6571015712412975 
2.9800000000018643, 1.751633108578875 
2.9900000000018854, 1.7607188350300003 
3.0000000000019065, 1.7622302877099014 
3.0100000000019276, 1.7622822850237636 
3.0200000000019487, 1.7621524241907287 
3.03000000000197, 1.762080261955224 
3.040000000001991, 1.7618133507726763 
3.050000000002012, 1.761286868323421 
3.060000000002033, 1.760777027266793 
3.070000000002054, 1.760262795084057 
3.0800000000020753, 1.7589023413887943 
3.0900000000020964, 1.7533549603486374 
3.1000000000021175, 1.715215576222306 
3.1100000000021386, 0.6451484781031676 
3.1200000000021597, -4.3945233668454 
3.130000000002181, -4.478369129240923 
3.140000000002202, -4.482456689453981 
3.150000000002223, -4.480696139358374 
3.160000000002244, -4.465844529269985 
3.1700000000022652, -3.5920689245410125 
3.1800000000022863, -0.6656431491109607 
3.1900000000023074, -0.4689898103232205 
3.2000000000023285, -0.42565339559233895 
3.2100000000023496, -0.41586921458834764 
3.2200000000023707, -0.41462723697946274 
3.230000000002392, -0.4154095826393642 
3.240000000002413, -0.41643550532742796 
3.250000000002434, -0.41722033542092773 
3.260000000002455, -0.41763779280141805 
3.2700000000024763, -0.41764800287861503 
3.2800000000024974, -0.41722286499957023 
3.2900000000025185, -0.41634489126374136 
3.3000000000025396, -0.4150443918771799 
3.3100000000025607, -0.41344542615428265 
3.3200000000025818, -0.4117721647755183 
3.330000000002603, -0.4102878105019544 
3.340000000002624, -0.4092088131415029 
3.350000000002645, -0.40866180004895947 
3.360000000002666, -0.40869011627416774 
3.3700000000026873, -0.4092661133933449 
3.3800000000027084, -0.41028108347896336 
3.3900000000027295, -0.41153298221500556 
3.4000000000027506, -0.4127584254447868 
3.4100000000027717, -0.4137159997722658 
3.420000000002793, -0.4142588385501364 
3.430000000002814, -0.4143406241937015 
3.440000000002835, -0.4139714144634624 
3.450000000002856, -0.4131727823025738 
3.460000000002877, -0.41196346537491707 
3.4700000000028983, -0.4103981014244841 
3.4800000000029194, -0.4087301267532414 
3.4900000000029405, -0.40795866745402287 
3.5000000000029616, -0.4116171236605992 
3.5100000000029827, -0.43042977554488016 
3.520000000003004, -0.4606770714460623 
3.530000000003025, 1.3169786068693845 
3.540000000003046, 2.7833456346014276 
3.550000000003067, 2.8018594585103136 
3.5600000000030882, 2.8025790501735317 
3.5700000000031094, 2.796495499990054 
3.5800000000031305, 2.632121138956076 
3.5900000000031516, -3.578268524829851 
3.6000000000031727, -3.796554370348158 
3.6100000000031938, -3.8041317799441985 
3.620000000003215, -3.803983462231625 
3.630000000003236, -3.801912897341655 
3.640000000003257, -3.795267344729998 
3.650000000003278, -3.7911232711872076 
3.6600000000032993, -3.793366277001327 
3.6700000000033204, -3.791879938313472 
3.6800000000033415, -3.7915157344476755 
3.6900000000033626, -3.7953231698742975 
3.7000000000033837, -3.796119128357142 
3.710000000003405, -3.795548320823824 
3.720000000003426, -3.79056015925714 
3.730000000003447, -3.709581298369809 
3.740000000003468, -3.63153456157213 
3.750000000003489, -5.076315520835236 
3.7600000000035103, -5.086376695410942 
3.7700000000035314, -5.085127992040055 
3.7800000000035525, -5.066952786108765 
3.7900000000035736, 0.8268960934848308 
3.8000000000035947, 2.924089073762616 
3.810000000003616, 2.9356362257067756 
3.820000000003637, 2.936050171110904 
3.830000000003658, 2.9335383993315602 
3.840000000003679, 2.92316202405502 
3.8500000000037002, 2.912127458669889 
3.8600000000037213, 2.916833997817202 
3.8700000000037424, 2.9178620161752424 
3.8800000000037635, 2.91604987858385 
3.8900000000037847, 2.9166201813262096 
3.9000000000038058, 2.9213307193566287 
3.910000000003827, 2.923099047244457 
3.920000000003848, 2.922801888275177 
3.930000000003869, 2.920111021375088 
3.94000000000389, 2.886846668365936 
3.9500000000039113, 1.7065458462967455 
3.9600000000039324, 4.142936252206587 
3.9700000000039535, 4.1498954973067095 
3.9800000000039746, 4.145550702940816 
3.9900000000039957, 2.621112468442192 
4.000000000004016, -5.927885275237272 
4.010000000003993, -5.933822279044139 
4.02000000000397, -5.929698386875057 
4.030000000003946, -5.8375961179698175 
4.040000000003923, -5.885226656643916 
4.0500000000039, -5.886214571280357 
4.0600000000038765, -5.883784213731564 
4.070000000003853, -5.879152743318032 
4.08000000000383, -5.879968891918809 
4.090000000003807, -5.878727213420905 
4.100000000003783, -5.8788507425181775 
4.11000000000376, -5.877670649364841 
4.120000000003737, -5.867339307344852 
4.130000000003713, -5.88261342937546 
4.14000000000369, -5.88701148058865 
4.150000000003667, -5.8840776487286615 
4.1600000000036434, -5.527829582946145 
4.17000000000362, -8.605332171026621 
4.180000000003597, -8.618392707734383 
4.1900000000035735, -8.549742784680578 
4.20000000000355, 6.612623992171223 
4.210000000003527, 6.613080708884199 
4.220000000003504, 5.734576733683671 
4.23000000000348, 6.363565911594491 
4.240000000003457, 6.3628615403644115 
4.250000000003434, 6.334879161328655 
4.26000000000341, 6.349351233811603 
4.270000000003387, 6.348694096237827 
4.280000000003364, 6.344976503191942 
4.2900000000033405, 6.344449977200688 
4.300000000003317, 6.3424039032449135 
4.310000000003294, 6.343192214375101 
4.320000000003271, 6.341745508722914 
4.330000000003247, 6.330480693678309 
4.340000000003224, 6.34594441306874 
4.350000000003201, 6.345701743465049 
4.360000000003177, 6.259432589061242 
4.370000000003154, 6.472804504495595 
4.380000000003131, 6.473594631097835 
4.390000000003107, 3.64933807131471 
4.400000000003084, -8.488371165747884 
4.410000000003061, -8.484773921444361 
4.4200000000030375, 5.819725316380687 
4.430000000003014, 6.053910130010944 
4.440000000002991, 6.051372412104714 
4.450000000002968, 5.977260509545626 
4.460000000002944, 6.021005811558108 
4.470000000002921, 6.0202738730139345 
4.480000000002898, 6.013830932976866 
4.490000000002874, 6.01464584049218 
4.500000000002851, 6.013427291769054 
4.510000000002828, 6.01330304087667 
4.520000000002804, 6.011874823400016 
4.530000000002781, 6.007245518409929 
4.540000000002758, 6.011935240411908 
4.5500000000027345, 6.014084096359735 
4.560000000002711, 6.007456104949306 
4.570000000002688, 6.057379700762591 
4.580000000002665, 6.08853292946147 
4.590000000002641, 6.081602221349094 
4.600000000002618, -8.098893915422414 
4.610000000002595, -8.131376477754015 
4.620000000002571, -8.117829569052907 
4.630000000002548, 5.870517975855489 
4.640000000002525, 5.888388065962485 
4.6500000000025015, 5.881672445040964 
4.660000000002478, 5.82913142260372 
4.670000000002455, 5.8488653813707385 
4.6800000000024315, 5.847573134305305 
4.690000000002408, 5.840097346893712 
4.700000000002385, 5.842151046768513 
4.710000000002362, 5.840896771226787 
4.720000000002338, 5.8407748160877135 
4.730000000002315, 5.839404268984147 
4.740000000002292, 5.834593372511157 
4.750000000002268, 5.839584064755885 
4.760000000002245, 5.842323852286803 
4.770000000002222, 5.837102228142759 
4.7800000000021985, 5.867246676084004 
4.790000000002175, 5.936131769096594 
4.800000000002152, 5.9322455847059326 
4.810000000002129, -7.798490236718777 
4.820000000002105, -7.956531514730718 
4.830000000002082, -7.950938149248378 
4.840000000002059, 5.29230449167498 
4.850000000002035, 5.496347558706811 
4.860000000002012, 5.49515967628645 
4.870000000001989, 5.446034205861308 
4.880000000001965, 5.4665252918069065 
4.890000000001942, 5.467764890710863 
4.900000000001919, 5.465743925245971 
4.9100000000018955, 5.461485403788022 
4.920000000001872, 5.462154288991002 
4.930000000001849, 5.460575857241741 
4.940000000001826, 5.4618331251992425 
4.950000000001802, 5.460737706762312 
4.960000000001779, 5.453317839715153 
4.970000000001756, 5.464110146299207 
4.980000000001732, 5.472447951998651 
