t, s[1].omega / s[0].omega 
0, -0.009997848759640379 
0.009999999999999995, -0.010073023392438506 
0.019999999999999934, -0.010714893434856298 
0.029999999999999874, -0.01188021156606411 
0.04000000000000012, -0.013450035519508033 
0.050000000000000405, -0.015211481187685505 
0.06000000000000069, -0.01690313892414056 
0.07000000000000098, -0.01830434832258173 
0.08000000000000126, -0.01929481146077288 
0.09000000000000155, -0.019845837941118702 
0.10000000000000184, -0.01997205742041558 
0.11000000000000212, -0.01968632247980432 
0.12000000000000241, -0.018976181226104803 
0.130000000000002, -0.0178042408404075 
0.1400000000000009, -0.016135019422461757 
0.1499999999999998, -0.013989430066329541 
0.1599999999999987, -0.011504627247285338 
0.1699999999999976, -0.008942439003382915 
0.1799999999999965, -0.006609010368589285 
0.1899999999999954, -0.004740723612725119 
0.1999999999999943, -0.0034524509619873528 
0.2099999999999932, -0.002766406250556426 
0.2199999999999921, -0.002664919896964238 
0.229999999999991, -0.003116538068915117 
0.2399999999999899, -0.004063001173933235 
0.2499999999999888, -0.005385255514594405 
0.2599999999999877, -0.0068883157186642435 
0.2699999999999866, -0.008338901261374062 
0.2799999999999855, -0.009538731485502007 
0.2899999999999844, -0.010373763976588254 
0.2999999999999833, -0.010807361499785199 
0.3099999999999822, -0.010839516333830153 
0.3199999999999811, -0.010467135783566062 
0.32999999999998, -0.009662355627807134 
0.3399999999999789, -0.008373707563783618 
0.3499999999999778, -0.006555891869988404 
0.35999999999997667, -0.00423061204797785 
0.36999999999997557, -0.0015518873626952428 
0.37999999999997447, 0.0009992037070204675 
0.38999999999997337, 0.0030396707518650133 
0.39999999999997227, 0.004572226526476563 
0.40999999999997117, 0.005490638019966109 
0.41999999999997006, 0.005786123225895615 
0.42999999999996896, 0.005488239253075053 
0.43999999999996786, 0.004637259507994239 
0.44999999999996676, 0.0032973813892861166 
0.45999999999996566, 0.0015902530150629062 
0.46999999999996456, -0.00022475044115741766 
0.47999999999996346, -0.0016161779513008856 
0.48999999999996235, -0.0027619539026514798 
0.49999999999996125, -0.0035514562172268547 
0.5099999999999602, -0.00394768652975052 
0.519999999999959, -0.003947841556420064 
0.529999999999958, -0.003545316715048053 
0.5399999999999568, -0.002709429368740939 
0.5499999999999557, -0.0013881555990031826 
0.5599999999999546, 0.00036337175813606356 
0.5699999999999535, 0.0022715553463448722 
0.5799999999999524, 0.004510558780821803 
0.5899999999999513, 0.006785078688771357 
0.5999999999999502, 0.008771225886310604 
0.6099999999999491, 0.010238363991713859 
0.619999999999948, 0.011089634079646164 
0.6299999999999469, 0.011319298255518948 
0.6399999999999458, 0.010955011310068874 
0.6499999999999447, 0.010033784113537534 
0.6599999999999436, 0.008618829403614798 
0.6699999999999425, 0.0068355001584382265 
0.6799999999999414, 0.004884724265639931 
0.6899999999999403, 0.0030016795102363342 
0.6999999999999392, 0.0013813678963335084 
0.7099999999999381, 0.0001322976744562617 
0.719999999999937, -0.00033389630908231603 
0.7299999999999359, -0.0003419705372101267 
0.7399999999999348, 0.000013438023803596754 
0.7499999999999337, 0.00040158318974544327 
0.7599999999999326, 0.001262736313828924 
0.7699999999999315, 0.0026273879393311004 
0.7799999999999304, 0.004453049126013462 
0.7899999999999293, 0.00656984480666392 
0.7999999999999282, 0.008692145501476763 
0.8099999999999271, 0.010516933135498114 
0.819999999999926, 0.011832498502525308 
0.8299999999999249, 0.012549166426855326 
0.8399999999999238, 0.012657040379947656 
0.8499999999999227, 0.01217413504883146 
0.8599999999999216, 0.011128476004914529 
0.8699999999999205, 0.009580201507876713 
0.8799999999999194, 0.007660865196738452 
0.8899999999999183, 0.0055850724217000975 
0.8999999999999172, 0.003601246611065559 
0.9099999999999161, 0.0019094726506728153 
0.919999999999915, 0.000614438130547531 
0.9299999999999139, -0.00010629853953448515 
0.9399999999999128, -0.00013371075917155732 
0.9499999999999117, 0.00002695331263441912 
0.9599999999999106, 0.0003921496055276013 
0.9699999999999095, 0.0012155986664321617 
0.9799999999999084, 0.0025163457321093216 
0.9899999999999073, 0.004241675126912719 
0.9999999999999062, 0.0062202918760855975 
1.0099999999999052, 0.008179333694622306 
1.019999999999904, 0.009837239404911716 
1.029999999999903, 0.0109993201402065 
1.039999999999902, 0.011580556363134407 
1.0499999999999008, 0.011565137670958396 
1.0599999999998997, 0.010960767911206511 
1.0699999999998986, 0.009786867785160809 
1.0799999999998975, 0.008101926419464809 
1.0899999999998964, 0.0060457727000734615 
1.0999999999998953, 0.0038481915534603777 
1.1099999999998942, 0.0017705450682684123 
1.119999999999893, 0.000016130639447502818 
1.129999999999892, -0.0008852493353479766 
1.1399999999998909, -0.0013443483083382976 
1.1499999999998898, -0.0013846881165072214 
1.1599999999998887, -0.001017933876516339 
1.1699999999998876, -0.00023223015292775042 
1.1799999999998865, 0.0006606284388708903 
1.1899999999998854, 0.0019132558313521037 
1.1999999999998843, 0.0035614072091737954 
1.2099999999998832, 0.005432498723801749 
1.219999999999882, 0.007263406095018972 
1.229999999999881, 0.008789005590062652 
1.2399999999998799, 0.009827618778580648 
1.2499999999998788, 0.010297689655108782 
1.2599999999998777, 0.010178677681764852 
1.2699999999998766, 0.009470287696908455 
1.2799999999998755, 0.008185869379848335 
1.2899999999998744, 0.006384366962969529 
1.2999999999998733, 0.00421470372065282 
1.3099999999998722, 0.0019205876130419432 
1.319999999999871, -0.0001779083528897528 
1.32999999999987, -0.0015384550979805158 
1.3399999999998689, -0.0024563962227737634 
1.3499999999998678, -0.002924905442178017 
1.3599999999998666, -0.0029688916579408203 
1.3699999999998655, -0.0026045985046452723 
1.3799999999998644, -0.0018241954378450359 
1.3899999999998633, -0.0006051266213433098 
1.3999999999998622, 0.0007934386455144025 
1.4099999999998611, 0.002392634954051654 
1.41999999999986, 0.004191614347827415 
1.429999999999859, 0.005933372993423376 
1.4399999999998578, 0.007364282971069848 
1.4499999999998567, 0.008312269515022157 
1.4599999999998556, 0.008698761497197723 
1.4699999999998545, 0.008500326329489936 
1.4799999999998534, 0.007711595602657354 
1.4899999999998523, 0.006342854805474763 
1.4999999999998512, 0.004455563118699558 
1.5099999999998501, 0.002207562286051222 
1.519999999999849, -0.00011968703240108878 
1.529999999999848, -0.0018671628090134846 
1.5399999999998468, -0.0032432264544714528 
1.5499999999998457, -0.004163064425527404 
1.5599999999998446, -0.00462649798764742 
1.5699999999998435, -0.0046625928302333275 
1.5799999999998424, -0.004289780775480562 
1.5899999999998413, -0.0035018804783854924 
1.5999999999998402, -0.0022788904575608395 
1.6099999999998391, -0.0006219941358761446 
1.619999999999838, 0.0011028981781373661 
1.629999999999837, 0.0028675135921057233 
1.6399999999998358, 0.0045601532039088195 
1.6499999999998347, 0.005934125744241262 
1.6599999999998336, 0.0068243365948126 
1.6699999999998325, 0.00715541106429389 
1.6799999999998314, 0.0069032961075754466 
1.6899999999998303, 0.00606070090068408 
1.6999999999998292, 0.004637833226755656 
1.709999999999828, 0.0027002661529021777 
1.719999999999827, 0.0004135964055266356 
1.729999999999826, -0.0016026820492385818 
1.7399999999998248, -0.00335197206258822 
1.7499999999998237, -0.004716815410850406 
1.7599999999998226, -0.005619298935873528 
1.7699999999998215, -0.006063800930918629 
1.7799999999998204, -0.006080979301076683 
1.7899999999998193, -0.005689043462108715 
1.7999999999998182, -0.004881226125799273 
1.809999999999817, -0.003637965239422134 
1.819999999999816, -0.0019630944990232406 
1.8299999999998149, 0.000051568627284860785 
1.8399999999998138, 0.0018145392683424862 
1.8499999999998127, 0.003491756079692184 
1.8599999999998116, 0.0048399484831217615 
1.8699999999998105, 0.005699321680628568 
1.8799999999998094, 0.005998277729516978 
1.8899999999998083, 0.005714235718682506 
1.8999999999998072, 0.004840631068665229 
1.909999999999806, 0.003389914866724198 
1.919999999999805, 0.0014326845172184471 
1.9299999999998039, -0.0007015948489546881 
1.9399999999998028, -0.002628338775944162 
1.9499999999998017, -0.004352296351824584 
1.9599999999998006, -0.005685546060731703 
1.9699999999997995, -0.006556394121727283 
1.9799999999997984, -0.006971813304305188 
1.9899999999997973, -0.006961944055615432 
1.9999999999997962, -0.0065429232609548315 
2.0099999999998173, -0.005705776839752412 
2.0199999999998384, -0.004429963263278264 
2.0299999999998595, -0.002721019201212995 
2.0399999999998806, -0.0006619761077324811 
2.0499999999999017, 0.0012531010934746403 
2.059999999999923, 0.002937055449408985 
2.069999999999944, 0.004279455402164305 
2.079999999999965, 0.005125023975550886 
2.089999999999986, 0.0054065397309500576 
2.100000000000007, 0.005104322252864205 
2.1100000000000283, 0.00421418725294398 
2.1200000000000494, 0.00275214408679678 
2.1300000000000705, 0.0007941023963831028 
2.1400000000000916, -0.0012035292781705424 
2.1500000000001127, -0.0031000724417484067 
2.160000000000134, -0.004783837174588546 
2.170000000000155, -0.006074862939439743 
2.180000000000176, -0.006906912124185265 
2.190000000000197, -0.007288239791289253 
2.2000000000002182, -0.0072472423802748655 
2.2100000000002393, -0.006797004950331321 
2.2200000000002604, -0.005925570704815016 
2.2300000000002815, -0.004610852595263342 
2.2400000000003026, -0.002859897006781666 
2.2500000000003237, -0.0007611500128690886 
2.260000000000345, 0.0012013859880569068 
2.270000000000366, 0.002900873804354115 
2.280000000000387, 0.004244995142763835 
2.290000000000408, 0.0050829206821174314 
2.3000000000004293, 0.005352168369814012 
2.3100000000004504, 0.005036520013072573 
2.3200000000004715, 0.004134731686350724 
2.3300000000004926, 0.0026667299784332256 
2.3400000000005137, 0.000713649101079873 
2.3500000000005348, -0.0012508040951637323 
2.360000000000556, -0.0031126723266081294 
2.370000000000577, -0.004753334972098752 
2.380000000000598, -0.006000630199107647 
2.390000000000619, -0.006793223473234407 
2.4000000000006403, -0.007140128075558622 
2.4100000000006614, -0.007067669155549665 
2.4200000000006825, -0.006585733545631243 
2.4300000000007036, -0.005679387903656382 
2.4400000000007247, -0.00432518594000013 
2.450000000000746, -0.0025320769626321345 
2.460000000000767, -0.00039439170873566 
2.470000000000788, 0.0015250990190984496 
2.480000000000809, 0.003237547017644243 
2.49000000000083, 0.004580637354309355 
2.5000000000008513, 0.005408345180613294 
2.5100000000008724, 0.005662950590959687 
2.5200000000008935, 0.005331494265322292 
2.5300000000009146, 0.004415384406679595 
2.5400000000009357, 0.0029381813236889617 
2.550000000000957, 0.000986037759382314 
2.560000000000978, -0.0010154474551123996 
2.570000000000999, -0.0028478974797854764 
2.58000000000102, -0.004450600162072953 
2.5900000000010412, -0.005658640844529022 
2.6000000000010624, -0.006415329445174957 
2.6100000000010835, -0.006730520912083382 
2.6200000000011046, -0.006628771080708315 
2.6300000000011257, -0.006117188838596745 
2.6400000000011468, -0.005178398346259652 
2.650000000001168, -0.003788269338008049 
2.660000000001189, -0.0019583701146476027 
2.67000000000121, 0.00017074303387047592 
2.680000000001231, 0.0020314166430500996 
2.6900000000012523, 0.0037471563321935172 
2.7000000000012734, 0.005080331451199264 
2.7100000000012945, 0.005890207848956868 
2.7200000000013156, 0.006123536703670431 
2.7300000000013367, 0.005769921952628174 
2.740000000001358, 0.004832673176397337 
2.750000000001379, 0.003338424745817783 
2.7600000000014, 0.0013781973813349992 
2.770000000001421, -0.0006962704446404126 
2.780000000001442, -0.002508956763765751 
2.7900000000014633, -0.004082247476232937 
2.8000000000014844, -0.005257898316987661 
2.8100000000015055, -0.005983853115032047 
2.8200000000015266, -0.006271212494946545 
2.8300000000015477, -0.006143350096170736 
2.840000000001569, -0.0056052558397375945 
2.85000000000159, -0.0046378549509365884 
2.860000000001611, -0.003217173848909604 
2.870000000001632, -0.0013581563300986783 
2.8800000000016532, 0.0006730285370572876 
2.8900000000016743, 0.002540892667064857 
2.9000000000016954, 0.004248159690048886 
2.9100000000017165, 0.005560989999887776 
2.9200000000017377, 0.006344319570155589 
2.9300000000017588, 0.006548886210762846 
2.94000000000178, 0.006166002342465232 
2.950000000001801, 0.005200055278132565 
2.960000000001822, 0.00368022966412627 
2.970000000001843, 0.0017024011686220038 
2.9800000000018643, -0.0004375502587079481 
2.9900000000018854, -0.00223992385590042 
3.0000000000019065, -0.0037919072517985167 
3.0100000000019276, -0.004941526384006581 
3.0200000000019487, -0.005641476090259713 
3.03000000000197, -0.00590455044617824 
3.040000000001991, -0.005753515783566259 
3.050000000002012, -0.005191864064536318 
3.060000000002033, -0.004199507271052351 
3.070000000002054, -0.0027533741066951985 
3.0800000000020753, -0.000872388717826323 
3.0900000000020964, 0.0010720155630155872 
3.1000000000021175, 0.0029367479431703673 
3.1100000000021386, 0.0046255469827385255 
3.1200000000021597, 0.0059094478587178555 
3.130000000002181, 0.006659222887378904 
3.140000000002202, 0.006829070210906546 
3.150000000002223, 0.006411265697389682 
3.160000000002244, 0.005410646790935087 
3.1700000000022652, 0.0038586392203431388 
3.1800000000022863, 0.001856096069717115 
3.1900000000023074, -0.0003215826917650963 
3.2000000000023285, -0.002120178351770241 
3.2100000000023496, -0.0036563336490476927 
3.2200000000023707, -0.00478417717384541 
3.230000000002392, -0.005461282406956091 
3.240000000002413, -0.005702446912974028 
3.250000000002434, -0.005530213744685011 
3.260000000002455, -0.004946996084179778 
3.2700000000024763, -0.003932162116442121 
3.2800000000024974, -0.0024640477357099726 
3.2900000000025185, -0.0005659306424638265 
3.3000000000025396, 0.001323378125055011 
3.3100000000025607, 0.0031783368221876248 
3.3200000000025818, 0.004842511676431834 
3.330000000002603, 0.006092448825223468 
3.340000000002624, 0.006804722079260153 
3.350000000002645, 0.006936552060774819 
3.360000000002666, 0.006480699350951939 
3.3700000000026873, 0.005442144913912571 
3.3800000000027084, 0.0038545128676030814 
3.3900000000027295, 0.0018238359502772562 
3.4000000000027506, -0.0003598042836037772 
3.4100000000027717, -0.002157287134726825 
3.420000000002793, -0.003679806836542794 
3.430000000002814, -0.00478761158326154 
3.440000000002835, -0.005443198712615784 
3.450000000002856, -0.005663457261033426 
3.460000000002877, -0.005470837927202534 
3.4700000000028983, -0.004866845540561913 
3.4800000000029194, -0.0038305215135465793 
3.4900000000029405, -0.0023418576403303713 
3.5000000000029616, -0.0004286572170735468 
3.5100000000029827, 0.0014349692230573555 
3.520000000003004, 0.003277524974156975 
3.530000000003025, 0.004914918484783796 
3.540000000003046, 0.006129428299787581 
3.550000000003067, 0.006803271806542684 
3.5600000000030882, 0.006896406413508202 
3.5700000000031094, 0.006401891777710609 
3.5800000000031305, 0.005324857076591911 
3.5900000000031516, 0.0037013038244678503 
3.6000000000031727, 0.0016426560029557755 
3.6100000000031938, -0.0005201564349688931 
3.620000000003215, -0.002315726370886526 
3.630000000003236, -0.0038239660440728324 
3.640000000003257, -0.004911355121750522 
3.650000000003278, -0.005545233883428614 
3.6600000000032993, -0.005744451900780611 
3.6700000000033204, -0.005531272546452756 
3.6800000000033415, -0.004906250306091829 
3.6900000000033626, -0.00384810955425932 
3.7000000000033837, -0.0023385517516095957 
3.710000000003405, -0.0004099538463319727 
3.720000000003426, 0.0014544847423040538 
3.730000000003447, 0.0032851621809557308 
3.740000000003468, 0.004896642362602755 
3.750000000003489, 0.006076882316981647 
3.7600000000035103, 0.006713549332736307 
3.7700000000035314, 0.006769206009732286 
3.7800000000035525, 0.006237257402991004 
3.7900000000035736, 0.005123205118639023 
3.8000000000035947, 0.003465734336359434 
3.810000000003616, 0.0013818235088144848 
3.820000000003637, -0.0007395473282374948 
3.830000000003658, -0.002530168346462687 
3.840000000003679, -0.004021742028992047 
3.8500000000037002, -0.005087092417738091 
3.8600000000037213, -0.005698198857227888 
3.8700000000037424, -0.005875585632485968 
3.8800000000037635, -0.005641092126994226 
3.8900000000037847, -0.004994156961305006 
3.9000000000038058, -0.003913086420184912 
3.910000000003827, -0.0023812563644811614 
3.920000000003848, -0.00043563436475592903 
3.930000000003869, 0.0014401934847073513 
3.94000000000389, 0.0032610872540696037 
3.9500000000039113, 0.004848945843658718 
3.9600000000039324, 0.005997247765433179 
3.9700000000039535, 0.006598939476528015 
3.9800000000039746, 0.006619157531818959 
3.9900000000039957, 0.0060518150916115555 
4.000000000004016, 0.0049031003289368 
4.010000000003993, 0.0032147143231965867 
4.02000000000397, 0.0011092842988734064 
4.030000000003946, -0.0009665403418267979 
4.040000000003923, -0.002748457127871825 
4.0500000000039, -0.004220490939234139 
4.0600000000038765, -0.005261869772208811 
4.070000000003853, -0.005848934864318621 
4.08000000000383, -0.0060035402835072835 
4.090000000003807, -0.005746823365072293 
4.100000000003783, -0.005076912178815642 
4.11000000000376, -0.003971575631469099 
4.120000000003737, -0.0024158277495859855 
4.130000000003713, -0.000451269310772647 
4.14000000000369, 0.001432249854634611 
4.150000000003667, 0.00324564364700961 
4.1600000000036434, 0.004812268634236513 
4.17000000000362, 0.005930984001241331 
4.180000000003597, 0.006499884000113 
4.1900000000035735, 0.006486683317311172 
4.20000000000355, 0.005885982715608592 
4.210000000003527, 0.004704964305190044 
4.220000000003504, 0.002988642599289732 
4.23000000000348, 0.0008653312031186638 
4.240000000003457, -0.0011654324229419893 
4.250000000003434, -0.0029352144740108516 
4.26000000000341, -0.004385177923276742 
4.270000000003387, -0.005400945600543217 
4.280000000003364, -0.005962920445359391 
4.2900000000033405, -0.00609395431044303 
4.300000000003317, -0.005814232285853533 
4.310000000003294, -0.005120411072851269 
4.320000000003271, -0.003989644695266753 
4.330000000003247, -0.002408600673073301 
4.340000000003224, -0.0004236049833483026 
4.350000000003201, 0.001464787654538906 
4.360000000003177, 0.0032722693025410135 
4.370000000003154, 0.004819312883425508 
4.380000000003131, 0.005910095515448487 
4.390000000003107, 0.006447762283226218 
4.400000000003084, 0.006402594151349303 
4.410000000003061, 0.005770007261981994 
4.4200000000030375, 0.004558415947702199 
4.430000000003014, 0.002816378943522886 
4.440000000002991, 0.0006779018877817217 
4.450000000002968, -0.0013180430927646504 
4.460000000002944, -0.003073278995471767 
4.470000000002921, -0.0044995116731965405 
4.480000000002898, -0.005488690640477897 
4.490000000002874, -0.006025003763195123 
4.500000000002851, -0.006132034016865806 
4.510000000002828, -0.005828838184458556 
4.520000000002804, -0.005110515563567316 
4.530000000002781, -0.003953607175729918 
4.540000000002758, -0.002346529450968046 
4.5500000000027345, -0.00034047756264809934 
4.560000000002711, 0.0015401533928082118 
4.570000000002688, 0.003342114396025553 
4.580000000002665, 0.004870073989912692 
4.590000000002641, 0.005933556004069824 
4.600000000002618, 0.00644066979383618 
4.610000000002595, 0.006364197608033022 
4.620000000002571, 0.0057004150417870655 
4.630000000002548, 0.0044591210737922465 
4.640000000002525, 0.0026925888726333238 
4.6500000000025015, 0.0005405209309412136 
4.660000000002478, -0.0014276833822523688 
4.670000000002455, -0.00316707047602366 
4.6800000000024315, -0.004568813863667924 
4.690000000002408, -0.005531089101899195 
4.700000000002385, -0.006041638310341517 
