t, s[1].omega / s[0].omega 
0, -1.4190949210541464 
0.009999999999999995, -1.3055917514237465 
0.019999999999999934, -1.14317246577948 
0.029999999999999874, -0.9489824838287328 
0.04000000000000012, -0.774021537613967 
0.050000000000000405, -0.6566358953705398 
0.06000000000000069, -0.5924198900925722 
0.07000000000000098, -0.56093854967598 
0.08000000000000126, -0.5464614001926744 
0.09000000000000155, -0.5401963482671903 
0.10000000000000184, -0.5377241704401218 
0.11000000000000212, -0.5369060851553107 
0.12000000000000241, -0.5367187312039576 
0.130000000000002, -0.5366677805879964 
0.1400000000000009, -0.5365063418149102 
0.1499999999999998, -0.5361115241249405 
0.1599999999999987, -0.5354465893471864 
0.1699999999999976, -0.5345633691081959 
0.1799999999999965, -0.5336007390205045 
0.1899999999999954, -0.5327473282261812 
0.1999999999999943, -0.532179688057197 
0.2099999999999932, -0.5320153820858897 
0.2199999999999921, -0.5322952006392002 
0.229999999999991, -0.5329755561442758 
0.2399999999999899, -0.5339212841817318 
0.2499999999999888, -0.5349218785271527 
0.2599999999999877, -0.535753634741679 
0.2699999999999866, -0.5362586359077826 
0.2799999999999855, -0.5363829774190816 
0.2899999999999844, -0.5361642981375074 
0.2999999999999833, -0.535714062564489 
0.3099999999999822, -0.5352480823748023 
0.3199999999999811, -0.535220701181904 
0.32999999999998, -0.5366742508468805 
0.3399999999999789, -0.542089066156802 
0.3499999999999778, -0.5574504431981231 
0.35999999999997667, -0.5971177363144686 
0.36999999999997557, -0.692808182098961 
0.37999999999997447, -0.8909472687227795 
0.38999999999997337, -1.1744209171706905 
0.39999999999997227, -1.4152549724205832 
0.40999999999997117, -1.5582710438009895 
0.41999999999997006, -1.6349849778920618 
0.42999999999996896, -1.6759196332757405 
0.43999999999996786, -1.6973678426171326 
0.44999999999996676, -1.7080233688024298 
0.45999999999996566, -1.7128509135255872 
0.46999999999996456, -1.7146291630274835 
0.47999999999996346, -1.7148339042666436 
0.48999999999996235, -1.7143152782980902 
0.49999999999996125, -1.7136485213290666 
0.5099999999999602, -1.7130186014166786 
0.519999999999959, -1.7122227572766793 
0.529999999999958, -1.7112479037557589 
0.5399999999999568, -1.7105392100210086 
0.5499999999999557, -1.7103116109307308 
0.5599999999999546, -1.7100219814567545 
0.5699999999999535, -1.708741759300014 
0.5799999999999524, -1.7050193044075723 
0.5899999999999513, -1.6953966749091467 
0.5999999999999502, -1.670658316866346 
0.6099999999999491, -1.6075346604539356 
0.619999999999948, -1.4578670607444233 
0.6299999999999469, -1.1703521198610263 
0.6399999999999458, -0.804629932518066 
0.6499999999999447, -0.5240449553193856 
0.6599999999999436, -0.3708317928792634 
0.6699999999999425, -0.2953090804923864 
0.6799999999999414, -0.2572718611588945 
0.6899999999999403, -0.2370490008152215 
0.6999999999999392, -0.22573492939147083 
0.7099999999999381, -0.21917796624464173 
0.719999999999937, -0.2153399500775203 
0.7299999999999359, -0.21317439505973898 
0.7399999999999348, -0.21213437388187373 
0.7499999999999337, -0.2119493890344752 
0.7599999999999326, -0.21252642136403335 
0.7699999999999315, -0.21391759675134256 
0.7799999999999304, -0.21633642645698617 
0.7899999999999293, -0.22023046828908893 
0.7999999999999282, -0.22645187802445807 
0.8099999999999271, -0.23663860564680356 
0.819999999999926, -0.25409458462116397 
0.8299999999999249, -0.28587643166670673 
0.8399999999999238, -0.3474057726977941 
0.8499999999999227, -0.4679647359584762 
0.8599999999999216, -0.6685101115804979 
0.8699999999999205, -0.8804470216830381 
0.8799999999999194, -1.0081167594078113 
0.8899999999999183, -1.062490063583373 
0.8999999999999172, -1.0835325539593073 
0.9099999999999161, -1.0917190756970876 
0.919999999999915, -1.0947612653253547 
0.9299999999999139, -1.0953960651186676 
0.9399999999999128, -1.0945210455114092 
0.9499999999999117, -1.092379173444217 
0.9599999999999106, -1.0895469202543069 
0.9699999999999095, -1.0894283333540895 
0.9799999999999084, -1.1033017747286755 
0.9899999999999073, -1.1491727687518778 
0.9999999999999062, -1.2274616631272768 
1.0099999999999052, -1.3093359309615107 
1.019999999999904, -1.3728421062535898 
1.029999999999903, -1.4170021497835767 
1.039999999999902, -1.447512380941912 
1.0499999999999008, -1.4688683610141937 
1.0599999999998997, -1.4836144544312555 
1.0699999999998986, -1.493238168321151 
1.0799999999998975, -1.4989292608283358 
1.0899999999998964, -1.5018235010055678 
1.0999999999998953, -1.5028963655056653 
1.1099999999998942, -1.502881011038432 
1.119999999999893, -1.5023496753600614 
1.129999999999892, -1.5017813459859393 
1.1399999999998909, -1.5014105471167443 
1.1499999999998898, -1.5011264367595125 
1.1599999999998887, -1.5007795028187978 
1.1699999999998876, -1.5004787817282392 
1.1799999999998865, -1.5004022568332247 
1.1899999999998854, -1.500414598003747 
1.1999999999998843, -1.5000682245714634 
1.2099999999998832, -1.4988007369918392 
1.219999999999882, -1.495912222212806 
1.229999999999881, -1.4904423172405632 
1.2399999999998799, -1.4811978383948063 
1.2499999999998788, -1.466912730399905 
1.2599999999998777, -1.446181694169056 
1.2699999999998766, -1.4168510202163103 
1.2799999999998755, -1.375078021936005 
1.2899999999998744, -1.3152968663459035 
1.2999999999998733, -1.2353002284092542 
1.3099999999998722, -1.150068484492533 
1.319999999999871, -1.090168428209594 
1.32999999999987, -1.0658150375867734 
1.3399999999998689, -1.0616988941222316 
1.3499999999998678, -1.0634294661516859 
1.3599999999998666, -1.0653761579853236 
1.3699999999998655, -1.0662630109352658 
1.3799999999998644, -1.0658437517647823 
1.3899999999998633, -1.0636267498547975 
1.3999999999998622, -1.0580613192682955 
1.4099999999998611, -1.0449413197808335 
1.41999999999986, -1.0136969080199598 
1.429999999999859, -0.9427436855980483 
1.4399999999998578, -0.8122540045175072 
1.4499999999998567, -0.6517348122583966 
1.4599999999998556, -0.5230469898982254 
1.4699999999998545, -0.4429921935039153 
1.4799999999998534, -0.39653996745970577 
1.4899999999998523, -0.3690351955978399 
1.4999999999998512, -0.35199635792259604 
1.5099999999998501, -0.340963923854113 
1.519999999999849, -0.3335701172572463 
1.529999999999848, -0.32851230581786256 
1.5399999999998468, -0.32505027863631913 
1.5499999999998457, -0.3227577610388318 
1.5599999999998446, -0.32139612245311405 
1.5699999999998435, -0.3208499740459664 
1.5799999999998424, -0.321097463085418 
1.5899999999998413, -0.32220382910551115 
1.5999999999998402, -0.3243358008179437 
1.6099999999998391, -0.3278020934630549 
1.619999999999838, -0.33313585886349795 
1.629999999999837, -0.34125491919786666 
1.6399999999998358, -0.3537785382495034 
1.6499999999998347, -0.3736732016385965 
1.6599999999998336, -0.4065792631673507 
1.6699999999998325, -0.4632904080688328 
1.6799999999998314, -0.5622167668967459 
1.6899999999998303, -0.7198638271214933 
1.6999999999998292, -0.9074901636815991 
1.709999999999828, -1.0485106360563754 
1.719999999999827, -1.1195386174523656 
1.729999999999826, -1.1489974277097228 
1.7399999999998248, -1.1606640160494934 
1.7499999999998237, -1.1651731434568968 
1.7599999999998226, -1.1665692915526436 
1.7699999999998215, -1.1663303466087749 
1.7799999999998204, -1.1650623453895887 
1.7899999999998193, -1.1635689571374541 
1.7999999999998182, -1.164335136471457 
1.809999999999817, -1.1725927239440765 
1.819999999999816, -1.192617957510847 
1.8299999999998149, -1.2210535270402176 
1.8399999999998138, -1.2498651742553644 
1.8499999999998127, -1.2742959248103554 
1.8599999999998116, -1.293774298016433 
1.8699999999998105, -1.3092831040379536 
1.8799999999998094, -1.3217964194839913 
1.8899999999998083, -1.3318696269579644 
1.8999999999998072, -1.3396897986600038 
1.909999999999806, -1.345301097473437 
1.919999999999805, -1.3488552716824171 
1.9299999999998039, -1.3507045087960714 
1.9399999999998028, -1.3513064574763367 
1.9499999999998017, -1.35111544595738 
1.9599999999998006, -1.350573475643603 
1.9699999999997995, -1.3501001985951249 
1.9799999999997984, -1.3499396451052779 
1.9899999999997973, -1.3500344886171551 
1.9999999999997962, -1.3502024186094963 
2.0099999999998173, -1.3503927093115817 
2.0199999999998384, -1.350667108518936 
2.0299999999998595, -1.3509854685251583 
2.0399999999998806, -1.3511215587224206 
2.0499999999999017, -1.3507702240806998 
2.059999999999923, -1.3496490863553638 
2.069999999999944, -1.3475375142384145 
2.079999999999965, -1.3443101094061578 
2.089999999999986, -1.339946269696736 
2.100000000000007, -1.3344657876739192 
2.1100000000000283, -1.327818649048242 
2.1200000000000494, -1.3197946012913013 
2.1300000000000705, -1.309977082150354 
2.1400000000000916, -1.2977901089493626 
2.1500000000001127, -1.282874580012063 
2.160000000000134, -1.2661827222672668 
2.170000000000155, -1.2511884290143698 
2.180000000000176, -1.242089559673777 
2.190000000000197, -1.2392332089772005 
2.2000000000002182, -1.239448575467631 
2.2100000000002393, -1.240053716943803 
2.2200000000002604, -1.2398726251732468 
2.2300000000002815, -1.2381868372057936 
2.2400000000003026, -1.2335652597643896 
2.2500000000003237, -1.2220989858261113 
2.260000000000345, -1.1931654444025939 
2.270000000000366, -1.1214239867935298 
2.280000000000387, -0.9713279401052745 
2.290000000000408, -0.759918929385315 
2.3000000000004293, -0.5768901700628531 
2.3100000000004504, -0.4622743483061392 
2.3200000000004715, -0.3975970646253293 
2.3300000000004926, -0.3606756879649119 
2.3400000000005137, -0.3386209203962279 
2.3500000000005348, -0.3248211554581034 
2.360000000000556, -0.3158620845228625 
2.370000000000577, -0.3099097193305514 
2.380000000000598, -0.30593856107003303 
2.390000000000619, -0.30335967588064483 
2.4000000000006403, -0.30183559590983744 
2.4100000000006614, -0.3011865256552531 
2.4200000000006825, -0.3013450976954677 
2.4300000000007036, -0.30234113955968794 
2.4400000000007247, -0.3043106817604692 
2.450000000000746, -0.3075328894916266 
2.460000000000767, -0.31251030418411363 
2.470000000000788, -0.32012934262904236 
2.480000000000809, -0.33198512102305294 
2.49000000000083, -0.35106070146886503 
2.5000000000008513, -0.38316334767517257 
2.5100000000008724, -0.43969347449156704 
2.5200000000008935, -0.5404471975773694 
2.5300000000009146, -0.7022881308076718 
2.5400000000009357, -0.8905351663285923 
2.550000000000957, -1.025756959094775 
2.560000000000978, -1.0914621348797033 
2.570000000000999, -1.1183455230519659 
2.58000000000102, -1.128988947556266 
2.5900000000010412, -1.1330922265890053 
2.6000000000010624, -1.1342957841673111 
2.6100000000010835, -1.1339062391938257 
2.6200000000011046, -1.1324208908623468 
2.6300000000011257, -1.1305435822927365 
2.6400000000011468, -1.1309011127321218 
2.650000000001168, -1.140153682520318 
2.660000000001189, -1.1658999076010514 
2.67000000000121, -1.2059162504673537 
2.680000000001231, -1.2481546977452265 
2.6900000000012523, -1.283937082516766 
2.7000000000012734, -1.3118187708251527 
2.7100000000012945, -1.3333571813091856 
2.7200000000013156, -1.350179942911596 
2.7300000000013367, -1.3632428276599644 
2.740000000001358, -1.3729636149065725 
2.750000000001379, -1.3796093514709251 
2.7600000000014, -1.3836145122733543 
2.770000000001421, -1.385605472944591 
2.780000000001442, -1.3862248873014589 
2.7900000000014633, -1.3860247211482675 
2.8000000000014844, -1.3855036282506987 
2.8100000000015055, -1.385112658247472 
2.8200000000015266, -1.385073857554047 
2.8300000000015477, -1.3852712177891648 
2.840000000001569, -1.3854991698099068 
2.85000000000159, -1.3857273986313876 
2.860000000001611, -1.3860234468950738 
2.870000000001632, -1.3863133776196288 
2.8800000000016532, -1.386333419282035 
2.8900000000016743, -1.3857573630655653 
2.9000000000016954, -1.384281586606099 
2.9100000000017165, -1.3816554377748642 
2.9200000000017377, -1.377720216265402 
2.9300000000017588, -1.3724145052454624 
2.94000000000178, -1.3656886024977832 
2.950000000001801, -1.3573655897014656 
2.960000000001822, -1.3470179115725323 
2.970000000001843, -1.3339047587448742 
2.9800000000018643, -1.3171449744058603 
2.9900000000018854, -1.2966807146375343 
3.0000000000019065, -1.275424084394348 
3.0100000000019276, -1.259645247575408 
3.0200000000019487, -1.2529475585357357 
3.03000000000197, -1.2522836248856188 
3.040000000001991, -1.2532509899021547 
3.050000000002012, -1.2537392334415223 
3.060000000002033, -1.252990025557024 
3.070000000002054, -1.250095167947699 
3.0800000000020753, -1.2424834219583338 
3.0900000000020964, -1.2223244447686095 
3.1000000000021175, -1.165630308008418 
3.1100000000021386, -1.011121733724273 
3.1200000000021597, -0.7100309415976225 
3.130000000002181, -0.41596174273897335 
3.140000000002202, -0.25780099458583683 
3.150000000002223, -0.18714353371268663 
3.160000000002244, -0.1540790967633477 
3.1700000000022652, -0.1370727583102848 
3.1800000000022863, -0.1275473624457289 
3.1900000000023074, -0.12185326851421396 
3.2000000000023285, -0.11830128290117892 
3.2100000000023496, -0.11605878453422074 
3.2200000000023707, -0.11471328586760185 
3.230000000002392, -0.11409416314669532 
3.240000000002413, -0.11421169523125359 
3.250000000002434, -0.11527390584952324 
3.260000000002455, -0.11779975348705578 
3.2700000000024763, -0.12292775037359054 
3.2800000000024974, -0.13322915673348926 
3.2900000000025185, -0.15502320865588512 
3.3000000000025396, -0.2056934689045577 
3.3100000000025607, -0.3379910439305741 
3.3200000000025818, -0.6911819230797333 
3.330000000002603, -1.295374217798368 
3.340000000002624, -1.704045762896511 
3.350000000002645, -1.8633850629068487 
3.360000000002666, -1.9242817919316484 
3.3700000000026873, -1.9493043639043972 
3.3800000000027084, -1.9597870220671627 
3.3900000000027295, -1.9639130595439027 
3.4000000000027506, -1.9651017856222872 
3.4100000000027717, -1.9648593103071619 
3.420000000002793, -1.9639476128291378 
3.430000000002814, -1.9626513722214358 
3.440000000002835, -1.9607407834355008 
3.450000000002856, -1.958248810304107 
3.460000000002877, -1.956393903852545 
3.4700000000028983, -1.9559906543738417 
3.4800000000029194, -1.9558053227414613 
3.4900000000029405, -1.9541063683320883 
3.5000000000029616, -1.9476112654628561 
3.5100000000029827, -1.9209600436723413 
3.520000000003004, -1.7619879775090053 
3.530000000003025, -0.49309430988009273 
3.540000000003046, 1.0505773603960613 
3.550000000003067, 1.1853407155266622 
3.5600000000030882, 1.2031475977662072 
3.5700000000031094, 1.2071001405578934 
3.5800000000031305, 1.2074596106008435 
3.5900000000031516, 1.2054863453972717 
3.6000000000031727, 1.1995409610338483 
3.6100000000031938, 1.1838819570283918 
3.620000000003215, 1.150300085433161 
3.630000000003236, 1.1164645605704682 
3.640000000003257, 1.1095028639305844 
3.650000000003278, 1.1131785232761802 
3.6600000000032993, 1.1161057904488372 
3.6700000000033204, 1.1171646439902125 
3.6800000000033415, 1.1165073286990235 
3.6900000000033626, 1.1132936147680634 
3.7000000000033837, 1.1033842382221892 
3.710000000003405, 1.0693190605865663 
3.720000000003426, 1.0001422335508918 
3.730000000003447, 1.3401850180451098 
3.740000000003468, 1.5221398773933301 
3.750000000003489, 1.5466305017016642 
3.7600000000035103, 1.5512770369373194 
3.7700000000035314, 1.5514827447324155 
3.7800000000035525, 1.548238159597432 
3.7900000000035736, 1.532918059517461 
3.8000000000035947, 1.4060900651988617 
3.810000000003616, 0.4715565040088704 
3.820000000003637, 0.2566820557284148 
3.830000000003658, 0.3321965032346861 
3.840000000003679, 0.36704159466935177 
3.8500000000037002, 0.3810465609595219 
3.8600000000037213, 0.3871263743490118 
3.8700000000037424, 0.38982529407185945 
3.8800000000037635, 0.3907685267335132 
3.8900000000037847, 0.39047497332367836 
3.9000000000038058, 0.38884830609369553 
3.910000000003827, 0.38506031212490155 
3.920000000003848, 0.3765585859928721 
3.930000000003869, 0.35486204771844737 
3.94000000000389, 0.2833590173463626 
3.9500000000039113, -0.06357243749830369 
3.9600000000039324, -1.4646837683605711 
3.9700000000039535, -2.2529320044299594 
3.9800000000039746, -2.3875725667266385 
3.9900000000039957, -2.419800285142521 
4.000000000004016, -2.4298668797487606 
4.010000000003993, -2.4330343018665452 
4.02000000000397, -2.4334095732554943 
4.030000000003946, -2.4322748893264747 
4.040000000003923, -2.429738791020802 
4.0500000000039, -2.424570099174579 
4.0600000000038765, -2.4158485365134448 
4.070000000003853, -2.4106541409214635 
4.08000000000383, -2.412009382219792 
4.090000000003807, -2.4127270859642302 
4.100000000003783, -2.4105276378480474 
4.11000000000376, -2.403203285343188 
4.120000000003737, -2.403059556041823 
4.130000000003713, -2.435929307034464 
4.14000000000369, -2.4582380838358135 
4.150000000003667, -2.4665560247048024 
4.1600000000036434, -2.4696788716432563 
4.17000000000362, -2.4705197059163297 
4.180000000003597, -2.4696448211207302 
4.1900000000035735, -2.4665954627338844 
4.20000000000355, -2.459393839351036 
4.210000000003527, -2.4407619138990477 
4.220000000003504, -2.3756940799416193 
4.23000000000348, -2.09794557126659 
4.240000000003457, -1.7942113807711575 
4.250000000003434, -1.8341692534146907 
4.26000000000341, -1.8645536818386088 
4.270000000003387, -1.873082671248755 
4.280000000003364, -1.874976484669165 
4.2900000000033405, -1.8743108242728987 
4.300000000003317, -1.8725266804889062 
4.310000000003294, -1.873072711388166 
4.320000000003271, -1.8798639606710563 
4.330000000003247, -1.8887001342108423 
4.340000000003224, -1.8949218240270504 
4.350000000003201, -1.898530972510486 
4.360000000003177, -1.9005199795399068 
4.370000000003154, -1.901368934447896 
4.380000000003131, -1.901159077420814 
4.390000000003107, -1.8997866895148927 
4.400000000003084, -1.8969848813226822 
4.410000000003061, -1.8921968498763415 
4.4200000000030375, -1.8841969152808011 
4.430000000003014, -1.8700428749092943 
4.440000000002991, -1.8426321694106336 
4.450000000002968, -1.7901845661292999 
4.460000000002944, -1.7262270437901577 
4.470000000002921, -1.7056644637161367 
4.480000000002898, -1.7124076408884825 
4.490000000002874, -1.7177894940443064 
4.500000000002851, -1.7194591152454404 
4.510000000002828, -1.7185873888525418 
4.520000000002804, -1.7148123275251865 
4.530000000002781, -1.7074648580033862 
4.540000000002758, -1.708624102216426 
4.5500000000027345, -1.7513130788533586 
4.560000000002711, -1.8094108651806287 
4.570000000002688, -1.8447939957292525 
4.580000000002665, -1.8627410716588322 
4.590000000002641, -1.872303999316906 
4.600000000002618, -1.8777261475795437 
4.610000000002595, -1.880766303645758 
4.620000000002571, -1.8821943386443176 
4.630000000002548, -1.8823750262247703 
4.640000000002525, -1.8814794083568707 
4.6500000000025015, -1.8795395336973164 
4.660000000002478, -1.876351718495807 
4.670000000002455, -1.8712351516027788 
4.6800000000024315, -1.8633162267199341 
4.690000000002408, -1.8540912936836544 
4.700000000002385, -1.8492105523169002 
4.710000000002362, -1.84949539176794 
4.720000000002338, -1.8503971730632123 
4.730000000002315, -1.849684300305519 
4.740000000002292, -1.8455749671553963 
4.750000000002268, -1.8311634572749695 
4.760000000002245, -1.7824549138875618 
4.770000000002222, -1.7727038945733085 
4.7800000000021985, -2.2786081173456467 
4.790000000002175, -2.516752185773932 
4.800000000002152, -2.5621089143278697 
4.810000000002129, -2.5746723015952275 
4.820000000002105, -2.579003301410764 
4.830000000002082, -2.5801176708824602 
4.840000000002059, -2.5792801903679132 
4.850000000002035, -2.5763832661778183 
4.860000000002012, -2.569367141505201 
4.870000000001989, -2.549844444401112 
4.880000000001965, -2.5060586104902076 
4.890000000001942, -2.4936568179045073 
4.900000000001919, -2.5037461813717883 
4.9100000000018955, -2.5067168747228648 
4.920000000001872, -2.506058291208735 
4.930000000001849, -2.504312395801827 
