t, s[1].omega / s[0].omega 
0, -0.5699977584762755 
0.009999999999999995, -0.569998414064554 
0.019999999999999934, -0.5703999531831411 
0.029999999999999874, -0.5710704356868421 
0.04000000000000012, -0.571808699352599 
0.050000000000000405, -0.5724035634738367 
0.06000000000000069, -0.5727100928804244 
0.07000000000000098, -0.5726912548337644 
0.08000000000000126, -0.5724171459320827 
0.09000000000000155, -0.5720673789879396 
0.10000000000000184, -0.5719903625481051 
0.11000000000000212, -0.5728665043396071 
0.12000000000000241, -0.5760342042336989 
0.130000000000002, -0.5840539862373292 
0.1400000000000009, -0.6015328211914338 
0.1499999999999998, -0.6358885026292977 
0.1599999999999987, -0.6966668370041994 
0.1699999999999976, -0.7906160376256547 
0.1799999999999965, -0.9128367707182233 
0.1899999999999954, -1.0451418646286188 
0.1999999999999943, -1.1682521924683171 
0.2099999999999932, -1.2713061759997244 
0.2199999999999921, -1.349947748219281 
0.229999999999991, -1.4033222459653865 
0.2399999999999899, -1.43469888178983 
0.2499999999999888, -1.4507537059321132 
0.2599999999999877, -1.4580756357020208 
0.2699999999999866, -1.460980262804179 
0.2799999999999855, -1.4617241567342598 
0.2899999999999844, -1.461498383625022 
0.2999999999999833, -1.461225881899272 
0.3099999999999822, -1.4617208156303119 
0.3199999999999811, -1.4631280745848279 
0.32999999999998, -1.4648379503565576 
0.3399999999999789, -1.4662993672046294 
0.3499999999999778, -1.467416901660276 
0.35999999999997667, -1.4682645440920992 
0.36999999999997557, -1.46877473772476 
0.37999999999997447, -1.4687358903324141 
0.38999999999997337, -1.467925562353893 
0.39999999999997227, -1.4661833389679026 
0.40999999999997117, -1.4634240754011827 
0.41999999999997006, -1.4596039187213654 
0.42999999999996896, -1.454636574528924 
0.43999999999996786, -1.4482877625044348 
0.44999999999996676, -1.440056574436221 
0.45999999999996566, -1.4290330955138935 
0.46999999999996456, -1.413906856403463 
0.47999999999996346, -1.3939397100799957 
0.48999999999996235, -1.3721142585824637 
0.49999999999996125, -1.3565793831701742 
0.5099999999999602, -1.3515196068605344 
0.519999999999959, -1.3520920383977355 
0.529999999999958, -1.353283660507487 
0.5399999999999568, -1.3532946935861276 
0.5499999999999557, -1.351243333157476 
0.5599999999999546, -1.344804715486057 
0.5699999999999535, -1.325511844068245 
0.5799999999999524, -1.2585644135835587 
0.5899999999999513, -0.9924804665792164 
0.5999999999999502, -0.29028466700135824 
0.6099999999999491, 0.17762005279289536 
0.619999999999948, 0.29971723425086355 
0.6299999999999469, 0.33386683910130877 
0.6399999999999458, 0.3459104029315526 
0.6499999999999447, 0.3508018434458954 
0.6599999999999436, 0.3527946002043084 
0.6699999999999425, 0.3533675974502072 
0.6799999999999414, 0.35314566875398434 
0.6899999999999403, 0.35247979528859785 
0.6999999999999392, 0.3516490349195285 
0.7099999999999381, 0.35092440874685527 
0.719999999999937, 0.35058174960878963 
0.7299999999999359, 0.35091131139664017 
0.7399999999999348, 0.3522311462403824 
0.7499999999999337, 0.35485340805430643 
0.7599999999999326, 0.3589168733630341 
0.7699999999999315, 0.36410153390318595 
0.7799999999999304, 0.36953496075682846 
0.7899999999999293, 0.37420297047642315 
0.7999999999999282, 0.3775054187069934 
0.8099999999999271, 0.37935063120130474 
0.819999999999926, 0.37984695323472756 
0.8299999999999249, 0.3789542812693599 
0.8399999999999238, 0.37614397808573374 
0.8499999999999227, 0.3697524423735047 
0.8599999999999216, 0.35524285400607647 
0.8699999999999205, 0.3210640237976787 
0.8799999999999194, 0.24699129375131315 
0.8899999999999183, 0.13866778338103383 
0.8999999999999172, 0.056040604861586754 
0.9099999999999161, 0.018431858768116125 
0.919999999999915, 0.004040957725508174 
0.9299999999999139, -0.0015642839966173907 
0.9399999999999128, -0.0037408809973402853 
0.9499999999999117, -0.004620164840346233 
0.9599999999999106, -0.004880449760177619 
0.9699999999999095, -0.004806587871419851 
0.9799999999999084, -0.004561819956727184 
0.9899999999999073, -0.0042941402674168214 
0.9999999999999062, -0.004182477643201899 
1.0099999999999052, -0.004459043509199784 
1.019999999999904, -0.005440018796456121 
1.029999999999903, -0.007614116736356096 
1.039999999999902, -0.011869665809272482 
1.0499999999999008, -0.020022522823316243 
1.0599999999998997, -0.03597614496054295 
1.0699999999998986, -0.06771340845610826 
1.0799999999998975, -0.12692426970008192 
1.0899999999998964, -0.21312291896771624 
1.0999999999998953, -0.29427938528111675 
1.1099999999998942, -0.3442599502317159 
1.119999999999893, -0.3687521753831739 
1.129999999999892, -0.3801151404037763 
1.1399999999998909, -0.38540024844750914 
1.1499999999998898, -0.3876959723069711 
1.1599999999998887, -0.3882385325916242 
1.1699999999998876, -0.3874110210833109 
1.1799999999998865, -0.3851294082118502 
1.1899999999998854, -0.38102460498536234 
1.1999999999998843, -0.3747013243301435 
1.2099999999998832, -0.36623992650676607 
1.219999999999882, -0.3566431595676862 
1.229999999999881, -0.34749687258153616 
1.2399999999998799, -0.339989912462347 
1.2499999999998788, -0.33444289293653945 
1.2599999999998777, -0.3306038125523595 
1.2699999999998766, -0.32806551062921724 
1.2799999999998755, -0.3264622496426432 
1.2899999999998744, -0.3254998832685245 
1.2999999999998733, -0.32493584352682275 
1.3099999999998722, -0.3245703824118248 
1.319999999999871, -0.3242586838367124 
1.32999999999987, -0.32392675285032685 
1.3399999999998689, -0.32358015099558257 
1.3499999999998678, -0.32331872762563807 
1.3599999999998666, -0.3233932048812399 
1.3699999999998655, -0.3243759781463094 
1.3799999999998644, -0.3276388276599064 
1.3899999999998633, -0.3367631659585212 
1.3999999999998622, -0.36221732681459906 
1.4099999999998611, -0.4392278509595663 
1.41999999999986, -0.6978175158721701 
1.429999999999859, -1.3721840810738235 
1.4399999999998578, -1.903493203720437 
1.4499999999998567, -2.0607617746040683 
1.4599999999998556, -2.1101061444458358 
1.4699999999998545, -2.1297509311618565 
1.4799999999998534, -2.1385213884424426 
1.4899999999998523, -2.142305018032283 
1.4999999999998512, -2.143436960141503 
1.5099999999998501, -2.142971751180814 
1.519999999999849, -2.1413548572256165 
1.529999999999848, -2.138401786110398 
1.5399999999998468, -2.133037250010839 
1.5499999999998457, -2.124982376027366 
1.5599999999998446, -2.1195000077963786 
1.5699999999998435, -2.1197677310728755 
1.5799999999998424, -2.120562282757974 
1.5899999999998413, -2.1189239999045535 
1.5999999999998402, -2.111062068928762 
1.6099999999998391, -2.083957709104582 
1.619999999999838, -2.0953406935029655 
1.629999999999837, -2.292026650219503 
1.6399999999998358, -2.381049746913207 
1.6499999999998347, -2.4055276909656955 
1.6599999999998336, -2.414065413294815 
1.6699999999998325, -2.417449484755517 
1.6799999999998314, -2.4183821517924176 
1.6899999999998303, -2.4175761843726105 
1.6999999999998292, -2.4148707905915563 
1.709999999999828, -2.4088454135197126 
1.719999999999827, -2.393865056602048 
1.729999999999826, -2.350674880391175 
1.7399999999998248, -2.2816672717058433 
1.7499999999998237, -2.282234113666177 
1.7599999999998226, -2.2935345125553446 
1.7699999999998215, -2.2962925109852996 
1.7799999999998204, -2.2953737667621406 
1.7899999999998193, -2.293138592507974 
1.7999999999998182, -2.296176895058474 
1.809999999999817, -2.3047175686422356 
1.819999999999816, -2.3104330574430265 
1.8299999999998149, -2.312970500456818 
1.8399999999998138, -2.313899452499891 
1.8499999999998127, -2.3135409214859863 
1.8599999999998116, -2.3112497726757555 
1.8699999999998105, -2.3051806496891842 
1.8799999999998094, -2.290228596049332 
1.8899999999998083, -2.2493600805904492 
1.8999999999998072, -2.1031520767420315 
1.909999999999806, -1.4098233286712565 
1.919999999999805, -0.2182351112986788 
1.9299999999998039, 0.1442221649502657 
1.9399999999998028, 0.22836535656553605 
1.9499999999998017, 0.2549440202163955 
1.9599999999998006, 0.26541667882721354 
1.9699999999997995, 0.26999762518423226 
1.9799999999997984, 0.2718765404890119 
1.9899999999997973, 0.2721470939912237 
1.9999999999997962, 0.27103755947458147 
2.0099999999998173, 0.2681282908820172 
2.0199999999998384, 0.26193797300997035 
2.0299999999998595, 0.24812134139136913 
2.0399999999998806, 0.21194692574476975 
2.0499999999999017, 0.0881855826331522 
2.059999999999923, -0.4800260226644208 
2.069999999999944, -1.7761976172237244 
2.079999999999965, -2.2189228478041527 
2.089999999999986, -2.308874796921299 
2.100000000000007, -2.335555599360086 
2.1100000000000283, -2.3453563395829757 
2.1200000000000494, -2.3489382092160334 
2.1300000000000705, -2.349661116881122 
2.1400000000000916, -2.348738365850115 
2.1500000000001127, -2.3464065151131708 
2.160000000000134, -2.3416562138995527 
2.170000000000155, -2.3322924498466358 
2.180000000000176, -2.322030921903185 
2.190000000000197, -2.3212111964202577 
2.2000000000002182, -2.3231493766257327 
2.2100000000002393, -2.3225446874004665 
2.2200000000002604, -2.3174255772262695 
2.2300000000002815, -2.3068527785821327 
2.2400000000003026, -2.329648334055149 
2.2500000000003237, -2.374510746954 
2.260000000000345, -2.393915101930519 
2.270000000000366, -2.4009689170010984 
2.280000000000387, -2.4037102253671603 
2.290000000000408, -2.404350539218666 
2.3000000000004293, -2.4033005898386777 
2.3100000000004504, -2.4001358869296747 
2.3200000000004715, -2.393126347761563 
2.3300000000004926, -2.376088196349129 
2.3400000000005137, -2.3211880227017367 
2.3500000000005348, -2.1089824848889007 
2.360000000000556, -1.8732090688401772 
2.370000000000577, -1.9047159801202422 
2.380000000000598, -1.9287322633443797 
2.390000000000619, -1.9351614789538556 
2.4000000000006403, -1.936083303194631 
2.4100000000006614, -1.9345701493988432 
2.4200000000006825, -1.9327824801814266 
2.4300000000007036, -1.9368558110821827 
2.4400000000007247, -1.9474025933297685 
2.450000000000746, -1.9562760363273592 
2.460000000000767, -1.9613505220518295 
2.470000000000788, -1.9640382115798445 
2.480000000000809, -1.965315957957999 
2.49000000000083, -1.96544013493851 
2.5000000000008513, -1.9643344851884863 
2.5100000000008724, -1.961723868940311 
2.5200000000008935, -1.9570277250044885 
2.5300000000009146, -1.9489544656583924 
2.5400000000009357, -1.9342432593408496 
2.550000000000957, -1.9037937354248953 
2.560000000000978, -1.8343879654924247 
2.570000000000999, -1.7159376777783066 
2.58000000000102, -1.6556257294680539 
2.5900000000010412, -1.6635319183361932 
2.6000000000010624, -1.6732143985863774 
2.6100000000010835, -1.676768513049249 
2.6200000000011046, -1.6768842956685013 
2.6300000000011257, -1.6741268306771553 
2.6400000000011468, -1.6675472232149169 
2.650000000001168, -1.6630520580903312 
2.660000000001189, -1.6942134289139879 
2.67000000000121, -1.7594309690673664 
2.680000000001231, -1.8057997381563193 
2.6900000000012523, -1.8294978463224367 
2.7000000000012734, -1.8418458091162662 
2.7100000000012945, -1.8488442403499032 
2.7200000000013156, -1.8529596677188511 
2.7300000000013367, -1.8552242245833253 
2.740000000001358, -1.8561066723868098 
2.750000000001379, -1.8558352462099292 
2.7600000000014, -1.854514353119809 
2.770000000001421, -1.8521133104169045 
2.780000000001442, -1.8482650496515742 
2.7900000000014633, -1.8420400770771939 
2.8000000000014844, -1.8328383947179625 
2.8100000000015055, -1.8239031498884437 
2.8200000000015266, -1.8209110718058383 
2.8300000000015477, -1.8218304618479841 
2.840000000001569, -1.8222601488315853 
2.85000000000159, -1.8203382138744064 
2.860000000001611, -1.8124669525310408 
2.870000000001632, -1.7816698698935618 
2.8800000000016532, -1.6604101264221103 
2.8900000000016743, -1.8538038449337488 
2.9000000000016954, -3.04604122437253 
2.9100000000017165, -3.1617070955630786 
2.9200000000017377, -3.1764487082726114 
2.9300000000017588, -3.179699781501139 
2.94000000000178, -3.1794903337528146 
2.950000000001801, -3.1762862902549367 
2.960000000001822, -3.1649065903898483 
2.970000000001843, -3.095581929270357 
2.9800000000018643, -2.637093981515894 
2.9900000000018854, -2.7094367250763662 
3.0000000000019065, -2.7472225475776577 
3.0100000000019276, -2.7520102879061277 
3.0200000000019487, -2.7519285455608395 
3.03000000000197, -2.751650217871957 
3.040000000001991, -2.752544369272282 
3.050000000002012, -2.7527248412287517 
3.060000000002033, -2.752271684416034 
3.070000000002054, -2.7518784693951437 
3.0800000000020753, -2.7496661139304654 
3.0900000000020964, -2.737010214657677 
3.1000000000021175, -2.602415938301246 
3.1100000000021386, 0.6785572415317087 
3.1200000000021597, 2.2225135929671773 
3.130000000002181, 2.2512193579718347 
3.140000000002202, 2.2538941784588826 
3.150000000002223, 2.251821850157999 
3.160000000002244, 2.234912486221886 
3.1700000000022652, 1.6613032784023911 
3.1800000000022863, -2.6529876139049766 
3.1900000000023074, -2.8716713152708793 
3.2000000000023285, -2.8863921450166408 
3.2100000000023496, -2.8880432672272716 
3.2200000000023707, -2.8875894450760615 
3.230000000002392, -2.8869434872851154 
3.240000000002413, -2.885305171532605 
3.250000000002434, -2.883094030723983 
3.260000000002455, -2.882753474304202 
3.2700000000024763, -2.8817796118067576 
3.2800000000024974, -2.874099924618346 
3.2900000000025185, -2.83420408666332 
3.3000000000025396, -2.9243745897203994 
3.3100000000025607, -3.019347791830476 
3.3200000000025818, -3.0361216921038015 
3.330000000002603, -3.0400454439766076 
3.340000000002624, -3.0404505047383092 
3.350000000002645, -3.0382509247967597 
3.360000000002666, -3.0308513505087786 
3.3700000000026873, -3.0011114668037395 
3.3800000000027084, -2.723522228292866 
3.3900000000027295, -0.501162380902851 
3.4000000000027506, 0.31897787119981297 
3.4100000000027717, 0.449784184025183 
3.420000000002793, 0.48216960449238566 
3.430000000002814, 0.4931421165147096 
3.440000000002835, 0.49742055870638274 
3.450000000002856, 0.4988797535670761 
3.460000000002877, 0.498637446733318 
3.4700000000028983, 0.49669189411779724 
3.4800000000029194, 0.4919245838445459 
3.4900000000029405, 0.48048860064039245 
3.5000000000029616, 0.4479851944381069 
3.5100000000029827, 0.3217964762829891 
3.520000000003004, -0.42013260622415516 
3.530000000003025, -2.9022602989101327 
3.540000000003046, -3.208549025819829 
3.550000000003067, -3.2336496963397763 
3.5600000000030882, -3.2386348437073402 
3.5700000000031094, -3.2390789171271095 
3.5800000000031305, -3.23666070525955 
3.5900000000031516, -3.2278982455824248 
3.6000000000031727, -3.1787902375268633 
3.6100000000031938, -2.8567159046666895 
3.620000000003215, -2.9072270180302855 
3.630000000003236, -2.9366099856956294 
3.640000000003257, -2.939901338450732 
3.650000000003278, -2.9394877148993803 
3.6600000000032993, -2.9395413928226346 
3.6700000000033204, -2.94005503827347 
3.6800000000033415, -2.939501081032412 
3.6900000000033626, -2.9390078361627174 
3.7000000000033837, -2.9380322384432307 
3.710000000003405, -2.931600639953854 
3.720000000003426, -2.8728259193082826 
3.730000000003447, -2.2832719165184967 
3.740000000003468, -4.185513176145582 
3.750000000003489, -4.247251233811505 
3.7600000000035103, -4.251361480304157 
3.7700000000035314, -4.249977803516787 
3.7800000000035525, -4.239201909263466 
3.7900000000035736, -3.977293677670793 
3.8000000000035947, 2.0508881964284105 
3.810000000003616, 2.1828086898922656 
3.820000000003637, 2.1901695458939194 
3.830000000003658, 2.1909494505508222 
3.840000000003679, 2.19030392145333 
3.8500000000037002, 2.18825561108858 
3.8600000000037213, 2.1841730226332845 
3.8700000000037424, 2.180362087319602 
3.8800000000037635, 2.179882155963239 
3.8900000000037847, 2.1801066258414004 
3.9000000000038058, 2.178030042631545 
3.910000000003827, 2.166276217036695 
3.920000000003848, 2.126732730620053 
3.930000000003869, 2.2458558858231132 
3.94000000000389, 2.2894976014065613 
3.9500000000039113, 2.2953830829761523 
3.9600000000039324, 2.295338770412682 
3.9700000000039535, 2.289793804536741 
3.9800000000039746, 2.215534553794453 
3.9900000000039957, -3.8474436512064307 
4.000000000004016, -4.308859963145045 
4.010000000003993, -4.31855233222939 
4.02000000000397, -4.318119830901382 
4.030000000003946, -4.3126692582333686 
4.040000000003923, -4.271247967489268 
4.0500000000039, -4.271595228814901 
4.0600000000038765, -4.278825234757704 
4.070000000003853, -4.27824377091502 
4.08000000000383, -4.2780790974364695 
4.090000000003807, -4.276555329628077 
4.100000000003783, -4.27587071891517 
4.11000000000376, -4.272625751407361 
4.120000000003737, -4.258931186603286 
4.130000000003713, -4.29033780637725 
4.14000000000369, -4.296724454149613 
4.150000000003667, -4.296631508711416 
4.1600000000036434, -4.290556127613468 
4.17000000000362, -4.154428173270166 
4.180000000003597, 2.2080603151559037 
4.1900000000035735, 2.374603033489737 
4.20000000000355, 2.3816698132572847 
4.210000000003527, 2.3813472999143377 
4.220000000003504, 2.3746136010747354 
4.23000000000348, 2.3087453930681203 
4.240000000003457, 1.9863598289315878 
4.250000000003434, 2.099858852478274 
4.26000000000341, 2.1167046351586123 
4.270000000003387, 2.1188820930191907 
4.280000000003364, 2.118529048840699 
4.2900000000033405, 2.1184271537201638 
4.300000000003317, 2.1200434924726124 
4.310000000003294, 2.121901759017933 
4.320000000003271, 2.1226206358198647 
4.330000000003247, 2.1224909213048138 
4.340000000003224, 2.1215147406259955 
4.350000000003201, 2.1169713961007317 
4.360000000003177, 2.0761193184866302 
4.370000000003154, -1.4110915059994416 
4.380000000003131, -4.320697703011205 
4.390000000003107, -4.3450318027494035 
4.400000000003084, -4.34671975153024 
4.410000000003061, -4.343531877884877 
4.4200000000030375, -4.316732163824004 
4.430000000003014, -1.7561922195824367 
4.440000000002991, 1.66766755885125 
4.450000000002968, 1.7510291197644776 
4.460000000002944, 1.75946109465891 
4.470000000002921, 1.7607911808764434 
4.480000000002898, 1.7607411038915426 
4.490000000002874, 1.7607325775180307 
4.500000000002851, 1.7611420828278141 
4.510000000002828, 1.7615252864284359 
4.520000000002804, 1.761513801703574 
4.530000000002781, 1.7612599036296683 
4.540000000002758, 1.7607952528429158 
4.5500000000027345, 1.7593208145237704 
4.560000000002711, 1.7530489845301571 
4.570000000002688, 1.7047367789496903 
4.580000000002665, -0.6717850821864463 
4.590000000002641, -3.8315696943481563 
4.600000000002618, -3.877828325869436 
4.610000000002595, -3.8826232818855715 
4.620000000002571, -3.8820204106709943 
4.630000000002548, -3.8762886457349723 
4.640000000002525, -3.8300402161036566 
4.6500000000025015, -2.912803885258369 
4.660000000002478, -3.186202814783984 
4.670000000002455, -3.223381163031064 
4.6800000000024315, -3.2264230437845542 
4.690000000002408, -3.226027642881133 
4.700000000002385, -3.2256222029438284 
4.710000000002362, -3.2242834764268715 
4.720000000002338, -3.2225389465579752 
4.730000000002315, -3.222312087233918 
4.740000000002292, -3.219704506276977 
4.750000000002268, -3.2014170097449806 
4.760000000002245, -3.209603350101633 
4.770000000002222, -3.2937186585508806 
4.7800000000021985, -3.309177676325131 
4.790000000002175, -3.3121199720629853 
4.800000000002152, -3.3117468773274377 
4.810000000002129, -3.3077066578045433 
4.820000000002105, -3.2904792837057295 
4.830000000002082, -3.140751369091447 
4.840000000002059, 0.2885712678371991 
4.850000000002035, 1.2814939483656977 
4.860000000002012, 1.327095824849185 
4.870000000001989, 1.334521663101174 
4.880000000001965, 1.3361922461892828 
4.890000000001942, 1.336382833005917 
4.900000000001919, 1.336225377716637 
4.9100000000018955, 1.3362060452072377 
4.920000000001872, 1.3364610488374646 
4.930000000001849, 1.3368377518576346 
4.940000000001826, 1.3371323211756607 
4.950000000001802, 1.3372554724165595 
4.960000000001779, 1.3371252829019278 
