t, s[1].omega / s[0].omega 
0, -1.0799956115189735 
0.009999999999999995, -1.0794807150826287 
0.019999999999999934, -1.0787965687710337 
0.029999999999999874, -1.0778981006104744 
0.04000000000000012, -1.0767518425437916 
0.050000000000000405, -1.0753736774380642 
0.06000000000000069, -1.0738398980893928 
0.07000000000000098, -1.0722619465205738 
0.08000000000000126, -1.0707404964817366 
0.09000000000000155, -1.0693427201857393 
0.10000000000000184, -1.068132278759792 
0.11000000000000212, -1.067209401256898 
0.12000000000000241, -1.0666810654239014 
0.130000000000002, -1.0665594854874212 
0.1400000000000009, -1.0666989150237152 
0.1499999999999998, -1.0668479777534439 
0.1599999999999987, -1.066753326435316 
0.1699999999999976, -1.066228154865581 
0.1799999999999965, -1.0651832150119942 
0.1899999999999954, -1.0636401913370004 
0.1999999999999943, -1.0617110413497897 
0.2099999999999932, -1.0595342392837857 
0.2199999999999921, -1.0572078317821927 
0.229999999999991, -1.054764441592464 
0.2399999999999899, -1.0521915094164285 
0.2499999999999888, -1.049470393669861 
0.2599999999999877, -1.0466058072551871 
0.2699999999999866, -1.0436319286645703 
0.2799999999999855, -1.0406079332405658 
0.2899999999999844, -1.0376333971102822 
0.2999999999999833, -1.0348880389074926 
0.3099999999999822, -1.032635849801237 
0.3199999999999811, -1.0311170110126149 
0.32999999999998, -1.030370459049527 
0.3399999999999789, -1.0301679845552605 
0.3499999999999778, -1.030134472009885 
0.35999999999997667, -1.0299057627945412 
0.36999999999997557, -1.0291953578870217 
0.37999999999997447, -1.02780438434784 
0.38999999999997337, -1.025650199959795 
0.39999999999997227, -1.022806514818647 
0.40999999999997117, -1.0194803369492802 
0.41999999999997006, -1.0159073656063542 
0.42999999999996896, -1.0122498026999567 
0.43999999999996786, -1.0085681093275651 
0.44999999999996676, -1.0048547967481853 
0.45999999999996566, -1.0010843302013948 
0.46999999999996456, -0.9972486662169489 
0.47999999999996346, -0.9933740727033626 
0.48999999999996235, -0.9895364316016323 
0.49999999999996125, -0.9858905210585533 
0.5099999999999602, -0.9826893765781216 
0.519999999999959, -0.9802278842123535 
0.529999999999958, -0.9786861367659577 
0.5399999999999568, -0.977985462274933 
0.5499999999999557, -0.9778098122821854 
0.5599999999999546, -0.9777637547984845 
0.5699999999999535, -0.97750336252019 
0.5799999999999524, -0.9767741168142543 
0.5899999999999513, -0.9754161248222017 
0.5999999999999502, -0.9733925685444573 
0.6099999999999491, -0.9708152818981379 
0.619999999999948, -0.9679018922862598 
0.6299999999999469, -0.96487024617319 
0.6399999999999458, -0.961854205916684 
0.6499999999999447, -0.9588915265752262 
0.6599999999999436, -0.9559628172798936 
0.6699999999999425, -0.9530411188490986 
0.6799999999999414, -0.9501256720940328 
0.6899999999999403, -0.9472509282822059 
0.6999999999999392, -0.9444798599757871 
0.7099999999999381, -0.9419011571944431 
0.719999999999937, -0.9396370606143327 
0.7299999999999359, -0.9378378415497648 
0.7399999999999348, -0.9366302325213676 
0.7499999999999337, -0.9360334083213002 
0.7599999999999326, -0.9359146253052891 
0.7699999999999315, -0.9360332707851118 
0.7799999999999304, -0.9361322317843733 
0.7899999999999293, -0.9360079180509377 
0.7999999999999282, -0.9355434536027122 
0.8099999999999271, -0.9347230200630878 
0.819999999999926, -0.933625309509979 
0.8299999999999249, -0.9323802567859699 
0.8399999999999238, -0.9311035381964391 
0.8499999999999227, -0.9298497997796963 
0.8599999999999216, -0.9286071744686024 
0.8699999999999205, -0.9273261178732403 
0.8799999999999194, -0.9259636897915821 
0.8899999999999183, -0.9245217016607539 
0.8999999999999172, -0.9230608397704673 
0.9099999999999161, -0.9216848951377908 
0.919999999999915, -0.9205040752772483 
0.9299999999999139, -0.9196000526211154 
0.9399999999999128, -0.91901607364601 
0.9499999999999117, -0.9187708782409543 
0.9599999999999106, -0.918868635294831 
0.9699999999999095, -0.9192856321788774 
0.9799999999999084, -0.91994987330969 
0.9899999999999073, -0.9207451697205699 
0.9999999999999062, -0.9215465884433138 
1.0099999999999052, -0.9222642585257297 
1.019999999999904, -0.9228701236263331 
1.029999999999903, -0.9233955041459705 
1.039999999999902, -0.9239002245085854 
1.0499999999999008, -0.9244272865327037 
1.0599999999998997, -0.9249647831651098 
1.0699999999998986, -0.9254342858984236 
1.0799999999998975, -0.9257172547244291 
1.0899999999998964, -0.9257121914660399 
1.0999999999998953, -0.925389816611349 
1.1099999999998942, -0.9248170890864819 
1.119999999999893, -0.9241522029581957 
1.129999999999892, -0.9236203918364565 
1.1399999999998909, -0.9234613164488449 
1.1499999999998898, -0.9238479238019771 
1.1599999999998887, -0.9248234045725638 
1.1699999999998876, -0.9263102148272188 
1.1799999999998865, -0.928177453232025 
1.1899999999998854, -0.9303018881750745 
1.1999999999998843, -0.9325877860625894 
1.2099999999998832, -0.9349631669814815 
1.219999999999882, -0.9373807042721192 
1.229999999999881, -0.9398269170173801 
1.2399999999998799, -0.9423227720162423 
1.2499999999998788, -0.944900914267202 
1.2599999999998777, -0.9475600131766594 
1.2699999999998766, -0.9502133546367773 
1.2799999999998755, -0.9526673209429815 
1.2899999999998744, -0.9546714385979804 
1.2999999999998733, -0.956031270182406 
1.3099999999998722, -0.9566976591485374 
1.319999999999871, -0.95676918130825 
1.32999999999987, -0.956451310052741 
1.3399999999998689, -0.9560415447080963 
1.3499999999998678, -0.9559336403081111 
1.3599999999998666, -0.9565614243318181 
1.3699999999998655, -0.9582357231963836 
1.3799999999998644, -0.9609824189900404 
1.3899999999998633, -0.9645549903595466 
1.3999999999998622, -0.9686105015694464 
1.4099999999998611, -0.9728730389769824 
1.41999999999986, -0.97718552507564 
1.429999999999859, -0.9814868822706865 
1.4399999999998578, -0.9857771814644307 
1.4499999999998567, -0.9900892001698647 
1.4599999999998556, -0.9944517691634666 
1.4699999999998545, -0.9988325554081221 
1.4799999999998534, -1.0030752101207985 
1.4899999999998523, -1.0068853902408734 
1.4999999999998512, -1.009926399889619 
1.5099999999998501, -1.0119871402557918 
1.519999999999849, -1.0130750924414753 
1.529999999999848, -1.0133707499698776 
1.5399999999998468, -1.0131460320102819 
1.5499999999998457, -1.0127482782616188 
1.5599999999998446, -1.0126274548689511 
1.5699999999998435, -1.0132850258987995 
1.5799999999998424, -1.0150662602370848 
1.5899999999998413, -1.0179503970839625 
1.5999999999998402, -1.0215928689701275 
1.6099999999998391, -1.0255769463236821 
1.619999999999838, -1.0296074697643953 
1.629999999999837, -1.0335395038718853 
1.6399999999998358, -1.0373255667664991 
1.6499999999998347, -1.0409688512267645 
1.6599999999998336, -1.0444966910611853 
1.6699999999998325, -1.0479309603748734 
1.6799999999998314, -1.0512432207334863 
1.6899999999998303, -1.054312591917467 
1.6999999999998292, -1.0569294614740392 
1.709999999999828, -1.0588756927647223 
1.719999999999827, -1.0600377609270855 
1.729999999999826, -1.06045910218073 
1.7399999999998248, -1.0603124298174202 
1.7499999999998237, -1.059861438583817 
1.7599999999998226, -1.0594460235387069 
1.7699999999998215, -1.0594319039180071 
1.7799999999998204, -1.0600707349160041 
1.7899999999998193, -1.0613691226562945 
1.7999999999998182, -1.0631276787450485 
1.809999999999817, -1.0651087552911824 
1.819999999999816, -1.0671490155629666 
1.8299999999998149, -1.0691550425635294 
1.8399999999998138, -1.071058781248472 
1.8499999999998127, -1.0728040736236064 
1.8599999999998116, -1.0743626840301213 
1.8699999999998105, -1.0757426100121745 
1.8799999999998094, -1.0769687546786761 
1.8899999999998083, -1.0780456880920621 
1.8999999999998072, -1.0789281178504928 
1.909999999999806, -1.079524008883741 
1.919999999999805, -1.0797374077305046 
1.9299999999998039, -1.0795266963009784 
1.9399999999998028, -1.0789409371352687 
1.9499999999998017, -1.0781211629909941 
1.9599999999998006, -1.0772705560477036 
1.9699999999997995, -1.076588488850225 
1.9799999999997984, -1.0761887072344973 
1.9899999999997973, -1.0760738544046642 
1.9999999999997962, -1.0761968853729433 
2.0099999999998173, -1.076529605887799 
2.0199999999998384, -1.0770552192859453 
2.0299999999998595, -1.0777098938039358 
2.0399999999998806, -1.078361081634076 
2.0499999999999017, -1.0788522522035588 
2.059999999999923, -1.0790658635222687 
2.069999999999944, -1.0789591287522873 
2.079999999999965, -1.0785620863588004 
2.089999999999986, -1.0779428890772444 
2.100000000000007, -1.0771592333863547 
2.1100000000000283, -1.0762256747440428 
2.1200000000000494, -1.0751152923978045 
2.1300000000000705, -1.0737913927639808 
2.1400000000000916, -1.0722477121549536 
2.1500000000001127, -1.070530815398633 
2.160000000000134, -1.0687288669054078 
2.170000000000155, -1.0669352401176075 
2.180000000000176, -1.065224550128379 
2.190000000000197, -1.0636749616980206 
2.2000000000002182, -1.0624082908671737 
2.2100000000002393, -1.0615677893978872 
2.2200000000002604, -1.0612103548582748 
2.2300000000002815, -1.0612169837854775 
2.2400000000003026, -1.061328670072157 
2.2500000000003237, -1.0612600996619928 
2.260000000000345, -1.060782229514102 
2.270000000000366, -1.0597574029901056 
2.280000000000387, -1.0581614976701654 
2.290000000000408, -1.0560851410610619 
2.3000000000004293, -1.053683546687874 
2.3100000000004504, -1.0510960704157464 
2.3200000000004715, -1.0483948246547936 
2.3300000000004926, -1.0455875660478795 
2.3400000000005137, -1.0426541314188722 
2.3500000000005348, -1.039583946017964 
2.360000000000556, -1.036393879538555 
2.370000000000577, -1.0331296579268312 
2.380000000000598, -1.0298769125356744 
2.390000000000619, -1.0267978455448443 
2.4000000000006403, -1.024153027318269 
2.4100000000006614, -1.0222253868149072 
2.4200000000006825, -1.021141156406371 
2.4300000000007036, -1.0207468234199921 
2.4400000000007247, -1.0206829568570819 
2.450000000000746, -1.0205579034355328 
2.460000000000767, -1.0200496080459498 
2.470000000000788, -1.0189216954271907 
2.480000000000809, -1.0170382425030975 
2.49000000000083, -1.0144087114539933 
2.5000000000008513, -1.0112008333415674 
2.5100000000008724, -1.0076620374650789 
2.5200000000008935, -1.0040001972871022 
2.5300000000009146, -1.0003201048717147 
2.5400000000009357, -0.996637364491144 
2.550000000000957, -0.9929280109151645 
2.560000000000978, -0.9891732422209618 
2.570000000000999, -0.9853833321114672 
2.58000000000102, -0.9816089745353196 
2.5900000000010412, -0.9779599996341242 
2.6000000000010624, -0.9746313333224144 
2.6100000000010835, -0.9718909383005363 
2.6200000000011046, -0.9699763443953466 
2.6300000000011257, -0.9689379066665115 
2.6400000000011468, -0.9685733553422731 
2.650000000001168, -0.9685253675327367 
2.660000000001189, -0.9684322344777477 
2.67000000000121, -0.9680082716674392 
2.680000000001231, -0.967059596260607 
2.6900000000012523, -0.9654995575584016 
2.7000000000012734, -0.9633765321732828 
2.7100000000012945, -0.9608619150146046 
2.7200000000013156, -0.958168839378921 
2.7300000000013367, -0.9554570793113534 
2.740000000001358, -0.9527931738868978 
2.750000000001379, -0.9501712476964149 
2.7600000000014, -0.9475601570226019 
2.770000000001421, -0.9449457474976555 
2.780000000001442, -0.9423507100397057 
2.7900000000014633, -0.9398302155092615 
2.8000000000014844, -0.9374583773354301 
2.8100000000015055, -0.9353249124122962 
2.8200000000015266, -0.9335412437999123 
2.8300000000015477, -0.9322277577757635 
2.840000000001569, -0.9314600866941669 
2.85000000000159, -0.9312032751064276 
2.860000000001611, -0.9312975354130156 
2.870000000001632, -0.9315150952766873 
2.8800000000016532, -0.931639321503609 
2.8900000000016743, -0.9315186630113755 
2.9000000000016954, -0.9310918383127355 
2.9100000000017165, -0.9303914371144426 
2.9200000000017377, -0.9295175454266283 
2.9300000000017588, -0.9285824692703917 
2.94000000000178, -0.9276562751742485 
2.950000000001801, -0.9267434853000834 
2.960000000001822, -0.9257968042150783 
2.970000000001843, -0.924756358888916 
2.9800000000018643, -0.9235948422919243 
2.9900000000018854, -0.9223467006656009 
3.0000000000019065, -0.9211082895416345 
3.0100000000019276, -0.9200091063240633 
3.0200000000019487, -0.9191666992682069 
3.03000000000197, -0.918651275095575 
3.040000000001991, -0.9184829276404496 
3.050000000002012, -0.9186533869965284 
3.060000000002033, -0.9191400333254937 
3.070000000002054, -0.9198967479512472 
3.0800000000020753, -0.9208413137700351 
3.0900000000020964, -0.9218662178596906 
3.1000000000021175, -0.9228731310674159 
3.1100000000021386, -0.9238079025275141 
3.1200000000021597, -0.924674061735019 
3.130000000002181, -0.9255165929053755 
3.140000000002202, -0.9263827227447481 
3.150000000002223, -0.9272778526570675 
3.160000000002244, -0.9281380408098281 
3.1700000000022652, -0.928838377705986 
3.1800000000022863, -0.9292437477906302 
3.1900000000023074, -0.9292762959381893 
3.2000000000023285, -0.9289567977546593 
3.2100000000023496, -0.9284084026604905 
3.2200000000023707, -0.9278423253096412 
3.230000000002392, -0.9275275199078281 
3.240000000002413, -0.9277222103851243 
3.250000000002434, -0.9285775651530234 
3.260000000002455, -0.9300834760106007 
3.2700000000024763, -0.932107336256677 
3.2800000000024974, -0.9344833070639107 
3.2900000000025185, -0.937074727392261 
3.3000000000025396, -0.9397872239301878 
3.3100000000025607, -0.9425615306979125 
3.3200000000025818, -0.945372116100111 
3.330000000002603, -0.9482287935325248 
3.340000000002624, -0.9511636468462219 
3.350000000002645, -0.9541933023840732 
3.360000000002666, -0.9572639827595889 
3.3700000000026873, -0.9602083179912226 
3.3800000000027084, -0.9627632900233968 
3.3900000000027295, -0.96467428603971 
3.4000000000027506, -0.9658184521316457 
3.4100000000027717, -0.9662441047576857 
3.420000000002793, -0.9661275855482703 
3.430000000002814, -0.9657352502991324 
3.440000000002835, -0.9654303525976177 
3.450000000002856, -0.9656657642194322 
3.460000000002877, -0.9668679745000265 
3.4700000000028983, -0.9692317371995725 
3.4800000000029194, -0.9726167249842703 
3.4900000000029405, -0.9766699941958249 
3.5000000000029616, -0.9810397897755884 
3.5100000000029827, -0.9854955487184485 
3.520000000003004, -0.9899304637190818 
3.530000000003025, -0.9943204398020106 
3.540000000003046, -0.9986880563969169 
3.550000000003067, -1.0030694975161951 
3.5600000000030882, -1.0074663667925163 
3.5700000000031094, -1.0117823574370823 
3.5800000000031305, -1.0157818449767855 
3.5900000000031516, -1.019136281791344 
3.6000000000031727, -1.02157322531881 
3.6100000000031938, -1.0230142962705124 
3.620000000003215, -1.0235815647352429 
3.630000000003236, -1.0235164930010192 
3.640000000003257, -1.0231337225415824 
3.650000000003278, -1.0228384809730433 
3.6600000000032993, -1.0231142023473978 
3.6700000000033204, -1.0243675564630066 
3.6800000000033415, -1.0266989384454797 
3.6900000000033626, -1.0298556805452974 
3.7000000000033837, -1.0334385130500794 
3.710000000003405, -1.0371259939897368 
3.720000000003426, -1.040742912013962 
3.730000000003447, -1.0442189483233455 
3.740000000003468, -1.0475387515154473 
3.750000000003489, -1.0507173340866625 
3.7600000000035103, -1.0537805689364288 
3.7700000000035314, -1.0567302776783913 
3.7800000000035525, -1.0595004982628202 
3.7900000000035736, -1.061937606932164 
3.8000000000035947, -1.0638419502488012 
3.810000000003616, -1.0650642254448441 
3.820000000003637, -1.0655841084412163 
3.830000000003658, -1.065516561947494 
3.840000000003679, -1.0650795677936808 
3.8500000000037002, -1.0645713441723166 
3.8600000000037213, -1.0643299308296839 
3.8700000000037424, -1.0646200264022534 
3.8800000000037635, -1.0655033780155823 
3.8900000000037847, -1.0668404484997158 
3.9000000000038058, -1.06842859015991 
3.910000000003827, -1.0701178080249167 
3.920000000003848, -1.0718178447695363 
3.930000000003869, -1.0734544205326468 
3.94000000000389, -1.074953320379876 
3.9500000000039113, -1.076261926617619 
3.9600000000039324, -1.077370002727401 
3.9700000000039535, -1.0783018134167655 
3.9800000000039746, -1.07908245833347 
3.9900000000039957, -1.0797012045697532 
4.000000000004016, -1.0800978367396605 
4.010000000003993, -1.080186449461366 
4.02000000000397, -1.0799064805659442 
4.030000000003946, -1.07926896351958 
4.040000000003923, -1.0783728371542116 
4.0500000000039, -1.0773865277607408 
4.0600000000038765, -1.0764935403693652 
4.070000000003853, -1.0758182295253431 
4.08000000000383, -1.0753917413160272 
4.090000000003807, -1.0751967646722735 
4.100000000003783, -1.0752310734601687 
4.11000000000376, -1.075503327032324 
4.120000000003737, -1.0759688382121217 
4.130000000003713, -1.0764950429768496 
4.14000000000369, -1.0769031666097202 
4.150000000003667, -1.0770401196427122 
4.1600000000036434, -1.076826521930846 
4.17000000000362, -1.0762683231930286 
4.180000000003597, -1.0754334384376711 
4.1900000000035735, -1.0744025867328455 
4.20000000000355, -1.0732228745139578 
4.210000000003527, -1.0718923949414962 
4.220000000003504, -1.0703805072518162 
4.23000000000348, -1.0686666651928907 
4.240000000003457, -1.066771519334569 
4.250000000003434, -1.0647594566451735 
4.26000000000341, -1.0627129453537176 
4.270000000003387, -1.0607088227314159 
4.280000000003364, -1.0588331920027356 
4.2900000000033405, -1.0572216039570423 
4.300000000003317, -1.0560489688300814 
4.310000000003294, -1.0554230891627536 
4.320000000003271, -1.0552675166985557 
4.330000000003247, -1.0553293496872198 
4.340000000003224, -1.0552973014052824 
4.350000000003201, -1.0549030559879664 
4.360000000003177, -1.053962307463816 
4.370000000003154, -1.0523988004503546 
4.380000000003131, -1.050263814957725 
4.390000000003107, -1.0477102457663603 
4.400000000003084, -1.0449117086623878 
4.410000000003061, -1.0419853411780986 
4.4200000000030375, -1.038970066719822 
4.430000000003014, -1.0358542194709304 
4.440000000002991, -1.0326178372680501 
4.450000000002968, -1.029261631007531 
4.460000000002944, -1.025816183810419 
4.470000000002921, -1.022350168985208 
4.480000000002898, -1.0190006078410414 
4.490000000002874, -1.0160064683158787 
4.500000000002851, -1.0136701091844569 
4.510000000002828, -1.0121997560825613 
4.520000000002804, -1.0115416684013154 
4.530000000002781, -1.0113844932186828 
4.540000000002758, -1.0113237486903368 
4.5500000000027345, -1.0110029244433731 
4.560000000002711, -1.0101518442111277 
4.570000000002688, -1.0085909297883324 
4.580000000002665, -1.0062666087165273 
4.590000000002641, -1.0032882646847228 
4.600000000002618, -0.9998880280596 
4.610000000002595, -0.9963051025233636 
4.620000000002571, -0.9926904991633974 
4.630000000002548, -0.9890920198465132 
4.640000000002525, -0.9854954637084216 
4.6500000000025015, -0.9818754303737822 
4.660000000002478, -0.9782285847266878 
4.670000000002455, -0.9745866749993549 
4.6800000000024315, -0.9710257075275044 
4.690000000002408, -0.9676860931612319 
4.700000000002385, -0.964785052484333 
4.710000000002362, -0.9625684855164944 
4.720000000002338, -0.9611833236329714 
4.730000000002315, -0.9605589849651899 
4.740000000002292, -0.9604198906093678 
4.750000000002268, -0.9604138858974538 
4.760000000002245, -0.9602291101450486 
4.770000000002222, -0.9596386546070825 
4.7800000000021985, -0.9585135740065024 
4.790000000002175, -0.9568443404321467 
4.800000000002152, -0.9547474194068192 
4.810000000002129, -0.9524133909830719 
4.820000000002105, -0.9500159048556988 
4.830000000002082, -0.9476494622626923 
4.840000000002059, -0.9453274011543649 
4.850000000002035, -0.9430198066329429 
4.860000000002012, -0.94069973940863 
4.870000000001989, -0.9383747348236277 
4.880000000001965, -0.936092208147849 
4.890000000001942, -0.9339237313097563 
4.900000000001919, -0.9319478633032613 
4.9100000000018955, -0.9302483555550897 
4.920000000001872, -0.9289192465213777 
4.930000000001849, -0.9280473171647092 
