t, s[1].omega / s[0].omega 
0, -1.400009216243982 
0.009999999999999995, -1.4006483106121945 
0.019999999999999934, -1.4007192898600773 
0.029999999999999874, -1.400207920705001 
0.04000000000000012, -1.3991268326288417 
0.050000000000000405, -1.3975325872955973 
0.06000000000000069, -1.3954974114008993 
0.07000000000000098, -1.3930427491779693 
0.08000000000000126, -1.390150416152141 
0.09000000000000155, -1.3869873939608053 
0.10000000000000184, -1.3841650470938276 
0.11000000000000212, -1.3824448905501499 
0.12000000000000241, -1.38189809183364 
0.130000000000002, -1.381791950890941 
0.1400000000000009, -1.3812604066516114 
0.1499999999999998, -1.3794815355182357 
0.1599999999999987, -1.37519071248997 
0.1699999999999976, -1.3658777320742272 
0.1799999999999965, -1.346986938556716 
0.1899999999999954, -1.3122475688680744 
0.1999999999999943, -1.256568848329049 
0.2099999999999932, -1.1796053911485709 
0.2199999999999921, -1.0858956503562944 
0.229999999999991, -0.9830620986304213 
0.2399999999999899, -0.8814796772512024 
0.2499999999999888, -0.7929791328753779 
0.2599999999999877, -0.7260354536311454 
0.2699999999999866, -0.6819265688959361 
0.2799999999999855, -0.6562219405154062 
0.2899999999999844, -0.6428105297977147 
0.2999999999999833, -0.6365627174729669 
0.3099999999999822, -0.6340457331196256 
0.3199999999999811, -0.6332531625952962 
0.32999999999998, -0.6331097256735068 
0.3399999999999789, -0.6330627510247819 
0.3499999999999778, -0.6328222611541562 
0.35999999999997667, -0.6322270060955087 
0.36999999999997557, -0.6312026532614228 
0.37999999999997447, -0.6297765054950291 
0.38999999999997337, -0.6280947026633341 
0.39999999999997227, -0.6263853297261779 
0.40999999999997117, -0.6248697667122205 
0.41999999999997006, -0.6236871613281036 
0.42999999999996896, -0.6228732762394132 
0.43999999999996786, -0.6223760352704437 
0.44999999999996676, -0.6220820326340986 
0.45999999999996566, -0.6218522215125553 
0.46999999999996456, -0.6215682864070964 
0.47999999999996346, -0.6211739700975474 
0.48999999999996235, -0.6206955350956772 
0.49999999999996125, -0.6202482082988878 
0.5099999999999602, -0.6200482517623123 
0.519999999999959, -0.6204401662024985 
0.529999999999958, -0.6219300537276122 
0.5399999999999568, -0.6252025796712107 
0.5499999999999557, -0.6310977071699453 
0.5599999999999546, -0.6405409449599329 
0.5699999999999535, -0.654453986007631 
0.5799999999999524, -0.6736999109088171 
0.5899999999999513, -0.6991121089639156 
0.5999999999999502, -0.731609079665209 
0.6099999999999491, -0.7723069786892224 
0.619999999999948, -0.8223656764599359 
0.6299999999999469, -0.8819698008112169 
0.6399999999999458, -0.9477794066136376 
0.6499999999999447, -1.0105462242988563 
0.6599999999999436, -1.0589775885731014 
0.6699999999999425, -1.0889114255505006 
0.6799999999999414, -1.1045313267339076 
0.6899999999999403, -1.1118581957281357 
0.6999999999999392, -1.1149452887961788 
0.7099999999999381, -1.1158533051304873 
0.719999999999937, -1.1155361517811915 
0.7299999999999359, -1.1145854632105991 
0.7399999999999348, -1.1139589364437572 
0.7499999999999337, -1.1157698143909829 
0.7599999999999326, -1.1230654685603034 
0.7699999999999315, -1.1372075569004694 
0.7799999999999304, -1.155758421028921 
0.7899999999999293, -1.1747695110698282 
0.7999999999999282, -1.191863141937537 
0.8099999999999271, -1.2065170261475304 
0.819999999999926, -1.2190454607072334 
0.8299999999999249, -1.2298663145373039 
0.8399999999999238, -1.2392050128940315 
0.8499999999999227, -1.2470315953085644 
0.8599999999999216, -1.253155425346822 
0.8699999999999205, -1.2574443987719754 
0.8799999999999194, -1.2600078367001815 
0.8899999999999183, -1.2611792591870035 
0.8999999999999172, -1.2613753530663792 
0.9099999999999161, -1.2610187774962462 
0.919999999999915, -1.2605534730906245 
0.9299999999999139, -1.260399598454651 
0.9399999999999128, -1.26075750448544 
0.9499999999999117, -1.2615028017294776 
0.9599999999999106, -1.2623857872490443 
0.9699999999999095, -1.263268388201157 
0.9799999999999084, -1.2641230673784971 
0.9899999999999073, -1.2648942779758607 
0.9999999999999062, -1.2654408548745792 
1.0099999999999052, -1.2655968165453122 
1.019999999999904, -1.2652453460416246 
1.029999999999903, -1.2643485672270145 
1.039999999999902, -1.2629364886904735 
1.0499999999999008, -1.2610656565497849 
1.0599999999998997, -1.2587719507953539 
1.0699999999998986, -1.2560483310941062 
1.0799999999998975, -1.2528531523592297 
1.0899999999998964, -1.249126418900217 
1.0999999999998953, -1.2447946104556746 
1.1099999999998942, -1.2397960514492359 
1.119999999999893, -1.2342197916216295 
1.129999999999892, -1.2285808590642968 
1.1399999999998909, -1.2239142109602632 
1.1499999999998898, -1.2211474625602987 
1.1599999999998887, -1.2201951855303135 
1.1699999999998876, -1.2201094287427152 
1.1799999999998865, -1.2199263190764347 
1.1899999999998854, -1.2189385953106189 
1.1999999999998843, -1.216380235891521 
1.2099999999998832, -1.2109716607327454 
1.219999999999882, -1.2005978878384647 
1.229999999999881, -1.1826307300397834 
1.2399999999998799, -1.155420957159217 
1.2499999999998788, -1.1198375898639708 
1.2599999999998777, -1.0786409982182585 
1.2699999999998766, -1.0344626868587503 
1.2799999999998755, -0.988972302285044 
1.2899999999998744, -0.943545618188268 
1.2999999999998733, -0.9002806170814681 
1.3099999999998722, -0.8623202352711947 
1.319999999999871, -0.8328426559143404 
1.32999999999987, -0.8132659899278496 
1.3399999999998689, -0.8024362989331097 
1.3499999999998678, -0.797611800534146 
1.3599999999998666, -0.7960445826770994 
1.3699999999998655, -0.7958292767952712 
1.3799999999998644, -0.7959077354838288 
1.3899999999998633, -0.7957422885718566 
1.3999999999998622, -0.7950192945789323 
1.4099999999998611, -0.7934864118851908 
1.41999999999986, -0.7909304045701803 
1.429999999999859, -0.7872814218796337 
1.4399999999998578, -0.7827495803501501 
1.4499999999998567, -0.7778071551160763 
1.4599999999998556, -0.7729652369062991 
1.4699999999998545, -0.7685539006353685 
1.4799999999998534, -0.7646772133494859 
1.4899999999998523, -0.7612918780940526 
1.4999999999998512, -0.7583003408050167 
1.5099999999998501, -0.7556143965412213 
1.519999999999849, -0.7531880301543652 
1.529999999999848, -0.7510248645904538 
1.5399999999998468, -0.7491664918531111 
1.5499999999998457, -0.7476712589331402 
1.5599999999998446, -0.7465938772518468 
1.5699999999998435, -0.7459720776154246 
1.5799999999998424, -0.7458200086798243 
1.5899999999998413, -0.7461247325879339 
1.5999999999998402, -0.7468449910314342 
1.6099999999998391, -0.7479162485172183 
1.619999999999838, -0.7492659809746789 
1.629999999999837, -0.7508372579999422 
1.6399999999998358, -0.7526122400492258 
1.6499999999998347, -0.7546248054074642 
1.6599999999998336, -0.7569537872070591 
1.6699999999998325, -0.759693152584141 
1.6799999999998314, -0.7628979045667001 
1.6899999999998303, -0.7665072916647804 
1.6999999999998292, -0.770273818254504 
1.709999999999828, -0.7737794077493163 
1.719999999999827, -0.7765976257629744 
1.729999999999826, -0.7784939670515614 
1.7399999999998248, -0.7794801190023253 
1.7499999999998237, -0.7797207366212605 
1.7599999999998226, -0.7794410848246416 
1.7699999999998215, -0.7789360707798775 
1.7799999999998204, -0.7787040687074938 
1.7899999999998193, -0.7796978790779237 
1.7999999999998182, -0.7836077940335084 
1.809999999999817, -0.7928958546266999 
1.819999999999816, -0.8101682841287803 
1.8299999999998149, -0.8368877837814667 
1.8399999999998138, -0.8723669357148023 
1.8499999999998127, -0.9141295262366416 
1.8599999999998116, -0.9593291165777709 
1.8699999999998105, -1.0058162123735812 
1.8799999999998094, -1.0520657093921189 
1.8899999999998083, -1.0962537528153173 
1.8999999999998072, -1.1354169056246375 
1.909999999999806, -1.166094524643265 
1.919999999999805, -1.186652217913222 
1.9299999999998039, -1.198481881464312 
1.9399999999998028, -1.2044659643365043 
1.9499999999998017, -1.2070832111471819 
1.9599999999998006, -1.2078562015392627 
1.9699999999997995, -1.2076449414925405 
1.9799999999997984, -1.207132091038149 
1.9899999999997973, -1.2072452909388771 
1.9999999999997962, -1.2091189828349864 
2.0099999999998173, -1.2132573602332917 
2.0199999999998384, -1.2189238099933417 
2.0299999999998595, -1.2248711472117337 
2.0399999999998806, -1.230298396753591 
2.0499999999999017, -1.2349768698033985 
2.059999999999923, -1.2389521738158698 
2.069999999999944, -1.2423249581619782 
2.079999999999965, -1.2451807991120172 
2.089999999999986, -1.2475758691080843 
2.100000000000007, -1.2495219414467724 
2.1100000000000283, -1.2509779510558017 
2.1200000000000494, -1.2518732759293032 
2.1300000000000705, -1.252161539674261 
2.1400000000000916, -1.2518700157095195 
2.1500000000001127, -1.2511158564051132 
2.160000000000134, -1.2500876277442452 
2.170000000000155, -1.248984758881268 
2.180000000000176, -1.2479259535338343 
2.190000000000197, -1.2469262262005087 
2.2000000000002182, -1.246007410446874 
2.2100000000002393, -1.2453010946860636 
2.2200000000002604, -1.2449587199957943 
2.2300000000002815, -1.2449412769677293 
2.2400000000003026, -1.2449693656288776 
2.2500000000003237, -1.2446698523413777 
2.260000000000345, -1.2436936466408386 
2.270000000000366, -1.241742835512213 
2.280000000000387, -1.238609088619373 
2.290000000000408, -1.234243841664878 
2.3000000000004293, -1.228761395202286 
2.3100000000004504, -1.2223256881554927 
2.3200000000004715, -1.2150131187047226 
2.3300000000004926, -1.2067483567961488 
2.3400000000005137, -1.1973184468585298 
2.3500000000005348, -1.1864635248017077 
2.360000000000556, -1.174133996506868 
2.370000000000577, -1.1610237861233756 
2.380000000000598, -1.1490605057659935 
2.390000000000619, -1.1406941467258283 
2.4000000000006403, -1.1367910163503876 
2.4100000000006614, -1.1359386260037696 
2.4200000000006825, -1.1361581022780582 
2.4300000000007036, -1.1361892844815666 
2.4400000000007247, -1.1353427757624115 
2.450000000000746, -1.1328955605735311 
2.460000000000767, -1.127491179517638 
2.470000000000788, -1.1165462138144862 
2.480000000000809, -1.0961554216919467 
2.49000000000083, -1.0629573331612505 
2.5000000000008513, -1.0178793430053534 
2.5100000000008724, -0.9667974442465512 
2.5200000000008935, -0.9161023159806808 
2.5300000000009146, -0.8693685620713545 
2.5400000000009357, -0.8277914154249398 
2.550000000000957, -0.7916806077243731 
2.560000000000978, -0.7612892884423756 
2.570000000000999, -0.7369256970985492 
2.58000000000102, -0.7186914254676855 
2.5900000000010412, -0.7061923755056847 
2.6000000000010624, -0.6984826569560685 
2.6100000000010835, -0.6942889967698942 
2.6200000000011046, -0.6923459968473407 
2.6300000000011257, -0.6916363342747689 
2.6400000000011468, -0.6914588673517048 
2.650000000001168, -0.6913758416199396 
2.660000000001189, -0.6911258194031982 
2.67000000000121, -0.6905615140570756 
2.680000000001231, -0.6896325285397946 
2.6900000000012523, -0.6883957213968144 
2.7000000000012734, -0.6870074257556886 
2.7100000000012945, -0.6856664255002937 
2.7200000000013156, -0.6845352145353695 
2.7300000000013367, -0.6836913076111534 
2.740000000001358, -0.6831215066338764 
2.750000000001379, -0.6827409364155297 
2.7600000000014, -0.6824268420411175 
2.770000000001421, -0.6820651718614065 
2.780000000001442, -0.6815959172542508 
2.7900000000014633, -0.6810389552062543 
2.8000000000014844, -0.6805007206577957 
2.8100000000015055, -0.6801758821884704 
2.8200000000015266, -0.680348850096615 
2.8300000000015477, -0.6813827450245761 
2.840000000001569, -0.6836797327115278 
2.85000000000159, -0.6876143748523378 
2.860000000001611, -0.6934693887470975 
2.870000000001632, -0.7014141177726857 
2.8800000000016532, -0.7115451714525325 
2.8900000000016743, -0.7239746197435493 
2.9000000000016954, -0.7389329974463739 
2.9100000000017165, -0.7568539850443478 
2.9200000000017377, -0.7783932767831668 
2.9300000000017588, -0.8042574029419522 
2.94000000000178, -0.8345715009680678 
2.950000000001801, -0.8676148630724001 
2.960000000001822, -0.8989890146519347 
2.970000000001843, -0.9236404312010172 
2.9800000000018643, -0.9396160687908466 
2.9900000000018854, -0.9484999428247791 
3.0000000000019065, -0.9528813895357692 
3.0100000000019276, -0.9546789786679722 
3.0200000000019487, -0.9549493956393975 
3.03000000000197, -0.954207034112853 
3.040000000001991, -0.9528246443868472 
3.050000000002012, -0.9516730015920126 
3.060000000002033, -0.953424456096118 
3.070000000002054, -0.9643434603043411 
3.0800000000020753, -0.9935122414255713 
3.0900000000020964, -1.0449314982716573 
3.1000000000021175, -1.1096263071493093 
3.1100000000021386, -1.172899240947153 
3.1200000000021597, -1.226542181119522 
3.130000000002181, -1.2695988871676989 
3.140000000002202, -1.3036268537813236 
3.150000000002223, -1.3299316255398401 
3.160000000002244, -1.349151965218249 
3.1700000000022652, -1.3619263816482572 
3.1800000000022863, -1.36946048299608 
3.1900000000023074, -1.3733265253762985 
3.2000000000023285, -1.3749146542694939 
3.2100000000023496, -1.375195210077208 
3.2200000000023707, -1.3748547383619856 
3.230000000002392, -1.3745211093891156 
3.240000000002413, -1.3747300106317595 
3.250000000002434, -1.3755907140616768 
3.260000000002455, -1.3767568836438184 
3.2700000000024763, -1.3778754317317843 
3.2800000000024974, -1.3788452000370284 
3.2900000000025185, -1.3796698071719542 
3.3000000000025396, -1.380260677026119 
3.3100000000025607, -1.3804331954050038 
3.3200000000025818, -1.380003550706697 
3.330000000002603, -1.3788487221261712 
3.340000000002624, -1.3769198378371972 
3.350000000002645, -1.3742207584407957 
3.360000000002666, -1.3707548316632374 
3.3700000000026873, -1.3664671179964747 
3.3800000000027084, -1.3612052078479835 
3.3900000000027295, -1.35469061155576 
3.4000000000027506, -1.3465176847782196 
3.4100000000027717, -1.3363440299642568 
3.420000000002793, -1.324602244518907 
3.430000000002814, -1.3135451081555085 
3.440000000002835, -1.3064587143221984 
3.450000000002856, -1.3041346038357902 
3.460000000002877, -1.304294039043963 
3.4700000000028983, -1.3046900081797592 
3.4800000000029194, -1.3042115126670633 
3.4900000000029405, -1.3019823956789938 
3.5000000000029616, -1.2960333369585904 
3.5100000000029827, -1.2807437114115763 
3.520000000003004, -1.2400583239834384 
3.530000000003025, -1.1348447379339157 
3.540000000003046, -0.9199534353808072 
3.550000000003067, -0.6561447920036401 
3.5600000000030882, -0.46739778660501774 
3.5700000000031094, -0.365092256072519 
3.5800000000031305, -0.3119075148477042 
3.5900000000031516, -0.28289531843979737 
3.6000000000031727, -0.26603900617530674 
3.6100000000031938, -0.2556939764940256 
3.620000000003215, -0.24908605065057238 
3.630000000003236, -0.24477702393443085 
3.640000000003257, -0.24199248669669285 
3.650000000003278, -0.2403151519530836 
3.6600000000032993, -0.23954080685135884 
3.6700000000033204, -0.23961408531233758 
3.6800000000033415, -0.24061136358601082 
3.6900000000033626, -0.2427625755846346 
3.7000000000033837, -0.24652207853339886 
3.710000000003405, -0.2527239736653755 
3.720000000003426, -0.2629087362895953 
3.730000000003447, -0.2800291110991773 
3.740000000003468, -0.310035721810108 
3.750000000003489, -0.3654613616987571 
3.7600000000035103, -0.4724280974625187 
3.7700000000035314, -0.6739851694684288 
3.7800000000035525, -0.9789306498892156 
3.7900000000035736, -1.2615563737543627 
3.8000000000035947, -1.413611685404476 
3.810000000003616, -1.473263508993329 
3.820000000003637, -1.494664879530513 
3.830000000003658, -1.5023081243915133 
3.840000000003679, -1.5048374373616338 
3.8500000000037002, -1.505239830021397 
3.8600000000037213, -1.5047783128512218 
3.8700000000037424, -1.504541953991878 
3.8800000000037635, -1.5056875433336558 
3.8900000000037847, -1.508368561419045 
3.9000000000038058, -1.5115041244475882 
3.910000000003827, -1.514172831414595 
3.920000000003848, -1.516181592076286 
3.930000000003869, -1.5176232099432998 
3.94000000000389, -1.51851430553547 
3.9500000000039113, -1.5187765375402926 
3.9600000000039324, -1.5183256628793909 
3.9700000000039535, -1.517108221976089 
3.9800000000039746, -1.5150863943867316 
3.9900000000039957, -1.5121964187837578 
4.000000000004016, -1.5082972030343058 
4.010000000003993, -1.503108835851359 
4.02000000000397, -1.4961183111352114 
4.030000000003946, -1.4865096761172065 
4.040000000003923, -1.4735435838625073 
4.0500000000039, -1.4583214364987547 
4.0600000000038765, -1.4458716137168302 
4.070000000003853, -1.4407998029371432 
4.08000000000383, -1.4408869073006074 
4.090000000003807, -1.4418963353835803 
4.100000000003783, -1.4419481347541772 
4.11000000000376, -1.4401702441496032 
4.120000000003737, -1.4344880260902908 
4.130000000003713, -1.4172358010727057 
4.14000000000369, -1.3554409358815926 
4.150000000003667, -1.0818182287630087 
4.1600000000036434, -0.12901018698627312 
4.17000000000362, 0.5183140888419279 
4.180000000003597, 0.6348815659985659 
4.1900000000035735, 0.6602643302149895 
4.20000000000355, 0.667917423489205 
4.210000000003527, 0.6704659211522777 
4.220000000003504, 0.6709182484080198 
4.23000000000348, 0.6700946987076183 
4.240000000003457, 0.6681706606850409 
4.250000000003434, 0.6651893352180914 
4.26000000000341, 0.6613872409424448 
4.270000000003387, 0.6573546260203332 
4.280000000003364, 0.6538341061674169 
4.2900000000033405, 0.6512994554846651 
4.300000000003317, 0.6497755041945086 
4.310000000003294, 0.6489949794288622 
4.320000000003271, 0.6486118772317935 
4.330000000003247, 0.6482979900866629 
4.340000000003224, 0.6477255993039669 
4.350000000003201, 0.6464445981840773 
4.360000000003177, 0.6435223674755465 
4.370000000003154, 0.6362701104530296 
4.380000000003131, 0.6141240492908924 
4.390000000003107, 0.5128775991472112 
4.400000000003084, -0.33022536751410053 
4.410000000003061, -2.2218902329641756 
4.4200000000030375, -2.513613983427189 
4.430000000003014, -2.552266825405021 
4.440000000002991, -2.5601867648893686 
4.450000000002968, -2.5616904212248857 
4.460000000002944, -2.5612186525498206 
4.470000000002921, -2.5598871446684446 
4.480000000002898, -2.5573137977232814 
4.490000000002874, -2.553074852232038 
4.500000000002851, -2.550629187121128 
4.510000000002828, -2.5510948936006614 
4.520000000002804, -2.5504969822693497 
4.530000000002781, -2.545503715390384 
4.540000000002758, -2.5283949227495204 
4.5500000000027345, -2.5480308630394046 
4.560000000002711, -2.6183385602721443 
4.570000000002688, -2.6431390792584057 
4.580000000002665, -2.650521964368301 
4.590000000002641, -2.6529176163180397 
4.600000000002618, -2.653030750915746 
4.610000000002595, -2.6511237994311223 
4.620000000002571, -2.6458894601654945 
4.630000000002548, -2.6315131858148515 
4.640000000002525, -2.576275847583047 
4.6500000000025015, -2.300378937961149 
4.660000000002478, -2.0713231142876456 
4.670000000002455, -2.1392613465326944 
4.6800000000024315, -2.1607636789049836 
4.690000000002408, -2.1653541564745273 
4.700000000002385, -2.1656459767604113 
4.710000000002362, -2.164592726814879 
4.720000000002338, -2.164963788603697 
4.730000000002315, -2.16823679128083 
4.740000000002292, -2.171479806063716 
4.750000000002268, -2.1732419590182364 
4.760000000002245, -2.1740198347710153 
4.770000000002222, -2.1739988421418546 
4.7800000000021985, -2.1726347104509256 
4.790000000002175, -2.1685353865775334 
4.800000000002152, -2.1580830041946624 
4.810000000002129, -2.13072799057143 
4.820000000002105, -2.049661113514973 
4.830000000002082, -1.757651371154012 
4.840000000002059, -0.8925780359583158 
4.850000000002035, -0.1799043638385301 
4.860000000002012, 0.031546583193511016 
4.870000000001989, 0.09426659320758471 
4.880000000001965, 0.11748008562762727 
4.890000000001942, 0.12757677729607178 
4.900000000001919, 0.1323493900263207 
4.9100000000018955, 0.1345449132109277 
4.920000000001872, 0.13522185396230374 
4.930000000001849, 0.13472584539776572 
