t, s[1].omega / s[0].omega 
0, -1.0999699073507507 
0.009999999999999995, -1.0968519745477405 
0.019999999999999934, -1.0935414163071266 
0.029999999999999874, -1.090032577674861 
0.04000000000000012, -1.0862989219935544 
0.050000000000000405, -1.0823227973985776 
0.06000000000000069, -1.0781136474265485 
0.07000000000000098, -1.0737421331927628 
0.08000000000000126, -1.0694138978211427 
0.09000000000000155, -1.0655295157998648 
0.10000000000000184, -1.0625845053766105 
0.11000000000000212, -1.0608592924764735 
0.12000000000000241, -1.0601763126660244 
0.130000000000002, -1.060021379748982 
0.1400000000000009, -1.059846029591403 
0.1499999999999998, -1.0592102670653518 
0.1599999999999987, -1.0577490323948318 
0.1699999999999976, -1.0551358805656466 
0.1799999999999965, -1.051159319511823 
0.1899999999999954, -1.0458694423583093 
0.1999999999999943, -1.0396069378117265 
0.2099999999999932, -1.0328204332915425 
0.2199999999999921, -1.025843692824776 
0.229999999999991, -1.018817419023502 
0.2399999999999899, -1.0117413233899915 
0.2499999999999888, -1.0045621202342179 
0.2599999999999877, -0.9972536264075821 
0.2699999999999866, -0.9898980105552966 
0.2799999999999855, -0.9827767288817897 
0.2899999999999844, -0.9764139879337715 
0.2999999999999833, -0.9714416250781064 
0.3099999999999822, -0.9682500664210807 
0.3199999999999811, -0.9666978913963862 
0.32999999999998, -0.9662048743238127 
0.3399999999999789, -0.9661022485246548 
0.3499999999999778, -0.9658637332376878 
0.35999999999997667, -0.9651121997982257 
0.36999999999997557, -0.9635465974729955 
0.37999999999997447, -0.9609321350811797 
0.38999999999997337, -0.9571944324041721 
0.39999999999997227, -0.9525220335265295 
0.40999999999997117, -0.9473153448885914 
0.41999999999997006, -0.9419842898768058 
0.42999999999996896, -0.9367847184169609 
0.43999999999996786, -0.93180036794509 
0.44999999999996676, -0.9270125657629604 
0.45999999999996566, -0.9223757314506678 
0.46999999999996456, -0.9178657863944399 
0.47999999999996346, -0.9135036597264221 
0.48999999999996235, -0.9093687583095438 
0.49999999999996125, -0.905609861579857 
0.5099999999999602, -0.9024358580476337 
0.519999999999959, -0.9000540927370577 
0.529999999999958, -0.898560763884715 
0.5399999999999568, -0.897859110013766 
0.5499999999999557, -0.8976840903547233 
0.5599999999999546, -0.8977106332394404 
0.5699999999999535, -0.8976522886447931 
0.5799999999999524, -0.8973050193947285 
0.5899999999999513, -0.8965614214354203 
0.5999999999999502, -0.8954228999501532 
0.6099999999999491, -0.8939946864436956 
0.619999999999948, -0.8924367770790619 
0.6299999999999469, -0.8908888618314332 
0.6399999999999458, -0.8894192453684683 
0.6499999999999447, -0.8880208780928627 
0.6599999999999436, -0.8866423561097434 
0.6699999999999425, -0.8852330864154909 
0.6799999999999414, -0.883782941956729 
0.6899999999999403, -0.8823400355665388 
0.6999999999999392, -0.8810003334912911 
0.7099999999999381, -0.8798754295912685 
0.719999999999937, -0.8790559571626593 
0.7299999999999359, -0.8785921183604527 
0.7399999999999348, -0.8784984961847515 
0.7499999999999337, -0.8787668395062876 
0.7599999999999326, -0.8793668766182025 
0.7699999999999315, -0.8802370163052282 
0.7799999999999304, -0.8812851429031282 
0.7899999999999293, -0.8824113451679596 
0.7999999999999282, -0.8835420741996021 
0.8099999999999271, -0.8846548909670038 
0.819999999999926, -0.8857788094498382 
0.8299999999999249, -0.8869675666815147 
0.8399999999999238, -0.8882557087449807 
0.8499999999999227, -0.8896149053496771 
0.8599999999999216, -0.8909319316144281 
0.8699999999999205, -0.8920322158299282 
0.8799999999999194, -0.8927520150295898 
0.8899999999999183, -0.8930151160914171 
0.8999999999999172, -0.8928629980759171 
0.9099999999999161, -0.8924444584047226 
0.919999999999915, -0.8920039278594052 
0.9299999999999139, -0.8918716031362652 
0.9399999999999128, -0.8924120267701594 
0.9499999999999117, -0.8939061388145829 
0.9599999999999106, -0.8964315164226621 
0.9699999999999095, -0.8998490462390704 
0.9799999999999084, -0.9039083032227107 
0.9899999999999073, -0.9083734521456492 
0.9999999999999062, -0.9130891074978147 
1.0099999999999052, -0.917987094254055 
1.019999999999904, -0.9230693359311466 
1.029999999999903, -0.9283834860767206 
1.039999999999902, -0.9339822071278618 
1.0499999999999008, -0.9398506176117907 
1.0599999999998997, -0.94580748884809 
1.0699999999998986, -0.9514448789345658 
1.0799999999998975, -0.9562238718158855 
1.0899999999998964, -0.9597351441653157 
1.0999999999998953, -0.9618975639893957 
1.1099999999998942, -0.9629115882298367 
1.119999999999893, -0.9630915398170709 
1.129999999999892, -0.9627816643815967 
1.1399999999998909, -0.9624101826424359 
1.1499999999998898, -0.9626037480837815 
1.1599999999998887, -0.9641840466846585 
1.1699999999998876, -0.9678636694672056 
1.1799999999998865, -0.9737865535124985 
1.1899999999998854, -0.9814182705981844 
1.1999999999998843, -0.9899396148664771 
1.2099999999998832, -0.9986968999107569 
1.219999999999882, -1.007360673981855 
1.229999999999881, -1.0158552111922607 
1.2399999999998799, -1.0242292784185154 
1.2499999999998788, -1.0325367965614634 
1.2599999999998777, -1.0407191919146461 
1.2699999999998766, -1.0484966314026416 
1.2799999999998755, -1.055357900815503 
1.2899999999998744, -1.0607601402779931 
1.2999999999998733, -1.0644395044419397 
1.3099999999998722, -1.0665260252525686 
1.319999999999871, -1.0673843912400949 
1.32999999999987, -1.067423734379585 
1.3399999999998689, -1.0670596473747351 
1.3499999999998678, -1.0667995244422337 
1.3599999999998666, -1.06728135705085 
1.3699999999998655, -1.0690649498039613 
1.3799999999998644, -1.0722590248966921 
1.3899999999998633, -1.0764412008615363 
1.3999999999998622, -1.0810073039052341 
1.4099999999998611, -1.0855205673897097 
1.41999999999986, -1.089783999301726 
1.429999999999859, -1.0937504980193276 
1.4399999999998578, -1.0974358164289635 
1.4499999999998567, -1.1008760697673172 
1.4599999999998556, -1.1040993848114786 
1.4699999999998545, -1.1070888041098446 
1.4799999999998534, -1.1097495575334944 
1.4899999999998523, -1.1119176122832806 
1.4999999999998512, -1.1134302673804426 
1.5099999999998501, -1.1142176765780887 
1.519999999999849, -1.1143432459632239 
1.529999999999848, -1.113984812598316 
1.5399999999998468, -1.1134056328977189 
1.5499999999998457, -1.1129189056927289 
1.5599999999998446, -1.1127944540727501 
1.5699999999998435, -1.113132289353135 
1.5799999999998424, -1.1138430738478444 
1.5899999999998413, -1.1147720129794858 
1.5999999999998402, -1.1158134763022285 
1.6099999999998391, -1.1169081972537753 
1.619999999999838, -1.1179811651453708 
1.629999999999837, -1.118922063421941 
1.6399999999998358, -1.119624699436672 
1.6499999999998347, -1.1200327061005775 
1.6599999999998336, -1.120152071711367 
1.6699999999998325, -1.120027203591504 
1.6799999999998314, -1.119698850948456 
1.6899999999998303, -1.11917177980065 
1.6999999999998292, -1.1184130293709298 
1.709999999999828, -1.117381361136975 
1.719999999999827, -1.116068303622924 
1.729999999999826, -1.1145230877344454 
1.7399999999998248, -1.1128423049103364 
1.7499999999998237, -1.1111280501604714 
1.7599999999998226, -1.1094541556679252 
1.7699999999998215, -1.1078892168469205 
1.7799999999998204, -1.106555542326846 
1.7899999999998193, -1.1056230138056233 
1.7999999999998182, -1.1051857644947085 
1.809999999999817, -1.1051375882719428 
1.819999999999816, -1.105198598818991 
1.8299999999998149, -1.1050474642580679 
1.8399999999998138, -1.104414855695922 
1.8499999999998127, -1.1031168997850824 
1.8599999999998116, -1.1010845627826242 
1.8699999999998105, -1.0983865297474624 
1.8799999999998094, -1.095192216512754 
1.8899999999998083, -1.0916779995840258 
1.8999999999998072, -1.087950942420957 
1.909999999999806, -1.0840366787055058 
1.919999999999805, -1.0799123902351297 
1.9299999999998039, -1.0755462057439011 
1.9399999999998028, -1.0709258919448763 
1.9499999999998017, -1.066093903180149 
1.9599999999998006, -1.0612181140201304 
1.9699999999997995, -1.0566727904273796 
1.9799999999997984, -1.05299760372221 
1.9899999999997973, -1.0506168756835526 
1.9999999999997962, -1.0495066728531774 
2.0099999999998173, -1.049197841165098 
2.0199999999998384, -1.0490904053920265 
2.0299999999998595, -1.048685291673396 
2.0399999999998806, -1.0475899132333752 
2.0499999999999017, -1.0454511761114529 
2.059999999999923, -1.0419770755769409 
2.069999999999944, -1.0370795114682216 
2.079999999999965, -1.0309929771300175 
2.089999999999986, -1.0241784574206192 
2.100000000000007, -1.0170719857043933 
2.1100000000000283, -1.0099194644384304 
2.1200000000000494, -1.0027816525887445 
2.1300000000000705, -0.9956208939405192 
2.1400000000000916, -0.9883892870469866 
2.1500000000001127, -0.9811051063823566 
2.160000000000134, -0.9739333870573189 
2.170000000000155, -0.9672556482285767 
2.180000000000176, -0.9616388145766679 
2.190000000000197, -0.9576025645853742 
2.2000000000002182, -0.9552826836820099 
2.2100000000002393, -0.9543155947586639 
2.2200000000002604, -0.9540727152381908 
2.2300000000002815, -0.9539653735460799 
2.2400000000003026, -0.9535604436341192 
2.2500000000003237, -0.9525399105760393 
2.260000000000345, -0.9506545347660962 
2.270000000000366, -0.947762451628791 
2.280000000000387, -0.9439276579960222 
2.290000000000408, -0.9394445843988816 
2.3000000000004293, -0.9347035559436738 
2.3100000000004504, -0.9300085742088738 
2.3200000000004715, -0.9255007754800338 
2.3300000000004926, -0.9211946992935489 
2.3400000000005137, -0.9170510798927836 
2.3500000000005348, -0.9130345301102709 
2.360000000000556, -0.9091432383701565 
2.370000000000577, -0.9054186115345317 
2.380000000000598, -0.9019497917544606 
2.390000000000619, -0.8988773499325177 
2.4000000000006403, -0.8963771525782478 
2.4100000000006614, -0.8945998539294825 
2.4200000000006825, -0.8935817278644613 
2.4300000000007036, -0.89319516288553 
2.4400000000007247, -0.8931886798247721 
2.450000000000746, -0.8932809990611643 
2.460000000000767, -0.8932376073196501 
2.470000000000788, -0.8929064036392076 
2.480000000000809, -0.8922330391150319 
2.49000000000083, -0.891264534391202 
2.5000000000008513, -0.890122713604379 
2.5100000000008724, -0.8889434440755066 
2.5200000000008935, -0.887815802799493 
2.5300000000009146, -0.8867559994687808 
2.5400000000009357, -0.8857203961124602 
2.550000000000957, -0.8846439596338478 
2.560000000000978, -0.8834860783276751 
2.570000000000999, -0.8822637118358763 
2.58000000000102, -0.881058221804602 
2.5900000000010412, -0.8799943696777586 
2.6000000000010624, -0.8791998429155365 
2.6100000000010835, -0.8787643586896371 
2.6200000000011046, -0.878722026517402 
2.6300000000011257, -0.8790629408911308 
2.6400000000011468, -0.8797535879150533 
2.650000000001168, -0.8807441919575452 
2.660000000001189, -0.8819651694822342 
2.67000000000121, -0.8833315848925821 
2.680000000001231, -0.8847648707985186 
2.6900000000012523, -0.8862206609782184 
2.7000000000012734, -0.8877033245651113 
2.7100000000012945, -0.8892548900024616 
2.7200000000013156, -0.8909194255138451 
2.7300000000013367, -0.8926951418874743 
2.740000000001358, -0.8944940254757414 
2.750000000001379, -0.8961381623907878 
2.7600000000014, -0.8974175403620126 
2.770000000001421, -0.8981856127695232 
2.780000000001442, -0.8984216580715076 
2.7900000000014633, -0.8982289619765534 
2.8000000000014844, -0.8978120749075218 
2.8100000000015055, -0.8974739480965443 
2.8200000000015266, -0.897609483465937 
2.8300000000015477, -0.8986311576805331 
2.840000000001569, -0.9008142146382815 
2.85000000000159, -0.9041692993179806 
2.860000000001611, -0.9084679968664859 
2.870000000001632, -0.9133948283216451 
2.8800000000016532, -0.9186895293075565 
2.8900000000016743, -0.9242035247004639 
2.9000000000016954, -0.9298916907370428 
2.9100000000017165, -0.9357817822037886 
2.9200000000017377, -0.9419339060218774 
2.9300000000017588, -0.9483764088410437 
2.94000000000178, -0.9550070409191533 
2.950000000001801, -0.9614929623984516 
2.960000000001822, -0.9672830122802655 
2.970000000001843, -0.9718308258176591 
2.9800000000018643, -0.9748862289921518 
2.9900000000018854, -0.9765647465881655 
3.0000000000019065, -0.9771821114348302 
3.0100000000019276, -0.9770945477925496 
3.0200000000019487, -0.9766882048894654 
3.03000000000197, -0.9764893335976638 
3.040000000001991, -0.9772561268256863 
3.050000000002012, -0.97982876180654 
3.060000000002033, -0.9846710477431806 
3.070000000002054, -0.9915181370434626 
3.0800000000020753, -0.9995821412110241 
3.0900000000020964, -1.0080727650887402 
3.1000000000021175, -1.016509649975204 
3.1100000000021386, -1.0247223460043255 
3.1200000000021597, -1.0327223882047092 
3.130000000002181, -1.04057724564924 
3.140000000002202, -1.0483010870866176 
3.150000000002223, -1.0557483070460272 
3.160000000002244, -1.0625503299186378 
3.1700000000022652, -1.068202340967312 
3.1800000000022863, -1.0723225143780668 
3.1900000000023074, -1.0748676887970594 
3.2000000000023285, -1.0760951398906042 
3.2100000000023496, -1.0763798965077132 
3.2200000000023707, -1.076114144991475 
3.230000000002392, -1.0757458779162579 
3.240000000002413, -1.0758396699358959 
3.250000000002434, -1.0769622826123864 
3.260000000002455, -1.079359587963321 
3.2700000000024763, -1.0827755157715049 
3.2800000000024974, -1.0866829495320072 
3.2900000000025185, -1.0906372341377484 
3.3000000000025396, -1.0944080195755155 
3.3100000000025607, -1.0979187616718586 
3.3200000000025818, -1.1011611733554827 
3.330000000002603, -1.104154455900174 
3.340000000002624, -1.1069273005826097 
3.350000000002645, -1.1094906775768865 
3.360000000002666, -1.1118018838291657 
3.3700000000026873, -1.1137483333749636 
3.3800000000027084, -1.11518154362148 
3.3900000000027295, -1.115994240551595 
3.4000000000027506, -1.1161848552354507 
3.4100000000027717, -1.1158688619849886 
3.420000000002793, -1.1152577081701414 
3.430000000002814, -1.1146261166317908 
3.440000000002835, -1.1142381545406719 
3.450000000002856, -1.114233195182174 
3.460000000002877, -1.1145792381673874 
3.4700000000028983, -1.115160968848956 
3.4800000000029194, -1.1158928167969981 
3.4900000000029405, -1.1167314397016397 
3.5000000000029616, -1.1176124733023258 
3.5100000000029827, -1.118417808369971 
3.520000000003004, -1.119012702043203 
3.530000000003025, -1.1193035533806026 
3.540000000003046, -1.1192671408155097 
3.550000000003067, -1.1189403994124487 
3.5600000000030882, -1.1183813119511123 
3.5700000000031094, -1.1176256481232607 
3.5800000000031305, -1.1166671120978666 
3.5900000000031516, -1.1154717575175694 
3.6000000000031727, -1.1140149610888048 
3.6100000000031938, -1.1123150562725166 
3.620000000003215, -1.1104390321800537 
3.630000000003236, -1.1084746466336621 
3.640000000003257, -1.106497810114436 
3.650000000003278, -1.1045845962583007 
3.6600000000032993, -1.1028683756855115 
3.6700000000033204, -1.1015528616071737 
3.6800000000033415, -1.1007978364373083 
3.6900000000033626, -1.100558526976987 
3.7000000000033837, -1.1005681539521626 
3.710000000003405, -1.1004745513340723 
3.720000000003426, -1.0999619631752444 
3.730000000003447, -1.0987907392977188 
3.740000000003468, -1.0968211533311076 
3.750000000003489, -1.0940557717578212 
3.7600000000035103, -1.0906434600135155 
3.7700000000035314, -1.0867982286108313 
3.7800000000035525, -1.082690268463926 
3.7900000000035736, -1.0783946509626703 
3.8000000000035947, -1.0739085845209304 
3.810000000003616, -1.0691957157505168 
3.820000000003637, -1.0642254261263968 
3.830000000003658, -1.0590104684674766 
3.840000000003679, -1.0536715212723342 
3.8500000000037002, -1.0485286996003 
3.8600000000037213, -1.0441198369055966 
3.8700000000037424, -1.0409884466846582 
3.8800000000037635, -1.039303622910802 
3.8900000000037847, -1.038709596533383 
3.9000000000038058, -1.0385853821907698 
3.910000000003827, -1.0383628437986936 
3.920000000003848, -1.0376097095587953 
3.930000000003869, -1.0359594952926359 
3.94000000000389, -1.0330772313961907 
3.9500000000039113, -1.0287577274056767 
3.9600000000039324, -1.023089738305722 
3.9700000000039535, -1.0164736084953803 
3.9800000000039746, -1.0094071033557965 
3.9900000000039957, -1.0022466000022006 
4.000000000004016, -0.9951367976021684 
4.010000000003993, -0.9880763466021257 
4.02000000000397, -0.9810130731937653 
4.030000000003946, -0.9739229946204295 
4.040000000003923, -0.966880920134823 
4.0500000000039, -0.9601318364051066 
4.0600000000038765, -0.9541208199162525 
4.070000000003853, -0.9493828041872492 
4.08000000000383, -0.9462628129130863 
4.090000000003807, -0.9446671720658314 
4.100000000003783, -0.9441090517878197 
4.11000000000376, -0.9439875805467743 
4.120000000003737, -0.9438054908114569 
4.130000000003713, -0.94320464441503 
4.14000000000369, -0.941918567202723 
4.150000000003667, -0.939764354257376 
4.1600000000036434, -0.9367092459848358 
4.17000000000362, -0.9329331387387223 
4.180000000003597, -0.9287700387579146 
4.1900000000035735, -0.9245455964289148 
4.20000000000355, -0.9204554042934241 
4.210000000003527, -0.9165563736574525 
4.220000000003504, -0.9128249977503085 
4.23000000000348, -0.9092207216685797 
4.240000000003457, -0.9057264026072149 
4.250000000003434, -0.9023626798867637 
4.26000000000341, -0.8991872433247743 
4.270000000003387, -0.8962936586335764 
4.280000000003364, -0.8938106618457748 
4.2900000000033405, -0.89188188896225 
4.300000000003317, -0.8906087436632311 
4.310000000003294, -0.8899801518658853 
4.320000000003271, -0.8898483061639046 
4.330000000003247, -0.8899776173259601 
4.340000000003224, -0.8901261851353354 
4.350000000003201, -0.8901067053163109 
4.360000000003177, -0.8898162676155019 
4.370000000003154, -0.8892476134091171 
4.380000000003131, -0.8884786110047596 
4.390000000003107, -0.8876291966834176 
4.400000000003084, -0.8868011826108212 
4.410000000003061, -0.8860354837087769 
4.4200000000030375, -0.8853052005597407 
4.430000000003014, -0.8845410980886216 
4.440000000002991, -0.8836764656151781 
4.450000000002968, -0.8826913589535261 
4.460000000002944, -0.881636275861829 
4.470000000002921, -0.8806274499652307 
4.480000000002898, -0.8798161394063795 
4.490000000002874, -0.8793406368831584 
4.500000000002851, -0.8792826957381825 
4.510000000002828, -0.879654810462054 
4.520000000002804, -0.8804209501656557 
4.530000000002781, -0.881524411965591 
4.540000000002758, -0.8828997885169629 
4.5500000000027345, -0.8844732660943768 
4.560000000002711, -0.8861696527910251 
4.570000000002688, -0.8879324873832406 
4.580000000002665, -0.8897446851793726 
4.590000000002641, -0.891631873805977 
4.600000000002618, -0.893639676772227 
4.610000000002595, -0.8957893785575232 
4.620000000002571, -0.8980268761422165 
4.630000000002548, -0.9001923795331332 
4.640000000002525, -0.9020495178110004 
4.6500000000025015, -0.9033824842345142 
4.660000000002478, -0.9040953491418678 
4.670000000002455, -0.9042381664302115 
4.6800000000024315, -0.9039758376262806 
4.690000000002408, -0.9035687913120597 
4.700000000002385, -0.9033853276037439 
4.710000000002362, -0.9038884819769561 
4.720000000002338, -0.905520970223027 
4.730000000002315, -0.9085112689808428 
4.740000000002292, -0.9127635592712254 
4.750000000002268, -0.9179480242139819 
4.760000000002245, -0.9236986102082758 
4.770000000002222, -0.9297537612468985 
4.7800000000021985, -0.9359898414047576 
4.790000000002175, -0.9423931664760709 
4.800000000002152, -0.9490142971249783 
4.810000000002129, -0.9559083775428329 
4.820000000002105, -0.9630448163862854 
4.830000000002082, -0.9701912991416461 
4.840000000002059, -0.9768527259069482 
4.850000000002035, -0.9824063485482692 
4.860000000002012, -0.9864212475027495 
4.870000000001989, -0.9888677477219726 
4.880000000001965, -0.9900238885933879 
4.890000000001942, -0.9902641424409147 
4.900000000001919, -0.9899667862028224 
4.9100000000018955, -0.9895813726926933 
4.920000000001872, -0.9897593929357493 
4.930000000001849, -0.991346208196409 
