t, s[1].omega / s[0].omega 
0, -1.1599993586572726 
0.009999999999999995, -1.1598134097267097 
0.019999999999999934, -1.1593638501026269 
0.029999999999999874, -1.1586064608485154 
0.04000000000000012, -1.1575163900394423 
0.050000000000000405, -1.156122362756974 
0.06000000000000069, -1.1545103614652186 
0.07000000000000098, -1.1527881984000916 
0.08000000000000126, -1.151038116926179 
0.09000000000000155, -1.1493199381566925 
0.10000000000000184, -1.1477424891091323 
0.11000000000000212, -1.1465043161633637 
0.12000000000000241, -1.1457862276067636 
0.130000000000002, -1.145563803781444 
0.1400000000000009, -1.1455675058807846 
0.1499999999999998, -1.1454265874624177 
0.1599999999999987, -1.144800760424304 
0.1699999999999976, -1.143416975545811 
0.1799999999999965, -1.1410934037459681 
0.1899999999999954, -1.1377967318197226 
0.1999999999999943, -1.133664020468732 
0.2099999999999932, -1.1289206611825338 
0.2199999999999921, -1.1237523348967717 
0.229999999999991, -1.1182361174219653 
0.2399999999999899, -1.112350909355397 
0.2499999999999888, -1.1060239989210472 
0.2599999999999877, -1.099189180594593 
0.2699999999999866, -1.0918812559816249 
0.2799999999999855, -1.0844000913401273 
0.2899999999999844, -1.0774632224400933 
0.2999999999999833, -1.072058621138086 
0.3099999999999822, -1.0688247364107082 
0.3199999999999811, -1.0675174875586795 
0.32999999999998, -1.0672637588427105 
0.3399999999999789, -1.0671923938827363 
0.3499999999999778, -1.066689828918191 
0.35999999999997667, -1.0652696462855058 
0.36999999999997557, -1.062377734473325 
0.37999999999997447, -1.057349605935441 
0.38999999999997337, -1.0496507513883973 
0.39999999999997227, -1.0393109213980596 
0.40999999999997117, -1.0270672486310874 
0.41999999999997006, -1.0139234719759052 
0.42999999999996896, -1.0006035644991644 
0.43999999999996786, -0.9873970632914586 
0.44999999999996676, -0.9743152242774711 
0.45999999999996566, -0.9613127419845334 
0.46999999999996456, -0.9484857029368502 
0.47999999999996346, -0.9362369993003729 
0.48999999999996235, -0.925336159502842 
0.49999999999996125, -0.91671213554558 
0.5099999999999602, -0.9109527647493498 
0.519999999999959, -0.9078885514565153 
0.529999999999958, -0.9067072255765563 
0.5399999999999568, -0.9064511371039549 
0.5499999999999557, -0.9063808205535266 
0.5599999999999546, -0.9060176371563706 
0.5699999999999535, -0.9050287831130468 
0.5799999999999524, -0.9031372815670459 
0.5899999999999513, -0.90014402630011 
0.5999999999999502, -0.8960513608429956 
0.6099999999999491, -0.8911497046310017 
0.619999999999948, -0.8859104533242824 
0.6299999999999469, -0.8807529075804522 
0.6399999999999458, -0.8759026117518214 
0.6499999999999447, -0.8714074777427147 
0.6599999999999436, -0.8672233355015291 
0.6699999999999425, -0.8632901974002773 
0.6799999999999414, -0.8595757846028981 
0.6899999999999403, -0.8560898830761874 
0.6999999999999392, -0.8528820068100018 
0.7099999999999381, -0.8500349017060206 
0.719999999999937, -0.8476556045920172 
0.7299999999999359, -0.8458524034579721 
0.7399999999999348, -0.8446897949329027 
0.7499999999999337, -0.844140040523232 
0.7599999999999326, -0.8440695716036443 
0.7699999999999315, -0.8442768018163417 
0.7799999999999304, -0.8445552781517067 
0.7899999999999293, -0.8447458606780842 
0.7999999999999282, -0.8447657186001039 
0.8099999999999271, -0.8446171647774638 
0.819999999999926, -0.844372800539964 
0.8299999999999249, -0.8441339266795932 
0.8399999999999238, -0.8439782197294647 
0.8499999999999227, -0.8439219335824966 
0.8599999999999216, -0.8439104464108315 
0.8699999999999205, -0.8438404281760661 
0.8799999999999194, -0.8436085365641068 
0.8899999999999183, -0.8431646706212165 
0.8999999999999172, -0.8425431375982496 
0.9099999999999161, -0.8418663221326005 
0.919999999999915, -0.841329976519803 
0.9299999999999139, -0.841168573589821 
0.9399999999999128, -0.8415943145875822 
0.9499999999999117, -0.842728910742976 
0.9599999999999106, -0.84457230179531 
0.9699999999999095, -0.8470304562220072 
0.9799999999999084, -0.8499749504251858 
0.9899999999999073, -0.8532920081907227 
0.9999999999999062, -0.8569057215100951 
1.0099999999999052, -0.8607858380613742 
1.019999999999904, -0.8649503365794734 
1.029999999999903, -0.8694587148527596 
1.039999999999902, -0.8743820820077012 
1.0499999999999008, -0.8797363825032157 
1.0599999999998997, -0.8853803100615224 
1.0699999999998986, -0.8909318504317589 
1.0799999999998975, -0.8958271348400905 
1.0899999999998964, -0.899573597723716 
1.0999999999998953, -0.901994640229929 
1.1099999999998942, -0.9032298433895349 
1.119999999999893, -0.9035658335098695 
1.129999999999892, -0.9033198271343318 
1.1399999999998909, -0.9028689085652143 
1.1499999999998898, -0.9027956028730537 
1.1599999999998887, -0.9040367638146236 
1.1699999999998876, -0.9077996346234496 
1.1799999999998865, -0.9150498564228439 
1.1899999999998854, -0.9258737716420218 
1.1999999999998843, -0.9394081371747257 
1.2099999999998832, -0.9544422242315814 
1.219999999999882, -0.9700456806138584 
1.229999999999881, -0.9857745298038008 
1.2399999999998799, -1.0015432547508492 
1.2499999999998788, -1.0173741531722145 
1.2599999999998777, -1.0331079004221286 
1.2699999999998766, -1.0481272825734538 
1.2799999999998755, -1.0613172948047602 
1.2899999999998744, -1.0715515335266887 
1.2999999999998733, -1.078418220340482 
1.3099999999998722, -1.0823745519523125 
1.319999999999871, -1.084253996011205 
1.32999999999987, -1.0848024375818441 
1.3399999999998689, -1.0845793430760398 
1.3499999999998678, -1.084121007437224 
1.3599999999998666, -1.0841800422598162 
1.3699999999998655, -1.0857519848693045 
1.3799999999998644, -1.0895755852337365 
1.3899999999998633, -1.0954781597776866 
1.3999999999998622, -1.1024951778760619 
1.4099999999998611, -1.1096364574281499 
1.41999999999986, -1.1163542177518428 
1.429999999999859, -1.1224969889272485 
1.4399999999998578, -1.12810445332453 
1.4499999999998567, -1.1332643875578248 
1.4599999999998556, -1.138038922599463 
1.4699999999998545, -1.1424145042038096 
1.4799999999998534, -1.146270076673972 
1.4899999999998523, -1.1494019391519181 
1.4999999999998512, -1.1516262467754523 
1.5099999999998501, -1.1528931907692275 
1.519999999999849, -1.1533161227124384 
1.529999999999848, -1.1531239838586824 
1.5399999999998468, -1.1526210163408641 
1.5499999999998457, -1.152164682105335 
1.5599999999998446, -1.152079320945588 
1.5699999999998435, -1.1525001607899665 
1.5799999999998424, -1.1533241024157703 
1.5899999999998413, -1.15435527983003 
1.5999999999998402, -1.1554612965563709 
1.6099999999998391, -1.156581365995844 
1.619999999999838, -1.1576477602928932 
1.629999999999837, -1.158551337724938 
1.6399999999998358, -1.1591800356005844 
1.6499999999998347, -1.1594697763893342 
1.6599999999998336, -1.1594210342254399 
1.6699999999998325, -1.1590769997592558 
1.6799999999998314, -1.1584818563152883 
1.6899999999998303, -1.157647639448595 
1.6999999999998292, -1.1565512762480386 
1.709999999999828, -1.1551617733386363 
1.719999999999827, -1.1534768489754155 
1.729999999999826, -1.1515408588292337 
1.7399999999998248, -1.1494277188345339 
1.7499999999998237, -1.1472068699625804 
1.7599999999998226, -1.1449477031057786 
1.7699999999998215, -1.1427893216280443 
1.7799999999998204, -1.1409902571522859 
1.7899999999998193, -1.1398187429828277 
1.7999999999998182, -1.1393184853221876 
1.809999999999817, -1.1392200114692306 
1.819999999999816, -1.1391004364916704 
1.8299999999998149, -1.1385579962818102 
1.8399999999998138, -1.1372525562964324 
1.8499999999998127, -1.1349045483461437 
1.8599999999998116, -1.1313580852003295 
1.8699999999998105, -1.126669924704773 
1.8799999999998094, -1.1210897076294413 
1.8899999999998083, -1.1149069786622756 
1.8999999999998072, -1.108304815514267 
1.909999999999806, -1.1013217958702497 
1.919999999999805, -1.093895801773686 
1.9299999999998039, -1.0859375087237941 
1.9399999999998028, -1.0774349141819948 
1.9499999999998017, -1.0686245044229326 
1.9599999999998006, -1.0601872179315088 
1.9699999999997995, -1.0532098529317022 
1.9799999999997984, -1.0486166489836328 
1.9899999999997973, -1.046442081433344 
1.9999999999997962, -1.0458468703438872 
2.0099999999998173, -1.0458088639722132 
2.0199999999998384, -1.0455820029910372 
2.0299999999998595, -1.0446558107810815 
2.0399999999998806, -1.0425345698271866 
2.0499999999999017, -1.0386004076328739 
2.059999999999923, -1.0322127381238801 
2.069999999999944, -1.0230964879543551 
2.079999999999965, -1.011706775746126 
2.089999999999986, -0.9990475305825962 
2.100000000000007, -0.9860659506336231 
2.1100000000000283, -0.9732755981373458 
2.1200000000000494, -0.9608018645007318 
2.1300000000000705, -0.9485963087684846 
2.1400000000000916, -0.9366349012518173 
2.1500000000001127, -0.9250728983795093 
2.160000000000134, -0.9143500009838486 
2.170000000000155, -0.9051670984307286 
2.180000000000176, -0.8982280846712838 
2.190000000000197, -0.8938239752129746 
2.2000000000002182, -0.8916117367234759 
2.2100000000002393, -0.8908227384918387 
2.2200000000002604, -0.8906626265652978 
2.2300000000002815, -0.8905401497575671 
2.2400000000003026, -0.8900637885140089 
2.2500000000003237, -0.8889540550696478 
2.260000000000345, -0.8870028066829738 
2.270000000000366, -0.8841255564949584 
2.280000000000387, -0.8804505167626102 
2.290000000000408, -0.8763100184889815 
2.3000000000004293, -0.8720867025439645 
2.3100000000004504, -0.8680483152811377 
2.3200000000004715, -0.8642987121559405 
2.3300000000004926, -0.8608263645370331 
2.3400000000005137, -0.8575763094232048 
2.3500000000005348, -0.8545045168234282 
2.360000000000556, -0.8516044187308525 
2.370000000000577, -0.8489084395901279 
2.380000000000598, -0.8464757655359433 
2.390000000000619, -0.8443798425567908 
2.4000000000006403, -0.8426998822861359 
2.4100000000006614, -0.8415072834057117 
2.4200000000006825, -0.840837789106868 
2.4300000000007036, -0.840659286738811 
2.4400000000007247, -0.840861940821752 
2.450000000000746, -0.8412854483487753 
2.460000000000767, -0.8417683959082195 
2.470000000000788, -0.8421932468401158 
2.480000000000809, -0.8425125087198907 
2.49000000000083, -0.842751496668243 
2.5000000000008513, -0.8429846917359083 
2.5100000000008724, -0.8432915713640308 
2.5200000000008935, -0.843710469067644 
2.5300000000009146, -0.844209029200983 
2.5400000000009357, -0.8446838485051156 
2.550000000000957, -0.8449973360392036 
2.560000000000978, -0.8450405430930357 
2.570000000000999, -0.8447858341507818 
2.58000000000102, -0.844304903717294 
2.5900000000010412, -0.8437637970813385 
2.6000000000010624, -0.8434106713751675 
2.6100000000010835, -0.843543752691026 
2.6200000000011046, -0.8444385751423573 
2.6300000000011257, -0.8462541602428948 
2.6400000000011468, -0.848983188226361 
2.650000000001168, -0.8524873060407405 
2.660000000001189, -0.8565839954528757 
2.67000000000121, -0.8611213465293266 
2.680000000001231, -0.8660126797988685 
2.6900000000012523, -0.8712419711095846 
2.7000000000012734, -0.8768552842961572 
2.7100000000012945, -0.8829363230423377 
2.7200000000013156, -0.8895491827925242 
2.7300000000013367, -0.8966313327399311 
2.740000000001358, -0.9038581371444634 
2.750000000001379, -0.9106006984483423 
2.7600000000014, -0.9161413687037383 
2.770000000001421, -0.9200548712731983 
2.780000000001442, -0.9223746275671247 
2.7900000000014633, -0.9234225067046342 
2.8000000000014844, -0.9235770936686774 
2.8100000000015055, -0.9232013813996838 
2.8200000000015266, -0.922745209485073 
2.8300000000015477, -0.9229540564333 
2.840000000001569, -0.9250159712344436 
2.85000000000159, -0.9303176597053333 
2.860000000001611, -0.9396781450766738 
2.870000000001632, -0.9527018927637444 
2.8800000000016532, -0.9680542203018492 
2.8900000000016743, -0.9843457818115138 
2.9000000000016954, -1.0007172653352294 
2.9100000000017165, -1.0168633003752015 
2.9200000000017377, -1.032776920759638 
2.9300000000017588, -1.0484428389893807 
2.94000000000178, -1.063542840709579 
2.950000000001801, -1.077276616208683 
2.960000000001822, -1.088562587929012 
2.970000000001843, -1.0966731862849677 
2.9800000000018643, -1.1017003378297279 
2.9900000000018854, -1.1043376306046582 
3.0000000000019065, -1.1053709455055685 
3.0100000000019276, -1.1054226846184343 
3.0200000000019487, -1.105012615184174 
3.03000000000197, -1.1047683645982596 
3.040000000001991, -1.1055410572571576 
3.050000000002012, -1.108104554563174 
3.060000000002033, -1.112547878079407 
3.070000000002054, -1.118165781039663 
3.0800000000020753, -1.1240606586237223 
3.0900000000020964, -1.1296635275006337 
3.1000000000021175, -1.1347763921253426 
3.1100000000021386, -1.1393994128136693 
3.1200000000021597, -1.1435949798360672 
3.130000000002181, -1.1474255442100054 
3.140000000002202, -1.1509174819246701 
3.150000000002223, -1.1540271384228626 
3.160000000002244, -1.1566301107396095 
3.1700000000022652, -1.1585670545373483 
3.1800000000022863, -1.1597348771795326 
3.1900000000023074, -1.1601541074674142 
3.2000000000023285, -1.1599692190348159 
3.2100000000023496, -1.1594177633158973 
3.2200000000023707, -1.1587990952382385 
3.230000000002392, -1.1584015514732036 
3.240000000002413, -1.1583756467941382 
3.250000000002434, -1.1586794865052876 
3.260000000002455, -1.1591851525644425 
3.2700000000024763, -1.159811684683857 
3.2800000000024974, -1.1605307488077035 
3.2900000000025185, -1.1612819906689227 
3.3000000000025396, -1.1619328635068513 
3.3100000000025607, -1.1623257891632188 
3.3200000000025818, -1.1623462231018142 
3.330000000002603, -1.1619569251760515 
3.340000000002624, -1.1611915195332922 
3.350000000002645, -1.1601162236626787 
3.360000000002666, -1.15878242575881 
3.3700000000026873, -1.1572010060324538 
3.3800000000027084, -1.155351860363334 
3.3900000000027295, -1.1532156155504576 
3.4000000000027506, -1.150800044779373 
3.4100000000027717, -1.1481397964156954 
3.420000000002793, -1.1452798110454756 
3.430000000002814, -1.14229175902787 
3.440000000002835, -1.1393538022661294 
3.450000000002856, -1.1368114889934362 
3.460000000002877, -1.1350517482236078 
3.4700000000028983, -1.1341979043410784 
3.4800000000029194, -1.133963817302639 
3.4900000000029405, -1.1338485765851463 
3.5000000000029616, -1.1333747092666575 
3.5100000000029827, -1.1321342319191845 
3.520000000003004, -1.1297446571703407 
3.530000000003025, -1.1258865923073889 
3.540000000003046, -1.1204541408515127 
3.550000000003067, -1.1136563903128822 
3.5600000000030882, -1.1058980391412143 
3.5700000000031094, -1.0975344461113297 
3.5800000000031305, -1.0887286887300371 
3.5900000000031516, -1.0794660419855078 
3.6000000000031727, -1.0696484865268856 
3.6100000000031938, -1.0592285607836756 
3.620000000003215, -1.0484058502346252 
3.630000000003236, -1.0378638832786202 
3.640000000003257, -1.0288090282414122 
3.650000000003278, -1.0224418667627917 
3.6600000000032993, -1.0190766300652445 
3.6700000000033204, -1.0179222356964144 
3.6800000000033415, -1.0177870759152803 
3.6900000000033626, -1.0177427210489074 
3.7000000000033837, -1.0172061388584221 
3.710000000003405, -1.015717188310609 
3.720000000003426, -1.0127365947539764 
3.730000000003447, -1.0076245251479565 
3.740000000003468, -0.9999068956913166 
3.750000000003489, -0.9897170550086614 
3.7600000000035103, -0.9779036025842514 
3.7700000000035314, -0.965539470848696 
3.7800000000035525, -0.953366779724979 
3.7900000000035736, -0.9416694181745365 
3.8000000000035947, -0.9304475012331658 
3.810000000003616, -0.9196250332151049 
3.820000000003637, -0.9091997787494511 
3.830000000003658, -0.8993451137270986 
3.840000000003679, -0.8904569336287549 
3.8500000000037002, -0.8830840071747941 
3.8600000000037213, -0.8776934806087364 
3.8700000000037424, -0.874380034061136 
3.8800000000037635, -0.8727704992872635 
3.8900000000037847, -0.872221069763377 
3.9000000000038058, -0.8721016622671207 
3.910000000003827, -0.8719410444442067 
3.920000000003848, -0.8714190014380364 
3.930000000003869, -0.8703158716492286 
3.94000000000389, -0.8685072474984586 
3.9500000000039113, -0.8660129347905912 
3.9600000000039324, -0.863025981115656 
3.9700000000039535, -0.8598415465491238 
3.9800000000039746, -0.8567213239178708 
3.9900000000039957, -0.8538063938351141 
4.000000000004016, -0.8511199171079828 
4.010000000003993, -0.8486186274358041 
4.02000000000397, -0.8462489359866481 
4.030000000003946, -0.843986926688458 
4.040000000003923, -0.8418539384307631 
4.0500000000039, -0.8399081635279468 
4.0600000000038765, -0.8382227527442497 
4.070000000003853, -0.8368658084485544 
4.08000000000383, -0.8358912238675167 
4.090000000003807, -0.8353353024454737 
4.100000000003783, -0.8352075607178856 
4.11000000000376, -0.8354749367118741 
4.120000000003737, -0.8360546011260086 
4.130000000003713, -0.8368298803331466 
4.14000000000369, -0.8376855275855226 
4.150000000003667, -0.8385444491743556 
4.1600000000036434, -0.8393891729669829 
4.17000000000362, -0.8402587551016021 
4.180000000003597, -0.8412202690296219 
4.1900000000035735, -0.8423244979513657 
4.20000000000355, -0.8435615698337553 
4.210000000003527, -0.8448340655833834 
4.220000000003504, -0.8459700229272912 
4.23000000000348, -0.8467873738737106 
4.240000000003457, -0.8471763318085241 
4.250000000003434, -0.8471426595179177 
4.26000000000341, -0.8468029728692356 
4.270000000003387, -0.8463729297649591 
4.280000000003364, -0.8461704691084739 
4.2900000000033405, -0.8466028462686715 
4.300000000003317, -0.8480851714496371 
4.310000000003294, -0.8508941038717968 
4.320000000003271, -0.8550559497459289 
4.330000000003247, -0.8603700752611856 
4.340000000003224, -0.8665444990543858 
4.350000000003201, -0.8733327695512484 
4.360000000003177, -0.8806020830225403 
4.370000000003154, -0.8883383746554017 
4.380000000003131, -0.8966160113448522 
4.390000000003107, -0.9055364310666791 
4.400000000003084, -0.9151130579646066 
4.410000000003061, -0.9250894102074463 
4.4200000000030375, -0.9347811030150632 
4.430000000003014, -0.9431934052152158 
4.440000000002991, -0.9495230744071614 
4.450000000002968, -0.9535983364773097 
4.460000000002944, -0.955791529368881 
4.470000000002921, -0.9566386244246912 
4.480000000002898, -0.9566056281671264 
4.490000000002874, -0.9561074643822464 
4.500000000002851, -0.9557063787218686 
4.510000000002828, -0.9563859885672039 
4.520000000002804, -0.9596260332495963 
4.530000000002781, -0.9668426607574825 
4.540000000002758, -0.9783505616717951 
4.5500000000027345, -0.9930079730641029 
4.560000000002711, -1.0090733354206174 
4.570000000002688, -1.0252259587809927 
4.580000000002665, -1.0408724538124066 
4.590000000002641, -1.055919057963434 
4.600000000002618, -1.0704306310880205 
4.610000000002595, -1.084334993634506 
4.620000000002571, -1.0972060004949244 
4.630000000002548, -1.1082587346850035 
4.640000000002525, -1.116721840788011 
4.6500000000025015, -1.1223556587224481 
4.660000000002478, -1.1255567308364858 
4.670000000002455, -1.1270033295855266 
4.6800000000024315, -1.127321165331987 
4.690000000002408, -1.127027009753657 
4.700000000002385, -1.126670147846505 
4.710000000002362, -1.1269570594868488 
4.720000000002338, -1.1285740003811282 
4.730000000002315, -1.1317082780638343 
4.740000000002292, -1.135875674337707 
4.750000000002268, -1.1403561375992415 
4.760000000002245, -1.1446552261095222 
4.770000000002222, -1.148579572058398 
4.7800000000021985, -1.1521015127122634 
4.790000000002175, -1.1552467738465009 
4.800000000002152, -1.1580535082950738 
4.810000000002129, -1.1605553231850103 
4.820000000002105, -1.1627551090644563 
4.830000000002082, -1.1645995623091077 
4.840000000002059, -1.165984695340476 
4.850000000002035, -1.16680661057339 
4.860000000002012, -1.1670285179144086 
4.870000000001989, -1.1667166132225621 
4.880000000001965, -1.1660354723849884 
4.890000000001942, -1.1652182541683938 
4.900000000001919, -1.1644987630060917 
4.9100000000018955, -1.1640105991823768 
4.920000000001872, -1.1637496895164678 
4.930000000001849, -1.16366176005597 
