t, s[1].omega / s[0].omega 
0, -1.3200451063569236 
0.009999999999999995, -1.3240530091668417 
0.019999999999999934, -1.3270359639587244 
0.029999999999999874, -1.3289634377404789 
0.04000000000000012, -1.3298902950489007 
0.050000000000000405, -1.3299798393958544 
0.06000000000000069, -1.3294767315980083 
0.07000000000000098, -1.3286748785198297 
0.08000000000000126, -1.3278494820941051 
0.09000000000000155, -1.327132858800193 
0.10000000000000184, -1.3264897888763176 
0.11000000000000212, -1.3258908830672724 
0.12000000000000241, -1.3254527434066976 
0.130000000000002, -1.325309781072205 
0.1400000000000009, -1.325371648156096 
0.1499999999999998, -1.3253083118298468 
0.1599999999999987, -1.32471741131044 
0.1699999999999976, -1.3232095923061833 
0.1799999999999965, -1.320416980538467 
0.1899999999999954, -1.3160524294499738 
0.1999999999999943, -1.3099986390018932 
0.2099999999999932, -1.3022876788088777 
0.2199999999999921, -1.2929370277158987 
0.229999999999991, -1.2817680421058275 
0.2399999999999899, -1.2683147122585963 
0.2499999999999888, -1.2518923498021726 
0.2599999999999877, -1.2320645154668592 
0.2699999999999866, -1.2099240712944255 
0.2799999999999855, -1.1895628602247537 
0.2899999999999844, -1.1762781616636078 
0.2999999999999833, -1.171186614273259 
0.3099999999999822, -1.1707691495367938 
0.3199999999999811, -1.1715253172526103 
0.32999999999998, -1.1718299812641968 
0.3399999999999789, -1.1710106860993912 
0.3499999999999778, -1.1682477398569717 
0.35999999999997667, -1.1615249721133911 
0.36999999999997557, -1.1457421093838027 
0.37999999999997447, -1.1092639918099922 
0.38999999999997337, -1.032929870584939 
0.39999999999997227, -0.908229526805225 
0.40999999999997117, -0.7661136771856719 
0.41999999999997006, -0.6489690865332461 
0.42999999999996896, -0.5683674386925673 
0.43999999999996786, -0.51601091829174 
0.44999999999996676, -0.48193446386531297 
0.45999999999996566, -0.4593043982184737 
0.46999999999996456, -0.4439688790695818 
0.47999999999996346, -0.43343766753068164 
0.48999999999996235, -0.42618370282651635 
0.49999999999996125, -0.4212392897872831 
0.5099999999999602, -0.4179700665553926 
0.519999999999959, -0.4159480007877202 
0.529999999999958, -0.41487943649512077 
0.5399999999999568, -0.4145646217680599 
0.5499999999999557, -0.4148763487092408 
0.5599999999999546, -0.4157516620540502 
0.5699999999999535, -0.41719433114135107 
0.5799999999999524, -0.41928806168712746 
0.5899999999999513, -0.4222223323576032 
0.5999999999999502, -0.4263361570956984 
0.6099999999999491, -0.4321910903126335 
0.619999999999948, -0.4406859663623873 
0.6299999999999469, -0.45318657837707255 
0.6399999999999458, -0.4714611863838626 
0.6499999999999447, -0.4967770078859267 
0.6599999999999436, -0.5275392046079931 
0.6699999999999425, -0.5577672132755835 
0.6799999999999414, -0.5810196133344718 
0.6899999999999403, -0.595598113117662 
0.6999999999999392, -0.6036048606134907 
0.7099999999999381, -0.6075960794951165 
0.719999999999937, -0.6092244741518847 
0.7299999999999359, -0.6092667327427349 
0.7399999999999348, -0.6078405567842793 
0.7499999999999337, -0.6043752490936024 
0.7599999999999326, -0.5970599628682364 
0.7699999999999315, -0.5809645444890046 
0.7799999999999304, -0.5423827893849988 
0.7899999999999293, -0.4466403148739844 
0.7999999999999282, -0.254495186930446 
0.8099999999999271, -0.04660680433572893 
0.819999999999926, 0.06711814213151535 
0.8299999999999249, 0.11359880317539461 
0.8399999999999238, 0.13283412801092717 
0.8499999999999227, 0.1414900520084354 
0.8599999999999216, 0.14561846036533876 
0.8699999999999205, 0.14756289806328435 
0.8799999999999194, 0.14833994866273725 
0.8899999999999183, 0.14846336923641953 
0.8999999999999172, 0.1482491461089895 
0.9099999999999161, 0.14793103292066417 
0.919999999999915, 0.14770784933019615 
0.9299999999999139, 0.14778304354696953 
0.9399999999999128, 0.1484362901109127 
0.9499999999999117, 0.1501662889150934 
0.9599999999999106, 0.15395180048568022 
0.9699999999999095, 0.1615854245258304 
0.9799999999999084, 0.17546612836118894 
0.9899999999999073, 0.19628112040217868 
0.9999999999999062, 0.2196404198139436 
1.0099999999999052, 0.23879560475100278 
1.019999999999904, 0.25111838046579055 
1.029999999999903, 0.25797581818510107 
1.039999999999902, 0.2614106820957292 
1.0499999999999008, 0.2627661632322505 
1.0599999999998997, 0.26268063462660113 
1.0699999999998986, 0.2613212482452032 
1.0799999999998975, 0.25857380783745787 
1.0899999999998964, 0.254258418231498 
1.0999999999998953, 0.2484699100717201 
1.1099999999998942, 0.24189502046878503 
1.119999999999893, 0.2356590550612498 
1.129999999999892, 0.23067821726633161 
1.1399999999998909, 0.22724357653139454 
1.1499999999998898, 0.22517809971539463 
1.1599999999998887, 0.22416444230402663 
1.1699999999998876, 0.2239177209862703 
1.1799999999998865, 0.22420469098731233 
1.1899999999998854, 0.2248046102145062 
1.1999999999998843, 0.22547849849910326 
1.2099999999998832, 0.2259713416375792 
1.219999999999882, 0.22602710002764156 
1.229999999999881, 0.22536569733906253 
1.2399999999998799, 0.2235668230601354 
1.2499999999998788, 0.21977453044099265 
1.2599999999998777, 0.2119585348738109 
1.2699999999998766, 0.19490767890636532 
1.2799999999998755, 0.15507147161556592 
1.2899999999998744, 0.0649610143876005 
1.2999999999998733, -0.08123789079959179 
1.3099999999998722, -0.2065155959778489 
1.319999999999871, -0.2687547331019973 
1.32999999999987, -0.29429154718155937 
1.3399999999998689, -0.30510563496070275 
1.3499999999998678, -0.310063176483086 
1.3599999999998666, -0.3124002245589391 
1.3699999999998655, -0.3133422244711349 
1.3799999999998644, -0.31335840463794706 
1.3899999999998633, -0.312602459242902 
1.3999999999998622, -0.31110354972041704 
1.4099999999998611, -0.30889996272967324 
1.41999999999986, -0.30615754971178827 
1.429999999999859, -0.3032141389037609 
1.4399999999998578, -0.3004847164257823 
1.4499999999998567, -0.29829816005430737 
1.4599999999998556, -0.29681642092281457 
1.4699999999998545, -0.2960693373879415 
1.4799999999998534, -0.2960195093770741 
1.4899999999998523, -0.29658672843400563 
1.4999999999998512, -0.2976276538676722 
1.5099999999998501, -0.29891508624747076 
1.519999999999849, -0.3001698583067812 
1.529999999999848, -0.30114309939450823 
1.5399999999998468, -0.3016789903665939 
1.5499999999998457, -0.3017058899379951 
1.5599999999998446, -0.30117251188661026 
1.5699999999998435, -0.29996032277121654 
1.5799999999998424, -0.2977511351833906 
1.5899999999998413, -0.2937131957314909 
1.5999999999998402, -0.28550085283769194 
1.6099999999998391, -0.2655177683754763 
1.619999999999838, -0.20647885105882144 
1.629999999999837, -0.030993283450305043 
1.6399999999998358, 0.25555303104430804 
1.6499999999998347, 0.42005226465356993 
1.6599999999998336, 0.4734740293972644 
1.6699999999998325, 0.4909883136551613 
1.6799999999998314, 0.49746729065027556 
1.6899999999998303, 0.499870096559018 
1.6999999999998292, 0.500330128690744 
1.709999999999828, 0.4995061607906967 
1.719999999999827, 0.4975421159183783 
1.729999999999826, 0.49446984397414634 
1.7399999999998248, 0.49050286074833754 
1.7499999999998237, 0.48619473451616735 
1.7599999999998226, 0.482276378435522 
1.7699999999998215, 0.4792779146737892 
1.7799999999998204, 0.47733296592618935 
1.7899999999998193, 0.47628194879356006 
1.7999999999998182, 0.47585382181799796 
1.809999999999817, 0.4757685580625832 
1.819999999999816, 0.4757628146769511 
1.8299999999998149, 0.47557816664138786 
1.8399999999998138, 0.47491496087099544 
1.8499999999998127, 0.4733012803571099 
1.8599999999998116, 0.4697094742783426 
1.8699999999998105, 0.46126353620576727 
1.8799999999998094, 0.437696166119198 
1.8899999999998083, 0.3483884507709119 
1.8999999999998072, -0.1427393350747965 
1.909999999999806, -1.4217656998390653 
1.919999999999805, -1.8567106976467826 
1.9299999999998039, -1.9299089263022797 
1.9399999999998028, -1.945894022153949 
1.9499999999998017, -1.9499687560084547 
1.9599999999998006, -1.950640484569685 
1.9699999999997995, -1.9502464830610098 
1.9799999999997984, -1.9501049598094482 
1.9899999999997973, -1.9506839182486124 
1.9999999999997962, -1.9512711934541183 
2.0099999999998173, -1.9514362362051063 
2.0199999999998384, -1.951466612913665 
2.0299999999998595, -1.9513908410364973 
2.0399999999998806, -1.9505540944229953 
2.0499999999999017, -1.9476957030496844 
2.059999999999923, -1.939809561256741 
2.069999999999944, -1.918100815751803 
2.079999999999965, -1.8552589455956217 
2.089999999999986, -1.6671128338572694 
2.100000000000007, -1.1836049722648108 
2.1100000000000283, -0.5534521312216711 
2.1200000000000494, -0.21903984817607536 
2.1300000000000705, -0.09587993639527646 
2.1400000000000916, -0.0477599755473092 
2.1500000000001127, -0.026229479570361165 
2.160000000000134, -0.015448380747639953 
2.170000000000155, -0.009632283215414459 
2.180000000000176, -0.006415363770531335 
2.190000000000197, -0.00476186557072715 
2.2000000000002182, -0.00424095967411119 
2.2100000000002393, -0.004772532152569055 
2.2200000000002604, -0.0065847964904505426 
2.2300000000002815, -0.010345316822095945 
2.2400000000003026, -0.017593184917742 
2.2500000000003237, -0.03196020733451567 
2.260000000000345, -0.06288685990219436 
2.270000000000366, -0.1381687171013184 
2.280000000000387, -0.34510347468363345 
2.290000000000408, -0.85882301602826 
2.3000000000004293, -1.486874997463008 
2.3100000000004504, -1.7997602690524417 
2.3200000000004715, -1.908642496233203 
2.3300000000004926, -1.9460936614776165 
2.3400000000005137, -1.959383180499011 
2.3500000000005348, -1.9639917647625402 
2.360000000000556, -1.9652048555601265 
2.370000000000577, -1.9649870942056704 
2.380000000000598, -1.9642793426119052 
2.390000000000619, -1.963451433969573 
2.4000000000006403, -1.9622596735761726 
2.4100000000006614, -1.9606777046557684 
2.4200000000006825, -1.9595518536793644 
2.4300000000007036, -1.9592780062028925 
2.4400000000007247, -1.958822793299549 
2.450000000000746, -1.9565730325746826 
2.460000000000767, -1.9486478802957918 
2.470000000000788, -1.9170504612711867 
2.480000000000809, -1.740744980017587 
2.49000000000083, -0.6647888479125935 
2.5000000000008513, 0.4287223165846428 
2.5100000000008724, 0.6006898143268626 
2.5200000000008935, 0.6334322967942884 
2.5300000000009146, 0.6428482600965755 
2.5400000000009357, 0.646077754689981 
2.550000000000957, 0.6469971960872898 
2.560000000000978, 0.6467447003373025 
2.570000000000999, 0.6457229306778032 
2.58000000000102, 0.6441525629582265 
2.5900000000010412, 0.6422797444083554 
2.6000000000010624, 0.640424577468522 
2.6100000000010835, 0.6389058499930079 
2.6200000000011046, 0.6379226968595064 
2.6300000000011257, 0.6374952803758174 
2.6400000000011468, 0.6374902939359612 
2.650000000001168, 0.637687283410536 
2.660000000001189, 0.6378373910238656 
2.67000000000121, 0.6376805291364597 
2.680000000001231, 0.6368834425728973 
2.6900000000012523, 0.6348072598077331 
2.7000000000012734, 0.6297327416991398 
2.7100000000012945, 0.6155971733757809 
2.7200000000013156, 0.562028132186542 
2.7300000000013367, 0.21116348253770928 
2.740000000001358, -1.5738939749389789 
2.750000000001379, -2.252016415364788 
2.7600000000014, -2.3305383714185366 
2.770000000001421, -2.344703040125635 
2.780000000001442, -2.347777780433593 
2.7900000000014633, -2.3479568985543238 
2.8000000000014844, -2.3473283468754347 
2.8100000000015055, -2.3465279166427333 
2.8200000000015266, -2.345102475260401 
2.8300000000015477, -2.3432260798559725 
2.840000000001569, -2.34241729966399 
2.85000000000159, -2.342249136138244 
2.860000000001611, -2.340490990415235 
2.870000000001632, -2.3321529198564797 
2.8800000000016532, -2.2846608481455717 
2.8900000000016743, -1.987173622551381 
2.9000000000016954, -3.1064576586055224 
2.9100000000017165, -3.5807680993471314 
2.9200000000017377, -3.6047105731676874 
2.9300000000017588, -3.6082028873621814 
2.94000000000178, -3.607553115968142 
2.950000000001801, -3.602605219443832 
2.960000000001822, -3.574598478995372 
2.970000000001843, -3.130180512195801 
2.9800000000018643, -2.988503485071394 
2.9900000000018854, -3.0732345024042718 
3.0000000000019065, -3.080770480747856 
3.0100000000019276, -3.0811302479882636 
3.0200000000019487, -3.080597180666874 
3.03000000000197, -3.0801225371992667 
3.040000000001991, -3.078683314645862 
3.050000000002012, -3.0777909144894844 
3.060000000002033, -3.0773593479658263 
3.070000000002054, -3.0732970901003376 
3.0800000000020753, -3.0479348764586716 
3.0900000000020964, -3.0682112917445132 
3.1000000000021175, -3.175511104357823 
3.1100000000021386, -3.1950704901611657 
3.1200000000021597, -3.199094580266623 
3.130000000002181, -3.199368726059503 
3.140000000002202, -3.19681862692166 
3.150000000002223, -3.1873688535026914 
3.160000000002244, -3.1364018528164808 
3.1700000000022652, -2.3083535171236553 
3.1800000000022863, 0.08754779594727338 
3.1900000000023074, 0.5131587098626744 
3.2000000000023285, 0.5849046168774036 
3.2100000000023496, 0.6038283842700793 
3.2200000000023707, 0.6103413002129644 
3.230000000002392, 0.6126794416901139 
3.240000000002413, 0.6130550122175348 
3.250000000002434, 0.6119860467051778 
3.260000000002455, 0.6091077013776922 
3.2700000000024763, 0.602893460147956 
3.2800000000024974, 0.5894092777695787 
3.2900000000025185, 0.5637397428582747 
3.3000000000025396, 0.5862344472607088 
3.3100000000025607, 0.8860748980346667 
3.3200000000025818, 1.0737201897104882 
3.330000000002603, 1.1125560198540092 
3.340000000002624, 1.1217428065008588 
3.350000000002645, 1.1240650998191344 
3.360000000002666, 1.1236394774876173 
3.3700000000026873, 1.1203145661924356 
3.3800000000027084, 1.1096552821031616 
3.3900000000027295, 1.071965916852832 
3.4000000000027506, 0.9539862541402544 
3.4100000000027717, 0.8430702957416966 
3.420000000002793, 0.8430434189508744 
3.430000000002814, 0.8564067934057663 
3.440000000002835, 0.8631303231696282 
3.450000000002856, 0.8658771113457895 
3.460000000002877, 0.8664842078598104 
3.4700000000028983, 0.8653722726438768 
3.4800000000029194, 0.8616737161130379 
3.4900000000029405, 0.851601153067627 
3.5000000000029616, 0.8202382242088587 
3.5100000000029827, 0.7224265537369118 
3.520000000003004, 0.947182766777939 
3.530000000003025, 1.513652605549018 
3.540000000003046, 1.5787126639325222 
3.550000000003067, 1.5880440360926389 
3.5600000000030882, 1.589550507558332 
3.5700000000031094, 1.5878716703638278 
3.5800000000031305, 1.5795400326587723 
3.5900000000031516, 1.5284891705281263 
3.6000000000031727, 1.0606008045654192 
3.6100000000031938, 0.7494206407542117 
3.620000000003215, 0.8509255512565493 
3.630000000003236, 0.8844712405346394 
3.640000000003257, 0.8946149134695875 
3.650000000003278, 0.8979558080104317 
3.6600000000032993, 0.8986183771173069 
3.6700000000033204, 0.8975505295670155 
3.6800000000033415, 0.8943901788452908 
3.6900000000033626, 0.8875514884130116 
3.7000000000033837, 0.8759184159592674 
3.710000000003405, 0.8836953144617435 
3.720000000003426, 0.9816150018381682 
3.730000000003447, 1.0705984270286222 
3.740000000003468, 1.100085120023688 
3.750000000003489, 1.1086892059060207 
3.7600000000035103, 1.1110934417179272 
3.7700000000035314, 1.11079938524179 
3.7800000000035525, 1.1076372607606217 
3.7900000000035736, 1.0967802748955684 
3.8000000000035947, 1.0507353490625988 
3.810000000003616, 0.8191168941788153 
3.820000000003637, 0.4720539516391494 
3.830000000003658, 0.44494465915077885 
3.840000000003679, 0.46955764361149 
3.8500000000037002, 0.4830240795298331 
3.8600000000037213, 0.4892636403290437 
3.8700000000037424, 0.49209015141512397 
3.8800000000037635, 0.4931086115186347 
3.8900000000037847, 0.492846694340851 
3.9000000000038058, 0.4911692894096286 
3.910000000003827, 0.48706524356729125 
3.920000000003848, 0.47721020476423004 
3.930000000003869, 0.4491616929591304 
3.94000000000389, 0.33756895192577097 
3.9500000000039113, -0.36442044155900793 
3.9600000000039324, -2.1508098310803354 
3.9700000000039535, -2.53437868587239 
3.9800000000039746, -2.5918491184926933 
3.9900000000039957, -2.6065000199395687 
4.000000000004016, -2.610986295392162 
4.010000000003993, -2.611852779719576 
4.02000000000397, -2.6108086481802077 
4.030000000003946, -2.60788619047964 
4.040000000003923, -2.600958045984902 
4.0500000000039, -2.585725169608385 
4.0600000000038765, -2.5743967530961633 
4.070000000003853, -2.5778656016075296 
4.08000000000383, -2.5799094410831365 
4.090000000003807, -2.578714697900609 
4.100000000003783, -2.575352194547875 
4.11000000000376, -2.5788642601834417 
4.120000000003737, -2.589520084463497 
4.130000000003713, -2.595304061504011 
4.14000000000369, -2.5974208667521754 
4.150000000003667, -2.597820715060188 
4.1600000000036434, -2.5964966308393462 
4.17000000000362, -2.59176045097425 
4.180000000003597, -2.577120104656573 
4.1900000000035735, -2.5208537919921215 
4.20000000000355, -2.1625048550108397 
4.210000000003527, -0.3153512602603975 
4.220000000003504, 0.43851581689095454 
4.23000000000348, 0.541874035128855 
4.240000000003457, 0.5658355225309424 
4.250000000003434, 0.573672935626297 
4.26000000000341, 0.5765919417821703 
4.270000000003387, 0.5775116765076989 
4.280000000003364, 0.5773705800779999 
4.2900000000033405, 0.5764832014469679 
4.300000000003317, 0.574984212412019 
4.310000000003294, 0.5733418720495053 
4.320000000003271, 0.5741317350427716 
4.330000000003247, 0.587018784367323 
4.340000000003224, 0.627309505029958 
4.350000000003201, 0.6809811738594108 
4.360000000003177, 0.7157037266798634 
4.370000000003154, 0.7312193799852913 
4.380000000003131, 0.7374578358073974 
4.390000000003107, 0.7396535529156985 
4.400000000003084, 0.7396612898284762 
4.410000000003061, 0.7376269115708454 
4.4200000000030375, 0.732057710813106 
4.430000000003014, 0.7179480510020965 
4.440000000002991, 0.6821792089354911 
4.450000000002968, 0.6106168230562253 
4.460000000002944, 0.540074437529657 
4.470000000002921, 0.5137712168343254 
4.480000000002898, 0.5108976628036608 
4.490000000002874, 0.5126902277061413 
4.500000000002851, 0.5143858773032612 
4.510000000002828, 0.5153211613465103 
4.520000000002804, 0.5154887277161238 
4.530000000002781, 0.5148008877384318 
4.540000000002758, 0.5128250732116719 
4.5500000000027345, 0.5082611214340143 
4.560000000002711, 0.49700724432889964 
4.570000000002688, 0.46271045561470797 
4.580000000002665, 0.3083375375315942 
4.590000000002641, -0.7119838646246928 
4.600000000002618, -2.194369529147399 
4.610000000002595, -2.452499398287602 
4.620000000002571, -2.499881427645702 
4.630000000002548, -2.5125228263587673 
4.640000000002525, -2.516174245762321 
4.6500000000025015, -2.5166352236385787 
4.660000000002478, -2.5155218180689305 
4.670000000002455, -2.512972712482282 
4.6800000000024315, -2.507611796024714 
4.690000000002408, -2.4989329294006453 
4.700000000002385, -2.4951980723726104 
4.710000000002362, -2.4968943992700106 
4.720000000002338, -2.497091894033798 
4.730000000002315, -2.493924571810383 
4.740000000002292, -2.486472917551761 
4.750000000002268, -2.4970487154620544 
4.760000000002245, -2.5242496554283216 
4.770000000002222, -2.536871031116806 
4.7800000000021985, -2.541393230835077 
4.790000000002175, -2.5428824118131543 
4.800000000002152, -2.5425573895367295 
4.810000000002129, -2.5401598120709266 
4.820000000002105, -2.5339286759432524 
4.830000000002082, -2.5173427441980465 
4.840000000002059, -2.4581057435219797 
4.850000000002035, -2.1296311916377233 
4.860000000002012, -1.2911904596242096 
4.870000000001989, -1.0705398437749651 
4.880000000001965, -1.0823093035005917 
4.890000000001942, -1.1033645329557316 
4.900000000001919, -1.1143941534764543 
4.9100000000018955, -1.1192723563969835 
4.920000000001872, -1.1209853978395297 
4.930000000001849, -1.1206802748355167 
4.940000000001826, -1.1181900515845355 
4.950000000001802, -1.111617825682633 
4.960000000001779, -1.094589928215642 
