t, s[1].omega / s[0].omega 
0, -0.7399547743678495 
0.009999999999999995, -0.7357535482084654 
0.019999999999999934, -0.7321508850195126 
0.029999999999999874, -0.7290408019057446 
0.04000000000000012, -0.7263096577727485 
0.050000000000000405, -0.7238797196869999 
0.06000000000000069, -0.7217256906929468 
0.07000000000000098, -0.719870341440696 
0.08000000000000126, -0.7183663685289503 
0.09000000000000155, -0.7172737627994547 
0.10000000000000184, -0.7166410498026442 
0.11000000000000212, -0.7164945879520934 
0.12000000000000241, -0.7168351660629759 
0.130000000000002, -0.7176391421982939 
0.1400000000000009, -0.718863441485377 
0.1499999999999998, -0.7204564084081069 
0.1599999999999987, -0.7223756743662603 
0.1699999999999976, -0.7246098308072538 
0.1799999999999965, -0.7271961935943587 
0.1899999999999954, -0.7302253448427828 
0.1999999999999943, -0.7338242764760835 
0.2099999999999932, -0.7381089729504885 
0.2199999999999921, -0.7430932621139117 
0.229999999999991, -0.7485607743749212 
0.2399999999999899, -0.753992538707723 
0.2499999999999888, -0.7587115050245539 
0.2599999999999877, -0.7622189234665893 
0.2699999999999866, -0.7644032095941818 
0.2799999999999855, -0.7654464104678189 
0.2899999999999844, -0.7656201056830718 
0.2999999999999833, -0.7651830263010684 
0.3099999999999822, -0.7644337415777753 
0.3199999999999811, -0.7639391170096556 
0.32999999999998, -0.7650284222210063 
0.3399999999999789, -0.7706459814665669 
0.3499999999999778, -0.7862939025488977 
0.35999999999997667, -0.8197269098094541 
0.36999999999997557, -0.8770827005759229 
0.37999999999997447, -0.9561095740609774 
0.38999999999997337, -1.0447351813145551 
0.39999999999997227, -1.1295429067604152 
0.40999999999997117, -1.2031503095224283 
0.41999999999997006, -1.2633255807761856 
0.42999999999996896, -1.3095313641467758 
0.43999999999996786, -1.3418442715080285 
0.44999999999996676, -1.3618466200554153 
0.45999999999996566, -1.3727573590686841 
0.46999999999996456, -1.3780339312212873 
0.47999999999996346, -1.3801904288507476 
0.48999999999996235, -1.3806932828036733 
0.49999999999996125, -1.3804100930351288 
0.5099999999999602, -1.3800797729602161 
0.519999999999959, -1.3804335317689573 
0.529999999999958, -1.3817652259334516 
0.5399999999999568, -1.3836659863222303 
0.5499999999999557, -1.3855509413283074 
0.5599999999999546, -1.3871553214934402 
0.5699999999999535, -1.3884601494573119 
0.5799999999999524, -1.389441159553028 
0.5899999999999513, -1.389992514056602 
0.5999999999999502, -1.3899951698897557 
0.6099999999999491, -1.3893781328058603 
0.619999999999948, -1.3881270063997462 
0.6299999999999469, -1.386255945978047 
0.6399999999999458, -1.383764639901215 
0.6499999999999447, -1.3806056522811982 
0.6599999999999436, -1.3766702127306476 
0.6699999999999425, -1.3717731475571244 
0.6799999999999414, -1.3656375292490484 
0.6899999999999403, -1.3579991743031394 
0.6999999999999392, -1.3490919026028056 
0.7099999999999381, -1.3404591163489166 
0.719999999999937, -1.334626008188594 
0.7299999999999359, -1.332524027809959 
0.7399999999999348, -1.332542207236711 
0.7499999999999337, -1.3327757233468156 
0.7599999999999326, -1.3321441871939754 
0.7699999999999315, -1.3296894143351166 
0.7799999999999304, -1.3232596326351769 
0.7899999999999293, -1.3068558425731065 
0.7999999999999282, -1.2640665501436055 
0.8099999999999271, -1.158318557212374 
0.819999999999926, -0.9551163787666036 
0.8299999999999249, -0.7119791842337229 
0.8399999999999238, -0.5310729059040877 
0.8499999999999227, -0.4262591508007135 
0.8599999999999216, -0.3685677340056251 
0.8699999999999205, -0.33580835055224206 
0.8799999999999194, -0.3162683458844666 
0.8899999999999183, -0.30408054812847346 
0.8999999999999172, -0.29622373532867596 
0.9099999999999161, -0.29107210487606544 
0.919999999999915, -0.287716470703063 
0.9299999999999139, -0.28563819985427796 
0.9399999999999128, -0.2845474753250935 
0.9499999999999117, -0.2843029292450142 
0.9599999999999106, -0.2848761092897035 
0.9699999999999095, -0.2863461087308409 
0.9799999999999084, -0.2889224550081509 
0.9899999999999073, -0.2930060961179667 
0.9999999999999062, -0.2993165728528194 
1.0099999999999052, -0.3091516025923188 
1.019999999999904, -0.3249330361430621 
1.029999999999903, -0.3513896034077475 
1.039999999999902, -0.39805384211021266 
1.0499999999999008, -0.48329531661988456 
1.0599999999998997, -0.6319735506598907 
1.0699999999998986, -0.834839123688344 
1.0799999999998975, -1.007771298453903 
1.0899999999998964, -1.100049532954428 
1.0999999999998953, -1.1384142674756066 
1.1099999999998942, -1.1534030484226512 
1.119999999999893, -1.1592111298609546 
1.129999999999892, -1.1611909485123646 
1.1399999999998909, -1.1612691625122085 
1.1499999999998898, -1.160148385287819 
1.1599999999998887, -1.1584194709920195 
1.1699999999998876, -1.157968927030037 
1.1799999999998865, -1.1638095457744686 
1.1899999999998854, -1.1823360291790297 
1.1999999999998843, -1.2130251582353386 
1.2099999999998832, -1.2469135102721993 
1.219999999999882, -1.2765292612514707 
1.229999999999881, -1.3000638714984043 
1.2399999999998799, -1.318498930544055 
1.2499999999998788, -1.333123942642642 
1.2599999999998777, -1.3447631329645415 
1.2699999999998766, -1.3537669478264545 
1.2799999999998755, -1.3602604536497067 
1.2899999999998744, -1.3644384988454692 
1.2999999999998733, -1.3666987444061014 
1.3099999999998722, -1.3675527556024165 
1.319999999999871, -1.3674968812240127 
1.32999999999987, -1.3669939461604712 
1.3399999999998689, -1.3664874123693926 
1.3499999999998678, -1.3662723255793634 
1.3599999999998666, -1.3663337250761205 
1.3699999999998655, -1.3664815631996163 
1.3799999999998644, -1.3666389334868732 
1.3899999999998633, -1.3668718116756031 
1.3999999999998622, -1.3671693675223908 
1.4099999999998611, -1.3673198436427518 
1.41999999999986, -1.3670064096810157 
1.429999999999859, -1.3659202464541553 
1.4399999999998578, -1.3638012797189556 
1.4499999999998567, -1.3604737151977957 
1.4599999999998556, -1.3558718876571512 
1.4699999999998545, -1.3499892612570297 
1.4799999999998534, -1.342757469621817 
1.4899999999998523, -1.3339278703880362 
1.4999999999998512, -1.322998136678975 
1.5099999999998501, -1.3092480238538846 
1.519999999999849, -1.2921736390418777 
1.529999999999848, -1.272840499179934 
1.5399999999998468, -1.2554578717399922 
1.5499999999998457, -1.2451155430753613 
1.5599999999998446, -1.2420620274470986 
1.5699999999998435, -1.242430123689592 
1.5799999999998424, -1.243178754574871 
1.5899999999998413, -1.2430871685315406 
1.5999999999998402, -1.2414662359368966 
1.6099999999998391, -1.2368905686820209 
1.619999999999838, -1.2252881861404865 
1.629999999999837, -1.194887639995191 
1.6399999999998358, -1.1145237200880809 
1.6499999999998347, -0.9330649657785809 
1.6599999999998336, -0.6721327983374665 
1.6699999999998325, -0.4640566964637679 
1.6799999999998314, -0.34948291921096364 
1.6899999999998303, -0.29154836355207525 
1.6999999999998292, -0.2609726556919579 
1.709999999999828, -0.24368023008070833 
1.719999999999827, -0.23326851442878288 
1.729999999999826, -0.22669393347852296 
1.7399999999998248, -0.222422226374636 
1.7499999999998237, -0.2196460702018117 
1.7599999999998226, -0.21794026408147454 
1.7699999999998215, -0.2171049538463164 
1.7799999999998204, -0.21709886530461983 
1.7899999999998193, -0.21802597313115957 
1.7999999999998182, -0.22016891149270026 
1.809999999999817, -0.22408636671649465 
1.819999999999816, -0.23082832397425782 
1.8299999999998149, -0.24240270176562367 
1.8399999999998138, -0.26282101834430344 
1.8499999999998127, -0.3005201600959125 
1.8599999999998116, -0.3738294459546064 
1.8699999999998105, -0.5201667417675441 
1.8799999999998094, -0.7886494512842099 
1.8899999999998083, -1.1458528195728594 
1.8999999999998072, -1.4258126767275214 
1.909999999999806, -1.5634275820317982 
1.919999999999805, -1.6169002177345395 
1.9299999999998039, -1.6363246671159313 
1.9399999999998028, -1.643273893686409 
1.9499999999998017, -1.6455094344229497 
1.9599999999998006, -1.645802232855278 
1.9699999999997995, -1.6454030331406535 
1.9799999999997984, -1.645282056264146 
1.9899999999997973, -1.645976803508081 
1.9999999999997962, -1.6470976657667904 
2.0099999999998173, -1.6480294180276431 
2.0199999999998384, -1.6486581769847526 
2.0299999999998595, -1.649103262520617 
2.0399999999998806, -1.649249182907265 
2.0499999999999017, -1.6487201741835116 
2.059999999999923, -1.6470096270353216 
2.069999999999944, -1.6434495004268896 
2.079999999999965, -1.6371392780873475 
2.089999999999986, -1.6268807657985103 
2.100000000000007, -1.6108786491422797 
2.1100000000000283, -1.5858092117407925 
2.1200000000000494, -1.544875745620831 
2.1300000000000705, -1.475830914521542 
2.1400000000000916, -1.3701034075751277 
2.1500000000001127, -1.261019898703619 
2.160000000000134, -1.2058812479503187 
2.170000000000155, -1.1967852702133308 
2.180000000000176, -1.2006883405070763 
2.190000000000197, -1.2044852754272704 
2.2000000000002182, -1.2062947896903218 
2.2100000000002393, -1.206318759689012 
2.2200000000002604, -1.2043231298945156 
2.2300000000002815, -1.1985720276876048 
2.2400000000003026, -1.1829344496296936 
2.2500000000003237, -1.1347231665426167 
2.260000000000345, -0.9574998134115192 
2.270000000000366, -0.3238915721265679 
2.280000000000387, 0.4094432983811774 
2.290000000000408, 0.5921581234738545 
2.3000000000004293, 0.6304116315448075 
2.3100000000004504, 0.6413869853695556 
2.3200000000004715, 0.6451112260363873 
2.3300000000004926, 0.6461322872715237 
2.3400000000005137, 0.6456931458118768 
2.3500000000005348, 0.6440931556637912 
2.360000000000556, 0.6413582998556 
2.370000000000577, 0.637608528945018 
2.380000000000598, 0.6333191071901723 
2.390000000000619, 0.6292684648765741 
2.4000000000006403, 0.6261195711091165 
2.4100000000006614, 0.6240802370781932 
2.4200000000006825, 0.6229622517724258 
2.4300000000007036, 0.6224228245488438 
2.4400000000007247, 0.6221198536361627 
2.450000000000746, 0.6217391570832496 
2.460000000000767, 0.6209305227387418 
2.470000000000788, 0.6191202282688072 
2.480000000000809, 0.614943639302943 
2.49000000000083, 0.6040391185190438 
2.5000000000008513, 0.5670216043142217 
2.5100000000008724, 0.36234265131948756 
2.5200000000008935, -1.1487197145757606 
2.5300000000009146, -2.3489566772918917 
2.5400000000009357, -2.4858816132018977 
2.550000000000957, -2.508042684642093 
2.560000000000978, -2.512877632600767 
2.570000000000999, -2.513528755416499 
2.58000000000102, -2.5127990653749177 
2.5900000000010412, -2.5113768105617926 
2.6000000000010624, -2.508680023310534 
2.6100000000010835, -2.5050029291815052 
2.6200000000011046, -2.503689475271691 
2.6300000000011257, -2.5040250277891194 
2.6400000000011468, -2.5026173035268733 
2.650000000001168, -2.495021130471939 
2.660000000001189, -2.4688102987057094 
2.67000000000121, -2.5150422027287234 
2.680000000001231, -2.6155595925634834 
2.6900000000012523, -2.644714566030409 
2.7000000000012734, -2.6530400561771073 
2.7100000000012945, -2.65576131086323 
2.7200000000013156, -2.6560409639686986 
2.7300000000013367, -2.654339652399558 
2.740000000001358, -2.649602563644717 
2.750000000001379, -2.636795110157908 
2.7600000000014, -2.589555936699048 
2.770000000001421, -2.397322853945766 
2.780000000001442, -2.307673255785764 
2.7900000000014633, -2.3514089896246677 
2.8000000000014844, -2.362458816181154 
2.8100000000015055, -2.364289205351728 
2.8200000000015266, -2.3635878424296086 
2.8300000000015477, -2.363158605782762 
2.840000000001569, -2.3653288191149464 
2.85000000000159, -2.3678713952144457 
2.860000000001611, -2.369086091947533 
2.870000000001632, -2.3694859006209694 
2.8800000000016532, -2.3691392287495656 
2.8900000000016743, -2.3669852951989365 
2.9000000000016954, -2.359675663532916 
2.9100000000017165, -2.333308717506053 
2.9200000000017377, -2.2095675728401223 
2.9300000000017588, -1.4618993573099126 
2.94000000000178, -0.04984446339877819 
2.950000000001801, 0.30969145104545376 
2.960000000001822, 0.3802958903303303 
2.970000000001843, 0.4007948335689379 
2.9800000000018643, 0.40844480931938054 
2.9900000000018854, 0.4116573839442369 
3.0000000000019065, 0.41298512579604835 
3.0100000000019276, 0.41337850943189586 
3.0200000000019487, 0.4132534405402434 
3.03000000000197, 0.4128446938940395 
3.040000000001991, 0.41241863228652653 
3.050000000002012, 0.4126426975122152 
3.060000000002033, 0.415601108962237 
3.070000000002054, 0.4270048625442658 
3.0800000000020753, 0.45593658762928235 
3.0900000000020964, 0.4996580261055052 
3.1000000000021175, 0.5365892339155415 
3.1100000000021386, 0.5571100875924714 
3.1200000000021597, 0.5666000694535037 
3.130000000002181, 0.570644064155857 
3.140000000002202, 0.5719545847388575 
3.150000000002223, 0.571477244726851 
3.160000000002244, 0.5691064105473762 
3.1700000000022652, 0.5636926824904485 
3.1800000000022863, 0.5526002279855191 
3.1900000000023074, 0.5321058021430203 
3.2000000000023285, 0.5025732408102772 
3.2100000000023496, 0.47474398029385495 
3.2200000000023707, 0.4583834173109363 
3.230000000002392, 0.45167496715180777 
3.240000000002413, 0.44949467506491103 
3.250000000002434, 0.44890499293293384 
3.260000000002455, 0.44872120911145535 
3.2700000000024763, 0.44847206113760646 
3.2800000000024974, 0.44787997626960696 
3.2900000000025185, 0.4466037626502176 
3.3000000000025396, 0.44396392600212103 
3.3100000000025607, 0.43825832727712893 
3.3200000000025818, 0.4242653234893215 
3.330000000002603, 0.38098573427111687 
3.340000000002624, 0.1843019355736995 
3.350000000002645, -0.9199024626060834 
3.360000000002666, -2.1321521305914124 
3.3700000000026873, -2.347068671931691 
3.3800000000027084, -2.3861942976260315 
3.3900000000027295, -2.3956725352377504 
3.4000000000027506, -2.3979441899570633 
3.4100000000027717, -2.3978634609512115 
3.420000000002793, -2.396851054832323 
3.430000000002814, -2.3950812930798713 
3.440000000002835, -2.3919237677363783 
3.450000000002856, -2.388472583962426 
3.460000000002877, -2.387704396673277 
3.4700000000028983, -2.3879335031189366 
3.4800000000029194, -2.386167597817731 
3.4900000000029405, -2.377528256875022 
3.5000000000029616, -2.3441426941843977 
3.5100000000029827, -2.3860025876453537 
3.520000000003004, -2.5547465191025207 
3.530000000003025, -2.6040672551078576 
3.540000000003046, -2.6170315566421607 
3.550000000003067, -2.6213432935871706 
3.5600000000030882, -2.622488472520554 
3.5700000000031094, -2.6216647434526115 
3.5800000000031305, -2.6186017741144103 
3.5900000000031516, -2.6109175792620647 
3.6000000000031727, -2.5876018947218467 
3.6100000000031938, -2.502716445710539 
3.620000000003215, -2.4114044347585 
3.630000000003236, -2.438047498053311 
3.640000000003257, -2.4490599871396608 
3.650000000003278, -2.45090976137313 
3.6600000000032993, -2.4500737800807513 
3.6700000000033204, -2.449586967402965 
3.6800000000033415, -2.452171151485033 
3.6900000000033626, -2.45498786936887 
3.7000000000033837, -2.45624289143511 
3.710000000003405, -2.4566037604895854 
3.720000000003426, -2.4560604336904186 
3.730000000003447, -2.4532632525276914 
3.740000000003468, -2.4433818049308065 
3.750000000003489, -2.402589755425894 
3.7600000000035103, -2.1561828014748863 
3.7700000000035314, -0.7057392036366407 
3.7800000000035525, 0.3061442462601937 
3.7900000000035736, 0.459063530113555 
3.8000000000035947, 0.4924008837605093 
3.810000000003616, 0.5029888908257009 
3.820000000003637, 0.5070541311824852 
3.830000000003658, 0.5086821896495374 
3.840000000003679, 0.5092362600620944 
3.8500000000037002, 0.5092985260605142 
3.8600000000037213, 0.509221309610445 
3.8700000000037424, 0.5093716095575065 
3.8800000000037635, 0.5103579767252717 
3.8900000000037847, 0.5133227468031498 
3.9000000000038058, 0.5200210702207319 
3.910000000003827, 0.5316379649840495 
3.920000000003848, 0.546242439943139 
3.930000000003869, 0.5592984940472705 
3.94000000000389, 0.5681162113056215 
3.9500000000039113, 0.573017799081162 
3.9600000000039324, 0.5752478714219165 
3.9700000000039535, 0.5756522898649263 
3.9800000000039746, 0.5743780866577088 
3.9900000000039957, 0.5706110658567647 
4.000000000004016, 0.5614957057541978 
4.010000000003993, 0.5387408832376577 
4.02000000000397, 0.4830217647361626 
4.030000000003946, 0.38475846978016853 
4.040000000003923, 0.3022922164919869 
4.0500000000039, 0.27052470206298984 
4.0600000000038765, 0.263071737752693 
4.070000000003853, 0.2620626269229042 
4.08000000000383, 0.26229343236925806 
4.090000000003807, 0.26255857562579227 
4.100000000003783, 0.26259446420732185 
4.11000000000376, 0.26230947371836144 
4.120000000003737, 0.2615799908201244 
4.130000000003713, 0.260147883200813 
4.14000000000369, 0.2574581464909179 
4.150000000003667, 0.2522347420787147 
4.1600000000036434, 0.24114875719990492 
4.17000000000362, 0.21377917020614653 
4.180000000003597, 0.12843155276869042 
4.1900000000035735, -0.22336288577038793 
4.20000000000355, -1.2749492443995494 
4.210000000003527, -1.911706721342631 
4.220000000003504, -2.044106590993602 
4.23000000000348, -2.0732937836712075 
4.240000000003457, -2.0809608003070994 
4.250000000003434, -2.082843278873292 
4.26000000000341, -2.0827993210887294 
4.270000000003387, -2.0822603253365135 
4.280000000003364, -2.0818208114719448 
4.2900000000033405, -2.0811559677554134 
4.300000000003317, -2.0800822506306793 
4.310000000003294, -2.079325173865013 
4.320000000003271, -2.0791039064731422 
4.330000000003247, -2.078298593233521 
4.340000000003224, -2.074890052925597 
4.350000000003201, -2.062127784104202 
4.360000000003177, -2.0004600917059583 
4.370000000003154, -1.537810092040667 
4.380000000003131, 0.1947791254161124 
4.390000000003107, 0.6782014896876202 
4.400000000003084, 0.7406061410256293 
4.410000000003061, 0.7547973251051524 
4.4200000000030375, 0.7591530012771652 
4.430000000003014, 0.7603832773089112 
4.440000000002991, 0.7601365013070683 
4.450000000002968, 0.7588461379488313 
4.460000000002944, 0.7566202979984195 
4.470000000002921, 0.7536146743806833 
4.480000000002898, 0.7502453049275062 
4.490000000002874, 0.7471360349328663 
4.500000000002851, 0.7447920671007003 
4.510000000002828, 0.743341687852967 
4.520000000002804, 0.74258645094052 
4.530000000002781, 0.7421958500056043 
4.540000000002758, 0.7418263681091599 
4.5500000000027345, 0.7411051107634541 
4.560000000002711, 0.739446867570959 
4.570000000002688, 0.7354353507588491 
4.580000000002665, 0.7242224653245002 
4.590000000002641, 0.6813133655138791 
4.600000000002618, 0.3765676653931712 
4.610000000002595, -1.7907301495221133 
4.620000000002571, -2.609624395361533 
4.630000000002548, -2.6886369956661977 
4.640000000002525, -2.7025752853947425 
4.6500000000025015, -2.705533189453294 
4.660000000002478, -2.70546077625494 
4.670000000002455, -2.704046771166826 
4.6800000000024315, -2.700959163197332 
4.690000000002408, -2.6947275724414768 
4.700000000002385, -2.689722182176969 
4.710000000002362, -2.690693747751671 
4.720000000002338, -2.69105269522527 
4.730000000002315, -2.688012105047772 
4.740000000002292, -2.680819445768061 
4.750000000002268, -2.6932117922389924 
4.760000000002245, -2.7149846377491573 
4.770000000002222, -2.7233553874294136 
4.7800000000021985, -2.7260225758176357 
4.790000000002175, -2.7264038026746107 
4.800000000002152, -2.724740444394524 
4.810000000002129, -2.7192640430364317 
4.820000000002105, -2.7022916373019745 
4.830000000002082, -2.628047994515006 
4.840000000002059, -1.9811486996775922 
4.850000000002035, 0.00580829549600124 
4.860000000002012, 0.44978917590482775 
4.870000000001989, 0.5221404502135558 
4.880000000001965, 0.5413523684254823 
4.890000000001942, 0.5480687296771884 
4.900000000001919, 0.550572726039174 
4.9100000000018955, 0.5511472078864068 
4.920000000001872, 0.5504266745514641 
4.930000000001849, 0.5483097181634007 
4.940000000001826, 0.5439885000912057 
4.950000000001802, 0.5355806673024535 
4.960000000001779, 0.5214065657689678 
