t, s[1].omega / s[0].omega 
0, -0.7598313807731327 
0.009999999999999995, -0.7443879416349086 
0.019999999999999934, -0.7315421869156543 
0.029999999999999874, -0.7208223780806235 
0.04000000000000012, -0.7117807369775617 
0.050000000000000405, -0.7040983891711405 
0.06000000000000069, -0.6975877103884709 
0.07000000000000098, -0.6921612772822318 
0.08000000000000126, -0.6877904842972483 
0.09000000000000155, -0.6844609294934753 
0.10000000000000184, -0.6821309343503078 
0.11000000000000212, -0.6807037879255167 
0.12000000000000241, -0.6800240628139098 
0.130000000000002, -0.6798988872863185 
0.1400000000000009, -0.68013278932104 
0.1499999999999998, -0.6805610888703277 
0.1599999999999987, -0.6810737319506838 
0.1699999999999976, -0.6816289022220621 
0.1799999999999965, -0.6822551857244671 
0.1899999999999954, -0.6830372930806463 
0.1999999999999943, -0.6840843017291754 
0.2099999999999932, -0.6854875295904669 
0.2199999999999921, -0.6872738219847557 
0.229999999999991, -0.6893580231179982 
0.2399999999999899, -0.6915200227670859 
0.2499999999999888, -0.6934552362359951 
0.2599999999999877, -0.6948990960070518 
0.2699999999999866, -0.6957314372669453 
0.2799999999999855, -0.6959827538648753 
0.2899999999999844, -0.6957825556181855 
0.2999999999999833, -0.6953388016959752 
0.3099999999999822, -0.6950025659243313 
0.3199999999999811, -0.6954435083042099 
0.32999999999998, -0.6979463074432848 
0.3399999999999789, -0.7047693778419207 
0.3499999999999778, -0.7193234745403363 
0.35999999999997667, -0.7456943991350101 
0.36999999999997557, -0.7871137233764604 
0.37999999999997447, -0.8438892278241534 
0.38999999999997337, -0.9125637437049925 
0.39999999999997227, -0.9874440648712379 
0.40999999999997117, -1.0628581963717538 
0.41999999999997006, -1.1337425325100043 
0.42999999999996896, -1.19485792216604 
0.43999999999996786, -1.241334570882347 
0.44999999999996676, -1.2715362734691218 
0.45999999999996566, -1.288367806010764 
0.46999999999996456, -1.2966605769863215 
0.47999999999996346, -1.3002954920957348 
0.48999999999996235, -1.3015265730399173 
0.49999999999996125, -1.3015226914960292 
0.5099999999999602, -1.3010544131756103 
0.519999999999959, -1.3010038252141432 
0.529999999999958, -1.302337885724569 
0.5399999999999568, -1.3053401302150716 
0.5499999999999557, -1.3092570221024329 
0.5599999999999546, -1.3131236191424815 
0.5699999999999535, -1.3164636515516928 
0.5799999999999524, -1.3192106811824622 
0.5899999999999513, -1.3214129779447092 
0.5999999999999502, -1.3231022406012825 
0.6099999999999491, -1.324299367277756 
0.619999999999948, -1.325034807578755 
0.6299999999999469, -1.325338064489197 
0.6399999999999458, -1.3252157986241082 
0.6499999999999447, -1.3246471551924737 
0.6599999999999436, -1.3236053709461761 
0.6699999999999425, -1.3220898282891405 
0.6799999999999414, -1.320138749408297 
0.6899999999999403, -1.3177997571648317 
0.6999999999999392, -1.3150866366461404 
0.7099999999999381, -1.3120313016271516 
0.719999999999937, -1.308888360823823 
0.7299999999999359, -1.30626190099917 
0.7399999999999348, -1.3047370811545518 
0.7499999999999337, -1.3042517339914064 
0.7599999999999326, -1.3041355622062134 
0.7699999999999315, -1.3036413513000265 
0.7799999999999304, -1.3020807859624977 
0.7899999999999293, -1.2985322564350532 
0.7999999999999282, -1.2914918454948858 
0.8099999999999271, -1.2788389629790036 
0.819999999999926, -1.2585362971875838 
0.8299999999999249, -1.2297739198693514 
0.8399999999999238, -1.1931770933045036 
0.8499999999999227, -1.1497390311139564 
0.8599999999999216, -1.1000549936473054 
0.8699999999999205, -1.0450136080440386 
0.8799999999999194, -0.9877018590822697 
0.8899999999999183, -0.934738694642725 
0.8999999999999172, -0.8939360225795239 
0.9099999999999161, -0.8688977165226897 
0.919999999999915, -0.857029887020275 
0.9299999999999139, -0.852976286709891 
0.9399999999999128, -0.8523373423537353 
0.9499999999999117, -0.8526770737389562 
0.9599999999999106, -0.8529199886503754 
0.9699999999999095, -0.8525943769433753 
0.9799999999999084, -0.8513659911463363 
0.9899999999999073, -0.8488166768618223 
0.9999999999999062, -0.8444174595275064 
1.0099999999999052, -0.8377525950601197 
1.019999999999904, -0.8289519937818097 
1.029999999999903, -0.8188909203737513 
1.039999999999902, -0.8087534043103203 
1.0499999999999008, -0.7993914590093661 
1.0599999999998997, -0.7911200972167534 
1.0699999999998986, -0.7838980353086703 
1.0799999999998975, -0.7775553534686835 
1.0899999999998964, -0.7719268604470769 
1.0999999999998953, -0.7669045439700412 
1.1099999999998942, -0.7624469181501754 
1.119999999999893, -0.758568998061561 
1.129999999999892, -0.755323382402604 
1.1399999999998909, -0.7527740077268448 
1.1499999999998898, -0.7509621828467374 
1.1599999999998887, -0.7498721396812762 
1.1699999999998876, -0.7494128848614686 
1.1799999999998865, -0.7494298804147687 
1.1899999999998854, -0.7497420772078234 
1.1999999999998843, -0.7501852556611983 
1.2099999999998832, -0.7506456590499473 
1.219999999999882, -0.7510789396927271 
1.229999999999881, -0.7515123772943301 
1.2399999999998799, -0.7520259001952752 
1.2499999999998788, -0.7527135390077985 
1.2599999999998777, -0.7536376463318344 
1.2699999999998766, -0.7547884411140517 
1.2799999999998755, -0.7560597361627984 
1.2899999999998744, -0.7572620481937676 
1.2999999999998733, -0.7581891105664231 
1.3099999999998722, -0.7587056501609044 
1.319999999999871, -0.7587941426859544 
1.32999999999987, -0.758548221296247 
1.3399999999998689, -0.7581600431146578 
1.3499999999998678, -0.7579420527068447 
1.3599999999998666, -0.7583759247583953 
1.3699999999998655, -0.7601339904921693 
1.3799999999998644, -0.7639974556690637 
1.3899999999998633, -0.7706476986590665 
1.3999999999998622, -0.7804350241359168 
1.4099999999998611, -0.793301667958314 
1.41999999999986, -0.8089268371478134 
1.429999999999859, -0.8269809034733342 
1.4399999999998578, -0.8473240347877262 
1.4499999999998567, -0.8700550641035234 
1.4599999999998556, -0.8953572339277628 
1.4699999999998545, -0.9230429948241486 
1.4799999999998534, -0.9517691997009884 
1.4899999999998523, -0.9785366332691788 
1.4999999999998512, -0.9998366331622839 
1.5099999999998501, -1.014070608958461 
1.519999999999849, -1.0222289300961618 
1.529999999999848, -1.0263263282080677 
1.5399999999998468, -1.0280159053382307 
1.5499999999998457, -1.0282904204004917 
1.5599999999998446, -1.0277228596639563 
1.5699999999998435, -1.0268714364781337 
1.5799999999998424, -1.0268438972916232 
1.5899999999998413, -1.0298472103167078 
1.5999999999998402, -1.0387238671993468 
1.6099999999998391, -1.0546899398140508 
1.619999999999838, -1.0756725675510057 
1.629999999999837, -1.098024582353112 
1.6399999999998358, -1.1191713633914449 
1.6499999999998347, -1.1382274148478913 
1.6599999999998336, -1.155259814444436 
1.6699999999998325, -1.170540939596172 
1.6799999999998314, -1.184133037129113 
1.6899999999998303, -1.1957492767729303 
1.6999999999998292, -1.2049079493098809 
1.709999999999828, -1.2113311289831588 
1.719999999999827, -1.2152288849912212 
1.729999999999826, -1.2171767665516584 
1.7399999999998248, -1.2178078261380438 
1.7499999999998237, -1.2176654842648282 
1.7599999999998226, -1.2172654593993628 
1.7699999999998215, -1.2171798288237843 
1.7799999999998204, -1.2178926858434125 
1.7899999999998193, -1.2194755042159577 
1.7999999999998182, -1.2215649588387718 
1.809999999999817, -1.2237327403580678 
1.819999999999816, -1.2257489567752557 
1.8299999999998149, -1.227542126740134 
1.8399999999998138, -1.2290688595827477 
1.8499999999998127, -1.23026928899481 
1.8599999999998116, -1.23109804056709 
1.8699999999998105, -1.2315516296144096 
1.8799999999998094, -1.2316584427232173 
1.8899999999998083, -1.231445540701555 
1.8999999999998072, -1.2309116915292564 
1.909999999999806, -1.2300281112936364 
1.919999999999805, -1.2287666725194084 
1.9299999999998039, -1.227133816526318 
1.9399999999998028, -1.2251809083777274 
1.9499999999998017, -1.222976156111541 
1.9599999999998006, -1.220569185843004 
1.9699999999997995, -1.2180262939448894 
1.9799999999997984, -1.2155531174905332 
1.9899999999997973, -1.2135434358530814 
1.9999999999997962, -1.212347249178427 
2.0099999999998173, -1.2119185592947268 
2.0199999999998384, -1.2118099566013576 
2.0299999999998595, -1.211471687330331 
2.0399999999998806, -1.2104064756387252 
2.0499999999999017, -1.2081086621543833 
2.059999999999923, -1.2040172975465546 
2.069999999999944, -1.1976540616090925 
2.079999999999965, -1.1888860783454314 
2.089999999999986, -1.1780045126974799 
2.100000000000007, -1.1654569771583836 
2.1100000000000283, -1.151506310580308 
2.1200000000000494, -1.1361075058339687 
2.1300000000000705, -1.1190225569619863 
2.1400000000000916, -1.100146920079136 
2.1500000000001127, -1.0801050941825252 
2.160000000000134, -1.0609133114074827 
2.170000000000155, -1.0456894878402045 
2.180000000000176, -1.03657176869581 
2.190000000000197, -1.0329024485414842 
2.2000000000002182, -1.0322602357497004 
2.2100000000002393, -1.032541561177582 
2.2200000000002604, -1.0326138595880796 
2.2300000000002815, -1.0318963725494976 
2.2400000000003026, -1.0298293248569288 
2.2500000000003237, -1.0254854135857099 
2.260000000000345, -1.0173589787067074 
2.270000000000366, -1.0036668875202883 
2.280000000000387, -0.9835926281420265 
2.290000000000408, -0.95859970926997 
2.3000000000004293, -0.9317747993814619 
2.3100000000004504, -0.905743252607176 
2.3200000000004715, -0.8816973156497893 
2.3300000000004926, -0.8598235443558186 
2.3400000000005137, -0.8399850222564371 
2.3500000000005348, -0.8221331094490557 
2.360000000000556, -0.806459627144181 
2.370000000000577, -0.7933575967759408 
2.380000000000598, -0.7832220787909899 
2.390000000000619, -0.7761775479206694 
2.4000000000006403, -0.7719111107723619 
2.4100000000006614, -0.7697466435308394 
2.4200000000006825, -0.7688925509689576 
2.4300000000007036, -0.7686670177662275 
2.4400000000007247, -0.7685846123225067 
2.450000000000746, -0.7683318220053479 
2.460000000000767, -0.7677148782334785 
2.470000000000788, -0.766638354284421 
2.480000000000809, -0.7651213263460758 
2.49000000000083, -0.7633066730269884 
2.5000000000008513, -0.7614120582322221 
2.5100000000008724, -0.7596366392313627 
2.5200000000008935, -0.7580915647740954 
2.5300000000009146, -0.7567883212758021 
2.5400000000009357, -0.7556662547411545 
2.550000000000957, -0.7546351324747305 
2.560000000000978, -0.7536206700546761 
2.570000000000999, -0.7526011300023909 
2.58000000000102, -0.751624005203122 
2.5900000000010412, -0.7508014133988969 
2.6000000000010624, -0.7502884884883084 
2.6100000000010835, -0.7502484603256863 
2.6200000000011046, -0.7508123681745484 
2.6300000000011257, -0.7520496136635008 
2.6400000000011468, -0.7539636945821695 
2.650000000001168, -0.7565122521050456 
2.660000000001189, -0.759637507623905 
2.67000000000121, -0.7632944078637327 
2.680000000001231, -0.767473022117326 
2.6900000000012523, -0.7722162410409467 
2.7000000000012734, -0.7776298769150058 
2.7100000000012945, -0.7838739271314941 
2.7200000000013156, -0.7911127040825265 
2.7300000000013367, -0.7993895438779994 
2.740000000001358, -0.8084147502759578 
2.750000000001379, -0.8173973278931627 
2.7600000000014, -0.8252311660870906 
2.770000000001421, -0.8310846089560082 
2.780000000001442, -0.834812243816696 
2.7900000000014633, -0.8367837272019887 
2.8000000000014844, -0.8374866689797582 
2.8100000000015055, -0.8373138840735619 
2.8200000000015266, -0.8365858306572471 
2.8300000000015477, -0.8357633750898964 
2.840000000001569, -0.8359099015178171 
2.85000000000159, -0.8394823289716244 
2.860000000001611, -0.8511027619127345 
2.870000000001632, -0.8768761132009087 
2.8800000000016532, -0.9206155557551758 
2.8900000000016743, -0.9792601146641603 
2.9000000000016954, -1.0438955863511217 
2.9100000000017165, -1.1061280189022429 
2.9200000000017377, -1.1617650238928674 
2.9300000000017588, -1.2095840804768194 
2.94000000000178, -1.2489932517191273 
2.950000000001801, -1.2791493405652914 
2.960000000001822, -1.2997675442098744 
2.970000000001843, -1.3121249268713824 
2.9800000000018643, -1.3186338238837982 
2.9900000000018854, -1.3215989881897428 
3.0000000000019065, -1.322582127744227 
3.0100000000019276, -1.3225194854027178 
3.0200000000019487, -1.3221127500073848 
3.03000000000197, -1.322116282798337 
3.040000000001991, -1.3231562457264092 
3.050000000002012, -1.325210644014089 
3.060000000002033, -1.3276715578090301 
3.070000000002054, -1.3299902133322594 
3.0800000000020753, -1.3319685917517665 
3.0900000000020964, -1.3335910423166004 
3.1000000000021175, -1.3348316700385239 
3.1100000000021386, -1.3356271386868268 
3.1200000000021597, -1.3359302922793632 
3.130000000002181, -1.3357384134355605 
3.140000000002202, -1.3350779106007862 
3.150000000002223, -1.3339703528971618 
3.160000000002244, -1.332409025665977 
3.1700000000022652, -1.3303612958741262 
3.1800000000022863, -1.3277863831573922 
3.1900000000023074, -1.3246396908008613 
3.2000000000023285, -1.3208533051987643 
3.2100000000023496, -1.316361330712905 
3.2200000000023707, -1.3113039801395767 
3.230000000002392, -1.3063738154373696 
3.240000000002413, -1.302745829208725 
3.250000000002434, -1.3010755876402595 
3.260000000002455, -1.3007747284385829 
3.2700000000024763, -1.3007302074343792 
3.2800000000024974, -1.3000576471096037 
3.2900000000025185, -1.2979344738026497 
3.3000000000025396, -1.292949368174122 
3.3100000000025607, -1.2822264769962513 
3.3200000000025818, -1.2606530045600863 
3.330000000002603, -1.2218162723854358 
3.340000000002624, -1.1623748066737507 
3.350000000002645, -1.086104102033767 
3.360000000002666, -1.0015456247898302 
3.3700000000026873, -0.9170322518767605 
3.3800000000027084, -0.8390710892105379 
3.3900000000027295, -0.7726532282931173 
3.4000000000027506, -0.7208756610384046 
3.4100000000027717, -0.6842040183021904 
3.420000000002793, -0.6606543372866146 
3.430000000002814, -0.6469464915687354 
3.440000000002835, -0.6397488659000596 
3.450000000002856, -0.6364015421656875 
3.460000000002877, -0.6350900764155202 
3.4700000000028983, -0.6347070719391288 
3.4800000000029194, -0.6346238109127704 
3.4900000000029405, -0.6344928310509836 
3.5000000000029616, -0.6341212560776125 
3.5100000000029827, -0.6334151189834352 
3.520000000003004, -0.6323759617367318 
3.530000000003025, -0.6311104600369719 
3.540000000003046, -0.6298053098392142 
3.550000000003067, -0.6286577210001585 
3.5600000000030882, -0.6278058769464572 
3.5700000000031094, -0.6272985025473871 
3.5800000000031305, -0.6270972659983002 
3.5900000000031516, -0.6270932991442303 
3.6000000000031727, -0.6271385438564461 
3.6100000000031938, -0.6270954321310381 
3.620000000003215, -0.626886299742899 
3.630000000003236, -0.6265188793569682 
3.640000000003257, -0.6260917910607362 
3.650000000003278, -0.6258055306622843 
3.6600000000032993, -0.6259972055172531 
3.6700000000033204, -0.6271962004681528 
3.6800000000033415, -0.6301774683839484 
3.6900000000033626, -0.6359747558642261 
3.7000000000033837, -0.6458191621840886 
3.710000000003405, -0.6610019153389655 
3.720000000003426, -0.6827150071469756 
3.730000000003447, -0.711958166745558 
3.740000000003468, -0.7495681675995247 
3.750000000003489, -0.7963049338997499 
3.7600000000035103, -0.8527086000123318 
3.7700000000035314, -0.918128247182597 
3.7800000000035525, -0.9883890033489673 
3.7900000000035736, -1.0539010957681316 
3.8000000000035947, -1.1037499220785325 
3.810000000003616, -1.1343456984112836 
3.820000000003637, -1.1502379104549758 
3.830000000003658, -1.1576531914253152 
3.840000000003679, -1.1607582585719394 
3.8500000000037002, -1.16167240985338 
3.8600000000037213, -1.1613934540359836 
3.8700000000037424, -1.1605795244423684 
3.8800000000037635, -1.1602602678401768 
3.8900000000037847, -1.162347769185843 
3.9000000000038058, -1.168864884206009 
3.910000000003827, -1.1797770720109686 
3.920000000003848, -1.1926714610455218 
3.930000000003869, -1.2050881874012602 
3.94000000000389, -1.2159420907225416 
3.9500000000039113, -1.2251703366079336 
3.9600000000039324, -1.2330564461915028 
3.9700000000039535, -1.2398735220358326 
3.9800000000039746, -1.245764455735553 
3.9900000000039957, -1.2507186458664383 
4.000000000004016, -1.2546155689176446 
4.010000000003993, -1.2573402040432073 
4.02000000000397, -1.2589044055583327 
4.030000000003946, -1.2594757532530472 
4.040000000003923, -1.2593239780368604 
4.0500000000039, -1.2587765773020567 
4.0600000000038765, -1.258191079557466 
4.070000000003853, -1.2578536671898655 
4.08000000000383, -1.257835117239327 
4.090000000003807, -1.2580157727083792 
4.100000000003783, -1.2582839331351343 
4.11000000000376, -1.258637675401571 
4.120000000003737, -1.2590826070370853 
4.130000000003713, -1.2595033987008197 
4.14000000000369, -1.2596796565298705 
4.150000000003667, -1.259387258006298 
4.1600000000036434, -1.2584678987574531 
4.17000000000362, -1.2568569381486214 
4.180000000003597, -1.254582241993146 
4.1900000000035735, -1.2517219730983915 
4.20000000000355, -1.2483389001594978 
4.210000000003527, -1.244436845202013 
4.220000000003504, -1.2399559475372013 
4.23000000000348, -1.234786123856703 
4.240000000003457, -1.22878913506811 
4.250000000003434, -1.2218853149181612 
4.26000000000341, -1.2143092929063077 
4.270000000003387, -1.206973575601064 
4.280000000003364, -1.201364903437056 
4.2900000000033405, -1.198425936774737 
4.300000000003317, -1.1976271550851885 
4.310000000003294, -1.1976634919096845 
4.320000000003271, -1.1974868659276523 
4.330000000003247, -1.1963929582973116 
4.340000000003224, -1.1935598839046404 
4.350000000003201, -1.1874937490452933 
4.360000000003177, -1.175561648668686 
4.370000000003154, -1.1542588859239504 
4.380000000003131, -1.1212281502901693 
4.390000000003107, -1.0778321307396732 
4.400000000003084, -1.0285559466674377 
4.410000000003061, -0.9777790734689061 
4.4200000000030375, -0.9281864000421587 
4.430000000003014, -0.8814337014423417 
4.440000000002991, -0.839180984592379 
4.450000000002968, -0.8033877463748919 
4.460000000002944, -0.775734436813379 
4.470000000002921, -0.7567200839917289 
4.480000000002898, -0.7453065737591342 
4.490000000002874, -0.7394449948250291 
4.500000000002851, -0.7369709409285332 
4.510000000002828, -0.7362075225520408 
4.520000000002804, -0.736092642017534 
4.530000000002781, -0.736028072912279 
4.540000000002758, -0.7356789973858082 
4.5500000000027345, -0.7348368274388799 
4.560000000002711, -0.7333736082144112 
4.570000000002688, -0.7312747766755124 
4.580000000002665, -0.7286892020769193 
4.590000000002641, -0.7259033390008967 
4.600000000002618, -0.7232196357842496 
4.610000000002595, -0.7208372116140246 
4.620000000002571, -0.7188180772762859 
4.630000000002548, -0.7171213315574756 
4.640000000002525, -0.7156556350969111 
4.6500000000025015, -0.7143277493761583 
4.660000000002478, -0.7130816405720536 
4.670000000002455, -0.7119216964338906 
4.6800000000024315, -0.7109161789974654 
4.690000000002408, -0.7101837221711903 
4.700000000002385, -0.7098677699776412 
4.710000000002362, -0.7101044333791826 
4.720000000002338, -0.7109932034014427 
4.730000000002315, -0.7125820796515429 
4.740000000002292, -0.7148725944034345 
4.750000000002268, -0.7178401186904059 
4.760000000002245, -0.7214602744713898 
4.770000000002222, -0.7257353427454067 
4.7800000000021985, -0.7307188438349399 
4.790000000002175, -0.7365361387371252 
4.800000000002152, -0.7433931211392916 
4.810000000002129, -0.7515527342182655 
4.820000000002105, -0.7612351300344967 
4.830000000002082, -0.7723788339357454 
4.840000000002059, -0.7842951736297221 
4.850000000002035, -0.7955743645704187 
4.860000000002012, -0.8047058008669546 
4.870000000001989, -0.8109880089832648 
4.880000000001965, -0.8146876379412508 
4.890000000001942, -0.8164824802670967 
4.900000000001919, -0.816973587103391 
4.9100000000018955, -0.8165489151278129 
4.920000000001872, -0.8154776527205737 
4.930000000001849, -0.8141947602310096 
