t, s[1].omega / s[0].omega 
0, -0.569997745254235 
0.009999999999999995, -0.5698648394206998 
0.019999999999999934, -0.5698879828832433 
0.029999999999999874, -0.5699944108732057 
0.04000000000000012, -0.5700900445879589 
0.050000000000000405, -0.57009123098618 
0.06000000000000069, -0.5699486549034858 
0.07000000000000098, -0.5696537502671053 
0.08000000000000126, -0.5692334951848886 
0.09000000000000155, -0.5687479840216114 
0.10000000000000184, -0.5683034079065482 
0.11000000000000212, -0.5680908854105077 
0.12000000000000241, -0.5684661320572013 
0.130000000000002, -0.5700981461689056 
0.1400000000000009, -0.5742388131278099 
0.1499999999999998, -0.5832017893304374 
0.1599999999999987, -0.6011719783590525 
0.1699999999999976, -0.6353685346972585 
0.1799999999999965, -0.6968011960532685 
0.1899999999999954, -0.7971282707050563 
0.1999999999999943, -0.9353577881011356 
0.2099999999999932, -1.0825275212127916 
0.2199999999999921, -1.198850464622776 
0.229999999999991, -1.2700312026346157 
0.2399999999999899, -1.306821086029799 
0.2499999999999888, -1.324207928723717 
0.2599999999999877, -1.332085113828541 
0.2699999999999866, -1.3355115982173158 
0.2799999999999855, -1.3368119486815535 
0.2899999999999844, -1.3370168900069572 
0.2999999999999833, -1.3366159776486566 
0.3099999999999822, -1.335980083351108 
0.3199999999999811, -1.3356538680571381 
0.32999999999998, -1.3363871638791829 
0.3399999999999789, -1.3386456123840567 
0.3499999999999778, -1.3421054979778666 
0.35999999999997667, -1.345967934993468 
0.36999999999997557, -1.3496018295212981 
0.37999999999997447, -1.3527281959311095 
0.38999999999997337, -1.355278503848771 
0.39999999999997227, -1.3572594074228281 
0.40999999999997117, -1.3586957360507994 
0.41999999999997006, -1.3596119773818702 
0.42999999999996896, -1.360027198627715 
0.43999999999996786, -1.359958700115481 
0.44999999999996676, -1.3594313021611772 
0.45999999999996566, -1.3584868763419438 
0.46999999999996456, -1.3571905480805815 
0.47999999999996346, -1.3556298771805024 
0.48999999999996235, -1.353905272183032 
0.49999999999996125, -1.3521337940047753 
0.5099999999999602, -1.3504934057566893 
0.519999999999959, -1.3492381858158864 
0.529999999999958, -1.348554692743687 
0.5399999999999568, -1.348362822351114 
0.5499999999999557, -1.3483466445126806 
0.5599999999999546, -1.3481513127976625 
0.5699999999999535, -1.3474545332269408 
0.5799999999999524, -1.3458670829152417 
0.5899999999999513, -1.3427658519043335 
0.5999999999999502, -1.3371329313809839 
0.6099999999999491, -1.3274838767481547 
0.619999999999948, -1.3119980845860701 
0.6299999999999469, -1.288884883418546 
0.6399999999999458, -1.2569497229913769 
0.6499999999999447, -1.2165789773559148 
0.6599999999999436, -1.1714338529792616 
0.6699999999999425, -1.1294153477718667 
0.6799999999999414, -1.0992255722236945 
0.6899999999999403, -1.0837345922319752 
0.6999999999999392, -1.07883614272921 
0.7099999999999381, -1.0787557900514202 
0.719999999999937, -1.079898384713057 
0.7299999999999359, -1.0808609918921215 
0.7399999999999348, -1.0812773330227672 
0.7499999999999337, -1.0810529232766612 
0.7599999999999326, -1.080016610294605 
0.7699999999999315, -1.0776938096083954 
0.7799999999999304, -1.072956775896843 
0.7899999999999293, -1.0632995094851947 
0.7999999999999282, -1.0434967269400952 
0.8099999999999271, -1.0041687288720724 
0.819999999999926, -0.93392641007596 
0.8299999999999249, -0.8313106529708548 
0.8399999999999238, -0.7170284706872285 
0.8499999999999227, -0.6194708591271805 
0.8599999999999216, -0.5505426797917679 
0.8699999999999205, -0.5064299900007874 
0.8799999999999194, -0.4792352846685152 
0.8899999999999183, -0.4626005536139227 
0.8999999999999172, -0.45241086723751855 
0.9099999999999161, -0.44617202042924103 
0.919999999999915, -0.44238813564222157 
0.9299999999999139, -0.44015353673859803 
0.9399999999999128, -0.43891204089202895 
0.9499999999999117, -0.43831846825374177 
0.9599999999999106, -0.43815882932299444 
0.9699999999999095, -0.4383043081095027 
0.9799999999999084, -0.4386855694795659 
0.9899999999999073, -0.4392801136878909 
0.9999999999999062, -0.4401082190429878 
1.0099999999999052, -0.44123364443302415 
1.019999999999904, -0.4427648208174273 
1.029999999999903, -0.4448514023640685 
1.039999999999902, -0.44766817209051996 
1.0499999999999008, -0.45137056912745194 
1.0599999999998997, -0.45600063829716353 
1.0699999999998986, -0.4613522630168078 
1.0799999999998975, -0.4668997006493041 
1.0899999999998964, -0.47194709073662305 
1.0999999999998953, -0.47595829415780344 
1.1099999999998942, -0.4787650212334503 
1.119999999999893, -0.4804939547206706 
1.129999999999892, -0.48137172605019174 
1.1399999999998909, -0.481584835582263 
1.1499999999998898, -0.4812199911014214 
1.1599999999998887, -0.4802351559302722 
1.1699999999998876, -0.47840918077036976 
1.1799999999998865, -0.47521763960003793 
1.1899999999998854, -0.4695591899588786 
1.1999999999998843, -0.4592560075467401 
1.2099999999998832, -0.44056127447953497 
1.219999999999882, -0.4092327518932768 
1.229999999999881, -0.36571124562513724 
1.2399999999998799, -0.31956448215087024 
1.2499999999998788, -0.2819561087717081 
1.2599999999998777, -0.2562476418780132 
1.2699999999998766, -0.2399765259628595 
1.2799999999998755, -0.22979792593219922 
1.2899999999998744, -0.22330576244526856 
1.2999999999998733, -0.21903950250945797 
1.3099999999998722, -0.21615225519992384 
1.319999999999871, -0.21415655422418073 
1.32999999999987, -0.2127757301552534 
1.3399999999998689, -0.21186442008234568 
1.3499999999998678, -0.21137016450577098 
1.3599999999998666, -0.21132266180013665 
1.3699999999998655, -0.21184893906560104 
1.3799999999998644, -0.21322506420928203 
1.3899999999998633, -0.2159965644345315 
1.3999999999998622, -0.22124937981581977 
1.4099999999998611, -0.23124094992793776 
1.41999999999986, -0.25094151699269945 
1.429999999999859, -0.29187942094914077 
1.4399999999998578, -0.38084530106964426 
1.4499999999998567, -0.5698698410236227 
1.4599999999998556, -0.8994266436970282 
1.4699999999998545, -1.2673503048972785 
1.4799999999998534, -1.4989987978213366 
1.4899999999998523, -1.596080563930474 
1.4999999999998512, -1.6316323342668397 
1.5099999999998501, -1.6446941944530669 
1.519999999999849, -1.6495788604161947 
1.529999999999848, -1.6512632280448654 
1.5399999999998468, -1.651544056031628 
1.5499999999998457, -1.651168015995152 
1.5599999999998446, -1.6506461233434737 
1.5699999999998435, -1.650495933836789 
1.5799999999998424, -1.650961909952133 
1.5899999999998413, -1.6517984458731199 
1.5999999999998402, -1.6526568845491145 
1.6099999999998391, -1.6533806291147048 
1.619999999999838, -1.6538794022010634 
1.629999999999837, -1.654005354298097 
1.6399999999998358, -1.6535595291768252 
1.6499999999998347, -1.6522830056123659 
1.6599999999998336, -1.6498005998345857 
1.6699999999998325, -1.645549558916747 
1.6799999999998314, -1.6386736406624842 
1.6899999999998303, -1.6278290129536643 
1.6999999999998292, -1.6109799518152594 
1.709999999999828, -1.586025878113079 
1.719999999999827, -1.5548619781738684 
1.729999999999826, -1.5292763445705764 
1.7399999999998248, -1.5201007274889524 
1.7499999999998237, -1.521429845496953 
1.7599999999998226, -1.5242783174044 
1.7699999999998215, -1.525919762911906 
1.7799999999998204, -1.5263437988246251 
1.7899999999998193, -1.5257297254229985 
1.7999999999998182, -1.5238704977481405 
1.809999999999817, -1.5201333027171582 
1.819999999999816, -1.5145311457116257 
1.8299999999998149, -1.5133957626049166 
1.8399999999998138, -1.5352445492086981 
1.8499999999998127, -1.5844114941362322 
1.8599999999998116, -1.6338201833046964 
1.8699999999998105, -1.6673401773170373 
1.8799999999998094, -1.6871241910572508 
1.8899999999998083, -1.6983689414764984 
1.8999999999998072, -1.704581442709885 
1.909999999999806, -1.70779462218979 
1.919999999999805, -1.7091896136659854 
1.9299999999998039, -1.70945929921508 
1.9399999999998028, -1.7090169986351338 
1.9499999999998017, -1.7081386527871598 
1.9599999999998006, -1.7070261258999633 
1.9699999999997995, -1.705789143891162 
1.9799999999997984, -1.704522686320173 
1.9899999999997973, -1.703500734424038 
1.9999999999997962, -1.7030192168265157 
2.0099999999998173, -1.702939834492841 
2.0199999999998384, -1.7027672065688997 
2.0299999999998595, -1.701972899429747 
2.0399999999998806, -1.69980799875137 
2.0499999999999017, -1.6944582846914593 
2.059999999999923, -1.680710767582719 
2.069999999999944, -1.6427439082702748 
2.079999999999965, -1.5344551987675736 
2.089999999999986, -1.2662748918075402 
2.100000000000007, -0.8452426729541724 
2.1100000000000283, -0.48519330985809683 
2.1200000000000494, -0.28999328698373644 
2.1300000000000705, -0.20281937017858614 
2.1400000000000916, -0.16397268922404212 
2.1500000000001127, -0.14541763508167094 
2.160000000000134, -0.13584753553883336 
2.170000000000155, -0.13059431247149206 
2.180000000000176, -0.12759899065551267 
2.190000000000197, -0.12589458489927496 
2.2000000000002182, -0.12501139796372093 
2.2100000000002393, -0.12473170010201448 
2.2200000000002604, -0.12498840974368938 
2.2300000000002815, -0.12583315065302975 
2.2400000000003026, -0.12745094470803536 
2.2500000000003237, -0.13022802466101518 
2.260000000000345, -0.13491248511080778 
2.270000000000366, -0.14297205048185826 
2.280000000000387, -0.15739439213465672 
2.290000000000408, -0.18441490144070194 
2.3000000000004293, -0.23641990112975936 
2.3100000000004504, -0.3314704908048161 
2.3200000000004715, -0.47077311088919255 
2.3300000000004926, -0.6077290097608972 
2.3400000000005137, -0.6974552328736564 
2.3500000000005348, -0.74362057509775 
2.360000000000556, -0.7656022440838515 
2.370000000000577, -0.7761287800702701 
2.380000000000598, -0.7812961182233589 
2.390000000000619, -0.7838267481444735 
2.4000000000006403, -0.7849327938458674 
2.4100000000006614, -0.7851327876250549 
2.4200000000006825, -0.7845753907680979 
2.4300000000007036, -0.7831272816278907 
2.4400000000007247, -0.7802999272237819 
2.450000000000746, -0.7749788182975414 
2.460000000000767, -0.7648387377283128 
2.470000000000788, -0.745429757730928 
2.480000000000809, -0.709929314893819 
2.49000000000083, -0.6531234135881188 
2.5000000000008513, -0.5809596560372208 
2.5100000000008724, -0.5112280665845245 
2.5200000000008935, -0.45750767714699236 
2.5300000000009146, -0.4212030809788122 
2.5400000000009357, -0.3978468326876874 
2.550000000000957, -0.3828695512457981 
2.560000000000978, -0.37311745015427744 
2.570000000000999, -0.3666498368051478 
2.58000000000102, -0.36230521951660943 
2.5900000000010412, -0.3593864246857018 
2.6000000000010624, -0.35747117397888045 
2.6100000000010835, -0.3563040964603783 
2.6200000000011046, -0.3557364536235469 
2.6300000000011257, -0.3556938350082577 
2.6400000000011468, -0.3561614381076995 
2.650000000001168, -0.3571822891434077 
2.660000000001189, -0.3588676405525204 
2.67000000000121, -0.36142208689070837 
2.680000000001231, -0.36518954573838386 
2.6900000000012523, -0.37073008144887865 
2.7000000000012734, -0.3789370310929044 
2.7100000000012945, -0.3911767730990542 
2.7200000000013156, -0.40930827406442205 
2.7300000000013367, -0.4351003250290004 
2.740000000001358, -0.46829610067335725 
2.750000000001379, -0.5041951201377668 
2.7600000000014, -0.5352139958921589 
2.770000000001421, -0.5568608486198708 
2.780000000001442, -0.5698649060069305 
2.7900000000014633, -0.5770871937375006 
2.8000000000014844, -0.580951747095776 
2.8100000000015055, -0.5829237197120885 
2.8200000000015266, -0.5837700382069365 
2.8300000000015477, -0.583842408895904 
2.840000000001569, -0.583233263040212 
2.85000000000159, -0.5818236775197863 
2.860000000001611, -0.5792483566666814 
2.870000000001632, -0.5747971825624927 
2.8800000000016532, -0.5673312485948105 
2.8900000000016743, -0.555487079103219 
2.9000000000016954, -0.5386028327435219 
2.9100000000017165, -0.5180505245382865 
2.9200000000017377, -0.49712136688580466 
2.9300000000017588, -0.4788728791209446 
2.94000000000178, -0.46454313301453903 
2.950000000001801, -0.45388046728223114 
2.960000000001822, -0.4460878270475336 
2.970000000001843, -0.44038356317474686 
2.9800000000018643, -0.43617053210267365 
2.9900000000018854, -0.4330358984614658 
3.0000000000019065, -0.43070897037871647 
3.0100000000019276, -0.4290204538220384 
3.0200000000019487, -0.42787250817519656 
3.03000000000197, -0.42721937411867694 
3.040000000001991, -0.4270567000868358 
3.050000000002012, -0.4274181718654179 
3.060000000002033, -0.42837911196147127 
3.070000000002054, -0.43006807949106307 
3.0800000000020753, -0.4326892311520359 
3.0900000000020964, -0.4365604349354061 
3.1000000000021175, -0.4421746174305287 
3.1100000000021386, -0.4502921465123918 
3.1200000000021597, -0.4620590686060965 
3.130000000002181, -0.4790819536512747 
3.140000000002202, -0.5031903673848611 
3.150000000002223, -0.5352834724019953 
3.160000000002244, -0.5730071007811693 
3.1700000000022652, -0.6097181019697363 
3.1800000000022863, -0.6384895436409338 
3.1900000000023074, -0.6572112850500764 
3.2000000000023285, -0.6680107895448402 
3.2100000000023496, -0.6738638569293612 
3.2200000000023707, -0.6769080918676994 
3.230000000002392, -0.6783576674160756 
3.240000000002413, -0.6788203635036207 
3.250000000002434, -0.6785404040646031 
3.260000000002455, -0.6775064998569114 
3.2700000000024763, -0.6754400602547758 
3.2800000000024974, -0.6716442214007108 
3.2900000000025185, -0.6646298827298677 
3.3000000000025396, -0.651409204247824 
3.3100000000025607, -0.6267345249523104 
3.3200000000025818, -0.5843684151011637 
3.330000000002603, -0.5241582028338151 
3.340000000002624, -0.4589629483036656 
3.350000000002645, -0.4048859873820058 
3.360000000002666, -0.3673894593165882 
3.3700000000026873, -0.3433807309705248 
3.3800000000027084, -0.3282270469902516 
3.3900000000027295, -0.31850854591534705 
3.4000000000027506, -0.3121180045033158 
3.4100000000027717, -0.3078196928332114 
3.420000000002793, -0.30489295717285975 
3.430000000002814, -0.3029169024298311 
3.440000000002835, -0.30165034286765385 
3.450000000002856, -0.3009673030791514 
3.460000000002877, -0.30082511687161506 
3.4700000000028983, -0.301253955609299 
3.4800000000029194, -0.30236431670007746 
3.4900000000029405, -0.30437541650659067 
3.5000000000029616, -0.30767544870757296 
3.5100000000029827, -0.3129381055359982 
3.520000000003004, -0.3213443138583013 
3.530000000003025, -0.33499779321155154 
3.540000000003046, -0.3576462541386405 
3.550000000003067, -0.3955855162866496 
3.5600000000030882, -0.45717272374823537 
3.5700000000031094, -0.5458587402074301 
3.5800000000031305, -0.6461700658501484 
3.5900000000031516, -0.728732401375031 
3.6000000000031727, -0.7801099552762913 
3.6100000000031938, -0.8071947782766905 
3.620000000003215, -0.8205995022821204 
3.630000000003236, -0.827166341153873 
3.640000000003257, -0.830353941103534 
3.650000000003278, -0.8317772785212488 
3.6600000000032993, -0.832154013668059 
3.6700000000033204, -0.8317409424813593 
3.6800000000033415, -0.8304881282576823 
3.6900000000033626, -0.8280117791784312 
3.7000000000033837, -0.8233593499280036 
3.710000000003405, -0.814368197842349 
3.720000000003426, -0.7960672567627706 
3.730000000003447, -0.7569707674089574 
3.740000000003468, -0.6731740224299698 
3.750000000003489, -0.5158396490880615 
3.7600000000035103, -0.3130299224663497 
3.7700000000035314, -0.1593733121355475 
3.7800000000035525, -0.07969587200938633 
3.7900000000035736, -0.0426166206726053 
3.8000000000035947, -0.024678078634441117 
3.810000000003616, -0.01530559389237771 
3.820000000003637, -0.010034018594172245 
3.830000000003658, -0.00689141093487544 
3.840000000003679, -0.004950650251788037 
3.8500000000037002, -0.0037578010575432122 
3.8600000000037213, -0.003098577354659899 
3.8700000000037424, -0.002904526268754118 
3.8800000000037635, -0.003229299826814083 
3.8900000000037847, -0.004280310291171309 
3.9000000000038058, -0.0065304489839809535 
3.910000000003827, -0.010994802158387992 
3.920000000003848, -0.019875778771313114 
3.930000000003869, -0.0378585492900538 
3.94000000000389, -0.07252958648433365 
3.9500000000039113, -0.11503693940751462 
3.9600000000039324, -0.035768071040636465 
3.9700000000039535, 0.3103620439801084 
3.9800000000039746, 0.5270266215908643 
3.9900000000039957, 0.5857984914776011 
4.000000000004016, 0.6026898589056707 
4.010000000003993, 0.6085994961311085 
4.02000000000397, 0.6109040424518832 
4.030000000003946, 0.6117661132680813 
4.040000000003923, 0.6119676626170221 
4.0500000000039, 0.6118613925239388 
4.0600000000038765, 0.6116545721161576 
4.070000000003853, 0.6115027127639406 
4.08000000000383, 0.6115350468136819 
4.090000000003807, 0.6118470437601929 
4.100000000003783, 0.6124730902310652 
4.11000000000376, 0.6133562292868937 
4.120000000003737, 0.6143447548779221 
4.130000000003713, 0.6152349763889726 
4.14000000000369, 0.6158329295759687 
4.150000000003667, 0.6159762196843894 
4.1600000000036434, 0.6154769225955717 
4.17000000000362, 0.61395525481597 
4.180000000003597, 0.6104227049463739 
4.1900000000035735, 0.6020278607525053 
4.20000000000355, 0.5799050994395707 
4.210000000003527, 0.5194959010881566 
4.220000000003504, 0.40664255769130975 
4.23000000000348, 0.3370970358959042 
4.240000000003457, 0.3358219181709009 
4.250000000003434, 0.34670540403919026 
4.26000000000341, 0.3539819425549483 
4.270000000003387, 0.3578939411326542 
4.280000000003364, 0.35985461933697077 
4.2900000000033405, 0.3606736061363498 
4.300000000003317, 0.3607055503203823 
4.310000000003294, 0.36001167386570143 
4.320000000003271, 0.3583750169000705 
4.330000000003247, 0.35511976097237874 
4.340000000003224, 0.348481441233594 
4.350000000003201, 0.3335631755366292 
4.360000000003177, 0.29557843647495086 
4.370000000003154, 0.19584647928140195 
4.380000000003131, 0.0592625598666582 
4.390000000003107, 0.3172167614803834 
4.400000000003084, 0.6751199218357645 
4.410000000003061, 0.7630959821361618 
4.4200000000030375, 0.783310405043662 
4.430000000003014, 0.7894205516633247 
4.440000000002991, 0.7915532556719378 
4.450000000002968, 0.7922296161379111 
4.460000000002944, 0.7922628155747617 
4.470000000002921, 0.7919896928131709 
4.480000000002898, 0.7915986807545058 
4.490000000002874, 0.7912259481314761 
4.500000000002851, 0.7909713866409698 
4.510000000002828, 0.790884098163037 
4.520000000002804, 0.7909477030752579 
4.530000000002781, 0.7910844910973062 
4.540000000002758, 0.7911768222442179 
4.5500000000027345, 0.7910831700899297 
4.560000000002711, 0.7906157877232636 
4.570000000002688, 0.7894284789583351 
4.580000000002665, 0.7866493249164992 
4.590000000002641, 0.7795051494230802 
4.600000000002618, 0.7567169944413289 
4.610000000002595, 0.6599868972269438 
4.620000000002571, 0.3169727550362704 
4.630000000002548, 0.13109137964653914 
4.640000000002525, 0.2375697779101514 
4.6500000000025015, 0.30815459774012566 
4.660000000002478, 0.335972952281362 
4.670000000002455, 0.3472648666766499 
4.6800000000024315, 0.35226123616398214 
4.690000000002408, 0.35454089018678026 
4.700000000002385, 0.35544462658368653 
4.710000000002362, 0.35548224032855813 
4.720000000002338, 0.35477631751317606 
4.730000000002315, 0.353165489294732 
4.740000000002292, 0.3501137394572188 
4.750000000002268, 0.3443979001551202 
4.760000000002245, 0.3336632588850282 
4.770000000002222, 0.3165874171061813 
4.7800000000021985, 0.31658942083377745 
4.790000000002175, 0.4157124331948053 
4.800000000002152, 0.5509090593388549 
4.810000000002129, 0.610379543761196 
4.820000000002105, 0.6300000646715055 
4.830000000002082, 0.6369675069415036 
4.840000000002059, 0.639609781427461 
4.850000000002035, 0.6404691312924408 
4.860000000002012, 0.6404168359144818 
4.870000000001989, 0.6397961922756188 
4.880000000001965, 0.6387914407795637 
4.890000000001942, 0.6375677430873183 
4.900000000001919, 0.6363091360436672 
4.9100000000018955, 0.6351905049908244 
4.920000000001872, 0.6343264268229175 
