t, s[1].omega / s[0].omega 
0, -0.9595490537073278 
0.009999999999999995, -0.9156300442151009 
0.019999999999999934, -0.875090860149496 
0.029999999999999874, -0.8385887384949339 
0.04000000000000012, -0.8064307121703485 
0.050000000000000405, -0.7790779792868456 
0.06000000000000069, -0.7570947157329658 
0.07000000000000098, -0.7407900945097603 
0.08000000000000126, -0.7298737211993295 
0.09000000000000155, -0.7234116348384728 
0.10000000000000184, -0.7201171335742693 
0.11000000000000212, -0.7187426698964474 
0.12000000000000241, -0.7183266999000865 
0.130000000000002, -0.7182353162047137 
0.1400000000000009, -0.7180842246092598 
0.1499999999999998, -0.7176439662276062 
0.1599999999999987, -0.7167866014963187 
0.1699999999999976, -0.7154853271363937 
0.1799999999999965, -0.7138348910067778 
0.1899999999999954, -0.7120337423595211 
0.1999999999999943, -0.7103053316967676 
0.2099999999999932, -0.7088102611003113 
0.2199999999999921, -0.707607359265958 
0.229999999999991, -0.7066640547100871 
0.2399999999999899, -0.7058892160143904 
0.2499999999999888, -0.7051751750857773 
0.2599999999999877, -0.704442506426949 
0.2699999999999866, -0.7036743701003288 
0.2799999999999855, -0.702930917653018 
0.2899999999999844, -0.7023475062138387 
0.2999999999999833, -0.7021227419233622 
0.3099999999999822, -0.7024940975866861 
0.3199999999999811, -0.7036976742621154 
0.32999999999998, -0.7059212395762854 
0.3399999999999789, -0.7092728276501041 
0.3499999999999778, -0.7137835654211073 
0.35999999999997667, -0.7194440640888675 
0.36999999999997557, -0.7262576954045159 
0.37999999999997447, -0.7342935556147807 
0.38999999999997337, -0.743729724900646 
0.39999999999997227, -0.7548785293579955 
0.40999999999997117, -0.7681668383001564 
0.41999999999997006, -0.7839935985126825 
0.42999999999996896, -0.8023262289092571 
0.43999999999996786, -0.8220312428909049 
0.44999999999996676, -0.8406043028226502 
0.45999999999996566, -0.8553500092850538 
0.46999999999996456, -0.8651900389495928 
0.47999999999996346, -0.8708490522279112 
0.48999999999996235, -0.8736574282589828 
0.49999999999996125, -0.8746743219498725 
0.5099999999999602, -0.8745178701498484 
0.519999999999959, -0.8735186535045628 
0.529999999999958, -0.872023556649127 
0.5399999999999568, -0.8710509005979901 
0.5499999999999557, -0.8738293005410263 
0.5599999999999546, -0.8885240688811686 
0.5699999999999535, -0.9295097695433758 
0.5799999999999524, -1.0083484422216358 
0.5899999999999513, -1.114250993686322 
0.5999999999999502, -1.2176347446999456 
0.6099999999999491, -1.299932890990001 
0.619999999999948, -1.3601839449279092 
0.6299999999999469, -1.4031870345814308 
0.6399999999999458, -1.432999324787456 
0.6499999999999447, -1.4524076472636958 
0.6599999999999436, -1.4638949614938854 
0.6699999999999425, -1.4699544372298137 
0.6799999999999414, -1.4726927167198052 
0.6899999999999403, -1.4735448507910445 
0.6999999999999392, -1.4734086991108912 
0.7099999999999381, -1.4729584170407035 
0.719999999999937, -1.472767955154685 
0.7299999999999359, -1.4730570544771595 
0.7399999999999348, -1.47357767673722 
0.7499999999999337, -1.4740373446800707 
0.7599999999999326, -1.474415151957732 
0.7699999999999315, -1.47478007413324 
0.7799999999999304, -1.475006740158251 
0.7899999999999293, -1.47477860715675 
0.7999999999999282, -1.473725329277587 
0.8099999999999271, -1.4714704217951247 
0.819999999999926, -1.4676501360904761 
0.8299999999999249, -1.4619552196802186 
0.8399999999999238, -1.454104294809774 
0.8499999999999227, -1.4436721238718588 
0.8599999999999216, -1.429807377637049 
0.8699999999999205, -1.4109284308328318 
0.8799999999999194, -1.3847383115910203 
0.8899999999999183, -1.3500107093056475 
0.8999999999999172, -1.3122454409819384 
0.9099999999999161, -1.2855553579991836 
0.919999999999915, -1.2764320830659692 
0.9299999999999139, -1.2767728840900987 
0.9399999999999128, -1.2787156526903036 
0.9499999999999117, -1.2796877282214107 
0.9599999999999106, -1.2791639455306287 
0.9699999999999095, -1.2763841596911267 
0.9799999999999084, -1.2686263525401558 
0.9899999999999073, -1.246333658325995 
0.9999999999999062, -1.1722718038542455 
1.0099999999999052, -0.8966445721094202 
1.019999999999904, -0.2111616224284044 
1.029999999999903, 0.23904117033576755 
1.039999999999902, 0.35517829852599264 
1.0499999999999008, 0.3870653701320861 
1.0599999999998997, 0.3981173380885616 
1.0699999999998986, 0.4025179998266202 
1.0799999999998975, 0.4042448950930102 
1.0899999999998964, 0.40466409877175175 
1.0999999999998953, 0.404347230429637 
1.1099999999998942, 0.40361576220903456 
1.119999999999893, 0.4027290227081817 
1.129999999999892, 0.40193974993452136 
1.1399999999998909, 0.40149512213780697 
1.1499999999998898, 0.40162570147357257 
1.1599999999998887, 0.4025307238751063 
1.1699999999998876, 0.40433145818989386 
1.1799999999998865, 0.4069690524471393 
1.1899999999998854, 0.410108123540364 
1.1999999999998843, 0.4131944598009742 
1.2099999999998832, 0.41569491356517824 
1.219999999999882, 0.4172975503034291 
1.229999999999881, 0.4178838102066257 
1.2399999999998799, 0.4173260282078853 
1.2499999999998788, 0.4151859343483439 
1.2599999999998777, 0.4101371105933048 
1.2699999999998766, 0.3983321341283205 
1.2799999999998755, 0.36819517807663005 
1.2899999999998744, 0.2879847988204546 
1.2999999999998733, 0.12482290999335992 
1.3099999999998722, -0.03259506964576231 
1.319999999999871, -0.10420122082425068 
1.32999999999987, -0.1287295460200677 
1.3399999999998689, -0.13753301185814742 
1.3499999999998678, -0.14115490114453627 
1.3599999999998666, -0.14280632019268186 
1.3699999999998655, -0.14354799301091792 
1.3799999999998644, -0.1437730430201592 
1.3899999999998633, -0.14365018688642245 
1.3999999999998622, -0.14328053308107272 
1.4099999999998611, -0.14276905524530054 
1.41999999999986, -0.14225985699398008 
1.429999999999859, -0.1419428070303742 
1.4399999999998578, -0.14204279626646393 
1.4499999999998567, -0.14282082256074052 
1.4599999999998556, -0.1446153634034832 
1.4699999999998545, -0.14792699586472444 
1.4799999999998534, -0.15350334147277914 
1.4899999999998523, -0.162271358361798 
1.4999999999998512, -0.17478237055013723 
1.5099999999998501, -0.19007150902241757 
1.519999999999849, -0.20525079249591735 
1.529999999999848, -0.21737936738657346 
1.5399999999998468, -0.22549075955692427 
1.5499999999998457, -0.2302604690242825 
1.5599999999998446, -0.23271874452211044 
1.5699999999998435, -0.23359813829294557 
1.5799999999998424, -0.2332415826858759 
1.5899999999998413, -0.2316662047060484 
1.5999999999998402, -0.22863688477088343 
1.6099999999998391, -0.22379817048152342 
1.619999999999838, -0.21699207521101121 
1.629999999999837, -0.208718053683022 
1.6399999999998358, -0.2002250276435797 
1.6499999999998347, -0.19284261933164287 
1.6599999999998336, -0.18724027789741512 
1.6699999999998325, -0.1833922576224493 
1.6799999999998314, -0.18096736295603338 
1.6899999999998303, -0.1796208423728814 
1.6999999999998292, -0.17908046750050016 
1.709999999999828, -0.17912269637775924 
1.719999999999827, -0.17952806760016898 
1.729999999999826, -0.18006699799174827 
1.7399999999998248, -0.18052601807381255 
1.7499999999998237, -0.1807415660559188 
1.7599999999998226, -0.18060122582565588 
1.7699999999998215, -0.18000175873094687 
1.7799999999998204, -0.1787663286175029 
1.7899999999998193, -0.17648321078714166 
1.7999999999998182, -0.17209724893724465 
1.809999999999817, -0.16268042614477496 
1.819999999999816, -0.1396427642824754 
1.8299999999998149, -0.08031880031790499 
1.8399999999998138, 0.042550125548739465 
1.8499999999998127, 0.18157315639162716 
1.8599999999998116, 0.26208383226467935 
1.8699999999998105, 0.2958178870977646 
1.8799999999998094, 0.3095844678575882 
1.8899999999998083, 0.3154819015116556 
1.8999999999998072, 0.3179582546192154 
1.909999999999806, 0.318674568474241 
1.919999999999805, 0.3182780405391101 
1.9299999999998039, 0.31705136649570825 
1.9399999999998028, 0.3152012430241518 
1.9499999999998017, 0.31299904037699455 
1.9599999999998006, 0.3107970019856361 
1.9699999999997995, 0.3089427685411236 
1.9799999999997984, 0.3076863739617322 
1.9899999999997973, 0.3071582729215879 
1.9999999999997962, 0.30739952183320607 
2.0099999999998173, 0.30837841376534125 
2.0199999999998384, 0.3099637342363069 
2.0299999999998595, 0.311890651751119 
2.0399999999998806, 0.3137904844577249 
2.0499999999999017, 0.31529822932414947 
2.059999999999923, 0.31614475229767736 
2.069999999999944, 0.31613519958222447 
2.079999999999965, 0.31500106346735024 
2.089999999999986, 0.31211286249344916 
2.100000000000007, 0.305853376820687 
2.1100000000000283, 0.29195387615888385 
2.1200000000000494, 0.2591626356360748 
2.1300000000000705, 0.18399680044674513 
2.1400000000000916, 0.05872054655419601 
2.1500000000001127, -0.05098172914799422 
2.160000000000134, -0.10457095091912019 
2.170000000000155, -0.12542945501353553 
2.180000000000176, -0.13372115615514746 
2.190000000000197, -0.13733451536695307 
2.2000000000002182, -0.1389988041645099 
2.2100000000002393, -0.13970280978641056 
2.2200000000002604, -0.139836234258856 
2.2300000000002815, -0.1395743381851499 
2.2400000000003026, -0.1390293848438921 
2.2500000000003237, -0.1383245099872904 
2.260000000000345, -0.13762680732360683 
2.270000000000366, -0.13714489371231525 
2.280000000000387, -0.1371088464573541 
2.290000000000408, -0.13776899406900256 
2.3000000000004293, -0.139438764807243 
2.3100000000004504, -0.14257227089679256 
2.3200000000004715, -0.1478201711559993 
2.3300000000004926, -0.15591006926491244 
2.3400000000005137, -0.1670918806818282 
2.3500000000005348, -0.18024818516634392 
2.360000000000556, -0.19288374057993946 
2.370000000000577, -0.20278313299706602 
2.380000000000598, -0.20935363541455523 
2.390000000000619, -0.21318215470345483 
2.4000000000006403, -0.2150652780144489 
2.4100000000006614, -0.21554350329964672 
2.4200000000006825, -0.2148298119159116 
2.4300000000007036, -0.21284920646856054 
2.4400000000007247, -0.20930502551384617 
2.450000000000746, -0.20384735750267496 
2.460000000000767, -0.196457320058692 
2.470000000000788, -0.1878820064003932 
2.480000000000809, -0.1795112132779212 
2.49000000000083, -0.17255770377241955 
2.5000000000008513, -0.16746781342437025 
2.5100000000008724, -0.16407789748648988 
2.5200000000008935, -0.1620251114664371 
2.5300000000009146, -0.16098172144141512 
2.5400000000009357, -0.16069805384379793 
2.550000000000957, -0.16096117959734774 
2.560000000000978, -0.16154875733648205 
2.570000000000999, -0.1622226552371488 
2.58000000000102, -0.16276412988150082 
2.5900000000010412, -0.16300877400071606 
2.6000000000010624, -0.16283992900777589 
2.6100000000010835, -0.1621335911000766 
2.6200000000011046, -0.16065424081993618 
2.6300000000011257, -0.15784599438001765 
2.6400000000011468, -0.15230903382898195 
2.650000000001168, -0.14035615926590786 
2.660000000001189, -0.1125039662308485 
2.67000000000121, -0.05066781002077305 
2.680000000001231, 0.049105385439791 
2.6900000000012523, 0.14096091399754757 
2.7000000000012734, 0.19270097409512899 
2.7100000000012945, 0.2163133551119099 
2.7200000000013156, 0.2268881182997274 
2.7300000000013367, 0.2317283227330726 
2.740000000001358, 0.23383004885525321 
2.750000000001379, 0.23442528360913167 
2.7600000000014, 0.2340511717581025 
2.770000000001421, 0.23299494881227562 
2.780000000001442, 0.2314991898230009 
2.7900000000014633, 0.2298411047713008 
2.8000000000014844, 0.22831848188939582 
2.8100000000015055, 0.22719553762443354 
2.8200000000015266, 0.22667706328989476 
2.8300000000015477, 0.2269313668826312 
2.840000000001569, 0.22812234115009056 
2.85000000000159, 0.23038764306001297 
2.860000000001611, 0.23371796342690815 
2.870000000001632, 0.23778781096276785 
2.8800000000016532, 0.2419417886209329 
2.8900000000016743, 0.2454730633253158 
2.9000000000016954, 0.24795036021365155 
2.9100000000017165, 0.24926349818161805 
2.9200000000017377, 0.24942449865131616 
2.9300000000017588, 0.24832826313807188 
2.94000000000178, 0.24552207932945094 
2.950000000001801, 0.23989109047149054 
2.960000000001822, 0.22922262045446185 
2.970000000001843, 0.2102655570975791 
2.9800000000018643, 0.1815813237881768 
2.9900000000018854, 0.1491933137834678 
3.0000000000019065, 0.12354449578169804 
3.0100000000019276, 0.10824029875490479 
3.0200000000019487, 0.10032618682805458 
3.03000000000197, 0.09636643175217498 
3.040000000001991, 0.09436043161603695 
3.050000000002012, 0.09334495715111382 
3.060000000002033, 0.09286194874098506 
3.070000000002054, 0.09266205827274573 
3.0800000000020753, 0.09256151730194231 
3.0900000000020964, 0.092374543085087 
3.1000000000021175, 0.09188003997040647 
3.1100000000021386, 0.09078765921782807 
3.1200000000021597, 0.08865343588338603 
3.130000000002181, 0.08465929468370828 
3.140000000002202, 0.07706171376486672 
3.150000000002223, 0.061799587647955546 
3.160000000002244, 0.029210441284720223 
3.1700000000022652, -0.039848020109576374 
3.1800000000022863, -0.1585399898132634 
3.1900000000023074, -0.28294420710334534 
3.2000000000023285, -0.3588126284182772 
3.2100000000023496, -0.393507531611733 
3.2200000000023707, -0.40866349065209595 
3.230000000002392, -0.41557515343158896 
3.240000000002413, -0.41878554555263897 
3.250000000002434, -0.420070267952926 
3.260000000002455, -0.4200928233809248 
3.2700000000024763, -0.41900214743360104 
3.2800000000024974, -0.41665684226608385 
3.2900000000025185, -0.4127754268392184 
3.3000000000025396, -0.40718809037040227 
3.3100000000025607, -0.40019911607410147 
3.3200000000025818, -0.39272232791145767 
3.330000000002603, -0.38585541569568915 
3.340000000002624, -0.38028463778549837 
3.350000000002645, -0.3761383456643822 
3.360000000002666, -0.3732207763063925 
3.3700000000026873, -0.3712487545519889 
3.3800000000027084, -0.36995522357681787 
3.3900000000027295, -0.36910934705432097 
3.4000000000027506, -0.3685185979659757 
3.4100000000027717, -0.36803935301325824 
3.420000000002793, -0.36759120393836675 
3.430000000002814, -0.3671658847693945 
3.440000000002835, -0.3668372143894493 
3.450000000002856, -0.36679482579682376 
3.460000000002877, -0.3674413063221863 
3.4700000000028983, -0.36963634317254385 
3.4800000000029194, -0.3753067473933386 
3.4900000000029405, -0.3890563646691724 
3.5000000000029616, -0.42271775049093857 
3.5100000000029827, -0.5084546976049468 
3.520000000003004, -0.7255712218514491 
3.530000000003025, -1.1418133477651438 
3.540000000003046, -1.532395187450383 
3.550000000003067, -1.7263702949649697 
3.5600000000030882, -1.8093366096427896 
3.5700000000031094, -1.8468841566376095 
3.5800000000031305, -1.8645470989183974 
3.5900000000031516, -1.872682917384082 
3.6000000000031727, -1.8760647204224252 
3.6100000000031938, -1.8770195231957711 
3.620000000003215, -1.876715030454676 
3.630000000003236, -1.8758137178737635 
3.640000000003257, -1.874596364573063 
3.650000000003278, -1.872892087212834 
3.6600000000032993, -1.8706860543379622 
3.6700000000033204, -1.868899728679563 
3.6800000000033415, -1.8683479985200986 
3.6900000000033626, -1.8681991088469752 
3.7000000000033837, -1.8669799402794838 
3.710000000003405, -1.8624419995244648 
3.720000000003426, -1.8464592134293003 
3.730000000003447, -1.77533801320318 
3.740000000003468, -1.3411809917029844 
3.750000000003489, 0.03787740360362097 
3.7600000000035103, 0.5287048533128218 
3.7700000000035314, 0.6050539734036612 
3.7800000000035525, 0.6233644383964887 
3.7900000000035736, 0.6292838723644876 
3.8000000000035947, 0.6313091462260353 
3.810000000003616, 0.6316578265397365 
3.820000000003637, 0.6310368032344372 
3.830000000003658, 0.6297293044314453 
3.840000000003679, 0.6279501286066981 
3.8500000000037002, 0.6259813610768095 
3.8600000000037213, 0.6241641095314565 
3.8700000000037424, 0.6227895333255038 
3.8800000000037635, 0.6219932967349509 
3.8900000000037847, 0.6217328578306348 
3.9000000000038058, 0.6218355177433236 
3.910000000003827, 0.6220654053572667 
3.920000000003848, 0.6221708957447218 
3.930000000003869, 0.6218832403896393 
3.94000000000389, 0.6208226254007968 
3.9500000000039113, 0.6181845767810488 
3.9600000000039324, 0.6116580376315743 
3.9700000000039535, 0.5925349277346781 
3.9800000000039746, 0.5126798943276794 
3.9900000000039957, -0.0647337102862113 
4.000000000004016, -1.8256317388167258 
4.010000000003993, -2.231573483999322 
4.02000000000397, -2.2841617672261596 
4.030000000003946, -2.294560822128344 
4.040000000003923, -2.2967859161101667 
4.0500000000039, -2.29673082907478 
4.0600000000038765, -2.2961259834450987 
4.070000000003853, -2.2954536562265466 
4.08000000000383, -2.294217710899914 
4.090000000003807, -2.2926750073560633 
4.100000000003783, -2.292057800832361 
4.11000000000376, -2.2917861982001564 
4.120000000003737, -2.2897842443835237 
4.130000000003713, -2.280804219641615 
4.14000000000369, -2.229349972039013 
4.150000000003667, -1.7563004724166433 
4.1600000000036434, 1.6574886340276755 
4.17000000000362, 2.6455235107452717 
4.180000000003597, 2.6612553874856686 
4.1900000000035735, 2.6619195968232865 
4.20000000000355, 2.6562921057734448 
4.210000000003527, 2.5479563718918117 
4.220000000003504, -2.5506649985560292 
4.23000000000348, -3.257695921869634 
4.240000000003457, -3.280289734641542 
4.250000000003434, -3.2823499443779296 
4.26000000000341, -3.2817376080633975 
4.270000000003387, -3.2802367937372723 
4.280000000003364, -3.2766683063161786 
4.2900000000033405, -3.274210528401931 
4.300000000003317, -3.274818691130325 
4.310000000003294, -3.272900430672587 
4.320000000003271, -3.2658412822417935 
4.330000000003247, -3.276762681566377 
4.340000000003224, -3.2904344757561623 
4.350000000003201, -3.2938873798439494 
4.360000000003177, -3.294205911543809 
4.370000000003154, -3.2918441227381323 
4.380000000003131, -3.2799323740804205 
4.390000000003107, -3.1762293923718277 
4.400000000003084, -0.30179179269620726 
4.410000000003061, 1.2398964476196765 
4.4200000000030375, 1.2992808577339334 
4.430000000003014, 1.3081606235866536 
4.440000000002991, 1.310140092234304 
4.450000000002968, 1.3101571000686594 
4.460000000002944, 1.3090696262689678 
4.470000000002921, 1.306878741613989 
4.480000000002898, 1.303549815654708 
4.490000000002874, 1.2997196683794823 
4.500000000002851, 1.2967382250557953 
4.510000000002828, 1.2953288855858358 
4.520000000002804, 1.2949194042282028 
4.530000000002781, 1.2945104144165072 
4.540000000002758, 1.29302618149423 
4.5500000000027345, 1.2879051504245926 
4.560000000002711, 1.265458554151081 
4.570000000002688, 1.0598413627872965 
4.580000000002665, -2.3964726595380212 
4.590000000002641, -3.8365797161108603 
4.600000000002618, -3.8682659602062315 
4.610000000002595, -3.8717876198794654 
4.620000000002571, -3.870745058828208 
4.630000000002548, -3.863878734594735 
4.640000000002525, -3.801542859526497 
4.6500000000025015, -3.1922554183960816 
4.660000000002478, -3.427741405309051 
4.670000000002455, -3.4452724931299827 
4.6800000000024315, -3.446420153630727 
4.690000000002408, -3.4457650929129593 
4.700000000002385, -3.4446926782414216 
4.710000000002362, -3.4422587766054726 
4.720000000002338, -3.4415179585374376 
4.730000000002315, -3.44093506600341 
4.740000000002292, -3.4347307211956326 
4.750000000002268, -3.4293021802263994 
4.760000000002245, -3.459417853325415 
4.770000000002222, -3.4685892166921803 
4.7800000000021985, -3.470193572427571 
4.790000000002175, -3.4690735245729565 
4.800000000002152, -3.462214688491264 
4.810000000002129, -3.4131868752334817 
4.820000000002105, -1.763180650002581 
4.830000000002082, 1.3760796838158253 
4.840000000002059, 1.4624374567469325 
4.850000000002035, 1.4723852727709776 
4.860000000002012, 1.4743521792850018 
4.870000000001989, 1.474266639738416 
4.880000000001965, 1.472964638768537 
4.890000000001942, 1.4702608498216512 
4.900000000001919, 1.4660344656758135 
4.9100000000018955, 1.461484928185977 
4.920000000001872, 1.4587569944879157 
4.930000000001849, 1.458101027914358 
