t, s[1].omega / s[0].omega 
0, -1.158902510824157 
0.009999999999999995, -1.0410867972316673 
0.019999999999999934, -0.9176685056597528 
0.029999999999999874, -0.8045976481541969 
0.04000000000000012, -0.7140363237610239 
0.050000000000000405, -0.6500017884284532 
0.06000000000000069, -0.6091753027559644 
0.07000000000000098, -0.5852018859742095 
0.08000000000000126, -0.5720767097519587 
0.09000000000000155, -0.5653774601263379 
0.10000000000000184, -0.5622393886439143 
0.11000000000000212, -0.5609449358087316 
0.12000000000000241, -0.5605151158536167 
0.130000000000002, -0.5604083277240663 
0.1400000000000009, -0.5603286801002766 
0.1499999999999998, -0.5601204653374936 
0.1599999999999987, -0.5597242555378655 
0.1699999999999976, -0.559168416898506 
0.1799999999999965, -0.5585629791107506 
0.1899999999999954, -0.5580686897018245 
0.1999999999999943, -0.5578453136932688 
0.2099999999999932, -0.558007284519557 
0.2199999999999921, -0.5585988803550155 
0.229999999999991, -0.559576258067616 
0.2399999999999899, -0.5607936629018313 
0.2499999999999888, -0.5620223302110845 
0.2599999999999877, -0.563023867470539 
0.2699999999999866, -0.5636384833705173 
0.2799999999999855, -0.5638217147351169 
0.2899999999999844, -0.5636243331106506 
0.2999999999999833, -0.5631701634194487 
0.3099999999999822, -0.5626889460155696 
0.3199999999999811, -0.5626591940660286 
0.32999999999998, -0.5641690018436265 
0.3399999999999789, -0.5697547272684435 
0.3499999999999778, -0.5852985254096763 
0.35999999999997667, -0.6239899472059635 
0.36999999999997557, -0.7119761134066187 
0.37999999999997447, -0.8817315325293595 
0.38999999999997337, -1.1178313963012976 
0.39999999999997227, -1.3314476227906198 
0.40999999999997117, -1.4729177765262158 
0.41999999999997006, -1.556107473582285 
0.42999999999996896, -1.6033633616123293 
0.43999999999996786, -1.6291529236578401 
0.44999999999996676, -1.6423305654853664 
0.45999999999996566, -1.6484906291604298 
0.46999999999996456, -1.6509590234219556 
0.47999999999996346, -1.651532398700001 
0.48999999999996235, -1.6512018608466363 
0.49999999999996125, -1.6506552840008308 
0.5099999999999602, -1.6502910602543186 
0.519999999999959, -1.6500140640898908 
0.529999999999958, -1.6495856444135153 
0.5399999999999568, -1.6491317704652388 
0.5499999999999557, -1.6489372190913538 
0.5599999999999546, -1.6488494406062497 
0.5699999999999535, -1.6482619240881877 
0.5799999999999524, -1.646334105799062 
0.5899999999999513, -1.64166731428707 
0.5999999999999502, -1.631496420350619 
0.6099999999999491, -1.6106441593439929 
0.619999999999948, -1.5704612769604334 
0.6299999999999469, -1.4974878556856697 
0.6399999999999458, -1.3717490087221575 
0.6499999999999447, -1.1742616251451548 
0.6599999999999436, -0.9287308667006897 
0.6699999999999425, -0.7204925856829327 
0.6799999999999414, -0.596162536442441 
0.6899999999999403, -0.5347307871532532 
0.6999999999999392, -0.5064434360367016 
0.7099999999999381, -0.4937975424998817 
0.719999999999937, -0.4883314311228656 
0.7299999999999359, -0.4861202427983177 
0.7399999999999348, -0.48533866869870057 
0.7499999999999337, -0.48512395016585347 
0.7599999999999326, -0.48505794209164277 
0.7699999999999315, -0.4849335621489009 
0.7799999999999304, -0.48465730291005754 
0.7899999999999293, -0.484219791879512 
0.7999999999999282, -0.4836926017720821 
0.8099999999999271, -0.4832164606369786 
0.819999999999926, -0.4829649051289853 
0.8299999999999249, -0.4830992892796945 
0.8399999999999238, -0.48373827818451726 
0.8499999999999227, -0.48493758779261426 
0.8599999999999216, -0.4866575677062224 
0.8699999999999205, -0.4887222509674161 
0.8799999999999194, -0.4908242011852786 
0.8899999999999183, -0.4926231261504627 
0.8999999999999172, -0.493880985867602 
0.9099999999999161, -0.4945164293983361 
0.919999999999915, -0.49455667893404637 
0.9299999999999139, -0.4940624142928181 
0.9399999999999128, -0.49308980672747155 
0.9499999999999117, -0.4917190633750116 
0.9599999999999106, -0.4902144866170549 
0.9699999999999095, -0.4895876310657633 
0.9799999999999084, -0.4936836868830879 
0.9899999999999073, -0.5181203129924803 
0.9999999999999062, -0.6396587844574211 
1.0099999999999052, -1.353356235610748 
1.019999999999904, -2.630206631424748 
1.029999999999903, -2.81487766514698 
1.039999999999902, -2.8419694007897895 
1.0499999999999008, -2.8489076649026335 
1.0599999999998997, -2.8506278163778114 
1.0699999999998986, -2.849908296063176 
1.0799999999998975, -2.846738915231179 
1.0899999999998964, -2.837633298840516 
1.0999999999998953, -2.8051405455563945 
1.1099999999998942, -2.7458052573348555 
1.119999999999893, -2.757739571582624 
1.129999999999892, -2.7662543760836327 
1.1399999999998909, -2.7671881871504636 
1.1499999999998898, -2.7660532726318996 
1.1599999999998887, -2.766749276214117 
1.1699999999998876, -2.7693029776203915 
1.1799999999998865, -2.7704593669296074 
1.1899999999998854, -2.7706377954949524 
1.1999999999998843, -2.770018802482966 
1.2099999999998832, -2.7665251584723283 
1.219999999999882, -2.7486612296992696 
1.229999999999881, -2.5741558430491973 
1.2399999999998799, 0.17430169783009894 
1.2499999999998788, 1.173508735581657 
1.2599999999998777, 1.2279422120321954 
1.2699999999998766, 1.2368821399880796 
1.2799999999998755, 1.2388191703300167 
1.2899999999998744, 1.2383505926037208 
1.2999999999998733, 1.2357522928714446 
1.3099999999998722, 1.2295501003356992 
1.319999999999871, 1.2172660277903504 
1.32999999999987, 1.2006488428494797 
1.3399999999998689, 1.1900590094477999 
1.3499999999998678, 1.1883782069018027 
1.3599999999998666, 1.1895810687359658 
1.3699999999998655, 1.1904035509760007 
1.3799999999998644, 1.1900002175915139 
1.3899999999998633, 1.1873988357046366 
1.3999999999998622, 1.1786120464130658 
1.4099999999998611, 1.1423046334801066 
1.41999999999986, 0.9676263612213839 
1.429999999999859, 1.5059322076655648 
1.4399999999998578, 1.8875898890104346 
1.4499999999998567, 1.9128870148903494 
1.4599999999998556, 1.91633565570485 
1.4699999999998545, 1.915489776454884 
1.4799999999998534, 1.9084248013426748 
1.4899999999998523, 1.8467304761238819 
1.4999999999998512, 0.45333041410645586 
1.5099999999998501, -0.7094562308778471 
1.519999999999849, -0.8966415235459362 
1.529999999999848, -0.9597511166073464 
1.5399999999998468, -0.9842419547962933 
1.5499999999998457, -0.9943103625848849 
1.5599999999998446, -0.9984689867732548 
1.5699999999998435, -0.999798307145312 
1.5799999999998424, -0.9992470707803266 
1.5899999999998413, -0.9965354519394479 
1.5999999999998402, -0.9897554983962384 
1.6099999999998391, -0.9727939988955059 
1.619999999999838, -0.9250727610725133 
1.629999999999837, -0.7693701790379452 
1.6399999999998358, -0.28848431989233914 
1.6499999999998347, 0.28418808344187996 
1.6599999999998336, 0.46729960347800914 
1.6699999999998325, 0.5116136250201277 
1.6799999999998314, 0.5251263226968654 
1.6899999999998303, 0.5300089766713401 
1.6999999999998292, 0.5317031691939773 
1.709999999999828, 0.5318313500083771 
1.719999999999827, 0.5309249347184924 
1.729999999999826, 0.5291878853129793 
1.7399999999998248, 0.5268089601353922 
1.7499999999998237, 0.5241096453007589 
1.7599999999998226, 0.5215256116915715 
1.7699999999998215, 0.5194480817679696 
1.7799999999998204, 0.5180780143868471 
1.7899999999998193, 0.5174065468514175 
1.7999999999998182, 0.517282019791524 
1.809999999999817, 0.5174809478307644 
1.819999999999816, 0.5177539399173023 
1.8299999999998149, 0.5178476739700274 
1.8399999999998138, 0.5174890112002728 
1.8499999999998127, 0.5162856081742266 
1.8599999999998116, 0.5134171901707595 
1.8699999999998105, 0.5066265700421609 
1.8799999999998094, 0.4880426629668631 
1.8899999999998083, 0.42015585705508174 
1.8999999999998072, 0.04677934481820925 
1.909999999999806, -1.238285559468495 
1.919999999999805, -1.8030896981578555 
1.9299999999998039, -1.8964516604544628 
1.9399999999998028, -1.9159876493879977 
1.9499999999998017, -1.9209478485658888 
1.9599999999998006, -1.9219076225097365 
1.9699999999997995, -1.9215637509619525 
1.9799999999997984, -1.921340592619688 
1.9899999999997973, -1.9220024221031604 
1.9999999999997962, -1.9229350491294415 
2.0099999999998173, -1.9234399878914392 
2.0199999999998384, -1.9236450627310826 
2.0299999999998595, -1.9237127100819453 
2.0399999999998806, -1.9232089559619332 
2.0499999999999017, -1.9212009581946354 
2.059999999999923, -1.9157926170650224 
2.069999999999944, -1.9022401863846419 
2.079999999999965, -1.8680890286359435 
2.089999999999986, -1.779794452140269 
2.100000000000007, -1.5495301139420057 
2.1100000000000283, -1.056201054427461 
2.1200000000000494, -0.522767783263625 
2.1300000000000705, -0.2547100662751849 
2.1400000000000916, -0.15104890542732016 
2.1500000000001127, -0.10839861585179067 
2.160000000000134, -0.08868951865711902 
2.170000000000155, -0.07866512609537969 
2.180000000000176, -0.07324219485288455 
2.190000000000197, -0.07026720008805706 
2.2000000000002182, -0.06876813251903514 
2.2100000000002393, -0.0683177514785431 
2.2200000000002604, -0.06879421525712734 
2.2300000000002815, -0.07031430300520428 
2.2400000000003026, -0.07328131210834317 
2.2500000000003237, -0.07858230468631747 
2.260000000000345, -0.0881031123700645 
2.270000000000366, -0.10608760960661649 
2.280000000000387, -0.1430292553075917 
2.290000000000408, -0.2275716033342378 
2.3000000000004293, -0.43794810853211014 
2.3100000000004504, -0.8900789598490032 
2.3200000000004715, -1.3878764875138936 
2.3300000000004926, -1.6239228094866611 
2.3400000000005137, -1.699256769673455 
2.3500000000005348, -1.7225117780561476 
2.360000000000556, -1.729999396747933 
2.370000000000577, -1.7322278079668347 
2.380000000000598, -1.732447524908705 
2.390000000000619, -1.7320290291904137 
2.4000000000006403, -1.731992268493288 
2.4100000000006614, -1.7327215902413602 
2.4200000000006825, -1.7336478408398537 
2.4300000000007036, -1.734261818175997 
2.4400000000007247, -1.7346304107461799 
2.450000000000746, -1.7348600111727657 
2.460000000000767, -1.7346674035754213 
2.470000000000788, -1.7334816617849307 
2.480000000000809, -1.7304519358281918 
2.49000000000083, -1.7241492743119153 
2.5000000000008513, -1.7121650295404975 
2.5100000000008724, -1.6904791488467208 
2.5200000000008935, -1.651688528767241 
2.5300000000009146, -1.5801752642984048 
2.5400000000009357, -1.4445590238592638 
2.550000000000957, -1.2184142416980335 
2.560000000000978, -0.9799463847724124 
2.570000000000999, -0.8436390658055734 
2.58000000000102, -0.7939391726796796 
2.5900000000010412, -0.7810808169216046 
2.6000000000010624, -0.7797585767893065 
2.6100000000010835, -0.7810552020897659 
2.6200000000011046, -0.7823508565654909 
2.6300000000011257, -0.7829901492426489 
2.6400000000011468, -0.7827823502121205 
2.650000000001168, -0.7815047519756966 
2.660000000001189, -0.7787139345571036 
2.67000000000121, -0.7737001721978178 
2.680000000001231, -0.7657060131519374 
2.6900000000012523, -0.7545623954698407 
2.7000000000012734, -0.7413040606152128 
2.7100000000012945, -0.7277930515139249 
2.7200000000013156, -0.7155601586250887 
2.7300000000013367, -0.7052112978967929 
2.740000000001358, -0.6966738835174556 
2.750000000001379, -0.6896228744404472 
2.7600000000014, -0.6837279115945702 
2.770000000001421, -0.6787398614433767 
2.780000000001442, -0.6745021015328538 
2.7900000000014633, -0.6709342442619884 
2.8000000000014844, -0.6680075247666457 
2.8100000000015055, -0.6657197755748496 
2.8200000000015266, -0.6640732421852605 
2.8300000000015477, -0.6630565372513009 
2.840000000001569, -0.6626324459463995 
2.85000000000159, -0.6627345113424112 
2.860000000001611, -0.6632746540516959 
2.870000000001632, -0.6641607934286355 
2.8800000000016532, -0.6653198934681895 
2.8900000000016743, -0.666720296986947 
2.9000000000016954, -0.6683870255469202 
2.9100000000017165, -0.6704040557660041 
2.9200000000017377, -0.6728995463190246 
2.9300000000017588, -0.6760110545183288 
2.94000000000178, -0.6798217952661411 
2.950000000001801, -0.6842581834162825 
2.960000000001822, -0.6889860882581617 
2.970000000001843, -0.6934345202001754 
2.9800000000018643, -0.6970347502074757 
2.9900000000018854, -0.6994953134238938 
3.0000000000019065, -0.7008465762022358 
3.0100000000019276, -0.7012847316196378 
3.0200000000019487, -0.7010260392569737 
3.03000000000197, -0.7002810328754883 
3.040000000001991, -0.6993746618115881 
3.050000000002012, -0.699101562469914 
3.060000000002033, -0.7015903551760279 
3.070000000002054, -0.7122162078056353 
3.0800000000020753, -0.743045071003136 
3.0900000000020964, -0.8155667044828828 
3.1000000000021175, -0.9495465522911841 
3.1100000000021386, -1.1257622265895 
3.1200000000021597, -1.286367881087833 
3.130000000002181, -1.4008537804250845 
3.140000000002202, -1.4749664126299005 
3.150000000002223, -1.521354784696157 
3.160000000002244, -1.5491527756543815 
3.1700000000022652, -1.5646370785725927 
3.1800000000022863, -1.5724859875380681 
3.1900000000023074, -1.575990451528752 
3.2000000000023285, -1.577158661926227 
3.2100000000023496, -1.5771257075966267 
3.2200000000023707, -1.5766416222428767 
3.230000000002392, -1.5762855490247254 
3.240000000002413, -1.5762460443432602 
3.250000000002434, -1.5762737315235291 
3.260000000002455, -1.5761808521468725 
3.2700000000024763, -1.576105826469807 
3.2800000000024974, -1.5761631336217279 
3.2900000000025185, -1.5760922544220983 
3.3000000000025396, -1.5753694027375829 
3.3100000000025607, -1.5733274724292419 
3.3200000000025818, -1.569007413140941 
3.330000000002603, -1.560988356627992 
3.340000000002624, -1.5473800846287291 
3.350000000002645, -1.5257738722685554 
3.360000000002666, -1.4925761930489425 
3.3700000000026873, -1.4413813747436712 
3.3800000000027084, -1.3616700085171092 
3.3900000000027295, -1.2456593793003854 
3.4000000000027506, -1.115140494957577 
3.4100000000027717, -1.0222217525162247 
3.420000000002793, -0.9832494267627453 
3.430000000002814, -0.974597235828823 
3.440000000002835, -0.9754997684380602 
3.450000000002856, -0.9776942575952094 
3.460000000002877, -0.9790918182666916 
3.4700000000028983, -0.9793493561734744 
3.4800000000029194, -0.9782542547844951 
3.4900000000029405, -0.9751000274274986 
3.5000000000029616, -0.9680396773269656 
3.5100000000029827, -0.9529485246829547 
3.520000000003004, -0.9223237300418822 
3.530000000003025, -0.8682090689956359 
3.540000000003046, -0.7935657217166813 
3.550000000003067, -0.7166884758498757 
3.5600000000030882, -0.6536816930360673 
3.5700000000031094, -0.6077393603819847 
3.5800000000031305, -0.5753238020156173 
3.5900000000031516, -0.5522967829242709 
3.6000000000031727, -0.535644872003279 
3.6100000000031938, -0.5234174604579841 
3.620000000003215, -0.5143765912003229 
3.630000000003236, -0.5077211142041923 
3.640000000003257, -0.5029106805383969 
3.650000000003278, -0.4995599255547378 
3.6600000000032993, -0.4973771486142387 
3.6700000000033204, -0.4961309357502476 
3.6800000000033415, -0.4956342752839246 
3.6900000000033626, -0.49573943279728117 
3.7000000000033837, -0.49633949735723953 
3.710000000003405, -0.497374625672383 
3.720000000003426, -0.49884231153960645 
3.730000000003447, -0.500811065783936 
3.740000000003468, -0.5034364199397111 
3.750000000003489, -0.5069788216323786 
3.7600000000035103, -0.5118221853799334 
3.7700000000035314, -0.5184752127564434 
3.7800000000035525, -0.5274820516564439 
3.7900000000035736, -0.5390893482972492 
3.8000000000035947, -0.5526198455762275 
3.810000000003616, -0.5661372327470827 
3.820000000003637, -0.5773636608468395 
3.830000000003658, -0.585180030444661 
3.840000000003679, -0.5898720995395078 
3.8500000000037002, -0.5922765488220164 
3.8600000000037213, -0.5930919827752156 
3.8700000000037424, -0.5926606994962293 
3.8800000000037635, -0.5909242490829556 
3.8900000000037847, -0.5872761901305399 
3.9000000000038058, -0.5799939494255273 
3.910000000003827, -0.5642717970918849 
3.920000000003848, -0.5245895115119816 
3.930000000003869, -0.4018517294896423 
3.94000000000389, -0.026235360628120995 
3.9500000000039113, 0.4262396088576715 
3.9600000000039324, 0.5771096062613376 
3.9700000000039535, 0.6142971331531655 
3.9800000000039746, 0.6255383311044213 
3.9900000000039957, 0.6294259219847461 
4.000000000004016, 0.63049544826873 
4.010000000003993, 0.6299858030252654 
4.02000000000397, 0.6281133042712548 
4.030000000003946, 0.6247268113670793 
4.040000000003923, 0.6197410684655094 
4.0500000000039, 0.6136306879470947 
4.0600000000038765, 0.6075726021465007 
4.070000000003853, 0.6027671245872241 
4.08000000000383, 0.5996517464620222 
4.090000000003807, 0.5979368306060404 
4.100000000003783, 0.5970935324535056 
4.11000000000376, 0.5966528080726576 
4.120000000003737, 0.5962466411296377 
4.130000000003713, 0.5955282228238132 
4.14000000000369, 0.5940052847987272 
4.150000000003667, 0.5906237492555947 
4.1600000000036434, 0.5823195430749764 
4.17000000000362, 0.5570818627348937 
4.180000000003597, 0.4429244857654428 
4.1900000000035735, -0.4354105106772336 
4.20000000000355, -2.1817564043066193 
4.210000000003527, -2.4664262020905254 
4.220000000003504, -2.5067289797938797 
4.23000000000348, -2.515265191179146 
4.240000000003457, -2.5170073954506647 
4.250000000003434, -2.516651424427852 
4.26000000000341, -2.5154376688017606 
4.270000000003387, -2.5131697948135487 
4.280000000003364, -2.509271561734147 
4.2900000000033405, -2.5064221020295903 
4.300000000003317, -2.506628151633593 
4.310000000003294, -2.5063574632029324 
4.320000000003271, -2.5024757939487867 
4.330000000003247, -2.48666138192244 
4.340000000003224, -2.4821048706130213 
4.350000000003201, -2.575903787603287 
4.360000000003177, -2.6189350267445812 
4.370000000003154, -2.6309189398879473 
4.380000000003131, -2.6348570682522263 
4.390000000003107, -2.6358397723954075 
4.400000000003084, -2.634875126484329 
4.410000000003061, -2.63149311257403 
4.4200000000030375, -2.6228598877563027 
4.430000000003014, -2.5956527213600418 
4.440000000002991, -2.474630874008434 
4.450000000002968, -2.23499275489681 
4.460000000002944, -2.2713740413261094 
4.470000000002921, -2.2967964832062213 
4.480000000002898, -2.302097198588385 
4.490000000002874, -2.302487170443557 
4.500000000002851, -2.301479130001894 
4.510000000002828, -2.3020059758733007 
4.520000000002804, -2.304945689313036 
4.530000000002781, -2.3073309930098653 
4.540000000002758, -2.3083978377468464 
4.5500000000027345, -2.3087237464069146 
4.560000000002711, -2.3081324008752397 
4.570000000002688, -2.305428373886486 
4.580000000002665, -2.297022717094971 
4.590000000002641, -2.269437603363884 
4.600000000002618, -2.1585424286317076 
4.610000000002595, -1.6018158015238406 
4.620000000002571, -0.30432520578946215 
4.630000000002548, 0.1812004566403875 
4.640000000002525, 0.28347666232147534 
4.6500000000025015, 0.3129356411785464 
4.660000000002478, 0.3239099239311768 
4.670000000002455, 0.3286060937074752 
4.6800000000024315, 0.33065086367012814 
4.690000000002408, 0.33133351227576063 
4.700000000002385, 0.33112802894854754 
4.710000000002362, 0.3301253660849945 
4.720000000002338, 0.32812909471129686 
4.730000000002315, 0.32460944128333596 
4.740000000002292, 0.31878566863819296 
4.750000000002268, 0.3120733389909285 
4.760000000002245, 0.32906980211354153 
4.770000000002222, 0.4820466363541585 
4.7800000000021985, 0.7203124729104741 
4.790000000002175, 0.8140186815998884 
4.800000000002152, 0.8390584548578287 
4.810000000002129, 0.8466008871526943 
4.820000000002105, 0.8488584474475077 
4.830000000002082, 0.8487331168431093 
4.840000000002059, 0.8464903234183827 
4.850000000002035, 0.8406727075961307 
4.860000000002012, 0.8271571482772911 
4.870000000001989, 0.7992837351481201 
4.880000000001965, 0.7604230091894291 
4.890000000001942, 0.7341139539927667 
4.900000000001919, 0.7268489267559436 
4.9100000000018955, 0.7271211922182479 
4.920000000001872, 0.7284803178405657 
4.930000000001849, 0.7293240472319342 
4.940000000001826, 0.7293454015932733 
