t, s[1].omega / s[0].omega 
0, -0.5999548414142117 
0.009999999999999995, -0.5959237896425962 
0.019999999999999934, -0.5927362694816531 
0.029999999999999874, -0.5901948705206267 
0.04000000000000012, -0.5881194760147368 
0.050000000000000405, -0.5863794617071105 
0.06000000000000069, -0.5849082945228691 
0.07000000000000098, -0.583706132965536 
0.08000000000000126, -0.5828328898331644 
0.09000000000000155, -0.5823956546683091 
0.10000000000000184, -0.582533538392661 
0.11000000000000212, -0.5834018196418459 
0.12000000000000241, -0.5851582100662968 
0.130000000000002, -0.5879558856696038 
0.1400000000000009, -0.5919483511603892 
0.1499999999999998, -0.5973098323962096 
0.1599999999999987, -0.6042733449204161 
0.1699999999999976, -0.6131884859469324 
0.1799999999999965, -0.6246018687956898 
0.1899999999999954, -0.6393591078029569 
0.1999999999999943, -0.6586953724854543 
0.2099999999999932, -0.6841538961612749 
0.2199999999999921, -0.7168539670173738 
0.229999999999991, -0.7554737905965493 
0.2399999999999899, -0.7941910128535985 
0.2499999999999888, -0.8252380206332715 
0.2599999999999877, -0.8452446068088477 
0.2699999999999866, -0.8562323138946958 
0.2799999999999855, -0.8616569846920601 
0.2899999999999844, -0.8639871246911455 
0.2999999999999833, -0.8645152809507625 
0.3099999999999822, -0.8637652112472443 
0.3199999999999811, -0.8618217812398971 
0.32999999999998, -0.8586441016075353 
0.3399999999999789, -0.8549606692319802 
0.3499999999999778, -0.8558701003912346 
0.35999999999997667, -0.8838386162048948 
0.36999999999997557, -1.0107356819006115 
0.37999999999997447, -1.3235477805747569 
0.38999999999997337, -1.6390720819035915 
0.39999999999997227, -1.791321920270417 
0.40999999999997117, -1.8545171463041439 
0.41999999999997006, -1.8835133738075016 
0.42999999999996896, -1.8979478051015668 
0.43999999999996786, -1.9051695735084226 
0.44999999999996676, -1.9084576023795417 
0.45999999999996566, -1.9094952952601378 
0.46999999999996456, -1.9092017883094716 
0.47999999999996346, -1.9081069503255421 
0.48999999999996235, -1.9064159471327422 
0.49999999999996125, -1.903907698283493 
0.5099999999999602, -1.9004907633429962 
0.519999999999959, -1.8974475683390832 
0.529999999999958, -1.8964305902485439 
0.5399999999999568, -1.896525777789369 
0.5499999999999557, -1.895817257791218 
0.5599999999999546, -1.8922902203634906 
0.5699999999999535, -1.879176538774347 
0.5799999999999524, -1.8175163383554829 
0.5899999999999513, -1.3893006406647692 
0.5999999999999502, 0.8170883389094513 
0.6099999999999491, 1.4547898030970745 
0.619999999999948, 1.4943176049911222 
0.6299999999999469, 1.5005338142636955 
0.6399999999999458, 1.5012698275047582 
0.6499999999999447, 1.4990552720250216 
0.6599999999999436, 1.4902132387659903 
0.6699999999999425, 1.4517137883876587 
0.6799999999999414, 1.3162165150432312 
0.6899999999999403, 1.2648585308584293 
0.6999999999999392, 1.2910604964874843 
0.7099999999999381, 1.3017212971527636 
0.719999999999937, 1.3048810038232355 
0.7299999999999359, 1.3051194235358454 
0.7399999999999348, 1.3033974838785916 
0.7499999999999337, 1.2994984168267394 
0.7599999999999326, 1.295811712486275 
0.7699999999999315, 1.308389613488283 
0.7799999999999304, 1.3402874100658013 
0.7899999999999293, 1.3609589493146328 
0.7999999999999282, 1.3688287902142027 
0.8099999999999271, 1.3712350129665365 
0.819999999999926, 1.3710415450350824 
0.8299999999999249, 1.3678608375514727 
0.8399999999999238, 1.353981547116425 
0.8499999999999227, 1.2378136581432866 
0.8599999999999216, -1.2986706724176726 
0.8699999999999205, -2.6952711519761663 
0.8799999999999194, -2.7613752916071834 
0.8899999999999183, -2.7696664118341183 
0.8999999999999172, -2.770703573722419 
0.9099999999999161, -2.7700925508309 
0.919999999999915, -2.768943011649313 
0.9299999999999139, -2.7665688303551668 
0.9399999999999128, -2.7637420581551666 
0.9499999999999117, -2.7634032579049217 
0.9599999999999106, -2.7631361772421226 
0.9699999999999095, -2.7591088585722967 
0.9799999999999084, -2.7416638930395996 
0.9899999999999073, -2.755199105095446 
0.9999999999999062, -2.82762188479085 
1.0099999999999052, -2.8493646822857053 
1.019999999999904, -2.8550715578471193 
1.029999999999903, -2.8565138733730033 
1.039999999999902, -2.8557047951045336 
1.0499999999999008, -2.8520392762028317 
1.0599999999998997, -2.841039372306377 
1.0699999999998986, -2.7954221894311218 
1.0799999999998975, -2.4263342745034517 
1.0899999999998964, -1.3913533029081908 
1.0999999999998953, -1.3250990332647086 
1.1099999999998942, -1.3890705935017789 
1.119999999999893, -1.415884677486288 
1.129999999999892, -1.4251314404255673 
1.1399999999998909, -1.4280528760720306 
1.1499999999998898, -1.4281817897022973 
1.1599999999998887, -1.4262360159333924 
1.1699999999998876, -1.4219305852873696 
1.1799999999998865, -1.4171182835686353 
1.1899999999998854, -1.4264986270776927 
1.1999999999998843, -1.4744497909963628 
1.2099999999998832, -1.5421753934148552 
1.219999999999882, -1.5930221278138028 
1.229999999999881, -1.6235968358965258 
1.2399999999998799, -1.6419162805564294 
1.2499999999998788, -1.6534620428791373 
1.2599999999998777, -1.6609506894650274 
1.2699999999998766, -1.665695231319249 
1.2799999999998755, -1.6684107219103221 
1.2899999999998744, -1.6695839441958777 
1.2999999999998733, -1.6696057518314198 
1.3099999999998722, -1.6688080545349895 
1.319999999999871, -1.6674579036071755 
1.32999999999987, -1.665652868439538 
1.3399999999998689, -1.6632722147553989 
1.3499999999998678, -1.6603834584196768 
1.3599999999998666, -1.6578383681079951 
1.3699999999998655, -1.6566661517307455 
1.3799999999998644, -1.6565310431300937 
1.3899999999998633, -1.6561766432509217 
1.3999999999998622, -1.654347376890581 
1.4099999999998611, -1.6487319345896938 
1.41999999999986, -1.6317479800587393 
1.429999999999859, -1.5739193724966398 
1.4399999999998578, -1.359447388923614 
1.4499999999998567, -0.7846424496880297 
1.4599999999998556, -0.2500606671384252 
1.4699999999998545, -0.04779588174626428 
1.4799999999998534, 0.020078922988396378 
1.4899999999998523, 0.04655457781399017 
1.4999999999998512, 0.05856079062121448 
1.5099999999998501, 0.06457187248742499 
1.519999999999849, 0.06773885655274033 
1.529999999999848, 0.06939583944895925 
1.5399999999998468, 0.070155546038203 
1.5499999999998457, 0.0702928182514197 
1.5599999999998446, 0.0698802855307423 
1.5699999999998435, 0.06880914354557474 
1.5799999999998424, 0.06670840894873965 
1.5899999999998413, 0.06267923485357328 
1.5999999999998402, 0.054564865018824335 
1.6099999999998391, 0.037055391740273204 
1.619999999999838, -0.0007041158830721451 
1.629999999999837, -0.025581167649263152 
1.6399999999998358, 0.7960229695460185 
1.6499999999998347, 1.5798123434003464 
1.6599999999998336, 1.6351970809050804 
1.6699999999998325, 1.6427277122831558 
1.6799999999998314, 1.6436480951934187 
1.6899999999998303, 1.6412789229468765 
1.6999999999998292, 1.6300257541362602 
1.709999999999828, 1.5537755723731301 
1.719999999999827, 1.1075308534481196 
1.729999999999826, 1.090304377079608 
1.7399999999998248, 1.1517890262655843 
1.7499999999998237, 1.1673154694082044 
1.7599999999998226, 1.171590564167297 
1.7699999999998215, 1.172394871980519 
1.7799999999998204, 1.1714373541853773 
1.7899999999998193, 1.169021825399411 
1.7999999999998182, 1.166233169007136 
1.809999999999817, 1.170161235557487 
1.819999999999816, 1.1911065558727418 
1.8299999999998149, 1.2152042395742355 
1.8399999999998138, 1.2281631900228696 
1.8499999999998127, 1.2332894963102974 
1.8599999999998116, 1.2347756295813686 
1.8699999999998105, 1.234044896825154 
1.8799999999998094, 1.229978832757935 
1.8899999999998083, 1.2131494715490239 
1.8999999999998072, 1.0824985124577704 
1.909999999999806, -0.9595330629737381 
1.919999999999805, -2.336300503426678 
1.9299999999998039, -2.431999072172818 
1.9399999999998028, -2.4451195365803065 
1.9499999999998017, -2.4474567397058005 
1.9599999999998006, -2.4473294452904826 
1.9699999999997995, -2.4468050202401823 
1.9799999999997984, -2.446296606305886 
1.9899999999997973, -2.4451474909329467 
1.9999999999997962, -2.4439101783095163 
2.0099999999998173, -2.4435839487466966 
2.0199999999998384, -2.442849519293797 
2.0299999999998595, -2.4386900380823766 
2.0399999999998806, -2.4169079872164483 
2.0499999999999017, -2.2395110179623043 
2.059999999999923, -2.0612683164374035 
2.069999999999944, -4.01046473140371 
2.079999999999965, -4.063624037062217 
2.089999999999986, -4.0679981363245235 
2.100000000000007, -4.067049837161032 
2.1100000000000283, -4.0595107591020945 
2.1200000000000494, -3.9657396056833827 
2.1300000000000705, -1.7587955100277113 
2.1400000000000916, -2.1516901116785077 
2.1500000000001127, -2.2968227702849564 
2.160000000000134, -2.316574632007936 
2.170000000000155, -2.3200637754703672 
2.180000000000176, -2.3201088224793365 
2.190000000000197, -2.319612866579137 
2.2000000000002182, -2.3202491422596205 
2.2100000000002393, -2.3212845197128993 
2.2200000000002604, -2.3216098679391433 
2.2300000000002815, -2.321592404212668 
2.2400000000003026, -2.3213261149190725 
2.2500000000003237, -2.3196972833533893 
2.260000000000345, -2.3135087279566973 
2.270000000000366, -2.2878167270060956 
2.280000000000387, -2.1317231231017457 
2.290000000000408, -0.9336286039051173 
2.3000000000004293, 0.3563211929439476 
2.3100000000004504, 0.5420970478865768 
2.3200000000004715, 0.5773515654496842 
2.3300000000004926, 0.5876766346293076 
2.3400000000005137, 0.5913870541613626 
2.3500000000005348, 0.5927085515014872 
2.360000000000556, 0.5929672808943776 
2.370000000000577, 0.5927100073251237 
2.380000000000598, 0.592256571756139 
2.390000000000619, 0.5918736036644344 
2.4000000000006403, 0.5918222758510919 
2.4100000000006614, 0.5923434290722679 
2.4200000000006825, 0.5935923143413073 
2.4300000000007036, 0.5955368114541113 
2.4400000000007247, 0.597891558710536 
2.450000000000746, 0.6001964615082747 
2.460000000000767, 0.6020196239446727 
2.470000000000788, 0.6030950643464357 
2.480000000000809, 0.6032684325293671 
2.49000000000083, 0.6022774645871498 
2.5000000000008513, 0.5993067584397205 
2.5100000000008724, 0.591657653584083 
2.5200000000008935, 0.5688716709192745 
2.5300000000009146, 0.47666218623556034 
2.5400000000009357, -0.0030824864163437075 
2.550000000000957, -0.9400985310210576 
2.560000000000978, -1.2845002387469384 
2.570000000000999, -1.3641412887910807 
2.58000000000102, -1.385733285835227 
2.5900000000010412, -1.3924730125265907 
2.6000000000010624, -1.3943849483994404 
2.6100000000010835, -1.3941634344509437 
2.6200000000011046, -1.3926723568624901 
2.6300000000011257, -1.3911109511837538 
2.6400000000011468, -1.3932425721626562 
2.650000000001168, -1.4041645560878302 
2.660000000001189, -1.4222485423684166 
2.67000000000121, -1.4401636385446275 
2.680000000001231, -1.4540698523043338 
2.6900000000012523, -1.4641045461878728 
2.7000000000012734, -1.4713817512116214 
2.7100000000012945, -1.4767662698768584 
2.7200000000013156, -1.4807593035310491 
2.7300000000013367, -1.4836165434824589 
2.740000000001358, -1.4854574584287032 
2.750000000001379, -1.486354097166974 
2.7600000000014, -1.486397250099889 
2.770000000001421, -1.4857257622183182 
2.780000000001442, -1.4845197663613958 
2.7900000000014633, -1.4829423153790002 
2.8000000000014844, -1.4810383574333583 
2.8100000000015055, -1.478771804643363 
2.8200000000015266, -1.476337152021599 
2.8300000000015477, -1.4743733602046585 
2.840000000001569, -1.473435337759417 
2.85000000000159, -1.4732389033667412 
2.860000000001611, -1.472938701946474 
2.870000000001632, -1.4716612022911637 
2.8800000000016532, -1.4682257298653474 
2.8900000000016743, -1.460179251245488 
2.9000000000016954, -1.4422289769924652 
2.9100000000017165, -1.4046582099679985 
2.9200000000017377, -1.3346603226972462 
2.9300000000017588, -1.223833764840807 
2.94000000000178, -1.0775235417324551 
2.950000000001801, -0.917010857913614 
2.960000000001822, -0.770991463568724 
2.970000000001843, -0.6595253855364096 
2.9800000000018643, -0.5853924955055618 
2.9900000000018854, -0.5403708355401018 
3.0000000000019065, -0.5145090407820041 
3.0100000000019276, -0.5002141443789083 
3.0200000000019487, -0.4925946485138616 
3.03000000000197, -0.4887189678509122 
3.040000000001991, -0.48688698901239824 
3.050000000002012, -0.4861288488711043 
3.060000000002033, -0.48589643133394994 
3.070000000002054, -0.48588376697650404 
3.0800000000020753, -0.48592941251595534 
3.0900000000020964, -0.48597061045645973 
3.1000000000021175, -0.48602640384576024 
3.1100000000021386, -0.48618772140804134 
3.1200000000021597, -0.48659802175935757 
3.130000000002181, -0.48742441564301664 
3.140000000002202, -0.48882967882381745 
3.150000000002223, -0.49094190673202165 
3.160000000002244, -0.49379746295218735 
3.1700000000022652, -0.4972484836127996 
3.1800000000022863, -0.5009043291973444 
3.1900000000023074, -0.5042315540448967 
3.2000000000023285, -0.5067962056331671 
3.2100000000023496, -0.5084253981270486 
3.2200000000023707, -0.5091589117221784 
3.230000000002392, -0.5091011906770403 
3.240000000002413, -0.5083054227487914 
3.250000000002434, -0.5067109450405345 
3.260000000002455, -0.5040979576307676 
3.2700000000024763, -0.5000200568182429 
3.2800000000024974, -0.49364462814165133 
3.2900000000025185, -0.48296261806548896 
3.3000000000025396, -0.45661114169096884 
3.3100000000025607, -0.26167448238364793 
3.3200000000025818, 1.3453624257835013 
3.330000000002603, 1.759651753051339 
3.340000000002624, 1.7844477573346968 
3.350000000002645, 1.7880273778625515 
3.360000000002666, 1.7874031334492115 
3.3700000000026873, 1.7817374447822736 
3.3800000000027084, 1.746539435969278 
3.3900000000027295, 1.350654952001082 
3.4000000000027506, 1.055981323142617 
3.4100000000027717, 1.1737706917086008 
3.420000000002793, 1.2001956944968537 
3.430000000002814, 1.2067157598180016 
3.440000000002835, 1.2082625125626634 
3.450000000002856, 1.2078367180811798 
3.460000000002877, 1.2061815287485604 
3.4700000000028983, 1.204321217744714 
3.4800000000029194, 1.2067031842212685 
3.4900000000029405, 1.2198527728625856 
3.5000000000029616, 1.2372091818907345 
3.5100000000029827, 1.2481826999864172 
3.520000000003004, 1.2530356558103102 
3.530000000003025, 1.254592682054391 
3.540000000003046, 1.2540753903156152 
3.550000000003067, 1.2506267048215345 
3.5600000000030882, 1.2366284508358403 
3.5700000000031094, 1.1334423706889394 
3.5800000000031305, -0.973223491587839 
3.5900000000031516, -2.66576550381419 
3.6000000000031727, -2.7496846102834023 
3.6100000000031938, -2.7599334080926816 
3.620000000003215, -2.761402599316809 
3.630000000003236, -2.7608854420289752 
3.640000000003257, -2.759740045231846 
3.650000000003278, -2.7573987401239974 
3.6600000000032993, -2.754174123590494 
3.6700000000033204, -2.7534641232890436 
3.6800000000033415, -2.753520640750627 
3.6900000000033626, -2.750597016778989 
3.7000000000033837, -2.7372244189769948 
3.710000000003405, -2.736273638913926 
3.720000000003426, -2.8041363636674226 
3.730000000003447, -2.8294707034619564 
3.740000000003468, -2.8361374166485973 
3.750000000003489, -2.8379561937951565 
3.7600000000035103, -2.837476429783293 
3.7700000000035314, -2.834400013063771 
3.7800000000035525, -2.825308621979752 
3.7900000000035736, -2.7911927434169197 
3.8000000000035947, -2.5482579507428156 
3.810000000003616, -1.3982515241292497 
3.820000000003637, -1.087178478709081 
3.830000000003658, -1.1185565796818104 
3.840000000003679, -1.1491962063748729 
3.8500000000037002, -1.1632799867026953 
3.8600000000037213, -1.1690895191975499 
3.8700000000037424, -1.17110544702643 
3.8800000000037635, -1.1709328617205712 
3.8900000000037847, -1.1685859921863284 
3.9000000000038058, -1.162406268237679 
3.910000000003827, -1.147104404757909 
3.920000000003848, -1.107794435197367 
3.930000000003869, -1.0116163080529248 
3.94000000000389, -0.8676809190163336 
3.9500000000039113, -2.5921906315585397 
3.9600000000039324, -4.984125454466364 
3.9700000000039535, -4.998567220269643 
3.9800000000039746, -4.998055278222007 
3.9900000000039957, -4.986719642638372 
4.000000000004016, -3.283951008305138 
4.010000000003993, 2.7254687763412737 
4.02000000000397, 2.7533584654699923 
4.030000000003946, 2.7551319291426246 
4.040000000003923, 2.7542052174303175 
4.0500000000039, 2.750008935550991 
4.0600000000038765, 2.740273513443368 
4.070000000003853, 2.738079312519795 
4.08000000000383, 2.740404341485937 
4.090000000003807, 2.7397650052060696 
4.100000000003783, 2.7362321390005486 
4.11000000000376, 2.7392501755441923 
4.120000000003737, 2.7483383779398878 
4.130000000003713, 2.7512593564656553 
4.14000000000369, 2.751126878577824 
4.150000000003667, 2.7477880326679136 
4.1600000000036434, 2.7023880058678045 
4.17000000000362, -4.402610104658817 
4.180000000003597, -4.946935248291726 
4.1900000000035735, -4.953506329857233 
4.20000000000355, -4.951705737608055 
4.210000000003527, -4.929977414262661 
4.220000000003504, -2.4590669559431064 
4.23000000000348, -3.2933957938861504 
4.240000000003457, -3.3788559920724133 
4.250000000003434, -3.384437344389519 
4.26000000000341, -3.3843510878652907 
4.270000000003387, -3.3833678676123142 
4.280000000003364, -3.3809970677763466 
4.2900000000033405, -3.3780261911688725 
4.300000000003317, -3.378243457510913 
4.310000000003294, -3.376947098150066 
4.320000000003271, -3.369644071051494 
4.330000000003247, -3.3768160874458197 
4.340000000003224, -3.3939604573877076 
4.350000000003201, -3.398238650857992 
4.360000000003177, -3.39872514841296 
4.370000000003154, -3.3964868030888518 
4.380000000003131, -3.3844498052417578 
4.390000000003107, -3.2633816397701176 
4.400000000003084, 0.2922006796867682 
4.410000000003061, 1.3689138406316839 
4.4200000000030375, 1.4104538879094073 
4.430000000003014, 1.4168970280847044 
4.440000000002991, 1.4181405717429871 
4.450000000002968, 1.417643356768337 
4.460000000002944, 1.4157608518934803 
4.470000000002921, 1.4120902253488767 
4.480000000002898, 1.4066281970474688 
4.490000000002874, 1.4012912683919139 
4.500000000002851, 1.3985796949707319 
4.510000000002828, 1.3981559686683829 
4.520000000002804, 1.3981993996231001 
4.530000000002781, 1.3973781365304825 
4.540000000002758, 1.393859539974235 
4.5500000000027345, 1.3795554150230684 
4.560000000002711, 1.2879138782028365 
4.570000000002688, 0.9465555830954226 
4.580000000002665, 2.286428991446251 
4.590000000002641, 2.353209702920349 
4.600000000002618, 2.3582363415352923 
4.610000000002595, 2.357395640666971 
4.620000000002571, 2.347803217299086 
4.630000000002548, 2.1372677785294245 
4.640000000002525, -2.5362984556812704 
4.6500000000025015, -3.0244156432265537 
4.660000000002478, -3.046920630063914 
4.670000000002455, -3.04941357367532 
4.6800000000024315, -3.0490202104860087 
4.690000000002408, -3.048021876188504 
4.700000000002385, -3.045793546969479 
4.710000000002362, -3.042982607881801 
4.720000000002338, -3.042863550465097 
4.730000000002315, -3.0422005430630943 
4.740000000002292, -3.0362210660032614 
4.750000000002268, -3.024372132941937 
4.760000000002245, -3.06175041001596 
4.770000000002222, -3.0830304993766804 
4.7800000000021985, -3.0881316698536354 
4.790000000002175, -3.08909933561 
4.800000000002152, -3.087652975237922 
4.810000000002129, -3.0815786448756644 
4.820000000002105, -3.0559571962675753 
4.830000000002082, -2.827611299657535 
4.840000000002059, 0.10722161983829559 
4.850000000002035, 0.9547131046641641 
4.860000000002012, 1.0157539794893782 
4.870000000001989, 1.0272001358946194 
4.880000000001965, 1.0303136687490306 
4.890000000001942, 1.031101984476266 
4.900000000001919, 1.0311125473109608 
4.9100000000018955, 1.0310756006231485 
4.920000000001872, 1.0316493572587193 
4.930000000001849, 1.0334317741357233 
4.940000000001826, 1.0364813986998698 
4.950000000001802, 1.0400062142886317 
4.960000000001779, 1.042973310558282 
4.970000000001756, 1.0448657211469903 
