t, s[1].omega / s[0].omega 
0, -0.7400222085665574 
0.009999999999999995, -0.7424248390554327 
0.019999999999999934, -0.7450877081397491 
0.029999999999999874, -0.7477483944890712 
0.04000000000000012, -0.7500625265152349 
0.050000000000000405, -0.7517532343241835 
0.06000000000000069, -0.7527207328340174 
0.07000000000000098, -0.7530312501607208 
0.08000000000000126, -0.7528492461169699 
0.09000000000000155, -0.7524159407564686 
0.10000000000000184, -0.7521218340930456 
0.11000000000000212, -0.7526743157990402 
0.12000000000000241, -0.7553109050487247 
0.130000000000002, -0.7618981549674081 
0.1400000000000009, -0.7746480884176371 
0.1499999999999998, -0.795330835888664 
0.1599999999999987, -0.8243884667542908 
0.1699999999999976, -0.8607177143748321 
0.1799999999999965, -0.9023685960582893 
0.1899999999999954, -0.9474806498471567 
0.1999999999999943, -0.9946117110756486 
0.2099999999999932, -1.0421816107854984 
0.2199999999999921, -1.0874078101988816 
0.229999999999991, -1.1260132842671315 
0.2399999999999899, -1.1542598578811427 
0.2499999999999888, -1.1717421470097187 
0.2599999999999877, -1.1811168965750474 
0.2699999999999866, -1.1855694966458388 
0.2799999999999855, -1.1873201543423968 
0.2899999999999844, -1.1876018321557378 
0.2999999999999833, -1.187140490357563 
0.3099999999999822, -1.1866823428496842 
0.3199999999999811, -1.1873780346593836 
0.32999999999998, -1.190482894919056 
0.3399999999999789, -1.1962289223083933 
0.3499999999999778, -1.2034450059203283 
0.35999999999997667, -1.210687844571202 
0.36999999999997557, -1.2171806434914434 
0.37999999999997447, -1.222767417452073 
0.38999999999997337, -1.2275499602709254 
0.39999999999997227, -1.2316672720253607 
0.40999999999997117, -1.235223032936251 
0.41999999999997006, -1.238262201639683 
0.42999999999996896, -1.2407577615057095 
0.43999999999996786, -1.2426252259155974 
0.44999999999996676, -1.2437804022923447 
0.45999999999996566, -1.2442098530902013 
0.46999999999996456, -1.2440039623687986 
0.47999999999996346, -1.2433474450465796 
0.48999999999996235, -1.2424874466053588 
0.49999999999996125, -1.2416605461617192 
0.5099999999999602, -1.2409855983612184 
0.519999999999959, -1.2404449298982947 
0.529999999999958, -1.2400115995091359 
0.5399999999999568, -1.2397530156237262 
0.5499999999999557, -1.239749506004983 
0.5599999999999546, -1.239928156359821 
0.5699999999999535, -1.2400389978423791 
0.5799999999999524, -1.2397749311871307 
0.5899999999999513, -1.2388686289614648 
0.5999999999999502, -1.2371314074697959 
0.6099999999999491, -1.2344873685807136 
0.619999999999948, -1.230987205782124 
0.6299999999999469, -1.2267533135402118 
0.6399999999999458, -1.2218833178881578 
0.6499999999999447, -1.2163857242677847 
0.6599999999999436, -1.210171331841823 
0.6699999999999425, -1.2030781378494764 
0.6799999999999414, -1.1949381260866596 
0.6899999999999403, -1.1857708121034327 
0.6999999999999392, -1.1761745258614407 
0.7099999999999381, -1.16762497120137 
0.719999999999937, -1.1618438965512765 
0.7299999999999359, -1.1592891454189143 
0.7399999999999348, -1.1588137999614336 
0.7499999999999337, -1.1589377704097212 
0.7599999999999326, -1.1586871220402135 
0.7699999999999315, -1.1574092485519354 
0.7799999999999304, -1.1542568811501328 
0.7899999999999293, -1.1476676962833634 
0.7999999999999282, -1.1350095958915956 
0.8099999999999271, -1.1131195523898179 
0.819999999999926, -1.0805271152970781 
0.8299999999999249, -1.0395344107467523 
0.8399999999999238, -0.9948055239062942 
0.8499999999999227, -0.9501902429673892 
0.8599999999999216, -0.9076717652892601 
0.8699999999999205, -0.8682161719530408 
0.8799999999999194, -0.8327390739264289 
0.8899999999999183, -0.8024523922225262 
0.8999999999999172, -0.7785566710502535 
0.9099999999999161, -0.7615873745664656 
0.919999999999915, -0.7509853810919819 
0.9299999999999139, -0.7452875749168902 
0.9399999999999128, -0.7427498714845041 
0.9499999999999117, -0.7418982062165259 
0.9599999999999106, -0.7417332487639549 
0.9699999999999095, -0.741662533371576 
0.9799999999999084, -0.7413453469726129 
0.9899999999999073, -0.7405715226979722 
0.9999999999999062, -0.7392171833174096 
1.0099999999999052, -0.7372712798619233 
1.019999999999904, -0.7348766491703762 
1.029999999999903, -0.7323012290579531 
1.039999999999902, -0.7298245728978177 
1.0499999999999008, -0.7276291694468747 
1.0599999999998997, -0.7257697372817609 
1.0699999999998986, -0.7242041389822501 
1.0799999999998975, -0.7228423539377841 
1.0899999999998964, -0.7215938554738749 
1.0999999999998953, -0.7204068162707465 
1.1099999999998942, -0.7192912304531849 
1.119999999999893, -0.7183218604076866 
1.129999999999892, -0.7176240403884655 
1.1399999999998909, -0.7173470267072332 
1.1499999999998898, -0.717630296711839 
1.1599999999998887, -0.7185730006159315 
1.1699999999998876, -0.720219172567468 
1.1799999999998865, -0.7225642741043807 
1.1899999999998854, -0.7255774006486895 
1.1999999999998843, -0.7292288479644149 
1.2099999999998832, -0.7335165916269725 
1.219999999999882, -0.7384900891124022 
1.229999999999881, -0.7442693847677491 
1.2399999999998799, -0.7510513365763202 
1.2499999999998788, -0.7590824192238116 
1.2599999999998777, -0.7685551192695435 
1.2699999999998766, -0.7793721948928138 
1.2799999999998755, -0.7908262086049441 
1.2899999999998744, -0.8015509849435315 
1.2999999999998733, -0.8101456664707805 
1.3099999999998722, -0.8160063977034969 
1.319999999999871, -0.8194223690632019 
1.32999999999987, -0.8210404469619073 
1.3399999999998689, -0.8214238784209625 
1.3499999999998678, -0.8209413645507441 
1.3599999999998666, -0.819876269267791 
1.3699999999998655, -0.8187378637448361 
1.3799999999998644, -0.818993322037314 
1.3899999999998633, -0.8246198353962235 
1.3999999999998622, -0.8443807889227554 
1.4099999999998611, -0.8919185986427793 
1.41999999999986, -0.9764064126640097 
1.429999999999859, -1.0860295493871903 
1.4399999999998578, -1.1930119461747444 
1.4499999999998567, -1.2797053748403375 
1.4599999999998556, -1.3443752625417233 
1.4699999999998545, -1.3909323615151723 
1.4799999999998534, -1.4229997891442228 
1.4899999999998523, -1.4434436670620456 
1.4999999999998512, -1.455194040303068 
1.5099999999998501, -1.4612060354737892 
1.519999999999849, -1.4638396082573562 
1.529999999999848, -1.4646107454686517 
1.5399999999998468, -1.464436128584973 
1.5499999999998457, -1.4640113313441356 
1.5599999999998446, -1.4639358976594878 
1.5699999999998435, -1.464419634290372 
1.5799999999998424, -1.465167982476138 
1.5899999999998413, -1.4658455804797732 
1.5999999999998402, -1.4664017110313723 
1.6099999999998391, -1.4668881079771396 
1.619999999999838, -1.4671889610049913 
1.629999999999837, -1.467021828617197 
1.6399999999998358, -1.4660653310909744 
1.6499999999998347, -1.46401502599279 
1.6599999999998336, -1.4606075361918993 
1.6699999999998325, -1.4556417087675664 
1.6799999999998314, -1.4489295321463034 
1.6899999999998303, -1.4401463438308044 
1.6999999999998292, -1.428620898960467 
1.709999999999828, -1.4131212474262642 
1.719999999999827, -1.391890732774975 
1.729999999999826, -1.3640182713873947 
1.7399999999998248, -1.3337020326738371 
1.7499999999998237, -1.3119500538942461 
1.7599999999998226, -1.304360142499694 
1.7699999999998215, -1.3046829107031712 
1.7799999999998204, -1.306341592608122 
1.7899999999998193, -1.3070558864018262 
1.7999999999998182, -1.3062456711188974 
1.809999999999817, -1.302923419189344 
1.819999999999816, -1.2936583566672781 
1.8299999999998149, -1.2661058234251807 
1.8399999999998138, -1.1702174092757403 
1.8499999999998127, -0.8094254072879336 
1.8599999999998116, -0.0714634152918263 
1.8699999999998105, 0.2900268065783155 
1.8799999999998094, 0.37751521068777266 
1.8899999999998083, 0.4024812260495806 
1.8999999999998072, 0.41140827239380534 
1.909999999999806, 0.41498169591003975 
1.919999999999805, 0.4163116949807086 
1.9299999999998039, 0.41650167181664344 
1.9399999999998028, 0.4160350876953477 
1.9499999999998017, 0.4152069801957853 
1.9599999999998006, 0.4142734257485693 
1.9699999999997995, 0.4134889606898575 
1.9799999999997984, 0.4130982615323104 
1.9899999999997973, 0.4133196744955159 
1.9999999999997962, 0.41432294721009677 
2.0099999999998173, 0.4161733455447118 
2.0199999999998384, 0.4187366870882685 
2.0299999999998595, 0.42162749842042124 
2.0399999999998806, 0.4243181053602408 
2.0499999999999017, 0.4263629660589139 
2.059999999999923, 0.42752175087238403 
2.069999999999944, 0.42767493272115925 
2.079999999999965, 0.4265996565108009 
2.089999999999986, 0.4236022430735938 
2.100000000000007, 0.4166502714327417 
2.1100000000000283, 0.3996138299392871 
2.1200000000000494, 0.3529716710249159 
2.1300000000000705, 0.22609908846427654 
2.1400000000000916, 0.00975022191680463 
2.1500000000001127, -0.14129955037322003 
2.160000000000134, -0.19836136815354988 
2.170000000000155, -0.21796549016715586 
2.180000000000176, -0.22561536561041465 
2.190000000000197, -0.2290517671075286 
2.2000000000002182, -0.23070283496589603 
2.2100000000002393, -0.23142201386217795 
2.2200000000002604, -0.23153866976964405 
2.2300000000002815, -0.23119031779854854 
2.2400000000003026, -0.23045691808506455 
2.2500000000003237, -0.22943713203913646 
2.260000000000345, -0.228291319275927 
2.270000000000366, -0.2272388772643986 
2.280000000000387, -0.22651463374996977 
2.290000000000408, -0.2263275560720223 
2.3000000000004293, -0.22686032830952577 
2.3100000000004504, -0.22829876854883313 
2.3200000000004715, -0.23083996545934635 
2.3300000000004926, -0.2346159662391485 
2.3400000000005137, -0.2395050444484595 
2.3500000000005348, -0.24495519347005787 
2.360000000000556, -0.2501027680659196 
2.370000000000577, -0.2542119924673179 
2.380000000000598, -0.2569874863105075 
2.390000000000619, -0.2584872098718274 
2.4000000000006403, -0.2588563087124684 
2.4100000000006614, -0.25811594914276925 
2.4200000000006825, -0.25601074105968474 
2.4300000000007036, -0.2518119846225856 
2.4400000000007247, -0.2440039457679381 
2.450000000000746, -0.2300646672399619 
2.460000000000767, -0.20748787012086609 
2.470000000000788, -0.17747867396551362 
2.480000000000809, -0.14718211690350239 
2.49000000000083, -0.1236763040675988 
2.5000000000008513, -0.10834663494734556 
2.5100000000008724, -0.09908958655589753 
2.5200000000008935, -0.09360823243931111 
2.5300000000009146, -0.09038021169971737 
2.5400000000009357, -0.08852375650053433 
2.550000000000957, -0.08752329529113387 
2.560000000000978, -0.08704363037581037 
2.570000000000999, -0.08683666838648924 
2.58000000000102, -0.08670915685463688 
2.5900000000010412, -0.086515124039414 
2.6000000000010624, -0.08614278888275981 
2.6100000000010835, -0.08547938374001561 
2.6200000000011046, -0.08433667917436488 
2.6300000000011257, -0.08227293740728667 
2.6400000000011468, -0.0780695406390499 
2.650000000001168, -0.0679944470050445 
2.660000000001189, -0.040225171521699715 
2.67000000000121, 0.03495678235499689 
2.680000000001231, 0.1739906356091612 
2.6900000000012523, 0.29694800793157794 
2.7000000000012734, 0.35565453575323597 
2.7100000000012945, 0.3786606206975183 
2.7200000000013156, 0.3879109845851628 
2.7300000000013367, 0.39174056579701033 
2.740000000001358, 0.39307990875904475 
2.750000000001379, 0.3929707890394571 
2.7600000000014, 0.3917545878310723 
2.770000000001421, 0.38953696445821484 
2.780000000001442, 0.38646023955037884 
2.7900000000014633, 0.38287992373554436 
2.8000000000014844, 0.37934873452878415 
2.8100000000015055, 0.3763927565505856 
2.8200000000015266, 0.37429866124352673 
2.8300000000015477, 0.3730944586084163 
2.840000000001569, 0.3726544607312817 
2.85000000000159, 0.37278802999171756 
2.860000000001611, 0.3732718131951218 
2.870000000001632, 0.37385829797753795 
2.8800000000016532, 0.37429042289979175 
2.8900000000016743, 0.3743113854424673 
2.9000000000016954, 0.3736251505480272 
2.9100000000017165, 0.37174154179015473 
2.9200000000017377, 0.3675445313403215 
2.9300000000017588, 0.35796139983167286 
2.94000000000178, 0.3329660354883453 
2.950000000001801, 0.2534846283544113 
2.960000000001822, -0.023065615601699174 
2.970000000001843, -0.5429856791284887 
2.9800000000018643, -0.843243183806522 
2.9900000000018854, -0.9404146042686221 
3.0000000000019065, -0.9722134911860281 
3.0100000000019276, -0.9838500650272005 
3.0200000000019487, -0.988317007851221 
3.03000000000197, -0.9896698547171379 
3.040000000001991, -0.9891167456729981 
3.050000000002012, -0.9865649319053456 
3.060000000002033, -0.980642414617406 
3.070000000002054, -0.9674914342628208 
3.0800000000020753, -0.9372932542656273 
3.0900000000020964, -0.8665561713605265 
3.1000000000021175, -0.6901791725233661 
3.1100000000021386, 0.9561536203210792 
3.1200000000021597, 2.4628528541791757 
3.130000000002181, 2.4906355246809766 
3.140000000002202, 2.4927479647226765 
3.150000000002223, 2.4899341172966993 
3.160000000002244, 2.461382270191515 
3.1700000000022652, 0.4022465973643694 
3.1800000000022863, -2.7540672718882404 
3.1900000000023074, -2.8831793481583183 
3.2000000000023285, -2.894084431851248 
3.2100000000023496, -2.8952660436342743 
3.2200000000023707, -2.8947272035321463 
3.230000000002392, -2.8939594871532415 
3.240000000002413, -2.8922416355550067 
3.250000000002434, -2.8902963518635714 
3.260000000002455, -2.8900979833012195 
3.2700000000024763, -2.8890721209023007 
3.2800000000024974, -2.881926426285908 
3.2900000000025185, -2.8521411763129207 
3.3000000000025396, -2.9176934450032372 
3.3100000000025607, -2.9843628595283205 
3.3200000000025818, -2.9982683038272584 
3.330000000002603, -3.001714837296656 
3.340000000002624, -3.001987321537137 
3.350000000002645, -2.9997564400598278 
3.360000000002666, -2.992374556566912 
3.3700000000026873, -2.9629350350298003 
3.3800000000027084, -2.714546665425154 
3.3900000000027295, -1.26968679455488 
3.4000000000027506, -0.8649927089458449 
3.4100000000027717, -0.8561167633074579 
3.420000000002793, -0.8749653625346709 
3.430000000002814, -0.8875888482090758 
3.440000000002835, -0.8942827263237014 
3.450000000002856, -0.8974887546762125 
3.460000000002877, -0.8986168222182502 
3.4700000000028983, -0.8981656191837224 
3.4800000000029194, -0.8958610855912003 
3.4900000000029405, -0.890329948403644 
3.5000000000029616, -0.8778777083446162 
3.5100000000029827, -0.8496244069544124 
3.520000000003004, -0.7884561387386545 
3.530000000003025, -0.6803839288499265 
3.540000000003046, -0.5506909888222468 
3.550000000003067, -0.44795801459860163 
3.5600000000030882, -0.3846582530673098 
3.5700000000031094, -0.34832929147118025 
3.5800000000031305, -0.3270405935351089 
3.5900000000031516, -0.3139535637569498 
3.6000000000031727, -0.305514034017475 
3.6100000000031938, -0.2998581923888747 
3.620000000003215, -0.29597546055052615 
3.630000000003236, -0.2933058144054333 
3.640000000003257, -0.2915454008968377 
3.650000000003278, -0.2905514719062143 
3.6600000000032993, -0.2902989105689977 
3.6700000000033204, -0.29086917719187816 
3.6800000000033415, -0.2924670750950388 
3.6900000000033626, -0.2954717322515593 
3.7000000000033837, -0.300542702630601 
3.710000000003405, -0.3088290781614591 
3.720000000003426, -0.3223866094907189 
3.730000000003447, -0.3450315086978982 
3.740000000003468, -0.38410180333168903 
3.750000000003489, -0.45383451683044135 
3.7600000000035103, -0.5795410169292355 
3.7700000000035314, -0.7897900717351662 
3.7800000000035525, -1.0625059184658878 
3.7900000000035736, -1.2896470952827275 
3.8000000000035947, -1.4108963393189118 
3.810000000003616, -1.4606829187579882 
3.820000000003637, -1.479393813356746 
3.830000000003658, -1.4862798345497192 
3.840000000003679, -1.4885714153469913 
3.8500000000037002, -1.4888955333703202 
3.8600000000037213, -1.4884310556342029 
3.8700000000037424, -1.488240945079682 
3.8800000000037635, -1.4894187478252578 
3.8900000000037847, -1.4920623783406894 
3.9000000000038058, -1.4951297155328636 
3.910000000003827, -1.4977527085378903 
3.920000000003848, -1.4997467022926232 
3.930000000003869, -1.5011935779152021 
3.94000000000389, -1.502103684390112 
3.9500000000039113, -1.502399963957943 
3.9600000000039324, -1.5020036656234104 
3.9700000000039535, -1.5008695305393924 
3.9800000000039746, -1.4989703380231352 
3.9900000000039957, -1.4962568692603342 
4.000000000004016, -1.4926121758308504 
4.010000000003993, -1.487802385843303 
4.02000000000397, -1.4814019733738242 
4.030000000003946, -1.472731045684038 
4.040000000003923, -1.4611349901142197 
4.0500000000039, -1.4473611884359447 
4.0600000000038765, -1.4354628952039235 
4.070000000003853, -1.4299070573664623 
4.08000000000383, -1.429515466793751 
4.090000000003807, -1.4304108703452587 
4.100000000003783, -1.4305533926799943 
4.11000000000376, -1.4290371047809047 
4.120000000003737, -1.4240792526486674 
4.130000000003713, -1.409400220331232 
4.14000000000369, -1.3594442498888797 
4.150000000003667, -1.1541207210915552 
4.1600000000036434, -0.4255518968743727 
4.17000000000362, 0.2679903960142215 
4.180000000003597, 0.43694923338122305 
4.1900000000035735, 0.47631694002086283 
4.20000000000355, 0.48860923307268334 
4.210000000003527, 0.4931789824396449 
4.220000000003504, 0.494844310984203 
4.23000000000348, 0.4951160909289379 
4.240000000003457, 0.49456640482060343 
4.250000000003434, 0.4934905726690701 
4.26000000000341, 0.49213881788566355 
4.270000000003387, 0.4907851938299478 
4.280000000003364, 0.4897054962593808 
4.2900000000033405, 0.48912012226386353 
4.300000000003317, 0.4891490892773378 
4.310000000003294, 0.4897882080239526 
4.320000000003271, 0.49089789829804564 
4.330000000003247, 0.49221895829111323 
4.340000000003224, 0.4934362729282372 
4.350000000003201, 0.4942610514365729 
4.360000000003177, 0.49445581348791495 
4.370000000003154, 0.4937450320356258 
4.380000000003131, 0.4915549272174077 
4.390000000003107, 0.4863074467095318 
4.400000000003084, 0.47291904030697973 
4.410000000003061, 0.43115758296690243 
4.4200000000030375, 0.2602964182331375 
4.430000000003014, -0.3470823986605745 
4.440000000002991, -0.9406291219012456 
4.450000000002968, -1.1277634657497138 
4.460000000002944, -1.1792720492973334 
4.470000000002921, -1.1955685911820104 
4.480000000002898, -1.2012220000382634 
4.490000000002874, -1.2029005224074623 
4.500000000002851, -1.202530474153606 
4.510000000002828, -1.2004799115217746 
4.520000000002804, -1.1967268322437703 
4.530000000002781, -1.1931696503614135 
4.540000000002758, -1.2009210840543032 
4.5500000000027345, -1.2456668491104865 
4.560000000002711, -1.3336834762071774 
4.570000000002688, -1.4233581493597671 
4.580000000002665, -1.4862575292607318 
4.590000000002641, -1.525753497239387 
4.600000000002618, -1.550921378425064 
4.610000000002595, -1.5674704555529682 
4.620000000002571, -1.578335736252796 
4.630000000002548, -1.5851166491324142 
4.640000000002525, -1.5889152071090038 
4.6500000000025015, -1.590629771674853 
4.660000000002478, -1.5909765489767462 
4.670000000002455, -1.5905090121547731 
4.6800000000024315, -1.589676898021339 
4.690000000002408, -1.5887562838443183 
4.700000000002385, -1.5877246646214023 
4.710000000002362, -1.5864927378962255 
4.720000000002338, -1.5853194664657537 
4.730000000002315, -1.5846649757248144 
4.740000000002292, -1.5844882061631635 
4.750000000002268, -1.584140738356314 
4.760000000002245, -1.582772636364329 
4.770000000002222, -1.5791342378357298 
4.7800000000021985, -1.5706265472770682 
4.790000000002175, -1.5516994649964988 
4.800000000002152, -1.5120049019982729 
4.810000000002129, -1.4361284936442316 
4.820000000002105, -1.3076394790374324 
4.830000000002082, -1.1209865477534477 
4.840000000002059, -0.9028186654449272 
4.850000000002035, -0.7106349315893753 
4.860000000002012, -0.5806471654100128 
4.870000000001989, -0.5060997418579065 
4.880000000001965, -0.46628988838775465 
4.890000000001942, -0.4455164774693915 
4.900000000001919, -0.434778893023291 
4.9100000000018955, -0.4293110245506938 
4.920000000001872, -0.4266202107640503 
4.930000000001849, -0.42539063220194917 
