t, s[1].omega / s[0].omega 
0, -0.22999784506778917 
0.009999999999999995, -0.23017327304450347 
0.019999999999999934, -0.23111013284396628 
0.029999999999999874, -0.2327387434266667 
0.04000000000000012, -0.2348657299833429 
0.050000000000000405, -0.23715262833082312 
0.06000000000000069, -0.23920682440863236 
0.07000000000000098, -0.24072668856524632 
0.08000000000000126, -0.24156393500983708 
0.09000000000000155, -0.2416627358207979 
0.10000000000000184, -0.24093758374401236 
0.11000000000000212, -0.23912196135348998 
0.12000000000000241, -0.23551737667785266 
0.130000000000002, -0.22842909655363064 
0.1400000000000009, -0.21388050990442697 
0.1499999999999998, -0.18367120870908418 
0.1599999999999987, -0.127947507341778 
0.1699999999999976, -0.05370006995318268 
0.1799999999999965, 0.009386473617294073 
0.1899999999999954, 0.04677218035483006 
0.1999999999999943, 0.06585249010727263 
0.2099999999999932, 0.07535283663588653 
0.2199999999999921, 0.08012564843239132 
0.229999999999991, 0.08245089443641522 
0.2399999999999899, 0.08339561893427636 
0.2499999999999888, 0.08350290730558638 
0.2599999999999877, 0.0831059603642848 
0.2699999999999866, 0.0824627701942932 
0.2799999999999855, 0.08179927636570236 
0.2899999999999844, 0.08131600373406844 
0.2999999999999833, 0.08120406381270272 
0.3099999999999822, 0.081700685053129 
0.3199999999999811, 0.08320432687705044 
0.32999999999998, 0.08647375577845069 
0.3399999999999789, 0.09288864605178405 
0.3499999999999778, 0.10441604732984691 
0.35999999999997667, 0.12219842580239866 
0.36999999999997557, 0.14368655113841666 
0.37999999999997447, 0.163088596417771 
0.38999999999997337, 0.17670040866148468 
0.39999999999997227, 0.18479681398004047 
0.40999999999997117, 0.1891340494842189 
0.41999999999997006, 0.1911445169533782 
0.42999999999996896, 0.1916271319825671 
0.43999999999996786, 0.19091806593661198 
0.44999999999996676, 0.1890894530618811 
0.45999999999996566, 0.1861405555586843 
0.46999999999996456, 0.18221595430572363 
0.47999999999996346, 0.17776892534754482 
0.48999999999996235, 0.17348041860338362 
0.49999999999996125, 0.1699453004127286 
0.5099999999999602, 0.16744532469273862 
0.519999999999959, 0.16599032717320028 
0.529999999999958, 0.16547955903080225 
0.5399999999999568, 0.16580667090964246 
0.5499999999999557, 0.1668662119017693 
0.5599999999999546, 0.16849649758448007 
0.5699999999999535, 0.1704247587733576 
0.5799999999999524, 0.17228720298462447 
0.5899999999999513, 0.17372997556605618 
0.5999999999999502, 0.17449476531464914 
0.6099999999999491, 0.17439713977693722 
0.619999999999948, 0.17319835527509206 
0.6299999999999469, 0.17039450138163356 
0.6399999999999458, 0.16487525005397946 
0.6499999999999447, 0.15436549328070173 
0.6599999999999436, 0.13497111448429136 
0.6699999999999425, 0.10306544755973765 
0.6799999999999414, 0.06252422113606894 
0.6899999999999403, 0.026751697648668322 
0.6999999999999392, 0.0040227755947524705 
0.7099999999999381, -0.007682108968086729 
0.719999999999937, -0.013304017803724418 
0.7299999999999359, -0.015964944927709133 
0.7399999999999348, -0.017120904037054494 
0.7499999999999337, -0.017434074116686175 
0.7599999999999326, -0.01721896242604467 
0.7699999999999315, -0.01665998066856407 
0.7799999999999304, -0.01591935052122604 
0.7899999999999293, -0.015185330781221973 
0.7999999999999282, -0.01467876755808945 
0.8099999999999271, -0.014644017708659213 
0.819999999999926, -0.015366549264730498 
0.8299999999999249, -0.017254996055128934 
0.8399999999999238, -0.02101317202625594 
0.8499999999999227, -0.02791716410069813 
0.8599999999999216, -0.04009005240749296 
0.8699999999999205, -0.06007728085907167 
0.8799999999999194, -0.0881522134479502 
0.8899999999999183, -0.11864750669155329 
0.8999999999999172, -0.14324904851797426 
0.9099999999999161, -0.15887725874586506 
0.919999999999915, -0.16754482378808966 
0.9299999999999139, -0.1720404942158124 
0.9399999999999128, -0.17418237412857326 
0.9499999999999117, -0.17490173754033572 
0.9599999999999106, -0.1746088954029663 
0.9699999999999095, -0.17344670142621843 
0.9799999999999084, -0.171460390145826 
0.9899999999999073, -0.1687471840489966 
0.9999999999999062, -0.16557498191792716 
1.0099999999999052, -0.16238004438808695 
1.019999999999904, -0.15961149770866612 
1.029999999999903, -0.15756490901717107 
1.039999999999902, -0.15635503321642602 
1.0499999999999008, -0.15600018295112456 
1.0599999999998997, -0.15650520286559916 
1.0699999999998986, -0.15787707780625296 
1.0799999999998975, -0.16006237431625328 
1.0899999999998964, -0.16284490988145653 
1.0999999999998953, -0.16581034319903656 
1.1099999999998942, -0.16847068610173024 
1.119999999999893, -0.1704623505226885 
1.129999999999892, -0.17162488842431872 
1.1399999999998909, -0.1719168325467663 
1.1499999999998898, -0.17126695348390322 
1.1599999999998887, -0.16941896387097488 
1.1699999999998876, -0.16573572063003733 
1.1799999999998865, -0.15891047015345686 
1.1899999999998854, -0.1467390683021404 
1.1999999999998843, -0.1268825931716039 
1.2099999999998832, -0.09999971135217964 
1.219999999999882, -0.07219752087154493 
1.229999999999881, -0.05023011677734076 
1.2399999999998799, -0.035836425052883494 
1.2499999999998788, -0.027223290310549386 
1.2599999999998777, -0.02223506608730317 
1.2699999999998766, -0.019421423583665467 
1.2799999999998755, -0.01795499693067199 
1.2899999999998744, -0.017366296157660128 
1.2999999999998733, -0.017348471938010406 
1.3099999999998722, -0.017649578162738617 
1.319999999999871, -0.018036953251935214 
1.32999999999987, -0.018304742843338523 
1.3399999999998689, -0.01828093759551401 
1.3499999999998678, -0.017799137726958462 
1.3599999999998666, -0.01661855813361037 
1.3699999999998655, -0.014264789922903368 
1.3799999999998644, -0.009711812906650422 
1.3899999999998633, -0.0007967205087000817 
1.3999999999998622, 0.01591784009666565 
1.4099999999998611, 0.044549546861296155 
1.41999999999986, 0.08183625031028106 
1.429999999999859, 0.11570074650789171 
1.4399999999998578, 0.13829038374320612 
1.4499999999998567, 0.1509288971908557 
1.4599999999998556, 0.15749558811687678 
1.4699999999998545, 0.1607165597300002 
1.4799999999998534, 0.16202181257934836 
1.4899999999998523, 0.16208473880968854 
1.4999999999998512, 0.1612150255105929 
1.5099999999998501, 0.15960062823385707 
1.519999999999849, 0.15746373733913466 
1.529999999999848, 0.15512468718108113 
1.5399999999998468, 0.15295163560878727 
1.5499999999998457, 0.1512544801917807 
1.5599999999998446, 0.15023235681580244 
1.5699999999998435, 0.15000958929318664 
1.5799999999998424, 0.15070411580220616 
1.5899999999998413, 0.15245623345004403 
1.5999999999998402, 0.15536306336507963 
1.6099999999998391, 0.15930627282952572 
1.619999999999838, 0.16379502217120676 
1.629999999999837, 0.1680681799776244 
1.6399999999998358, 0.17146462226513506 
1.6499999999998347, 0.17368397077723438 
1.6599999999998336, 0.17471285322200839 
1.6699999999998325, 0.1745904611705577 
1.6799999999998314, 0.17320502528440887 
1.6899999999998303, 0.17013968260305964 
1.6999999999998292, 0.1645477929708872 
1.709999999999828, 0.1552194655888448 
1.719999999999827, 0.1413706093229576 
1.729999999999826, 0.12434814965942095 
1.7399999999998248, 0.10800336555024333 
1.7499999999998237, 0.09566861197118098 
1.7599999999998226, 0.0878441590675394 
1.7699999999998215, 0.08333739466253856 
1.7799999999998204, 0.08088729275931822 
1.7899999999998193, 0.07967239481963048 
1.7999999999998182, 0.07923269389721135 
1.809999999999817, 0.07930162690526818 
1.819999999999816, 0.07968083090224037 
1.8299999999998149, 0.08016863960385673 
1.8399999999998138, 0.08053769893442958 
1.8499999999998127, 0.08054326382756595 
1.8599999999998116, 0.07991985159820371 
1.8699999999998105, 0.07831740229752233 
1.8799999999998094, 0.07513223222987267 
1.8899999999998083, 0.06915669766025898 
1.8999999999998072, 0.05790736894011424 
1.909999999999806, 0.036701717529446155 
1.919999999999805, -0.0005466079145319459 
1.9299999999998039, -0.05271840865307094 
1.9399999999998028, -0.10378718957713502 
1.9499999999998017, -0.13807088672161147 
1.9599999999998006, -0.15626411337796306 
1.9699999999997995, -0.16516008105812224 
1.9799999999997984, -0.16946612979570008 
1.9899999999997973, -0.17147454510486815 
1.9999999999997962, -0.17219656951847234 
2.0099999999998173, -0.1720608867987873 
2.0199999999998384, -0.17124485821164467 
2.0299999999998595, -0.16984827879009406 
2.0399999999998806, -0.1680085137889515 
2.0499999999999017, -0.16596309564430206 
2.059999999999923, -0.1640265383135529 
2.069999999999944, -0.1624983135643757 
2.079999999999965, -0.16159130247644765 
2.089999999999986, -0.1614404778457651 
2.100000000000007, -0.16216063959522917 
2.1100000000000283, -0.16388512435407218 
2.1200000000000494, -0.16672910436613966 
2.1300000000000705, -0.17064897966543585 
2.1400000000000916, -0.17526696119530535 
2.1500000000001127, -0.17988007203411374 
2.160000000000134, -0.18377233466402404 
2.170000000000155, -0.18654554413356753 
2.180000000000176, -0.1881443248783436 
2.190000000000197, -0.18865387317381288 
2.2000000000002182, -0.18809378632295112 
2.2100000000002393, -0.18627056132838235 
2.2200000000002604, -0.18263890545649025 
2.2300000000002815, -0.1761624573667127 
2.2400000000003026, -0.16540467970547398 
2.2500000000003237, -0.14949195783087363 
2.260000000000345, -0.1300161966702158 
2.270000000000366, -0.11118521234776606 
2.280000000000387, -0.09651504786822737 
2.290000000000408, -0.08664448310951453 
2.3000000000004293, -0.08049418594831995 
2.3100000000004504, -0.0768168274758276 
2.3200000000004715, -0.07473138629509248 
2.3300000000004926, -0.07369675427373332 
2.3400000000005137, -0.07336873459175844 
2.3500000000005348, -0.07348534713900874 
2.360000000000556, -0.07381004652425391 
2.370000000000577, -0.07412740670054252 
2.380000000000598, -0.07425928510654387 
2.390000000000619, -0.0740616271665523 
2.4000000000006403, -0.07338020355184513 
2.4100000000006614, -0.07195180161162348 
2.4200000000006825, -0.06919784918741115 
2.4300000000007036, -0.06374198153262242 
2.4400000000007247, -0.05228872791539343 
2.450000000000746, -0.02783007747031895 
2.460000000000767, 0.018383888709449105 
2.470000000000788, 0.08116399522990729 
2.480000000000809, 0.1352912577575775 
2.49000000000083, 0.16754929068562635 
2.5000000000008513, 0.18376893026080077 
2.5100000000008724, 0.19161026014530735 
2.5200000000008935, 0.19533021415115304 
2.5300000000009146, 0.19688223055636547 
2.5400000000009357, 0.19712819385746777 
2.550000000000957, 0.19646187149975566 
2.560000000000978, 0.1951172037776296 
2.570000000000999, 0.19333170472952516 
2.58000000000102, 0.19140422356241954 
2.5900000000010412, 0.18965671189709088 
2.6000000000010624, 0.18836076991177153 
2.6100000000010835, 0.18770961184115226 
2.6200000000011046, 0.1878524577087603 
2.6300000000011257, 0.18894213802004978 
2.6400000000011468, 0.1911298841806597 
2.650000000001168, 0.19445588442397638 
2.660000000001189, 0.19866100505800194 
2.67000000000121, 0.20311182437120096 
2.680000000001231, 0.20704109640703475 
2.6900000000012523, 0.20992542974967748 
2.7000000000012734, 0.21160637740492194 
2.7100000000012945, 0.2121150269083997 
2.7200000000013156, 0.2114296909112559 
2.7300000000013367, 0.20927561710458775 
2.740000000001358, 0.204923225684372 
2.750000000001379, 0.19697737565623122 
2.7600000000014, 0.1835247153513036 
2.770000000001421, 0.16372693771416247 
2.780000000001442, 0.14075974360007554 
2.7900000000014633, 0.12090165202748775 
2.8000000000014844, 0.10760981550572946 
2.8100000000015055, 0.09999319765358852 
2.8200000000015266, 0.09590115159420545 
2.8300000000015477, 0.09375898462673736 
2.840000000001569, 0.09269751502970097 
2.85000000000159, 0.0922668454157145 
2.860000000001611, 0.09220975644838135 
2.870000000001632, 0.09233216376496148 
2.8800000000016532, 0.09243890061212008 
2.8900000000016743, 0.0923096452466948 
2.9000000000016954, 0.09168520692833634 
2.9100000000017165, 0.09021950829911113 
2.9200000000017377, 0.08733726011736079 
2.9300000000017588, 0.08189161147615104 
2.94000000000178, 0.07137218372280604 
2.950000000001801, 0.05019526133792444 
2.960000000001822, 0.007502520677604414 
2.970000000001843, -0.06689022815431767 
2.9800000000018643, -0.15692436844011054 
2.9900000000018854, -0.2236728248659284 
3.0000000000019065, -0.2584412945906514 
3.0100000000019276, -0.27442911806180814 
3.0200000000019487, -0.28183048795803006 
3.03000000000197, -0.2853383308446801 
3.040000000001991, -0.28688765634056834 
3.050000000002012, -0.28725849107989987 
3.060000000002033, -0.2867355004682714 
3.070000000002054, -0.28538427582075493 
3.0800000000020753, -0.2832128599476036 
3.0900000000020964, -0.2803185405872469 
3.1000000000021175, -0.2769953557812072 
3.1100000000021386, -0.27370009067695084 
3.1200000000021597, -0.270870555823537 
3.130000000002181, -0.2687668298693359 
3.140000000002202, -0.26746291599882116 
3.150000000002223, -0.26692904891305785 
3.160000000002244, -0.26709476723160813 
3.1700000000022652, -0.2678522937235191 
3.1800000000022863, -0.2690245897337222 
3.1900000000023074, -0.2703551062671856 
3.2000000000023285, -0.2715606049616407 
3.2100000000023496, -0.2724155834590433 
3.2200000000023707, -0.27279141073172986 
3.230000000002392, -0.2726212428175482 
3.240000000002413, -0.2718192757163955 
3.250000000002434, -0.2701670865607807 
3.260000000002455, -0.26709855174252806 
3.2700000000024763, -0.26111941104432124 
3.2800000000024974, -0.24794724051490924 
3.2900000000025185, -0.21437015388213512 
3.3000000000025396, -0.12419253761498092 
3.3100000000025607, 0.05626034086146753 
3.3200000000025818, 0.226902996565752 
3.330000000002603, 0.30701141156028533 
3.340000000002624, 0.33693133674936965 
3.350000000002645, 0.3486065958452077 
3.360000000002666, 0.3534759736581147 
3.3700000000026873, 0.3554008563895005 
3.3800000000027084, 0.35577103709148566 
3.3900000000027295, 0.3551184085489021 
3.4000000000027506, 0.35368781183151876 
3.4100000000027717, 0.35169312163284044 
3.420000000002793, 0.34943138802415585 
3.430000000002814, 0.34726838566172863 
3.440000000002835, 0.3455367153709515 
3.450000000002856, 0.34445109184487727 
3.460000000002877, 0.34409984706802577 
3.4700000000028983, 0.34447466099569657 
3.4800000000029194, 0.345480062552052 
3.4900000000029405, 0.3469166430605961 
3.5000000000029616, 0.34848480451926345 
3.5100000000029827, 0.3498473649976802 
3.520000000003004, 0.3507131373156643 
3.530000000003025, 0.3508539195600463 
3.540000000003046, 0.35000492135666705 
3.550000000003067, 0.34761918977201145 
3.5600000000030882, 0.34229787053598687 
3.5700000000031094, 0.33015534923609013 
3.5800000000031305, 0.2995134859011762 
3.5900000000031516, 0.21636649992650175 
3.6000000000031727, 0.03181710992394285 
3.6100000000031938, -0.17032984905418047 
3.620000000003215, -0.2722640586485632 
3.630000000003236, -0.31008565415046785 
3.640000000003257, -0.32473205325576465 
3.650000000003278, -0.33114527802456173 
3.6600000000032993, -0.33419428005062674 
3.6700000000033204, -0.3355933106598213 
3.6800000000033415, -0.33599060250459634 
3.6900000000033626, -0.3356195230652784 
3.7000000000033837, -0.33453822615874296 
3.710000000003405, -0.3327625075020486 
3.720000000003426, -0.3303826717584647 
3.730000000003447, -0.32764587542802814 
3.740000000003468, -0.3249285060436472 
3.750000000003489, -0.3225968187959638 
3.7600000000035103, -0.32088242949605783 
3.7700000000035314, -0.3198684031288359 
3.7800000000035525, -0.31954440509195353 
3.7900000000035736, -0.3198477261982232 
3.8000000000035947, -0.32065959682554607 
3.810000000003616, -0.32178405825800377 
3.820000000003637, -0.32296190263611385 
3.830000000003658, -0.32393912824120585 
3.840000000003679, -0.3245394035697243 
3.8500000000037002, -0.3246783003442645 
3.8600000000037213, -0.3243181774539867 
3.8700000000037424, -0.32339918074032536 
3.8800000000037635, -0.3217545521915217 
3.8900000000037847, -0.3189503003729674 
3.9000000000038058, -0.3138092289375135 
3.910000000003827, -0.3025802656042896 
3.920000000003848, -0.27043038614936277 
3.930000000003869, -0.15045398633818124 
3.94000000000389, 0.2225220793729271 
3.9500000000039113, 0.5720344141543864 
3.9600000000039324, 0.6725747734163148 
3.9700000000039535, 0.6979392279036188 
3.9800000000039746, 0.7057825038843505 
3.9900000000039957, 0.7083343729261653 
4.000000000004016, 0.7086048568064353 
4.010000000003993, 0.7072489327297206 
4.02000000000397, 0.7040023123298346 
4.030000000003946, 0.6981219308045185 
4.040000000003923, 0.6891117246616847 
4.0500000000039, 0.6781533598336444 
4.0600000000038765, 0.6683567318746433 
4.070000000003853, 0.6620229667581234 
4.08000000000383, 0.6589140400502783 
4.090000000003807, 0.6576736403123264 
4.100000000003783, 0.6572032084703215 
4.11000000000376, 0.6568549280048618 
4.120000000003737, 0.6561912562622274 
4.130000000003713, 0.6546859988661102 
4.14000000000369, 0.6512073954803826 
4.150000000003667, 0.6423063282017145 
4.1600000000036434, 0.6134640828297577 
4.17000000000362, 0.46584002413548065 
4.180000000003597, -0.7935981552622787 
4.1900000000035735, -2.3983190183824403 
4.20000000000355, -2.598807551481251 
4.210000000003527, -2.631373143474272 
4.220000000003504, -2.6390967665210106 
4.23000000000348, -2.640742593010153 
4.240000000003457, -2.6401958112866626 
4.250000000003434, -2.6383049649399095 
4.26000000000341, -2.6341727263996555 
4.270000000003387, -2.6263444037150228 
4.280000000003364, -2.6214375472366513 
4.2900000000033405, -2.6229534068612095 
4.300000000003317, -2.623336601936638 
4.310000000003294, -2.6203684890669825 
4.320000000003271, -2.6139450719274246 
4.330000000003247, -2.625350456177806 
4.340000000003224, -2.645839624111299 
4.350000000003201, -2.654293052863827 
4.360000000003177, -2.6571358396138924 
4.370000000003154, -2.657701760233411 
4.380000000003131, -2.65636450695472 
4.390000000003107, -2.651818957779466 
4.400000000003084, -2.6387552641766763 
4.410000000003061, -2.5908632956317623 
4.4200000000030375, -2.2795159450899565 
4.430000000003014, -0.6054768299735169 
4.440000000002991, 0.21511769403646838 
4.450000000002968, 0.3576345902892195 
4.460000000002944, 0.39343069202084824 
4.470000000002921, 0.40572865694115523 
4.480000000002898, 0.4106750045042027 
4.490000000002874, 0.4126028531219448 
4.500000000002851, 0.41287517967975457 
4.510000000002828, 0.4117857566185358 
4.520000000002804, 0.40889936292798595 
4.530000000002781, 0.40257560752186716 
4.540000000002758, 0.3877291477456091 
4.5500000000027345, 0.34609402895726044 
4.560000000002711, 0.19661953149814387 
4.570000000002688, -0.445480719422665 
4.580000000002665, -3.4926477307187347 
4.590000000002641, -3.876833249431212 
4.600000000002618, -3.892379408252927 
4.610000000002595, -3.894053577536346 
4.620000000002571, -3.8918597307691543 
4.630000000002548, -3.8797190512072284 
4.640000000002525, -3.692368459380299 
4.6500000000025015, -2.990221470811732 
4.660000000002478, -3.2158338074776003 
4.670000000002455, -3.230277580779263 
4.6800000000024315, -3.23140311912481 
4.690000000002408, -3.230804928989065 
4.700000000002385, -3.2299976901525747 
4.710000000002362, -3.2279859015052343 
4.720000000002338, -3.2267698420100026 
4.730000000002315, -3.226568262121075 
4.740000000002292, -3.2228295508300135 
4.750000000002268, -3.205639011750294 
4.760000000002245, -3.235550843214946 
4.770000000002222, -3.270342093158623 
4.7800000000021985, -3.2775068583096725 
4.790000000002175, -3.2788160401586035 
4.800000000002152, -3.277455112082149 
4.810000000002129, -3.270961348607648 
4.820000000002105, -3.2378703334713803 
4.830000000002082, -2.7353192518185283 
4.840000000002059, 0.9204444849976271 
4.850000000002035, 1.2134758397812018 
4.860000000002012, 1.2387251405561561 
4.870000000001989, 1.243872288854834 
4.880000000001965, 1.2451230525929091 
4.890000000001942, 1.2452515747170494 
