t, s[1].omega / s[0].omega 
0, -1.059993709714215 
0.009999999999999995, -1.0593003541048198 
0.019999999999999934, -1.0584640988607137 
0.029999999999999874, -1.057442588747454 
0.04000000000000012, -1.0562022569822322 
0.050000000000000405, -1.0547560829443046 
0.06000000000000069, -1.0531754544171688 
0.07000000000000098, -1.0515670093195637 
0.08000000000000126, -1.0500298133689228 
0.09000000000000155, -1.0486331343229125 
0.10000000000000184, -1.0474411236930108 
0.11000000000000212, -1.0465468705979881 
0.12000000000000241, -1.0460456937133735 
0.130000000000002, -1.0459456060900385 
0.1400000000000009, -1.046110282026474 
0.1499999999999998, -1.0463044027256914 
0.1599999999999987, -1.0462892900247311 
0.1699999999999976, -1.0458906580428753 
0.1799999999999965, -1.0450299087822719 
0.1899999999999954, -1.0437335680318702 
0.1999999999999943, -1.0421088761474524 
0.2099999999999932, -1.0402824093838101 
0.2199999999999921, -1.0383393419558953 
0.229999999999991, -1.0363024123690066 
0.2399999999999899, -1.0341529449712579 
0.2499999999999888, -1.031870640108154 
0.2599999999999877, -1.0294650037293471 
0.2699999999999866, -1.0269812408626164 
0.2799999999999855, -1.0244857533100515 
0.2899999999999844, -1.022059254562077 
0.2999999999999833, -1.0198184087983235 
0.3099999999999822, -1.0179377045986748 
0.3199999999999811, -1.0166056570552506 
0.32999999999998, -1.0159034587399365 
0.3399999999999789, -1.0157118040284927 
0.3499999999999778, -1.0157516870240442 
0.35999999999997667, -1.0157087780039227 
0.36999999999997557, -1.01532349549473 
0.37999999999997447, -1.0144243480720363 
0.38999999999997337, -1.012949321128891 
0.39999999999997227, -1.0109618849262862 
0.40999999999997117, -1.0086212500981901 
0.41999999999997006, -1.006101241256434 
0.42999999999996896, -1.0035159897763932 
0.43999999999996786, -1.0009005459703944 
0.44999999999996676, -0.9982394875533729 
0.45999999999996566, -0.9955110704098249 
0.46999999999996456, -0.9927193203210891 
0.47999999999996346, -0.9899017634306733 
0.48999999999996235, -0.987121855458898 
0.49999999999996125, -0.9844700051912085 
0.5099999999999602, -0.982081967666085 
0.519999999999959, -0.9801411428727029 
0.529999999999958, -0.978815587715341 
0.5399999999999568, -0.9781445392772697 
0.5499999999999557, -0.9779771544613609 
0.5599999999999546, -0.9780318626116207 
0.5699999999999535, -0.9780117035168621 
0.5799999999999524, -0.977681074765021 
0.5899999999999513, -0.976895318246043 
0.5999999999999502, -0.9756190264384808 
0.6099999999999491, -0.9739316991362162 
0.619999999999948, -0.9719886019584181 
0.6299999999999469, -0.9699432952166884 
0.6399999999999458, -0.9678858487561574 
0.6499999999999447, -0.965832151174627 
0.6599999999999436, -0.9637544145548524 
0.6699999999999425, -0.96162546642006 
0.6799999999999414, -0.959452334635299 
0.6899999999999403, -0.9572840760315492 
0.6999999999999392, -0.9551954167973884 
0.7099999999999381, -0.953265934360644 
0.719999999999937, -0.9515766889191696 
0.7299999999999359, -0.9502206573623138 
0.7399999999999348, -0.9492936861154615 
0.7499999999999337, -0.9488444596948258 
0.7599999999999326, -0.9488169533006774 
0.7699999999999315, -0.9490463808719797 
0.7799999999999304, -0.9493186731656827 
0.7899999999999293, -0.9494436784694912 
0.7999999999999282, -0.9493026290845842 
0.8099999999999271, -0.948867884412129 
0.819999999999926, -0.9481964083264659 
0.8299999999999249, -0.9473912563367429 
0.8399999999999238, -0.9465445286272868 
0.8499999999999227, -0.9456946609447059 
0.8599999999999216, -0.9448190769820229 
0.8699999999999205, -0.943860417782856 
0.8799999999999194, -0.9427709701682986 
0.8899999999999183, -0.9415527697731081 
0.8999999999999172, -0.9402735535899616 
0.9099999999999161, -0.9390513529148737 
0.919999999999915, -0.9380140287051383 
0.9299999999999139, -0.9372553137087781 
0.9399999999999128, -0.9368172618429839 
0.9499999999999117, -0.936706757507632 
0.9599999999999106, -0.9369169275357736 
0.9699999999999095, -0.9374230542643256 
0.9799999999999084, -0.9381611245653028 
0.9899999999999073, -0.9390238838394807 
0.9999999999999062, -0.9398902493476641 
1.0099999999999052, -0.9406687579005404 
1.019999999999904, -0.9413268221437715 
1.029999999999903, -0.9418906795866924 
1.039999999999902, -0.942415997314602 
1.0499999999999008, -0.9429431624745686 
1.0599999999998997, -0.9434594782099286 
1.0699999999998986, -0.943888238511776 
1.0799999999998975, -0.944115893349436 
1.0899999999998964, -0.9440486299728897 
1.0999999999998953, -0.9436655561169198 
1.1099999999998942, -0.9430409291275648 
1.119999999999893, -0.9423373151685663 
1.129999999999892, -0.9417766107545532 
1.1399999999998909, -0.9415806567037966 
1.1499999999998898, -0.9418911325586394 
1.1599999999998887, -0.9427224084120281 
1.1699999999998876, -0.9439887875913225 
1.1799999999998865, -0.94557307770606 
1.1899999999998854, -0.9473721826177371 
1.1999999999998843, -0.9493015820576625 
1.2099999999998832, -0.9512878903989435 
1.219999999999882, -0.9532755992978161 
1.229999999999881, -0.9552431329884751 
1.2399999999998799, -0.9572065538709152 
1.2499999999998788, -0.95919763316602 
1.2599999999998777, -0.9612210213107673 
1.2699999999998766, -0.9632098788637959 
1.2799999999998755, -0.965010481742023 
1.2899999999998744, -0.9664253021702216 
1.2999999999998733, -0.9673033158600619 
1.3099999999998722, -0.9676118893632506 
1.319999999999871, -0.967445609171314 
1.32999999999987, -0.9670028382089487 
1.3399999999998689, -0.9665711709296774 
1.3499999999998678, -0.9665006634895162 
1.3599999999998666, -0.967110491802979 
1.3699999999998655, -0.9685490484885712 
1.3799999999998644, -0.9707321780617851 
1.3899999999998633, -0.9734295283991582 
1.3999999999998622, -0.9764054771141675 
1.4099999999998611, -0.9794954473977822 
1.41999999999986, -0.9826059633678872 
1.429999999999859, -0.985692135040486 
1.4399999999998578, -0.9887459244418866 
1.4499999999998567, -0.9917877747001853 
1.4599999999998556, -0.9948419159670531 
1.4699999999998545, -0.9978904733085523 
1.4799999999998534, -1.0008247474304082 
1.4899999999998523, -1.0034347289234704 
1.4999999999998512, -1.005475965280689 
1.5099999999998501, -1.0067875638357706 
1.519999999999849, -1.0073656146468322 
1.529999999999848, -1.0073478864256997 
1.5399999999998468, -1.0069711840329245 
1.5499999999998457, -1.0065592440181468 
1.5599999999998446, -1.0065070169377905 
1.5699999999998435, -1.0071787243686086 
1.5799999999998424, -1.0087343510558824 
1.5899999999998413, -1.0110523912182585 
1.5999999999998402, -1.0138469725179602 
1.6099999999998391, -1.0168469646213105 
1.619999999999838, -1.0198793155686074 
1.629999999999837, -1.022854369861905 
1.6399999999998358, -1.0257303891088758 
1.6499999999998347, -1.0284983804448458 
1.6599999999998336, -1.031175178934077 
1.6699999999998325, -1.0337810919472656 
1.6799999999998314, -1.0362987085982582 
1.6899999999998303, -1.0386339110831044 
1.6999999999998292, -1.040615589461298 
1.709999999999828, -1.0420585613292184 
1.719999999999827, -1.0428575101110273 
1.729999999999826, -1.0430389721425146 
1.7399999999998248, -1.0427505455417294 
1.7499999999998237, -1.0422339586955078 
1.7599999999998226, -1.0418022261601405 
1.7699999999998215, -1.0417741386773025 
1.7799999999998204, -1.0423448119365262 
1.7899999999998193, -1.0434950271293495 
1.7999999999998182, -1.0450493953991038 
1.809999999999817, -1.0468161309622284 
1.819999999999816, -1.0486640458268441 
1.8299999999998149, -1.0505084472890718 
1.8399999999998138, -1.0522770370556398 
1.8499999999998127, -1.0539084924901951 
1.8599999999998116, -1.0553730503077556 
1.8699999999998105, -1.0566799429131108 
1.8799999999998094, -1.0578561170083336 
1.8899999999998083, -1.0589076396149617 
1.8999999999998072, -1.0597891272926439 
1.909999999999806, -1.0604057834582832 
1.919999999999805, -1.0606558788742326 
1.9299999999998039, -1.0604903163130945 
1.9399999999998028, -1.0599510318132732 
1.9499999999998017, -1.0591740963474456 
1.9599999999998006, -1.058363283239883 
1.9699999999997995, -1.0577290534568147 
1.9799999999997984, -1.057404443574289 
1.9899999999997973, -1.057404092473822 
1.9999999999997962, -1.057671976431621 
2.0099999999998173, -1.058156638470526 
2.0199999999998384, -1.0588253002785681 
2.0299999999998595, -1.059619386919714 
2.0399999999998806, -1.0604264268205204 
2.0499999999999017, -1.06110956148483 
2.059999999999923, -1.0615629139321323 
2.069999999999944, -1.0617472128636132 
2.079999999999965, -1.061688754742598 
2.089999999999986, -1.061446172916569 
2.100000000000007, -1.0610646547386353 
2.1100000000000283, -1.0605453087627974 
2.1200000000000494, -1.0598475002393015 
2.1300000000000705, -1.0589219865448092 
2.1400000000000916, -1.0577546211968787 
2.1500000000001127, -1.056393899744463 
2.160000000000134, -1.0549448097792566 
2.170000000000155, -1.053529195028835 
2.180000000000176, -1.0522391930496509 
2.190000000000197, -1.0511287376839584 
2.2000000000002182, -1.0502516272702613 
2.2100000000002393, -1.0496864049087369 
2.2200000000002604, -1.0494898056508157 
2.2300000000002815, -1.049613956572299 
2.2400000000003026, -1.0498860228314157 
2.2500000000003237, -1.050076316966925 
2.260000000000345, -1.0499837470721203 
2.270000000000366, -1.0494865249738008 
2.280000000000387, -1.048562209231614 
2.290000000000408, -1.0472794203680538 
2.3000000000004293, -1.0457524982460407 
2.3100000000004504, -1.0440789098253458 
2.3200000000004715, -1.0423006576270373 
2.3300000000004926, -1.0404085047691232 
2.3400000000005137, -1.038376178687733 
2.3500000000005348, -1.0361985315790783 
2.360000000000556, -1.0339098764981607 
2.370000000000577, -1.031574452280206 
2.380000000000598, -1.0292670050689827 
2.390000000000619, -1.0270758676564566 
2.4000000000006403, -1.0251325462277718 
2.4100000000006614, -1.0236155156520401 
2.4200000000006825, -1.0226712978828354 
2.4300000000007036, -1.0222923655422664 
2.4400000000007247, -1.0222794475342407 
2.450000000000746, -1.0223313220641452 
2.460000000000767, -1.022160693158091 
2.470000000000788, -1.0215542384619174 
2.480000000000809, -1.02039684529053 
2.49000000000083, -1.0186925102069413 
2.5000000000008513, -1.0165593220875477 
2.5100000000008724, -1.0141689141201797 
2.5200000000008935, -1.0116630082356435 
2.5300000000009146, -1.0091080549615397 
2.5400000000009357, -1.0065052813268696 
2.550000000000957, -1.0038311250630294 
2.560000000000978, -1.0010766479751625 
2.570000000000999, -0.998265754320004 
2.58000000000102, -0.995451542435341 
2.5900000000010412, -0.9927112700938674 
2.6000000000010624, -0.9901604992460042 
2.6100000000010835, -0.9879709045455008 
2.6200000000011046, -0.9863381797389306 
2.6300000000011257, -0.9853760264430766 
2.6400000000011468, -0.9850129432112655 
2.650000000001168, -0.9850017535309329 
2.660000000001189, -0.9850304940625174 
2.67000000000121, -0.9848250329066925 
2.680000000001231, -0.9841936224180605 
2.6900000000012523, -0.9830465381718516 
2.7000000000012734, -0.9814130826412825 
2.7100000000012945, -0.979427121086809 
2.7200000000013156, -0.9772600919104908 
2.7300000000013367, -0.9750418451279467 
2.740000000001358, -0.9728243694202927 
2.750000000001379, -0.9705974236917866 
2.7600000000014, -0.9683307133796457 
2.770000000001421, -0.966014417377598 
2.780000000001442, -0.9636783929023901 
2.7900000000014633, -0.9613851729026683 
2.8000000000014844, -0.9592113260514431 
2.8100000000015055, -0.9572408048230221 
2.8200000000015266, -0.9555751971373271 
2.8300000000015477, -0.9543315770503659 
2.840000000001569, -0.9535957837565296 
2.85000000000159, -0.9533511090452045 
2.860000000001611, -0.953451359525884 
2.870000000001632, -0.9536713984799631 
2.8800000000016532, -0.9537893702977043 
2.8900000000016743, -0.9536456705497187 
2.9000000000016954, -0.9531710241571367 
2.9100000000017165, -0.9523922778734002 
2.9200000000017377, -0.9514079805093335 
2.9300000000017588, -0.9503331090692649 
2.94000000000178, -0.9492428082760185 
2.950000000001801, -0.9481478478168436 
2.960000000001822, -0.9470084929330751 
2.970000000001843, -0.9457736958494942 
2.9800000000018643, -0.9444246157082535 
2.9900000000018854, -0.9430006732304277 
3.0000000000019065, -0.941595582188099 
3.0100000000019276, -0.9403256708394373 
3.0200000000019487, -0.9392888842292579 
3.03000000000197, -0.9385429047508259 
3.040000000001991, -0.9381147917763812 
3.050000000002012, -0.9380190563821899 
3.060000000002033, -0.9382520207464431 
3.070000000002054, -0.9387648676116578 
3.0800000000020753, -0.939451666676859 
3.0900000000020964, -0.9401758144005434 
3.1000000000021175, -0.940818403298254 
3.1100000000021386, -0.9413172099554826 
3.1200000000021597, -0.9416782495994113 
3.130000000002181, -0.9419560001151248 
3.140000000002202, -0.942210938611972 
3.150000000002223, -0.9424654371316317 
3.160000000002244, -0.9426802338678204 
3.1700000000022652, -0.9427649529456398 
3.1800000000022863, -0.9426220545146785 
3.1900000000023074, -0.9422021801600217 
3.2000000000023285, -0.9415398565578859 
3.2100000000023496, -0.9407580043825586 
3.2200000000023707, -0.9400461706428448 
3.230000000002392, -0.9396110729086689 
3.240000000002413, -0.9396053526439749 
3.250000000002434, -0.9400753547421876 
3.260000000002455, -0.9409707447155853 
3.2700000000024763, -0.9421997884222126 
3.2800000000024974, -0.9436733868882919 
3.2900000000025185, -0.9453117805075516 
3.3000000000025396, -0.9470365223638195 
3.3100000000025607, -0.948776711492676 
3.3200000000025818, -0.9504898015395102 
3.330000000002603, -0.9521754575725113 
3.340000000002624, -0.9538647383320663 
3.350000000002645, -0.9555843297318825 
3.360000000002666, -0.9573109772014521 
3.3700000000026873, -0.9589409617657516 
3.3800000000027084, -0.9603039666615942 
3.3900000000027295, -0.9612315330876748 
3.4000000000027506, -0.9616394607049463 
3.4100000000027717, -0.9615652909922889 
3.420000000002793, -0.961157960009819 
3.430000000002814, -0.9606597704903951 
3.440000000002835, -0.9603859424209438 
3.450000000002856, -0.9606582325740648 
3.460000000002877, -0.9616814647645171 
3.4700000000028983, -0.9634521762028866 
3.4800000000029194, -0.9657952844850293 
3.4900000000029405, -0.9684882842478053 
3.5000000000029616, -0.9713553605720984 
3.5100000000029827, -0.9742865598641364 
3.520000000003004, -0.9772205161366575 
3.530000000003025, -0.9801325185358664 
3.540000000003046, -0.983031026065541 
3.550000000003067, -0.9859432680431797 
3.5600000000030882, -0.988878101865379 
3.5700000000031094, -0.9917749353144956 
3.5800000000031305, -0.9944699022456833 
3.5900000000031516, -0.9967242656247824 
3.6000000000031727, -0.9983263041353961 
3.6100000000031938, -0.9991956327502092 
3.620000000003215, -0.9994070220697233 
3.630000000003236, -0.9991516817237691 
3.640000000003257, -0.9987103783959146 
3.650000000003278, -0.9984494133873533 
3.6600000000032993, -0.9987672582289093 
3.6700000000033204, -0.9999425257861476 
3.6800000000033415, -1.0019874550995813 
3.6900000000033626, -1.004673205697538 
3.7000000000033837, -1.007701737418037 
3.710000000003405, -1.010846263405908 
3.720000000003426, -1.013978686755458 
3.730000000003447, -1.0170374398594242 
3.740000000003468, -1.0200010475727161 
3.750000000003489, -1.022878417271335 
3.7600000000035103, -1.025693590866225 
3.7700000000035314, -1.0284503161866507 
3.7800000000035525, -1.0310863261873822 
3.7900000000035736, -1.0334495256706677 
3.8000000000035947, -1.0353343186206776 
3.810000000003616, -1.0365763430230204 
3.820000000003637, -1.0371363243621103 
3.830000000003658, -1.0371127033114225 
3.840000000003679, -1.0367106677146203 
3.8500000000037002, -1.0362204715088814 
3.8600000000037213, -1.0359878603234365 
3.8700000000037424, -1.0363149819764859 
3.8800000000037635, -1.0373180480269666 
3.8900000000037847, -1.0388863771606585 
3.9000000000038058, -1.040798448878204 
3.910000000003827, -1.042861643737498 
3.920000000003848, -1.044955734485827 
3.930000000003869, -1.0470030025843244 
3.94000000000389, -1.048941950456849 
3.9500000000039113, -1.0507330423319243 
3.9600000000039324, -1.0523717153448078 
3.9700000000039535, -1.053879870294256 
3.9800000000039746, -1.05527292295418 
3.9900000000039957, -1.0565219255329101 
4.000000000004016, -1.0575384263917738 
4.010000000003993, -1.0582022390159376 
4.02000000000397, -1.0584232830837113 
4.030000000003946, -1.058196566967037 
4.040000000003923, -1.057619732912869 
4.0500000000039, -1.0568795854271773 
4.0600000000038765, -1.05621282140914 
4.070000000003853, -1.0558281452099185 
4.08000000000383, -1.0558193475159654 
4.090000000003807, -1.0561520058245581 
4.100000000003783, -1.056739652996207 
4.11000000000376, -1.0575157935316803 
4.120000000003737, -1.0584305230025763 
4.130000000003713, -1.0594068524435414 
4.14000000000369, -1.0603301234855502 
4.150000000003667, -1.0610862411099256 
4.1600000000036434, -1.0616077272740394 
4.17000000000362, -1.061891426530605 
4.180000000003597, -1.0619802230576791 
4.1900000000035735, -1.06192167391038 
4.20000000000355, -1.0617290024752142 
4.210000000003527, -1.0613683287222635 
4.220000000003504, -1.060780418815473 
4.23000000000348, -1.059924763170913 
4.240000000003457, -1.058819346611631 
4.250000000003434, -1.0575526738618748 
4.26000000000341, -1.0562589836854586 
4.270000000003387, -1.0550652812248336 
4.280000000003364, -1.0540476362676217 
4.2900000000033405, -1.0532406330759765 
4.300000000003317, -1.0526844527546568 
4.310000000003294, -1.0524358337861295 
4.320000000003271, -1.0525087323054814 
4.330000000003247, -1.0528094029714536 
4.340000000003224, -1.053148540558524 
4.350000000003201, -1.0533179438588076 
4.360000000003177, -1.053161519775117 
4.370000000003154, -1.052611310068051 
4.380000000003131, -1.0516928619961 
4.390000000003107, -1.0504967043890392 
4.400000000003084, -1.049122329137448 
4.410000000003061, -1.0476282907605374 
4.4200000000030375, -1.0460184871807627 
4.430000000003014, -1.0442653672213178 
4.440000000002991, -1.0423496310979037 
4.450000000002968, -1.0402903203128768 
4.460000000002944, -1.0381469714356257 
4.470000000002921, -1.0359972058038673 
4.480000000002898, -1.0339189961336162 
4.490000000002874, -1.032006311702196 
4.500000000002851, -1.0303989228947215 
4.510000000002828, -1.0292599120949344 
4.520000000002804, -1.0286729830196872 
4.530000000002781, -1.0285456675306663 
4.540000000002758, -1.0286291046859488 
4.5500000000027345, -1.0286288684072982 
4.560000000002711, -1.0282971621447283 
4.570000000002688, -1.027472538189689 
4.580000000002665, -1.0261019138084606 
4.590000000002641, -1.024250684459608 
4.600000000002618, -1.0220680739948562 
4.610000000002595, -1.0197095378559409 
4.620000000002571, -1.0172713306047332 
4.630000000002548, -1.014777373450435 
4.640000000002525, -1.0122092441588464 
4.6500000000025015, -1.009548565791012 
4.660000000002478, -1.0068054807731337 
4.670000000002455, -1.0040224946501066 
4.6800000000024315, -1.0012658614913033 
4.690000000002408, -0.9986304501369181 
4.700000000002385, -0.9962630062844386 
4.710000000002362, -0.9943612502779035 
4.720000000002338, -0.9930966207793859 
4.730000000002315, -0.9924898774737869 
4.740000000002292, -0.9923595893986412 
4.750000000002268, -0.992401738151796 
4.760000000002245, -0.9923117836722064 
4.770000000002222, -0.9918544081089895 
4.7800000000021985, -0.9908880203375539 
4.790000000002175, -0.9893849419491785 
4.800000000002152, -0.9874382311887235 
4.810000000002129, -0.9852172237835084 
4.820000000002105, -0.9828836496833178 
4.830000000002082, -0.9805295831208654 
4.840000000002059, -0.9781714083155176 
4.850000000002035, -0.9757844108307641 
4.860000000002012, -0.9733471076833455 
4.870000000001989, -0.9708708468676477 
4.880000000001965, -0.9684034172233462 
4.890000000001942, -0.966014717626965 
4.900000000001919, -0.9637874965981016 
4.9100000000018955, -0.9618263435791681 
4.920000000001872, -0.9602632325021002 
4.930000000001849, -0.9592196145374123 
