t, s[1].omega / s[0].omega 
0, -1.1390964833996322 
0.009999999999999995, -1.043168479650425 
0.019999999999999934, -0.9427322699049749 
0.029999999999999874, -0.8477564728435414 
0.04000000000000012, -0.7672936276011921 
0.050000000000000405, -0.7067139210639268 
0.06000000000000069, -0.6660694599858105 
0.07000000000000098, -0.6415239359554452 
0.08000000000000126, -0.6280744144189121 
0.09000000000000155, -0.6214022206524894 
0.10000000000000184, -0.6184695992852436 
0.11000000000000212, -0.6173966194469499 
0.12000000000000241, -0.6171157391167437 
0.130000000000002, -0.6170499935409697 
0.1400000000000009, -0.6168892833790933 
0.1499999999999998, -0.6164648965581477 
0.1599999999999987, -0.6157020086837537 
0.1699999999999976, -0.6146217318245227 
0.1799999999999965, -0.6133485054760122 
0.1899999999999954, -0.6120775566215315 
0.1999999999999943, -0.6110023832470073 
0.2099999999999932, -0.6102505113259848 
0.2199999999999921, -0.6098596444997348 
0.229999999999991, -0.6097819085525027 
0.2399999999999899, -0.6098991740456274 
0.2499999999999888, -0.6100544004830437 
0.2599999999999877, -0.610103292802471 
0.2699999999999866, -0.6099648118122727 
0.2799999999999855, -0.6096452530975947 
0.2899999999999844, -0.609242021251296 
0.2999999999999833, -0.6089566493780706 
0.3099999999999822, -0.6091404160549267 
0.3199999999999811, -0.6103774224613909 
0.32999999999998, -0.6135906259489551 
0.3399999999999789, -0.6201334096531679 
0.3499999999999778, -0.6318064306971218 
0.35999999999997667, -0.6507359230924882 
0.36999999999997557, -0.6790889979232743 
0.37999999999997447, -0.7186864007822352 
0.38999999999997337, -0.7706501343020442 
0.39999999999997227, -0.8351584716700182 
0.40999999999997117, -0.9110411521664737 
0.41999999999997006, -0.994530010883383 
0.42999999999996896, -1.077202608479639 
0.43999999999996786, -1.146669855451702 
0.44999999999996676, -1.1941030452990629 
0.45999999999996566, -1.2207190810302024 
0.46999999999996456, -1.2337039088761135 
0.47999999999996346, -1.2394693170555984 
0.48999999999996235, -1.2416931762696999 
0.49999999999996125, -1.2421326368045056 
0.5099999999999602, -1.2416709944324404 
0.519999999999959, -1.2411088640288723 
0.529999999999958, -1.241711209113367 
0.5399999999999568, -1.2449134167124516 
0.5499999999999557, -1.2509227926440618 
0.5599999999999546, -1.2582968486277406 
0.5699999999999535, -1.2654274100716747 
0.5799999999999524, -1.2715789249503502 
0.5899999999999513, -1.2766912687140357 
0.5999999999999502, -1.280925819292111 
0.6099999999999491, -1.2844438222583117 
0.619999999999948, -1.2873566409273436 
0.6299999999999469, -1.2897188669345963 
0.6399999999999458, -1.2915242544082781 
0.6499999999999447, -1.2927224358983271 
0.6599999999999436, -1.2932674167737388 
0.6699999999999425, -1.2931720951406602 
0.6799999999999414, -1.2925345483818729 
0.6899999999999403, -1.2915291800874347 
0.6999999999999392, -1.2903578265647169 
0.7099999999999381, -1.2891581679240693 
0.719999999999937, -1.2879574918298522 
0.7299999999999359, -1.2867768655311274 
0.7399999999999348, -1.2857734680694697 
0.7499999999999337, -1.2851742659192813 
0.7599999999999326, -1.2850058295142126 
0.7699999999999315, -1.2849780015299062 
0.7799999999999304, -1.2846523629856268 
0.7899999999999293, -1.2835934105860123 
0.7999999999999282, -1.2813724130791688 
0.8099999999999271, -1.2775776978193134 
0.819999999999926, -1.2719311745103714 
0.8299999999999249, -1.2644010579893805 
0.8399999999999238, -1.2551309767603471 
0.8499999999999227, -1.2442142625874146 
0.8599999999999216, -1.231508645995698 
0.8699999999999205, -1.2166000750644594 
0.8799999999999194, -1.1989715173978706 
0.8899999999999183, -1.1785804830258937 
0.8999999999999172, -1.1570301455342578 
0.9099999999999161, -1.1383282856115986 
0.919999999999915, -1.1266067554347026 
0.9299999999999139, -1.12209313103484 
0.9399999999999128, -1.1216032155648121 
0.9499999999999117, -1.1221842531189912 
0.9599999999999106, -1.122401016323677 
0.9699999999999095, -1.1216082134260776 
0.9799999999999084, -1.119077179125789 
0.9899999999999073, -1.1132244074537645 
0.9999999999999062, -1.1005708299833104 
1.0099999999999052, -1.0746748728186402 
1.019999999999904, -1.0277695959857978 
1.029999999999903, -0.9588758603254275 
1.039999999999902, -0.8799675254371015 
1.0499999999999008, -0.8063821285513558 
1.0599999999998997, -0.7455750633588141 
1.0699999999998986, -0.6979103007130756 
1.0799999999998975, -0.6612621236097651 
1.0899999999998964, -0.6333851375590995 
1.0999999999998953, -0.6124882779782002 
1.1099999999998942, -0.5971905257326254 
1.119999999999893, -0.5863726203903163 
1.129999999999892, -0.5790709220086774 
1.1399999999998909, -0.5744335226824592 
1.1499999999998898, -0.5717196932850583 
1.1599999999998887, -0.5703148547319524 
1.1699999999998876, -0.5697393970637947 
1.1799999999998865, -0.5696429306908024 
1.1899999999998854, -0.569787821654407 
1.1999999999998843, -0.5700316244510816 
1.2099999999998832, -0.5703158506057412 
1.219999999999882, -0.5706600351669614 
1.229999999999881, -0.5711514188146951 
1.2399999999998799, -0.5719218713053631 
1.2499999999998788, -0.5731150138260819 
1.2599999999998777, -0.5748495966391638 
1.2699999999998766, -0.5771720384147508 
1.2799999999998755, -0.579989542930656 
1.2899999999998744, -0.5830189642446744 
1.2999999999998733, -0.585838508630045 
1.3099999999998722, -0.5880633349302162 
1.319999999999871, -0.5895029156655791 
1.32999999999987, -0.5901652177448391 
1.3399999999998689, -0.5901569846103742 
1.3499999999998678, -0.589602681376513 
1.3599999999998666, -0.588645810684562 
1.3699999999998655, -0.5875765949784586 
1.3799999999998644, -0.5872424442013161 
1.3899999999998633, -0.5902893335339885 
1.3999999999998622, -0.6050829949290691 
1.4099999999998611, -0.6585837306639338 
1.41999999999986, -0.83298868431129 
1.429999999999859, -1.2504510196980474 
1.4399999999998578, -1.6721734799772108 
1.4499999999998567, -1.8568596951518679 
1.4599999999998556, -1.9259941085354133 
1.4699999999998545, -1.9553749066449462 
1.4799999999998534, -1.9690577120827553 
1.4899999999998523, -1.9754419121162627 
1.4999999999998512, -1.9780715171165404 
1.5099999999998501, -1.9786430871507097 
1.519999999999849, -1.9780217033592915 
1.529999999999848, -1.976652765500548 
1.5399999999998468, -1.9745399522079947 
1.5499999999998457, -1.9713047036662399 
1.5599999999998446, -1.9673631295929401 
1.5699999999998435, -1.9649517868658593 
1.5799999999998424, -1.9648024563050925 
1.5899999999998413, -1.964785897235594 
1.5999999999998402, -1.9629512446928987 
1.6099999999998391, -1.9555905204314474 
1.619999999999838, -1.924028781501308 
1.629999999999837, -1.745919322187206 
1.6399999999998358, -0.9980589895902879 
1.6499999999998347, 3.2196408835366754 
1.6599999999998336, 3.4549018749485727 
1.6699999999998325, 3.4585939506654184 
1.6799999999998314, 3.454578605486797 
1.6899999999998303, 3.2567776512419555 
1.6999999999998292, -4.90799569002411 
1.709999999999828, -4.947546119589713 
1.719999999999827, -4.947915544785246 
1.729999999999826, -4.94324920325672 
1.7399999999998248, -4.912772571270407 
1.7499999999998237, -4.924488111114756 
1.7599999999998226, -4.925819525813894 
1.7699999999998215, -4.9250511128447805 
1.7799999999998204, -4.923465461750553 
1.7899999999998193, -4.922488111292536 
1.7999999999998182, -4.919981720543112 
1.809999999999817, -4.917319775665233 
1.819999999999816, -4.926667985747458 
1.8299999999998149, -4.927243126213569 
1.8399999999998138, -4.923767225328459 
1.8499999999998127, -4.785003001021908 
1.8599999999998116, -5.811115529929952 
1.8699999999998105, -5.877427422945546 
1.8799999999998094, -5.877300962757414 
1.8899999999998083, -5.858036051193436 
1.8999999999998072, 3.6216502633565058 
1.909999999999806, 3.8376403016834173 
1.919999999999805, 3.8396706425648306 
1.9299999999998039, 3.8353619931117984 
1.9399999999998028, 3.781840425830706 
1.9499999999998017, 3.792215260073255 
1.9599999999998006, 3.798947151866276 
1.9699999999997995, 3.798744080057915 
1.9799999999997984, 3.798292934257236 
1.9899999999997973, 3.796455381053877 
1.9999999999997962, 3.795511461498184 
2.0099999999998173, 3.7943260195155126 
2.0199999999998384, 3.785393493621143 
2.0299999999998595, 3.7987655807651257 
2.0399999999998806, 3.8074561803731832 
2.0499999999999017, 3.807415053098866 
2.059999999999923, 3.8001743995058703 
2.069999999999944, 1.203083873456825 
2.079999999999965, -6.350891590087132 
2.089999999999986, -6.356521932989971 
2.100000000000007, -6.3497477254319135 
2.1100000000000283, 2.0248192644011076 
2.1200000000000494, 4.265703889571155 
2.1300000000000705, 4.268748927764047 
2.1400000000000916, 4.264241208866637 
2.1500000000001127, 4.2014366361076245 
2.160000000000134, 4.228977818797352 
2.170000000000155, 4.232013203085371 
2.180000000000176, 4.231522862000013 
2.190000000000197, 4.229790373804922 
2.2000000000002182, 4.22758896325508 
2.2100000000002393, 4.227420524881102 
2.2200000000002604, 4.222852162121226 
2.2300000000002815, 4.2277468826643005 
2.2400000000003026, 4.2325684240142305 
2.2500000000003237, 4.231943809145301 
2.260000000000345, 4.221829533884741 
2.270000000000366, 4.106815452143985 
2.280000000000387, 4.519145724718628 
2.290000000000408, 4.521134048343681 
2.3000000000004293, 4.506276669822864 
2.3100000000004504, -6.392735741234046 
2.3200000000004715, -6.486553722323109 
2.3300000000004926, -6.485194857985832 
2.3400000000005137, -6.415247055832222 
2.3500000000005348, -6.342776305220077 
2.360000000000556, -6.349850096776074 
2.370000000000577, -6.346967171884078 
2.380000000000598, -6.335740558352757 
2.390000000000619, -6.340378531087119 
2.4000000000006403, -6.339183396278738 
2.4100000000006614, -6.337312446175526 
2.4200000000006825, -6.336217565000117 
2.4300000000007036, -6.3318917073375705 
2.4400000000007247, -6.336510991251513 
2.450000000000746, -6.33568110062266 
2.460000000000767, -6.318111615887518 
2.470000000000788, -6.366457387284771 
2.480000000000809, -6.378222607671746 
2.49000000000083, -6.3747373726801335 
2.5000000000008513, -4.7701012185602085 
2.5100000000008724, 4.6125847836607585 
2.5200000000008935, 4.616671189171191 
2.5300000000009146, 4.606083516684224 
2.5400000000009357, -3.2808367209144094 
2.550000000000957, -5.053668957625378 
2.560000000000978, -5.0600581337061215 
2.570000000000999, -5.05843207592091 
2.58000000000102, -5.047692000669697 
2.5900000000010412, -5.041605249490117 
2.6000000000010624, -5.0454523974839125 
2.6100000000010835, -5.044505508362311 
2.6200000000011046, -5.043981901119759 
2.6300000000011257, -5.042649975613059 
2.6400000000011468, -5.0409637336073 
2.650000000001168, -5.032620111203995 
2.660000000001189, -5.047653036930227 
2.67000000000121, -5.049664552250688 
2.680000000001231, -5.047430476478466 
2.6900000000012523, -4.988284297786231 
2.7000000000012734, 4.735201110008882 
2.7100000000012945, 4.98536562881786 
2.7200000000013156, 4.984778908281497 
2.7300000000013367, 4.813770523094682 
2.740000000001358, -6.818812370858974 
2.750000000001379, -6.8242148489703975 
2.7600000000014, -6.814599937029423 
2.770000000001421, -6.7239733153031995 
2.780000000001442, -6.751859158736041 
2.7900000000014633, -6.749806552287923 
2.8000000000014844, -6.739610862452139 
2.8100000000015055, -6.743411487165197 
2.8200000000015266, -6.742101075758017 
2.8300000000015477, -6.740038856341757 
2.840000000001569, -6.738687205815734 
2.85000000000159, -6.73615177385161 
2.860000000001611, -6.738749243521468 
2.870000000001632, -6.7365715501878825 
2.8800000000016532, -6.6935598505732345 
2.8900000000016743, -6.762194962567061 
2.9000000000016954, -6.7619832574587 
2.9100000000017165, -6.704875882157265 
2.9200000000017377, 5.354799244512369 
2.9300000000017588, 5.365962559059339 
2.94000000000178, 5.355204843018447 
2.950000000001801, -6.960455386665639 
2.960000000001822, -7.0153772465342445 
2.970000000001843, -7.012066016241685 
2.9800000000018643, -6.895616703677584 
2.9900000000018854, -6.966235311024432 
3.0000000000019065, -6.965026525098722 
3.0100000000019276, -6.9563819242844005 
3.0200000000019487, -6.958699602157258 
3.03000000000197, -6.9573230585056205 
3.040000000001991, -6.955436337104682 
3.050000000002012, -6.953957800206181 
3.060000000002033, -6.951336352001531 
3.070000000002054, -6.953784566953677 
3.0800000000020753, -6.951154834660412 
3.0900000000020964, -6.9246186353621795 
3.1000000000021175, -6.974584289312098 
3.1100000000021386, -6.97302468552477 
3.1200000000021597, -6.52243261921352 
3.130000000002181, 5.754273154038151 
3.140000000002202, 5.756448535024846 
3.150000000002223, 5.644817359170065 
3.160000000002244, -7.547520359464099 
3.1700000000022652, -7.5498998732175036 
3.1800000000022863, -7.50983766812183 
3.1900000000023074, -7.471645082512188 
3.2000000000023285, -7.473367227794407 
3.2100000000023496, -7.4641537110706455 
3.2200000000023707, -7.46440846019362 
3.230000000002392, -7.463337333943367 
3.240000000002413, -7.4603183089754825 
3.250000000002434, -7.459177905237357 
3.260000000002455, -7.457596821251417 
3.2700000000024763, -7.457099644373599 
3.2800000000024974, -7.452484239771526 
3.2900000000025185, -7.456991043347019 
3.3000000000025396, -7.45949605281042 
3.3100000000025607, -7.4441328372643785 
3.3200000000025818, -7.587672582338523 
3.330000000002603, -7.599135958711787 
3.340000000002624, -7.585266102247064 
3.350000000002645, 5.63714628424464 
3.360000000002666, 5.658458412308773 
3.3700000000026873, 5.649654134938139 
3.3800000000027084, 3.8972586653579073 
3.3900000000027295, 4.438150322271635 
3.4000000000027506, 4.440053437149524 
3.4100000000027717, 4.4363448515262975 
3.420000000002793, 4.414423833425009 
3.430000000002814, 4.4235970252721 
3.440000000002835, 4.424265828558182 
3.450000000002856, 4.423910982129335 
3.460000000002877, 4.42317248980685 
3.4700000000028983, 4.422009615207828 
3.4800000000029194, 4.4201843446125695 
3.4900000000029405, 4.409808565884038 
3.5000000000029616, 4.428780598120581 
3.5100000000029827, 4.431381021391883 
3.520000000003004, 4.428518028485555 
3.530000000003025, 4.1341097063791015 
3.540000000003046, 5.414994916064614 
3.550000000003067, 5.424818223201833 
3.5600000000030882, 5.412912984463495 
3.5700000000031094, -7.32271972368828 
3.5800000000031305, -7.356413691787326 
3.5900000000031516, -7.350691446679468 
3.6000000000031727, -7.136566449098005 
3.6100000000031938, -7.220759597715421 
3.620000000003215, -7.21838616123418 
3.630000000003236, -7.202241540415566 
3.640000000003257, -7.209606980177 
3.650000000003278, -7.2079592522565985 
3.6600000000032993, -7.2047097594968035 
3.6700000000033204, -7.2034447274204485 
3.6800000000033415, -7.203062011180828 
3.6900000000033626, -7.201986988258189 
3.7000000000033837, -7.194831813703958 
3.710000000003405, -7.203872662407629 
3.720000000003426, -7.205048481826904 
3.730000000003447, -7.184951807754638 
3.740000000003468, -7.365773140298432 
3.750000000003489, -7.378215449706346 
3.7600000000035103, -7.3679888653049 
3.7700000000035314, 5.363386168329741 
3.7800000000035525, 5.410833978148935 
3.7900000000035736, 5.406720012821136 
3.8000000000035947, 3.784225278644871 
3.810000000003616, 4.848894104548093 
3.820000000003637, 4.850962082927984 
3.830000000003658, 4.8464789647302355 
3.840000000003679, 4.827023262024516 
3.8500000000037002, 4.836616024160942 
3.8600000000037213, 4.836280377984095 
3.8700000000037424, 4.835819404133638 
3.8800000000037635, 4.8339725968756895 
3.8900000000037847, 4.833259554373082 
3.9000000000038058, 4.8273911950142825 
3.910000000003827, 4.834858744535298 
3.920000000003848, 4.838003558740472 
3.930000000003869, 4.8359202613428085 
3.94000000000389, 4.713983640852224 
3.9500000000039113, 5.017794180923913 
3.9600000000039324, 5.025520550479497 
3.9700000000039535, 5.017727583135818 
3.9800000000039746, -6.870301598171816 
3.9900000000039957, -7.016880760146232 
4.000000000004016, -7.014712153917567 
4.010000000003993, -6.593438340491764 
4.02000000000397, -6.6792400798330345 
4.030000000003946, -6.681772133874288 
4.040000000003923, -6.67486412962658 
4.0500000000039, -6.665433854271707 
4.0600000000038765, -6.668458227719896 
4.070000000003853, -6.666785082108542 
4.08000000000383, -6.663855774969458 
4.090000000003807, -6.662622662374693 
4.100000000003783, -6.662415517323676 
4.11000000000376, -6.6619736067643816 
4.120000000003737, -6.6580770670775475 
4.130000000003713, -6.658208158597274 
4.14000000000369, -6.670240533542946 
4.150000000003667, -6.667497465891445 
4.1600000000036434, -5.607414933023259 
4.17000000000362, -7.427734263909554 
4.180000000003597, -7.429361699318473 
4.1900000000035735, -7.370297085280998 
4.20000000000355, 5.417560630362599 
4.210000000003527, 5.424352546436753 
4.220000000003504, 5.411732417916915 
4.23000000000348, 5.232719636450268 
4.240000000003457, 5.271394253352492 
4.250000000003434, 5.270506803183322 
4.26000000000341, 5.259565293128541 
4.270000000003387, 5.260509928555882 
4.280000000003364, 5.261053743733816 
4.2900000000033405, 5.260590816799894 
4.300000000003317, 5.2591015281150595 
4.310000000003294, 5.258139943951348 
4.320000000003271, 5.251861268705026 
4.330000000003247, 5.260070840454352 
4.340000000003224, 5.261733747711288 
4.350000000003201, 5.257542445903058 
4.360000000003177, 5.13004905609799 
4.370000000003154, 5.380595235705691 
4.380000000003131, 5.380373016946726 
4.390000000003107, 5.18734408466182 
4.400000000003084, -7.38086693164058 
4.410000000003061, -7.383555223037232 
4.4200000000030375, -7.3472540653288005 
4.430000000003014, -6.234192608926854 
4.440000000002991, -6.277763360203823 
4.450000000002968, -6.276097168620196 
4.460000000002944, -6.2538839290420825 
4.470000000002921, -6.260300411421154 
4.480000000002898, -6.260551015186634 
4.490000000002874, -6.258634925331827 
4.500000000002851, -6.2562430606164465 
4.510000000002828, -6.254784811871705 
4.520000000002804, -6.254955551667145 
4.530000000002781, -6.254911874815084 
4.540000000002758, -6.252140602187639 
4.5500000000027345, -6.235030146173808 
4.560000000002711, -6.268848476610382 
4.570000000002688, -6.2685890668842195 
4.580000000002665, -6.239226775542912 
4.590000000002641, 5.251923786174649 
4.600000000002618, 5.2935901205167015 
4.610000000002595, 5.289541718622466 
4.620000000002571, -6.333359685218899 
4.630000000002548, -7.082344194465016 
4.640000000002525, -7.0810551624130325 
4.6500000000025015, -6.977429678911944 
4.660000000002478, -7.014392689723375 
4.670000000002455, -7.014804028240157 
4.6800000000024315, -7.007282211709802 
4.690000000002408, -7.006829105384227 
4.700000000002385, -7.0059680013725245 
4.710000000002362, -7.004108128791492 
4.720000000002338, -7.002648912222655 
4.730000000002315, -6.999161065685766 
4.740000000002292, -7.001571796218469 
4.750000000002268, -6.999828011840043 
4.760000000002245, -6.971436526142287 
4.770000000002222, -7.013758545907348 
4.7800000000021985, -7.013104208677089 
4.790000000002175, -6.892701540504976 
4.800000000002152, 7.078313483600572 
4.810000000002129, 7.083268242623224 
4.820000000002105, 3.144735023364295 
4.830000000002082, -9.046466831029644 
4.840000000002059, -9.039516412798093 
4.850000000002035, -8.713727435531307 
4.860000000002012, -8.726025577830187 
4.870000000001989, -8.69878211476914 
4.880000000001965, -8.707859043851766 
4.890000000001942, -8.705393765644661 
4.900000000001919, -8.700144586194556 
4.9100000000018955, -8.69941689212977 
4.920000000001872, -8.696585773456302 
4.930000000001849, -8.69431387892334 
4.940000000001826, -8.6933731244836 
4.950000000001802, -8.69126144617432 
4.960000000001779, -8.685082397318878 
4.970000000001756, -8.691608136495692 
4.980000000001732, -8.6752536375287 
4.990000000001709, -8.728325242308184 
5.000000000001686, -8.728125466260158 
5.0100000000016625, 4.964294199582547 
5.020000000001639, 7.3165696462663945 
