t, s[1].omega / s[0].omega 
0, -1.2807439401363503 
0.009999999999999995, -1.3440136366205535 
0.019999999999999934, -1.3863722154229081 
0.029999999999999874, -1.411436968936011 
0.04000000000000012, -1.4245646670022625 
0.050000000000000405, -1.430726546223063 
0.06000000000000069, -1.4332248124749654 
0.07000000000000098, -1.4338566599272393 
0.08000000000000126, -1.43360843573854 
0.09000000000000155, -1.4332568786424609 
0.10000000000000184, -1.4335344298416053 
0.11000000000000212, -1.4346962279462145 
0.12000000000000241, -1.4363052732718242 
0.130000000000002, -1.437824368706887 
0.1400000000000009, -1.4390689787851456 
0.1499999999999998, -1.4400564423966968 
0.1599999999999987, -1.440734971958828 
0.1699999999999976, -1.4409415589331573 
0.1799999999999965, -1.4404981275961692 
0.1899999999999954, -1.439275304666376 
0.1999999999999943, -1.4372045582977035 
0.2099999999999932, -1.4342548231811088 
0.2199999999999921, -1.4303767419975955 
0.229999999999991, -1.42543571801841 
0.2399999999999899, -1.4191475898429529 
0.2499999999999888, -1.4110115990498728 
0.2599999999999877, -1.4003232987254814 
0.2699999999999866, -1.38665583636439 
0.2799999999999855, -1.3714095160235982 
0.2899999999999844, -1.3590947937391584 
0.2999999999999833, -1.3535464377955466 
0.3099999999999822, -1.3530615349134447 
0.3199999999999811, -1.3539021321001747 
0.32999999999998, -1.3541190827281295 
0.3399999999999789, -1.3528739878821558 
0.3499999999999778, -1.3487786641182693 
0.35999999999997667, -1.337431681208495 
0.36999999999997557, -1.30335733166941 
0.37999999999997447, -1.1884666272093773 
0.38999999999997337, -0.8280757538915268 
0.39999999999997227, -0.2798232736254716 
0.40999999999997117, -0.0012453960897222125 
0.41999999999997006, 0.08843934130044531 
0.42999999999996896, 0.12011312268385795 
0.43999999999996786, 0.13327536688436387 
0.44999999999996676, 0.13942310050852152 
0.45999999999996566, 0.1424713848438312 
0.46999999999996456, 0.14398069824346307 
0.47999999999996346, 0.1446670573709378 
0.48999999999996235, 0.14490294121018316 
0.49999999999996125, 0.14490506298859024 
0.5099999999999602, 0.14482036794667255 
0.519999999999959, 0.14479405536959927 
0.529999999999958, 0.14509042221000434 
0.5399999999999568, 0.14643333239052247 
0.5499999999999557, 0.15110142713735608 
0.5599999999999546, 0.16616786889100782 
0.5699999999999535, 0.20831360429926135 
0.5799999999999524, 0.28772885029524803 
0.5899999999999513, 0.3662840975310878 
0.5999999999999502, 0.41033091585291803 
0.6099999999999491, 0.4295874386609304 
0.619999999999948, 0.43770427445771104 
0.6299999999999469, 0.44104919548370736 
0.6399999999999458, 0.44205493771741616 
0.6499999999999447, 0.441545667447362 
0.6599999999999436, 0.4396363900912984 
0.6699999999999425, 0.43610610393129445 
0.6799999999999414, 0.43074023406664896 
0.6899999999999403, 0.42383410113770914 
0.6999999999999392, 0.4165061274956522 
0.7099999999999381, 0.4101777599620351 
0.719999999999937, 0.40563844098887303 
0.7299999999999359, 0.40282916204326175 
0.7399999999999348, 0.40129004707547394 
0.7499999999999337, 0.4005488272582324 
0.7599999999999326, 0.40023764730353684 
0.7699999999999315, 0.4000710398636628 
0.7799999999999304, 0.3997942218376147 
0.7899999999999293, 0.39912345715703623 
0.7999999999999282, 0.3976387221808304 
0.8099999999999271, 0.3945056094879524 
0.819999999999926, 0.38761412716302157 
0.8299999999999249, 0.37032953989994205 
0.8399999999999238, 0.3155292258645836 
0.8499999999999227, 0.07368578001396689 
0.8599999999999216, -0.8694161032301471 
0.8699999999999205, -1.6115978349088622 
0.8799999999999194, -1.7681125334742887 
0.8899999999999183, -1.8010955945640148 
0.8999999999999172, -1.8096677102312675 
0.9099999999999161, -1.8118781008262903 
0.919999999999915, -1.8119435931498409 
0.9299999999999139, -1.8114665093932103 
0.9399999999999128, -1.8117515810624485 
0.9499999999999117, -1.8131363251468102 
0.9599999999999106, -1.8146406327042939 
0.9699999999999095, -1.8156237836866822 
0.9799999999999084, -1.8162019406683327 
0.9899999999999073, -1.816454799564908 
0.9999999999999062, -1.8160516985997162 
1.0099999999999052, -1.814368670248029 
1.019999999999904, -1.8103851370502688 
1.029999999999903, -1.8022791227305628 
1.039999999999902, -1.7867602135001834 
1.0499999999999008, -1.7574577346364724 
1.0599999999998997, -1.7000598922489663 
1.0699999999998986, -1.5797957743762332 
1.0799999999998975, -1.3377931915311951 
1.0899999999998964, -1.0192479024051129 
1.0999999999998953, -0.8148384670548451 
1.1099999999998942, -0.7369566829286953 
1.119999999999893, -0.714272415162063 
1.129999999999892, -0.7096197266322404 
1.1399999999998909, -0.7099086377414772 
1.1499999999998898, -0.7110562929443967 
1.1599999999998887, -0.7118979631151021 
1.1699999999998876, -0.7121115995367734 
1.1799999999998865, -0.7115357802007722 
1.1899999999998854, -0.7099428297668798 
1.1999999999998843, -0.7069873313698624 
1.2099999999998832, -0.7023120426210172 
1.219999999999882, -0.6958454631621495 
1.229999999999881, -0.6881031753642775 
1.2399999999998799, -0.6800700497580642 
1.2499999999998788, -0.6726591294983949 
1.2599999999998777, -0.6663254495177356 
1.2699999999998766, -0.6611048442314521 
1.2799999999998755, -0.6568284940622624 
1.2899999999998744, -0.6532851969971936 
1.2999999999998733, -0.6502984745533867 
1.3099999999998722, -0.6477539288933296 
1.319999999999871, -0.6456018588364264 
1.32999999999987, -0.6438455222689342 
1.3399999999998689, -0.6425216385974357 
1.3499999999998678, -0.6416794353051758 
1.3599999999998666, -0.6413633327655508 
1.3699999999998655, -0.6416022435561857 
1.3799999999998644, -0.6424062537145844 
1.3899999999998633, -0.6437700455923528 
1.3999999999998622, -0.6456823147368872 
1.4099999999998611, -0.6481409376566265 
1.41999999999986, -0.6511734041379255 
1.429999999999859, -0.6548603929220899 
1.4399999999998578, -0.6593579314796013 
1.4499999999998567, -0.664910439364733 
1.4599999999998556, -0.6718380649663038 
1.4699999999998545, -0.6804555833099588 
1.4799999999998534, -0.6908450680066864 
1.4899999999998523, -0.7024682761360274 
1.4999999999998512, -0.7139472842187332 
1.5099999999998501, -0.7235978037990848 
1.519999999999849, -0.7304583890541242 
1.529999999999848, -0.7346341765914068 
1.5399999999998468, -0.7367680382958086 
1.5499999999998457, -0.737475883548714 
1.5599999999998446, -0.7371364239700673 
1.5699999999998435, -0.7359092257096642 
1.5799999999998424, -0.7338672669293866 
1.5899999999998413, -0.731378328878806 
1.5999999999998402, -0.7304392135090186 
1.6099999999998391, -0.7395176577764715 
1.619999999999838, -0.7905697157814806 
1.629999999999837, -0.9837572059711107 
1.6399999999998358, -1.4151100129618395 
1.6499999999998347, -1.7657364231315769 
1.6599999999998336, -1.9034067860680293 
1.6699999999998325, -1.9554318975637521 
1.6799999999998314, -1.9781240977354084 
1.6899999999998303, -1.988855099738344 
1.6999999999998292, -1.9938356083588045 
1.709999999999828, -1.9957546591536037 
1.719999999999827, -1.9959238220204365 
1.729999999999826, -1.995021564208748 
1.7399999999998248, -1.9933473371259773 
1.7499999999998237, -1.990712029993882 
1.7599999999998226, -1.9867126618993087 
1.7699999999998215, -1.9823777331501187 
1.7799999999998204, -1.9804562997882833 
1.7899999999998193, -1.980671144668597 
1.7999999999998182, -1.9804591462069492 
1.809999999999817, -1.9778405252173639 
1.819999999999816, -1.9675532016831538 
1.8299999999998149, -1.9215502571993608 
1.8399999999998138, -1.7168342004638588 
1.8499999999998127, -2.308371545476107 
1.8599999999998116, -3.390977902777602 
1.8699999999998105, -3.4470938093152754 
1.8799999999998094, -3.454562556679747 
1.8899999999998083, -3.4554894751426772 
1.8999999999998072, -3.453327858286785 
1.909999999999806, -3.444334306170069 
1.919999999999805, -3.381639904827309 
1.9299999999998039, -2.9503862212318106 
1.9399999999998028, -3.082610583781892 
1.9499999999998017, -3.1067580632384852 
1.9599999999998006, -3.1091445927351327 
1.9699999999997995, -3.1086968022656927 
1.9799999999997984, -3.108426168643594 
1.9899999999997973, -3.107726686844598 
1.9999999999997962, -3.106460518290176 
2.0099999999998173, -3.1061199976208305 
2.0199999999998384, -3.1043902721200913 
2.0299999999998595, -3.0925629643875334 
2.0399999999998806, -3.0421197993612705 
2.0499999999999017, -3.1891354240845593 
2.059999999999923, -3.2406989226117746 
2.069999999999944, -3.2491750864649993 
2.079999999999965, -3.250797193663799 
2.089999999999986, -3.2496039527526035 
2.100000000000007, -3.244132429956742 
2.1100000000000283, -3.2202363587411478 
2.1200000000000494, -2.959730416928092 
2.1300000000000705, -0.5624680430142455 
2.1400000000000916, 0.3135327726656747 
2.1500000000001127, 0.46093781661796607 
2.160000000000134, 0.4966234110450986 
2.170000000000155, 0.5084241295944284 
2.180000000000176, 0.5129895333362897 
2.190000000000197, 0.514625621054347 
2.2000000000002182, 0.5146071880776575 
2.2100000000002393, 0.5130877125442324 
2.2200000000002604, 0.5093086377702314 
2.2300000000002815, 0.5006447808226352 
2.2400000000003026, 0.4783424171704767 
2.2500000000003237, 0.4085581341205189 
2.260000000000345, 0.17997095205730246 
2.270000000000366, 0.6764622677281855 
2.280000000000387, 2.349004295621004 
2.290000000000408, 2.391254522019659 
2.3000000000004293, 2.394649481505878 
2.3100000000004504, 2.392993007571484 
2.3200000000004715, 2.378021571409213 
2.3300000000004926, 1.8334557221898007 
2.3400000000005137, -2.295801941237319 
2.3500000000005348, -2.678813137598781 
2.360000000000556, -2.705406077650583 
2.370000000000577, -2.7090488634507057 
2.380000000000598, -2.7090514413968605 
2.390000000000619, -2.708529389625016 
2.4000000000006403, -2.7079944240905975 
2.4100000000006614, -2.706648793602612 
2.4200000000006825, -2.7055082333962863 
2.4300000000007036, -2.705282985665695 
2.4400000000007247, -2.7036117963335267 
2.450000000000746, -2.6940473824569677 
2.460000000000767, -2.6314482557617476 
2.470000000000788, -2.7076926575974443 
2.480000000000809, -3.0307438072671378 
2.49000000000083, -3.073809829802769 
2.5000000000008513, -3.081987448174325 
2.5100000000008724, -3.083801589781029 
2.5200000000008935, -3.0829205058023414 
2.5300000000009146, -3.0787960199443134 
2.5400000000009357, -3.0642864542767194 
2.550000000000957, -2.9763804815454336 
2.560000000000978, -2.5880837134997625 
2.570000000000999, -2.672181975791122 
2.58000000000102, -2.7032412227399103 
2.5900000000010412, -2.70760558872164 
2.6000000000010624, -2.707578157323938 
2.6100000000010835, -2.707155411900017 
2.6200000000011046, -2.7077936683942836 
2.6300000000011257, -2.708024724038583 
2.6400000000011468, -2.707655549386812 
2.650000000001168, -2.7073569627371645 
2.660000000001189, -2.705809088883767 
2.67000000000121, -2.697759466549855 
2.680000000001231, -2.6363320115669677 
2.6900000000012523, -1.4866896239022502 
2.7000000000012734, 2.2392585921548305 
2.7100000000012945, 2.3470110464948997 
2.7200000000013156, 2.353326842415984 
2.7300000000013367, 2.3528593360031107 
2.740000000001358, 2.345138327475576 
2.750000000001379, 2.228704493606039 
2.7600000000014, 0.39225425368538736 
2.770000000001421, 0.7027283635057053 
2.780000000001442, 0.8428846546215711 
2.7900000000014633, 0.8725587646998056 
2.8000000000014844, 0.880958256700114 
2.8100000000015055, 0.8835888595574595 
2.8200000000015266, 0.8839070241896948 
2.8300000000015477, 0.8826872466676894 
2.840000000001569, 0.8797283018737577 
2.85000000000159, 0.8745439148327682 
2.860000000001611, 0.8703937431597533 
2.870000000001632, 0.8910243884383906 
2.8800000000016532, 0.9558590911716152 
2.8900000000016743, 1.0058491353643642 
2.9000000000016954, 1.0254566611123264 
2.9100000000017165, 1.0321449098997304 
2.9200000000017377, 1.0341121950495817 
2.9300000000017588, 1.0336635862853718 
2.94000000000178, 1.0303935886393278 
2.950000000001801, 1.0195603240127635 
2.960000000001822, 0.9752449275599702 
2.970000000001843, 0.7492248562257708 
2.9800000000018643, 0.32187884102658704 
2.9900000000018854, 0.23293622601486094 
3.0000000000019065, 0.2453049619426116 
3.0100000000019276, 0.25716454257925536 
3.0200000000019487, 0.2635058224490973 
3.03000000000197, 0.2667046950957647 
3.040000000001991, 0.2682152702304562 
3.050000000002012, 0.26869521263696505 
3.060000000002033, 0.2683652740077486 
3.070000000002054, 0.26714062141106987 
3.0800000000020753, 0.2645646865343022 
3.0900000000020964, 0.25943320653988367 
3.1000000000021175, 0.24851913295279707 
3.1100000000021386, 0.22173212431314288 
3.1200000000021597, 0.13902413576519593 
3.130000000002181, -0.20084489423578544 
3.140000000002202, -1.2795457134664767 
3.150000000002223, -2.006595713062244 
3.160000000002244, -2.1707672751578113 
3.1700000000022652, -2.2094693341857647 
3.1800000000022863, -2.220282689222638 
3.1900000000023074, -2.2233042419591484 
3.2000000000023285, -2.223638580679851 
3.2100000000023496, -2.222932874197588 
3.2200000000023707, -2.2217734588264135 
3.230000000002392, -2.2198775180781234 
3.240000000002413, -2.2171537044797005 
3.250000000002434, -2.215313240769908 
3.260000000002455, -2.2151846061573077 
3.2700000000024763, -2.2147405583069504 
3.2800000000024974, -2.2114731142966653 
3.2900000000025185, -2.196963579771124 
3.3000000000025396, -2.116521018974817 
3.3100000000025607, -1.952519448694418 
3.3200000000025818, -3.0610407962095687 
3.330000000002603, -3.2386525681998264 
3.340000000002624, -3.256908275721114 
3.350000000002645, -3.260567258282152 
3.360000000002666, -3.2604624834258473 
3.3700000000026873, -3.257360492943063 
3.3800000000027084, -3.2457587044513945 
3.3900000000027295, -3.170914799477426 
3.4000000000027506, -2.8824200956773343 
3.4100000000027717, -2.972662486905969 
3.420000000002793, -2.9905476276852774 
3.430000000002814, -2.9924522209281585 
3.440000000002835, -2.9919338033783602 
3.450000000002856, -2.9919182380981386 
3.460000000002877, -2.9918062031131223 
3.4700000000028983, -2.9909608958610745 
3.4800000000029194, -2.990574137771959 
3.4900000000029405, -2.9891601884514487 
3.5000000000029616, -2.9800239787758276 
3.5100000000029827, -2.901187471783698 
3.520000000003004, -3.059001354459552 
3.530000000003025, -3.339600680505754 
3.540000000003046, -3.3652748039161713 
3.550000000003067, -3.369726193320772 
3.5600000000030882, -3.369860870701244 
3.5700000000031094, -3.366850343143507 
3.5800000000031305, -3.3547154600630122 
3.5900000000031516, -3.2605336823013453 
3.6000000000031727, -2.2824981130879007 
3.6100000000031938, -2.410099125944604 
3.620000000003215, -2.4911496358138754 
3.630000000003236, -2.5022930891085577 
3.640000000003257, -2.5038665156244595 
3.650000000003278, -2.503397421797942 
3.6600000000032993, -2.5033560876321923 
3.6700000000033204, -2.5041192865380504 
3.6800000000033415, -2.504295070297343 
3.6900000000033626, -2.5040451670025274 
3.7000000000033837, -2.503782723634399 
3.710000000003405, -2.5023047737590334 
3.720000000003426, -2.4956496396234806 
3.730000000003447, -2.458467797692713 
3.740000000003468, -2.018403711908933 
3.750000000003489, 0.8809407023129406 
3.7600000000035103, 1.2959069792720412 
3.7700000000035314, 1.3265143548041736 
3.7800000000035525, 1.3321031670609584 
3.7900000000035736, 1.3329163517683869 
3.8000000000035947, 1.3313053163883772 
3.810000000003616, 1.3258922248586438 
3.820000000003637, 1.3107272049369674 
3.830000000003658, 1.276246231632788 
3.840000000003679, 1.2435505587830986 
3.8500000000037002, 1.2407155579622786 
3.8600000000037213, 1.2456667236255343 
3.8700000000037424, 1.248452543511115 
3.8800000000037635, 1.249046017350914 
3.8900000000037847, 1.2476105890197222 
3.9000000000038058, 1.2425880375886373 
3.910000000003827, 1.227889335961557 
3.920000000003848, 1.200412430673223 
3.930000000003869, 1.2941579450363285 
3.94000000000389, 1.4207158529738035 
3.9500000000039113, 1.451214029654107 
3.9600000000039324, 1.4580462953854096 
3.9700000000039535, 1.45928800611753 
3.9800000000039746, 1.4576434932295497 
3.9900000000039957, 1.4498555825815698 
4.000000000004016, 1.40362480916767 
4.010000000003993, 0.7612412175910385 
4.02000000000397, -0.9176459580294578 
4.030000000003946, -1.3153105992851264 
4.040000000003923, -1.402409020483038 
4.0500000000039, -1.425454863399084 
4.0600000000038765, -1.4324754553278745 
4.070000000003853, -1.4344025127263618 
4.08000000000383, -1.4340367679709884 
4.090000000003807, -1.432080455639986 
4.100000000003783, -1.4295298303474002 
4.11000000000376, -1.431279569723776 
4.120000000003737, -1.4463185504334688 
4.130000000003713, -1.4731818997819839 
4.14000000000369, -1.4990460241182477 
4.150000000003667, -1.5178464141385208 
4.1600000000036434, -1.5305695162858362 
4.17000000000362, -1.5393210160017206 
4.180000000003597, -1.5455101168300776 
4.1900000000035735, -1.5498946890861232 
4.20000000000355, -1.5528576457428427 
4.210000000003527, -1.5546048875150276 
4.220000000003504, -1.5552901119922564 
4.23000000000348, -1.5550784574511247 
4.240000000003457, -1.5541620536330158 
4.250000000003434, -1.5527349215645534 
4.26000000000341, -1.5508988937491044 
4.270000000003387, -1.5485981617103093 
4.280000000003364, -1.5458596127362632 
4.2900000000033405, -1.5432490991462826 
4.300000000003317, -1.5416824277222885 
4.310000000003294, -1.5412784345909263 
4.320000000003271, -1.5411407882411658 
4.330000000003247, -1.5402307444502736 
4.340000000003224, -1.5373262397061496 
4.350000000003201, -1.52969982556178 
4.360000000003177, -1.5098486909667015 
4.370000000003154, -1.4578096999435792 
4.380000000003131, -1.3314858812217898 
4.390000000003107, -1.093080910749865 
4.400000000003084, -0.8026637083403244 
4.410000000003061, -0.5771340054479475 
4.4200000000030375, -0.4432256659307006 
4.430000000003014, -0.37001729607661943 
4.440000000002991, -0.3295940704365146 
4.450000000002968, -0.306412255683773 
4.460000000002944, -0.29259405447599146 
4.470000000002921, -0.284114348420248 
4.480000000002898, -0.27884127927033775 
4.490000000002874, -0.2756025224019082 
4.500000000002851, -0.27373669053826744 
4.510000000002828, -0.2728721491475324 
4.520000000002804, -0.2728169966717674 
4.530000000002781, -0.27350820801422504 
4.540000000002758, -0.274998017565247 
4.5500000000027345, -0.2774720662865084 
4.560000000002711, -0.28130737678949175 
4.570000000002688, -0.28719823147578444 
4.580000000002665, -0.2964196977023611 
4.590000000002641, -0.311391322979235 
4.600000000002618, -0.3368861548656261 
4.610000000002595, -0.38235465783274536 
4.620000000002571, -0.46406484492462613 
4.630000000002548, -0.5948006884294662 
4.640000000002525, -0.7450512921575148 
4.6500000000025015, -0.8533103763203537 
4.660000000002478, -0.9075649099916528 
4.670000000002455, -0.9308738235171001 
4.6800000000024315, -0.9406129684087816 
4.690000000002408, -0.9445694684480828 
4.700000000002385, -0.9457823744394245 
4.710000000002362, -0.9453015493144763 
4.720000000002338, -0.9432256572443694 
4.730000000002315, -0.9390091506387017 
4.740000000002292, -0.931769505072339 
4.750000000002268, -0.9227674654865222 
4.760000000002245, -0.931089246411006 
4.770000000002222, -1.0697172658753002 
4.7800000000021985, -1.6128328392050328 
4.790000000002175, -2.074885469643327 
4.800000000002152, -2.2012465708438835 
4.810000000002129, -2.2378289582991218 
4.820000000002105, -2.2515117719256326 
4.830000000002082, -2.2572160173490032 
4.840000000002059, -2.259327567737578 
4.850000000002035, -2.259445968979411 
4.860000000002012, -2.258161276513094 
4.870000000001989, -2.2554134382207565 
4.880000000001965, -2.2500916806506046 
4.890000000001942, -2.240274254660865 
4.900000000001919, -2.229825896131878 
4.9100000000018955, -2.22849615416406 
4.920000000001872, -2.2305240365312944 
4.930000000001849, -2.2305751825707896 
4.940000000001826, -2.227416304157777 
4.950000000001802, -2.2188682206604056 
4.960000000001779, -2.2215988058358067 
