t, s[1].omega / s[0].omega 
0, -1.3399973330594073 
0.009999999999999995, -1.3395086409958719 
0.019999999999999934, -1.3385698149521619 
0.029999999999999874, -1.3371599285207354 
0.04000000000000012, -1.3352691709299016 
0.050000000000000405, -1.3329073097546213 
0.06000000000000069, -1.3300841077966223 
0.07000000000000098, -1.326800928564045 
0.08000000000000126, -1.3231571124177963 
0.09000000000000155, -1.3195781833853932 
0.10000000000000184, -1.3168319559231012 
0.11000000000000212, -1.3154442888248066 
0.12000000000000241, -1.3151160361105867 
0.130000000000002, -1.315048936711093 
0.1400000000000009, -1.3145138855990233 
0.1499999999999998, -1.3128396936415885 
0.1599999999999987, -1.3089977879696741 
0.1699999999999976, -1.3010589595709765 
0.1799999999999965, -1.2857767571690597 
0.1899999999999954, -1.2590298326659952 
0.1999999999999943, -1.2177526960269927 
0.2099999999999932, -1.1619235660347702 
0.2199999999999921, -1.0943772623461092 
0.229999999999991, -1.0195578616044922 
0.2399999999999899, -0.9434761100627046 
0.2499999999999888, -0.8738897709061438 
0.2599999999999877, -0.8182217827316128 
0.2699999999999866, -0.7799814085457389 
0.2799999999999855, -0.7575487981887055 
0.2899999999999844, -0.7463540008347578 
0.2999999999999833, -0.74171835460269 
0.3099999999999822, -0.7402887872647074 
0.3199999999999811, -0.7401262029958569 
0.32999999999998, -0.740254330059991 
0.3399999999999789, -0.7402053216994263 
0.3499999999999778, -0.7397238951546615 
0.35999999999997667, -0.738619870612925 
0.36999999999997557, -0.7367358544359821 
0.37999999999997447, -0.7340084319802994 
0.38999999999997337, -0.7305659659406815 
0.39999999999997227, -0.7267421281957885 
0.40999999999997117, -0.7229399040487057 
0.41999999999997006, -0.7194571141549251 
0.42999999999996896, -0.716416822719703 
0.43999999999996786, -0.7138050921006112 
0.44999999999996676, -0.7115414152143872 
0.45999999999996566, -0.7095372508132434 
0.46999999999996456, -0.7077342222308867 
0.47999999999996346, -0.7061225150141074 
0.48999999999996235, -0.7047410237929157 
0.49999999999996125, -0.7036635946734483 
0.5099999999999602, -0.7029776734829414 
0.519999999999959, -0.7027621814509911 
0.529999999999958, -0.703071170857022 
0.5399999999999568, -0.7039274513743881 
0.5499999999999557, -0.7053261449444073 
0.5599999999999546, -0.7072452108914309 
0.5699999999999535, -0.7096602613749214 
0.5799999999999524, -0.7125624385226429 
0.5899999999999513, -0.7159776880503788 
0.5999999999999502, -0.7199828353260757 
0.6099999999999491, -0.7247098693775439 
0.619999999999948, -0.7303245354006165 
0.6299999999999469, -0.7369558893577957 
0.6399999999999458, -0.7445496966343252 
0.6499999999999447, -0.7526740607065359 
0.6599999999999436, -0.7604666512196032 
0.6699999999999425, -0.766961016018401 
0.6799999999999414, -0.7716088686828579 
0.6899999999999403, -0.7744540007982107 
0.6999999999999392, -0.7758689939911327 
0.7099999999999381, -0.776245035075455 
0.719999999999937, -0.7758646756946294 
0.7299999999999359, -0.7749374096889585 
0.7399999999999348, -0.7737759366469283 
0.7499999999999337, -0.7732357432018022 
0.7599999999999326, -0.7757567957028919 
0.7699999999999315, -0.7875071434189005 
0.7799999999999304, -0.8214213452220319 
0.7899999999999293, -0.8967320711653481 
0.7999999999999282, -1.022818966724643 
0.8099999999999271, -1.1731985264077927 
0.819999999999926, -1.3040160987987988 
0.8299999999999249, -1.397502471103981 
0.8399999999999238, -1.4586729112705235 
0.8499999999999227, -1.4966812454865788 
0.8599999999999216, -1.5188672131472116 
0.8699999999999205, -1.5308143424786025 
0.8799999999999194, -1.5366650192146407 
0.8899999999999183, -1.5391459695888177 
0.8999999999999172, -1.539829033906908 
0.9099999999999161, -1.5396035680964717 
0.919999999999915, -1.539106631020449 
0.9299999999999139, -1.5388482716813896 
0.9399999999999128, -1.538970756357913 
0.9499999999999117, -1.5392296091163757 
0.9599999999999106, -1.539433705701565 
0.9699999999999095, -1.5396385655989782 
0.9799999999999084, -1.5398690773354446 
0.9899999999999073, -1.539894938770384 
0.9999999999999062, -1.5393211150620556 
1.0099999999999052, -1.5376756383675418 
1.019999999999904, -1.5343564176390465 
1.029999999999903, -1.5285897487809417 
1.039999999999902, -1.5194549741481247 
1.0499999999999008, -1.5058169373735697 
1.0599999999998997, -1.4859474821912364 
1.0699999999998986, -1.4568129959237461 
1.0799999999998975, -1.4136434085041742 
1.0899999999998964, -1.3528532485280036 
1.0999999999998953, -1.283909908081605 
1.1099999999998942, -1.2343807581375583 
1.119999999999893, -1.2167601020131913 
1.129999999999892, -1.216256558812924 
1.1399999999998909, -1.219160099208192 
1.1499999999998898, -1.2211633249281628 
1.1599999999998887, -1.221737489788592 
1.1699999999998876, -1.2207914865346043 
1.1799999999998865, -1.2175157263777463 
1.1899999999998854, -1.2090138345925279 
1.1999999999998843, -1.185658775720262 
1.2099999999998832, -1.112216083701877 
1.219999999999882, -0.8542940276606477 
1.229999999999881, -0.18752231886943616 
1.2399999999998799, 0.3021896237339806 
1.2499999999998788, 0.4274409863981054 
1.2599999999998777, 0.4598601517651919 
1.2699999999998766, 0.4705967727871892 
1.2799999999998755, 0.474718520344316 
1.2899999999998744, 0.476258745404819 
1.2999999999998733, 0.47655143781296505 
1.3099999999998722, 0.4761340475724302 
1.319999999999871, 0.4753003128425881 
1.32999999999987, 0.47428947829110707 
1.3399999999998689, 0.47333899726421613 
1.3499999999998678, 0.4726730120324033 
1.3599999999998666, 0.47247074569674086 
1.3699999999998655, 0.47283718855574663 
1.3799999999998644, 0.4737733190866834 
1.3899999999998633, 0.4751469546322575 
1.3999999999998622, 0.476696680866597 
1.4099999999998611, 0.4781003541369457 
1.41999999999986, 0.47907125331030426 
1.429999999999859, 0.47939174369312276 
1.4399999999998578, 0.47882944979334924 
1.4499999999998567, 0.4769059723416583 
1.4599999999998556, 0.4723278214762133 
1.4699999999998545, 0.4611701549513362 
1.4799999999998534, 0.4296644056213223 
1.4899999999998523, 0.3241466107636398 
1.4999999999998512, 0.018063797077758906 
1.5099999999998501, -0.33228365667221493 
1.519999999999849, -0.4819644167003134 
1.529999999999848, -0.5321336478228906 
1.5399999999998468, -0.5512298699210118 
1.5499999999998457, -0.559637311968203 
1.5599999999998446, -0.5636551291367934 
1.5699999999998435, -0.5655208781006869 
1.5799999999998424, -0.5660895946926665 
1.5899999999998413, -0.5656271319356988 
1.5999999999998402, -0.5640563480965695 
1.6099999999998391, -0.5610334335144429 
1.619999999999838, -0.5560407247051378 
1.629999999999837, -0.5486822678006619 
1.6399999999998358, -0.539213935914314 
1.6499999999998347, -0.5288110384559959 
1.6599999999998336, -0.5189958001681865 
1.6699999999998325, -0.5107585633406334 
1.6799999999998314, -0.5043171714184747 
1.6899999999998303, -0.49943255418021754 
1.6999999999998292, -0.49574110461781606 
1.709999999999828, -0.492913405030342 
1.719999999999827, -0.4906989472688609 
1.729999999999826, -0.4889304333299519 
1.7399999999998248, -0.48751855704612623 
1.7499999999998237, -0.48644450597092953 
1.7599999999998226, -0.4857526790239043 
1.7699999999998215, -0.485546419462689 
1.7799999999998204, -0.4859886983716966 
1.7899999999998193, -0.48730856509386855 
1.7999999999998182, -0.48981461720990954 
1.809999999999817, -0.4939190926207643 
1.819999999999816, -0.5001802080984605 
1.8299999999998149, -0.5093761858007546 
1.8399999999998138, -0.5226326208655836 
1.8499999999998127, -0.5416346038579444 
1.8599999999998116, -0.568953511398046 
1.8699999999998105, -0.6084365002602101 
1.8799999999998094, -0.6651801548267967 
1.8899999999998083, -0.7432733219666002 
1.8999999999998072, -0.8383488598153266 
1.909999999999806, -0.9303905733356472 
1.919999999999805, -0.9968416498129941 
1.9299999999998039, -1.0340071299441207 
1.9399999999998028, -1.0518540721798129 
1.9499999999998017, -1.059847729226162 
1.9599999999998006, -1.0631954953524185 
1.9699999999997995, -1.0642474197626872 
1.9799999999997984, -1.0639673644471959 
1.9899999999997973, -1.0627516171038345 
1.9999999999997962, -1.0610466396395601 
2.0099999999998173, -1.0603981747857278 
2.0199999999998384, -1.0652562378003225 
2.0299999999998595, -1.0833401491565264 
2.0399999999998806, -1.1194596219197703 
2.0499999999999017, -1.1675102593681967 
2.059999999999923, -1.215537951408189 
2.069999999999944, -1.2564091848975463 
2.079999999999965, -1.2890200785018702 
2.089999999999986, -1.3145561494996234 
2.100000000000007, -1.3341987841630578 
2.1100000000000283, -1.3486532534141655 
2.1200000000000494, -1.3584809285120616 
2.1300000000000705, -1.3644763670943387 
2.1400000000000916, -1.3676570289418097 
2.1500000000001127, -1.3689838636636766 
2.160000000000134, -1.3691858368462948 
2.170000000000155, -1.368811611868759 
2.180000000000176, -1.368366513357911 
2.190000000000197, -1.3682913223840338 
2.2000000000002182, -1.368726387352963 
2.2100000000002393, -1.3694599740827287 
2.2200000000002604, -1.3702363742305121 
2.2300000000002815, -1.3709697737808175 
2.2400000000003026, -1.3716423973335212 
2.2500000000003237, -1.3721456620022665 
2.260000000000345, -1.3722815723245916 
2.270000000000366, -1.371848134822019 
2.280000000000387, -1.3706898967705992 
2.290000000000408, -1.3687147878031998 
2.3000000000004293, -1.3658903264442217 
2.3100000000004504, -1.3622058679236182 
2.3200000000004715, -1.357612506300238 
2.3300000000004926, -1.351971608133286 
2.3400000000005137, -1.3450241047192621 
2.3500000000005348, -1.3364058819521922 
2.360000000000556, -1.3258554078727047 
2.370000000000577, -1.3138911989695343 
2.380000000000598, -1.3027280377484522 
2.390000000000619, -1.2954818551910976 
2.4000000000006403, -1.2929504750822078 
2.4100000000006614, -1.2930168113672273 
2.4200000000006825, -1.293490292667265 
2.4300000000007036, -1.293291632285021 
2.4400000000007247, -1.2917394069818342 
2.450000000000746, -1.2875169250158511 
2.460000000000767, -1.2770058388131278 
2.470000000000788, -1.2499873438124696 
2.480000000000809, -1.1794538739903513 
2.49000000000083, -1.0157836703667453 
2.5000000000008513, -0.7552112675544539 
2.5100000000008724, -0.5189917433754098 
2.5200000000008935, -0.3791979698528071 
2.5300000000009146, -0.307586206779095 
2.5400000000009357, -0.27029466622589704 
2.550000000000957, -0.24964619240045688 
2.560000000000978, -0.23748557336368945 
2.570000000000999, -0.22996311564934618 
2.58000000000102, -0.225161144635879 
2.5900000000010412, -0.22207778318737362 
2.6000000000010624, -0.22017913337437772 
2.6100000000010835, -0.21919445459399012 
2.6200000000011046, -0.21902371537086762 
2.6300000000011257, -0.21970573723804637 
2.6400000000011468, -0.22143064178121005 
2.650000000001168, -0.22460302009692676 
2.660000000001189, -0.22998971012359823 
2.67000000000121, -0.23904037455091856 
2.680000000001231, -0.2545993714017774 
2.6900000000012523, -0.28255513963386225 
2.7000000000012734, -0.33571875817029817 
2.7100000000012945, -0.44183998446948786 
2.7200000000013156, -0.6484994429790498 
2.7300000000013367, -0.9664796730509115 
2.740000000001358, -1.2599483530816056 
2.750000000001379, -1.4174457118038082 
2.7600000000014, -1.4799573908999735 
2.770000000001421, -1.5027749572806197 
2.780000000001442, -1.511091477991028 
2.7900000000014633, -1.51397640674642 
2.8000000000014844, -1.5146062921004013 
2.8100000000015055, -1.514247712920887 
2.8200000000015266, -1.5138120997605415 
2.8300000000015477, -1.514330904030679 
2.840000000001569, -1.516265435780292 
2.85000000000159, -1.5189180219088263 
2.860000000001611, -1.5213756326621333 
2.870000000001632, -1.5233049660203066 
2.8800000000016532, -1.524726809899334 
2.8900000000016743, -1.5256469751681832 
2.9000000000016954, -1.5259830414551219 
2.9100000000017165, -1.5256334024158822 
2.9200000000017377, -1.5245169071850433 
2.9300000000017588, -1.5225679491139834 
2.94000000000178, -1.5197050044160219 
2.950000000001801, -1.5157805827612216 
2.960000000001822, -1.510515547316672 
2.970000000001843, -1.5034092187749442 
2.9800000000018643, -1.493683834879938 
2.9900000000018854, -1.480657681521313 
3.0000000000019065, -1.4654228488565084 
3.0100000000019276, -1.4528479930228495 
3.0200000000019487, -1.4475405437132762 
3.03000000000197, -1.4475204852533126 
3.040000000001991, -1.4485961638138458 
3.050000000002012, -1.448871118977945 
3.060000000002033, -1.4476395915460631 
3.070000000002054, -1.4435129001127494 
3.0800000000020753, -1.4316180367501588 
3.0900000000020964, -1.3928770032166813 
3.1000000000021175, -1.2395018875252943 
3.1100000000021386, -0.5719493303858779 
3.1200000000021597, 0.5480848927879557 
3.130000000002181, 0.8036286022792316 
3.140000000002202, 0.843580188603965 
3.150000000002223, 0.853350672522841 
3.160000000002244, 0.8562578143190764 
3.1700000000022652, 0.8567219529418548 
3.1800000000022863, 0.8557251740427093 
3.1900000000023074, 0.8532731789182126 
3.2000000000023285, 0.8490628602572168 
3.2100000000023496, 0.8431086355303107 
3.2200000000023707, 0.8364745538158107 
3.230000000002392, 0.830987788584852 
3.240000000002413, 0.827671321103818 
3.250000000002434, 0.8261605581238731 
3.260000000002455, 0.8255797012106519 
3.2700000000024763, 0.8252153606974787 
3.2800000000024974, 0.8245392602246427 
3.2900000000025185, 0.8229026477542896 
3.3000000000025396, 0.818766556245276 
3.3100000000025607, 0.8065539452788382 
3.3200000000025818, 0.755067956669802 
3.330000000002603, 0.3143727423583469 
3.340000000002624, -2.2574127954565926 
3.350000000002645, -2.818024744216675 
3.360000000002666, -2.870277770571675 
3.3700000000026873, -2.8804928440973137 
3.3800000000027084, -2.882722753027272 
3.3900000000027295, -2.8822634770764646 
3.4000000000027506, -2.879901106351328 
3.4100000000027717, -2.8737363108728684 
3.420000000002793, -2.858870555624476 
3.430000000002814, -2.849990615857007 
3.440000000002835, -2.8544554793330437 
3.450000000002856, -2.855806023129696 
3.460000000002877, -2.8543534008083493 
3.4700000000028983, -2.85327194496005 
3.4800000000029194, -2.8575583927934827 
3.4900000000029405, -2.8612107426530557 
3.5000000000029616, -2.8624396656208413 
3.5100000000029827, -2.8624369562203347 
3.520000000003004, -2.860600210483453 
3.530000000003025, -2.852537032446275 
3.540000000003046, -2.8057820717488267 
3.550000000003067, -2.152473853819365 
3.5600000000030882, 0.7198115788952515 
3.5700000000031094, 1.0140059759118183 
3.5800000000031305, 1.0441652552394198 
3.5900000000031516, 1.0507891206579605 
3.6000000000031727, 1.0525595375407817 
3.6100000000031938, 1.0526635524071906 
3.620000000003215, 1.0518476953461953 
3.630000000003236, 1.0502889919055292 
3.640000000003257, 1.0481050346856988 
3.650000000003278, 1.0456170015368325 
3.6600000000032993, 1.0433645742761475 
3.6700000000033204, 1.041785199509698 
3.6800000000033415, 1.0409084031420557 
3.6900000000033626, 1.040416415615252 
3.7000000000033837, 1.0398479873803383 
3.710000000003405, 1.0385690163196375 
3.720000000003426, 1.0351350677226359 
3.730000000003447, 1.0239618954858227 
3.740000000003468, 0.9675044634937301 
3.750000000003489, 0.2306774224184081 
3.7600000000035103, -2.8271637804245353 
3.7700000000035314, -3.0962210025395582 
3.7800000000035525, -3.1216157495411947 
3.7900000000035736, -3.126454289335353 
3.8000000000035947, -3.1267942582958526 
3.810000000003616, -3.1248363951910494 
3.820000000003637, -3.118773362383218 
3.830000000003658, -3.09849252065474 
3.840000000003679, -3.077745934716932 
3.8500000000037002, -3.0865545968387877 
3.8600000000037213, -3.0892635136389224 
3.8700000000037424, -3.0884915147504954 
3.8800000000037635, -3.088074930280091 
3.8900000000037847, -3.0899978856913117 
3.9000000000038058, -3.090931001275645 
3.910000000003827, -3.0909406649949003 
3.920000000003848, -3.0901062120510163 
3.930000000003869, -3.0852102798134053 
3.94000000000389, -3.0469801514799006 
3.9500000000039113, -2.18041660122456 
3.9600000000039324, 2.692738150878081 
3.9700000000039535, 2.882362781439667 
3.9800000000039746, 2.8877701662927264 
3.9900000000039957, 2.8863099483446626 
4.000000000004016, 2.867912023329495 
4.010000000003993, 1.9832975652404006 
4.02000000000397, 2.2806000947460654 
4.030000000003946, 2.3294411996674773 
4.040000000003923, 2.333552117344019 
4.0500000000039, 2.3338775741622007 
4.0600000000038765, 2.333459081986595 
4.070000000003853, 2.3323288234287083 
4.08000000000383, 2.330319803951487 
4.090000000003807, 2.328769762907817 
4.100000000003783, 2.328406409119479 
4.11000000000376, 2.3274154884175733 
4.120000000003737, 2.32171269474289 
4.130000000003713, 2.2935557797588197 
4.14000000000369, 2.3419554885619496 
4.150000000003667, 2.396047091395693 
4.1600000000036434, 2.4035813696732324 
4.17000000000362, 2.404014390484025 
4.180000000003597, 2.3999336897236083 
4.1900000000035735, 2.351607016399505 
4.20000000000355, -3.081555768392804 
4.210000000003527, -4.108083646149351 
4.220000000003504, -4.122850839420339 
4.23000000000348, -4.123341601543282 
4.240000000003457, -4.120586298082043 
4.250000000003434, -4.107028731936902 
4.26000000000341, -4.092944385114885 
4.270000000003387, -4.101089446670243 
4.280000000003364, -4.101202529157217 
4.2900000000033405, -4.10065105372788 
4.300000000003317, -4.100588352017156 
4.310000000003294, -4.099733955895756 
4.320000000003271, -4.098920463456097 
4.330000000003247, -4.091934844867344 
4.340000000003224, -4.081796376204228 
4.350000000003201, -4.123099123574793 
4.360000000003177, -4.129352033772225 
4.370000000003154, -4.129377761163029 
4.380000000003131, -4.1245540872451665 
4.390000000003107, -4.0672296803742976 
4.400000000003084, 1.244857050696511 
4.410000000003061, 2.179886923042038 
4.4200000000030375, 2.1969044180318527 
4.430000000003014, 2.198637672355421 
4.440000000002991, 2.197355139509729 
4.450000000002968, 2.1914805167911817 
4.460000000002944, 2.171851354434005 
4.470000000002921, 2.152735630119912 
4.480000000002898, 2.158939179750322 
4.490000000002874, 2.162516468847698 
4.500000000002851, 2.1625647883065247 
4.510000000002828, 2.1608128011328906 
4.520000000002804, 2.160572226158421 
4.530000000002781, 2.166301310747827 
4.540000000002758, 2.171677075783517 
4.5500000000027345, 2.1736732000848136 
4.560000000002711, 2.1736631271866633 
4.570000000002688, 2.1715410140905544 
4.580000000002665, 2.158339832814324 
4.590000000002641, 1.7605683515603476 
4.600000000002618, -4.180198526796952 
4.610000000002595, -4.283656694363526 
4.620000000002571, -4.288923461900847 
4.630000000002548, -4.287903565651018 
4.640000000002525, -4.279841760758939 
4.6500000000025015, -4.177169700410099 
4.660000000002478, -4.154867767264038 
4.670000000002455, -4.176755356480678 
4.6800000000024315, -4.177454095673915 
4.690000000002408, -4.176458281756856 
4.700000000002385, -4.174007842452523 
4.710000000002362, -4.172061464150902 
4.720000000002338, -4.17216183962997 
4.730000000002315, -4.168742957965743 
4.740000000002292, -4.170866719955308 
4.750000000002268, -4.176046707097827 
4.760000000002245, -4.176582603190744 
4.770000000002222, -4.174738830674611 
4.7800000000021985, -4.15456270382229 
4.790000000002175, -2.9050506029934287 
4.800000000002152, -5.324630209116413 
4.810000000002129, -5.353436054914255 
4.820000000002105, -5.353300362809524 
4.830000000002082, -5.341681947046377 
4.840000000002059, -3.072403079518149 
4.850000000002035, -3.137140121367957 
4.860000000002012, -3.397817941881832 
4.870000000001989, -3.4100715643483945 
4.880000000001965, -3.410922184180982 
4.890000000001942, -3.4100022856209904 
4.900000000001919, -3.4079043518299477 
4.9100000000018955, -3.4039658176994068 
4.920000000001872, -3.40335219851348 
4.930000000001849, -3.4035228660156136 
4.940000000001826, -3.4002988298319226 
4.950000000001802, -3.3983036920505754 
4.960000000001779, -3.4094261870376052 
4.970000000001756, -3.4141312696708406 
