t, s[1].omega / s[0].omega 
0, -0.7299976841849506 
0.009999999999999995, -0.7297867539587369 
0.019999999999999934, -0.7295986863984459 
0.029999999999999874, -0.7293884540331781 
0.04000000000000012, -0.729105622659628 
0.050000000000000405, -0.7287171175774529 
0.06000000000000069, -0.7282207160223719 
0.07000000000000098, -0.7276482528134894 
0.08000000000000126, -0.7270656690637431 
0.09000000000000155, -0.7265763435705778 
0.10000000000000184, -0.7263276479140371 
0.11000000000000212, -0.726514650142062 
0.12000000000000241, -0.7273731605913286 
0.130000000000002, -0.7291586588705187 
0.1400000000000009, -0.732116753418879 
0.1499999999999998, -0.7364582590182908 
0.1599999999999987, -0.7423501161514248 
0.1699999999999976, -0.7499212798120802 
0.1799999999999965, -0.7592667267207043 
0.1899999999999954, -0.7704191201215229 
0.1999999999999943, -0.7832519590392875 
0.2099999999999932, -0.797301730250498 
0.2199999999999921, -0.8115976054479616 
0.229999999999991, -0.824746380393619 
0.2399999999999899, -0.8354539388449893 
0.2499999999999888, -0.8431469812050334 
0.2599999999999877, -0.8480854229676433 
0.2699999999999866, -0.8509532651874782 
0.2799999999999855, -0.8524268420269626 
0.2899999999999844, -0.8529888159031931 
0.2999999999999833, -0.852922162092842 
0.3099999999999822, -0.8523633287284633 
0.3199999999999811, -0.851363524115403 
0.32999999999998, -0.849971245527508 
0.3399999999999789, -0.8484073222879822 
0.3499999999999778, -0.8474909251442952 
0.35999999999997667, -0.8495890970892696 
0.36999999999997557, -0.8603356794773335 
0.37999999999997447, -0.890589677773774 
0.38999999999997337, -0.955320805591392 
0.39999999999997227, -1.0620148996445091 
0.40999999999997117, -1.1909275751251167 
0.41999999999997006, -1.3024328056810008 
0.42999999999996896, -1.3753472940794937 
0.43999999999996786, -1.415107628835431 
0.44999999999996676, -1.4347329604938617 
0.45999999999996566, -1.4439214951239687 
0.46999999999996456, -1.4480399718776347 
0.47999999999996346, -1.4497072970263178 
0.48999999999996235, -1.450136368501522 
0.49999999999996125, -1.449905891264053 
0.5099999999999602, -1.4493861265177186 
0.519999999999959, -1.448979708001902 
0.529999999999958, -1.449121012535802 
0.5399999999999568, -1.4499901912031787 
0.5499999999999557, -1.4513566471252857 
0.5599999999999546, -1.4528469280902796 
0.5699999999999535, -1.454210995818855 
0.5799999999999524, -1.455321187796918 
0.5899999999999513, -1.456092156726786 
0.5999999999999502, -1.456452816153988 
0.6099999999999491, -1.456345439075494 
0.619999999999948, -1.4557222020389384 
0.6299999999999469, -1.454538623202947 
0.6399999999999458, -1.4527459440078405 
0.6499999999999447, -1.4502834166393272 
0.6599999999999436, -1.4470749761370398 
0.6699999999999425, -1.4430426808468422 
0.6799999999999414, -1.4381779438176356 
0.6899999999999403, -1.4327511217788453 
0.6999999999999392, -1.4276089738170863 
0.7099999999999381, -1.4240003152614817 
0.719999999999937, -1.422497080742488 
0.7299999999999359, -1.4224068230844318 
0.7399999999999348, -1.4226763504062199 
0.7499999999999337, -1.422664368462793 
0.7599999999999326, -1.4220248661024166 
0.7699999999999315, -1.4202960613322946 
0.7799999999999304, -1.416364649501259 
0.7899999999999293, -1.407331563160488 
0.7999999999999282, -1.3855734129116661 
0.8099999999999271, -1.3320021868563543 
0.819999999999926, -1.2086537254312912 
0.8299999999999249, -0.979876580315399 
0.8399999999999238, -0.6783713249515174 
0.8499999999999227, -0.4109506416828516 
0.8599999999999216, -0.2493904325523343 
0.8699999999999205, -0.17149377546132222 
0.8799999999999194, -0.13537955877984412 
0.8899999999999183, -0.11776975240336855 
0.8999999999999172, -0.10856339784315727 
0.9099999999999161, -0.1034479426330976 
0.919999999999915, -0.10048999479474434 
0.9299999999999139, -0.098774284275492 
0.9399999999999128, -0.09785542681078152 
0.9499999999999117, -0.09752918156419486 
0.9599999999999106, -0.09773861891880913 
0.9699999999999095, -0.09854750698690685 
0.9799999999999084, -0.10016224251315897 
0.9899999999999073, -0.10301451360925913 
0.9999999999999062, -0.10795738460378101 
1.0099999999999052, -0.11671283466606434 
1.019999999999904, -0.13290412473283336 
1.029999999999903, -0.16434366440973153 
1.039999999999902, -0.22680265011783168 
1.0499999999999008, -0.34191989806117784 
1.0599999999998997, -0.5045012769831796 
1.0699999999998986, -0.6542207207643017 
1.0799999999998975, -0.7480929713475664 
1.0899999999998964, -0.7961289002947544 
1.0999999999998953, -0.8193389228202601 
1.1099999999998942, -0.8306513161897164 
1.119999999999893, -0.8362940481514499 
1.129999999999892, -0.8391184237058417 
1.1399999999998909, -0.8404328393684715 
1.1499999999998898, -0.840826827526034 
1.1599999999998887, -0.8405161427565379 
1.1699999999998876, -0.8394602317604203 
1.1799999999998865, -0.8373378619961473 
1.1899999999998854, -0.8333673175402234 
1.1999999999998843, -0.825865843826004 
1.2099999999998832, -0.8113684184397136 
1.219999999999882, -0.7833860618643935 
1.229999999999881, -0.7326890640050426 
1.2399999999998799, -0.6545857330332352 
1.2499999999998788, -0.5619114436944871 
1.2599999999998777, -0.4796333543898944 
1.2699999999998766, -0.4211468649113838 
1.2799999999998755, -0.38412154658910247 
1.2899999999998744, -0.3614924887593175 
1.2999999999998733, -0.34758084692508756 
1.3099999999998722, -0.3388540525777003 
1.319999999999871, -0.33326742671174997 
1.32999999999987, -0.3296476936012919 
1.3399999999998689, -0.3273134068747569 
1.3499999999998678, -0.3258639550631515 
1.3599999999998666, -0.32506519597894135 
1.3699999999998655, -0.3247881880780534 
1.3799999999998644, -0.3249779577854106 
1.3899999999998633, -0.3256409908354087 
1.3999999999998622, -0.3268468702224982 
1.4099999999998611, -0.32874392089867466 
1.41999999999986, -0.33159249937550084 
1.429999999999859, -0.3358233425410153 
1.4399999999998578, -0.34213001191645126 
1.4499999999998567, -0.35159091808580795 
1.4599999999998556, -0.36574180149215263 
1.4699999999998545, -0.38628791532803425 
1.4799999999998534, -0.413820044492227 
1.4899999999998523, -0.4455802907683465 
1.4999999999998512, -0.47529604794123853 
1.5099999999998501, -0.49763837887252177 
1.519999999999849, -0.5118199715980272 
1.529999999999848, -0.5199889627347909 
1.5399999999998468, -0.5244963975831027 
1.5499999999998457, -0.5269130483004673 
1.5599999999998446, -0.5281123367274253 
1.5699999999998435, -0.5285335518296981 
1.5799999999998424, -0.5283607003783555 
1.5899999999998413, -0.5276081250612795 
1.5999999999998402, -0.5261448634458195 
1.6099999999998391, -0.5236882765963631 
1.619999999999838, -0.5198133231377102 
1.629999999999837, -0.5140671757833639 
1.6399999999998358, -0.5062780549296756 
1.6499999999998347, -0.49692792069185343 
1.6599999999998336, -0.4871376358179359 
1.6699999999998325, -0.47809393848828563 
1.6799999999998314, -0.4704873559143817 
1.6899999999998303, -0.46444286130641377 
1.6999999999998292, -0.45976344475740244 
1.709999999999828, -0.45616091739472653 
1.719999999999827, -0.45337279666889324 
1.729999999999826, -0.4511992622820086 
1.7399999999998248, -0.449505049464736 
1.7499999999998237, -0.4482105051752111 
1.7599999999998226, -0.4472817789033702 
1.7699999999998215, -0.44672394117067726 
1.7799999999998204, -0.446578489169176 
1.7899999999998193, -0.4469260279763395 
1.7999999999998182, -0.44789524566017375 
1.809999999999817, -0.44968043938136093 
1.819999999999816, -0.4525717693807059 
1.8299999999998149, -0.45700511052947224 
1.8399999999998138, -0.4636411620398282 
1.8499999999998127, -0.4734822932049892 
1.8599999999998116, -0.48801388481147123 
1.8699999999998105, -0.5092628866203295 
1.8799999999998094, -0.5393985097044192 
1.8899999999998083, -0.5791302504116888 
1.8999999999998072, -0.624876978926239 
1.909999999999806, -0.6681823817196407 
1.919999999999805, -0.7012068577656092 
1.9299999999998039, -0.722238759870984 
1.9399999999998028, -0.7341956429709519 
1.9499999999998017, -0.7406230100576258 
1.9599999999998006, -0.74396774359916 
1.9699999999997995, -0.7456000265776591 
1.9799999999997984, -0.7462117188608028 
1.9899999999997973, -0.7461059044791635 
1.9999999999997962, -0.7453364684307895 
2.0099999999998173, -0.7437312963414927 
2.0199999999998384, -0.7407998693291191 
2.0299999999998595, -0.7354600476360789 
2.0399999999998806, -0.7254184156314297 
2.0499999999999017, -0.7059805589065029 
2.059999999999923, -0.6687205089082167 
2.069999999999944, -0.6038478395266915 
2.079999999999965, -0.5133282921721085 
2.089999999999986, -0.4212676638721489 
2.100000000000007, -0.3516830494156202 
2.1100000000000283, -0.30780087659832883 
2.1200000000000494, -0.2818717614496814 
2.1300000000000705, -0.2665234713377429 
2.1400000000000916, -0.25717945300250833 
2.1500000000001127, -0.25130107151451414 
2.160000000000134, -0.24750362071561932 
2.170000000000155, -0.24502232252611084 
2.180000000000176, -0.24343046484922862 
2.190000000000197, -0.24249535803414252 
2.2000000000002182, -0.24210645366538713 
2.2100000000002393, -0.242243484903302 
2.2200000000002604, -0.2429710728545797 
2.2300000000002815, -0.24445770558350843 
2.2400000000003026, -0.24702744773916185 
2.2500000000003237, -0.2512680468629796 
2.260000000000345, -0.25824770361484445 
2.270000000000366, -0.2699462247396135 
2.280000000000387, -0.290075959197745 
2.290000000000408, -0.32535797087179874 
2.3000000000004293, -0.3859636263391825 
2.3100000000004504, -0.4791383931853625 
2.3200000000004715, -0.591252560726691 
2.3300000000004926, -0.6875969363862721 
2.3400000000005137, -0.7489109631949313 
2.3500000000005348, -0.7816055129455642 
2.360000000000556, -0.7979465880986077 
2.370000000000577, -0.8060735575738279 
2.380000000000598, -0.8101461848614877 
2.390000000000619, -0.8121345285348349 
2.4000000000006403, -0.8129502384678327 
2.4100000000006614, -0.8129849714216096 
2.4200000000006825, -0.8123323569333742 
2.4300000000007036, -0.8108391493707474 
2.4400000000007247, -0.8080214216757458 
2.450000000000746, -0.8027923836699374 
2.460000000000767, -0.792847119458804 
2.470000000000788, -0.7735109274292911 
2.480000000000809, -0.7365119908156648 
2.49000000000083, -0.6722357684749244 
2.5000000000008513, -0.5817646679400925 
2.5100000000008724, -0.4872692281540755 
2.5200000000008935, -0.4131328318227353 
2.5300000000009146, -0.3647508448824692 
2.5400000000009357, -0.3354570738888137 
2.550000000000957, -0.3178631949043417 
2.560000000000978, -0.30707982969258857 
2.570000000000999, -0.3002906543201714 
2.58000000000102, -0.29592015481547296 
2.5900000000010412, -0.2930799737260417 
2.6000000000010624, -0.29126199626954963 
2.6100000000010835, -0.290175719294694 
2.6200000000011046, -0.2896631644956219 
2.6300000000011257, -0.2896560542814863 
2.6400000000011468, -0.29015819245163427 
2.650000000001168, -0.29124620663894485 
2.660000000001189, -0.2930885647999507 
2.67000000000121, -0.2959891529611206 
2.680000000001231, -0.30047012752797814 
2.6900000000012523, -0.3074204258492091 
2.7000000000012734, -0.31834368315474026 
2.7100000000012945, -0.33569169518774755 
2.7200000000013156, -0.3629707164412119 
2.7300000000013367, -0.40339549935251895 
2.740000000001358, -0.455332223568793 
2.750000000001379, -0.5081869896234338 
2.7600000000014, -0.5493054590459108 
2.770000000001421, -0.57503865040189 
2.780000000001442, -0.5892974908175088 
2.7900000000014633, -0.5968704206997462 
2.8000000000014844, -0.6008679264961589 
2.8100000000015055, -0.6029427736476247 
2.8200000000015266, -0.6039120426855571 
2.8300000000015477, -0.6041543720473864 
2.840000000001569, -0.6038018405939819 
2.85000000000159, -0.6028120396580243 
2.860000000001611, -0.6009709395229842 
2.870000000001632, -0.5978584378565561 
2.8800000000016532, -0.5928332924639949 
2.8900000000016743, -0.5851726048181787 
2.9000000000016954, -0.5745291814975907 
2.9100000000017165, -0.5615363868515602 
2.9200000000017377, -0.547824235419174 
2.9300000000017588, -0.5351359812789063 
2.94000000000178, -0.5244691404155888 
2.950000000001801, -0.5159947061187624 
2.960000000001822, -0.5094336685602989 
2.970000000001843, -0.5043903821653999 
2.9800000000018643, -0.5005106975154429 
2.9900000000018854, -0.4975255799658232 
3.0000000000019065, -0.4952473441244726 
3.0100000000019276, -0.4935527478027576 
3.0200000000019487, -0.4923659682029339 
3.03000000000197, -0.4916454079068009 
3.040000000001991, -0.49137504771402163 
3.050000000002012, -0.4915601583393953 
3.060000000002033, -0.49222717153402556 
3.070000000002054, -0.4934278199331591 
3.0800000000020753, -0.49524801810312946 
3.0900000000020964, -0.49782214262655833 
3.1000000000021175, -0.5013528909679954 
3.1100000000021386, -0.5061344431252477 
3.1200000000021597, -0.5125686921943367 
3.130000000002181, -0.5211431498465157 
3.140000000002202, -0.5322975689859402 
3.150000000002223, -0.5460771622585168 
3.160000000002244, -0.5616149564898751 
3.1700000000022652, -0.5769594588801148 
3.1800000000022863, -0.5899120886265913 
3.1900000000023074, -0.5993185508965639 
3.2000000000023285, -0.6053824612882517 
3.2100000000023496, -0.6089681940548697 
3.2200000000023707, -0.6109221110991856 
3.230000000002392, -0.6118260885402972 
3.240000000002413, -0.6120034945351576 
3.250000000002434, -0.6115768771940193 
3.260000000002455, -0.6104941643285623 
3.2700000000024763, -0.6084935399911474 
3.2800000000024974, -0.6049732192492374 
3.2900000000025185, -0.5987035720994348 
3.3000000000025396, -0.5873347456981172 
3.3100000000025607, -0.5670007252509558 
3.3200000000025818, -0.5335441053577739 
3.330000000002603, -0.4874162192691055 
3.340000000002624, -0.4376704927501912 
3.350000000002645, -0.3954608891663242 
3.360000000002666, -0.365140317291638 
3.3700000000026873, -0.3450506141788419 
3.3800000000027084, -0.33201680231528774 
3.3900000000027295, -0.3234827470809627 
3.4000000000027506, -0.3177829872980986 
3.4100000000027717, -0.3139027395366802 
3.420000000002793, -0.3112344287649828 
3.430000000002814, -0.3094169767350567 
3.440000000002835, -0.3082415011496501 
3.450000000002856, -0.30759907432840344 
3.460000000002877, -0.30745459142774323 
3.4700000000028983, -0.30783859896638965 
3.4800000000029194, -0.3088546974130059 
3.4900000000029405, -0.3107053088926631 
3.5000000000029616, -0.3137451921592178 
3.5100000000029827, -0.31858277015043196 
3.520000000003004, -0.3262673886132924 
3.530000000003025, -0.33862464115178337 
3.540000000003046, -0.3587932274515994 
3.550000000003067, -0.39176465218723844 
3.5600000000030882, -0.44357571091756887 
3.5700000000031094, -0.5157236656768643 
3.5800000000031305, -0.5958469128080173 
3.5900000000031516, -0.6624232744031867 
3.6000000000031727, -0.7052197186733046 
3.6100000000031938, -0.7287380969928642 
3.620000000003215, -0.7408779395683919 
3.630000000003236, -0.7470764153465324 
3.640000000003257, -0.7502272364228226 
3.650000000003278, -0.7517439031034823 
3.6600000000032993, -0.7522880338842771 
3.6700000000033204, -0.7521290342569447 
3.6800000000033415, -0.7512875770742512 
3.6900000000033626, -0.7495476033158675 
3.7000000000033837, -0.7463482625961009 
3.710000000003405, -0.7405074406875622 
3.720000000003426, -0.7297087206667754 
3.730000000003447, -0.7099164542344278 
3.740000000003468, -0.6759366056204068 
3.750000000003489, -0.625667398283136 
3.7600000000035103, -0.5662328508946798 
3.7700000000035314, -0.5110385409160301 
3.7800000000035525, -0.46860432782040384 
3.7900000000035736, -0.43931709668475377 
3.8000000000035947, -0.4199503897562403 
3.810000000003616, -0.40722245915580724 
3.820000000003637, -0.39878296181905715 
3.830000000003658, -0.3931245464045344 
3.840000000003679, -0.3893104306062186 
3.8500000000037002, -0.3867594155155104 
3.8600000000037213, -0.3851087025092804 
3.8700000000037424, -0.38413204173652893 
3.8800000000037635, -0.38369232812905524 
3.8900000000037847, -0.38371528116154346 
3.9000000000038058, -0.384176710959811 
3.910000000003827, -0.38509971212188127 
3.920000000003848, -0.38656064367727405 
3.930000000003869, -0.3887044914581085 
3.94000000000389, -0.3917712815820666 
3.9500000000039113, -0.39613461874753986 
3.9600000000039324, -0.4023464483281914 
3.9700000000039535, -0.4111543991073769 
3.9800000000039746, -0.42338335824963896 
3.9900000000039957, -0.4394671034101959 
4.000000000004016, -0.4585500065640476 
4.010000000003993, -0.4779489174076157 
4.02000000000397, -0.4943743152858497 
4.030000000003946, -0.5061164167637787 
4.040000000003923, -0.5135327213061962 
4.0500000000039, -0.517870488096175 
4.0600000000038765, -0.5202668765961709 
4.070000000003853, -0.5214663995329852 
4.08000000000383, -0.5218788972477104 
4.090000000003807, -0.5216832944088953 
4.100000000003783, -0.5208882229056411 
4.11000000000376, -0.5193411949357067 
4.120000000003737, -0.5166960082958555 
4.130000000003713, -0.5123695446336527 
4.14000000000369, -0.505589744301378 
4.150000000003667, -0.49573618439660266 
4.1600000000036434, -0.4830298764006227 
4.17000000000362, -0.4689493178943972 
4.180000000003597, -0.45554531873954013 
4.1900000000035735, -0.44424013254642364 
4.20000000000355, -0.43541005481690814 
4.210000000003527, -0.4287664222494687 
4.220000000003504, -0.4238204815571679 
4.23000000000348, -0.42012347123978494 
4.240000000003457, -0.41733513683072926 
4.250000000003434, -0.4152210485304718 
4.26000000000341, -0.41363180394496474 
4.270000000003387, -0.4124829738853677 
4.280000000003364, -0.4117408345354705 
4.2900000000033405, -0.4114147672685132 
4.300000000003317, -0.41155642586689345 
4.310000000003294, -0.41226628015750977 
4.320000000003271, -0.41370949380412714 
4.330000000003247, -0.41614536989062934 
4.340000000003224, -0.4199781474473282 
4.350000000003201, -0.4258419758384644 
4.360000000003177, -0.43473761623096757 
4.370000000003154, -0.4482310536586936 
4.380000000003131, -0.4686568142832062 
4.390000000003107, -0.4990040945202666 
4.400000000003084, -0.5415572279935372 
4.410000000003061, -0.594313536925382 
4.4200000000030375, -0.6480410436227698 
4.430000000003014, -0.6912905900304775 
4.440000000002991, -0.7195654417738604 
4.450000000002968, -0.7357026180885755 
4.460000000002944, -0.7443302759007062 
4.470000000002921, -0.748821008073035 
4.480000000002898, -0.7510799874183061 
4.490000000002874, -0.7520749222389247 
4.500000000002851, -0.752255556464412 
4.510000000002828, -0.7517711515103247 
4.520000000002804, -0.7505433555337095 
4.530000000002781, -0.7482239521116058 
4.540000000002758, -0.7440061361640449 
4.5500000000027345, -0.736175691895479 
4.560000000002711, -0.7212173130834573 
4.570000000002688, -0.6925986171506466 
4.580000000002665, -0.6414136761538545 
4.590000000002641, -0.5647143401629096 
4.600000000002618, -0.4778766565069571 
4.610000000002595, -0.4048643244844789 
4.620000000002571, -0.355220222339045 
4.630000000002548, -0.32463532282374513 
4.640000000002525, -0.3061702718984244 
4.6500000000025015, -0.2948379933849689 
4.660000000002478, -0.28768938219539497 
4.670000000002455, -0.28306398335154803 
4.6800000000024315, -0.2800265565488333 
4.690000000002408, -0.2780442458510346 
4.700000000002385, -0.27681399419250713 
4.710000000002362, -0.27617224683613656 
4.720000000002338, -0.27604973925930487 
4.730000000002315, -0.27645328461425656 
4.740000000002292, -0.27746751718483237 
4.750000000002268, -0.27927717501305727 
4.760000000002245, -0.28221833038584776 
4.770000000002222, -0.2868785479373962 
4.7800000000021985, -0.2942851109646657 
4.790000000002175, -0.3062455162691833 
4.800000000002152, -0.32589069399812537 
4.810000000002129, -0.3581766497357276 
4.820000000002105, -0.40880858972620454 
4.830000000002082, -0.47807795383351753 
4.840000000002059, -0.5522703078933413 
4.850000000002035, -0.6112863989413773 
4.860000000002012, -0.6479681434941459 
4.870000000001989, -0.6678282553519602 
4.880000000001965, -0.6780949006210395 
4.890000000001942, -0.6833943309157917 
