t, s[1].omega / s[0].omega 
0, -1.6001124224984982 
0.009999999999999995, -1.609234325920712 
0.019999999999999934, -1.6149512635426038 
0.029999999999999874, -1.6181561092916337 
0.04000000000000012, -1.619550176461279 
0.050000000000000405, -1.6197053680099178 
0.06000000000000069, -1.6190855740374563 
0.07000000000000098, -1.6180680181014964 
0.08000000000000126, -1.6168455277351945 
0.09000000000000155, -1.6153518776258995 
0.10000000000000184, -1.6135821956353484 
0.11000000000000212, -1.6120127784967884 
0.12000000000000241, -1.611237421972173 
0.130000000000002, -1.611059438003786 
0.1400000000000009, -1.610615195724512 
0.1499999999999998, -1.6088839034068674 
0.1599999999999987, -1.6041369302603772 
0.1699999999999976, -1.5920169778844444 
0.1799999999999965, -1.5610448471148564 
0.1899999999999954, -1.4842788649670555 
0.1999999999999943, -1.3174650731318125 
0.2099999999999932, -1.0452362680042824 
0.2199999999999921, -0.7527992819328425 
0.229999999999991, -0.5413226994028886 
0.2399999999999899, -0.41956930102576007 
0.2499999999999888, -0.35407579859714006 
0.2599999999999877, -0.3184367758517149 
0.2699999999999866, -0.29834935387003747 
0.2799999999999855, -0.2866317111782775 
0.2899999999999844, -0.2796364742055955 
0.2999999999999833, -0.2754447398065102 
0.3099999999999822, -0.2730106841682097 
0.3199999999999811, -0.2717523064011211 
0.32999999999998, -0.27135112669125955 
0.3399999999999789, -0.271654495926254 
0.3499999999999778, -0.27263344567011333 
0.35999999999997667, -0.2743769712753571 
0.36999999999997557, -0.2771196065845495 
0.37999999999997447, -0.2813141749640522 
0.38999999999997337, -0.2877867010442248 
0.39999999999997227, -0.29806224632967093 
0.40999999999997117, -0.3150502312268967 
0.41999999999997006, -0.34438122553920797 
0.42999999999996896, -0.39613140537730984 
0.43999999999996786, -0.4821895585916767 
0.44999999999996676, -0.596293623088975 
0.45999999999996566, -0.6980183729153013 
0.46999999999996456, -0.7590602762710156 
0.47999999999996346, -0.7881879017050668 
0.48999999999996235, -0.8011146927566448 
0.49999999999996125, -0.8067442836422268 
0.5099999999999602, -0.8089385593099614 
0.519999999999959, -0.8091840820381371 
0.529999999999958, -0.8078128706642662 
0.5399999999999568, -0.8042778849947606 
0.5499999999999557, -0.7966383188718459 
0.5599999999999546, -0.7793784908534571 
0.5699999999999535, -0.7349906012373746 
0.5799999999999524, -0.5935534236031672 
0.5899999999999513, -0.057502886721128486 
0.5999999999999502, 0.6919727902972828 
0.6099999999999491, 0.865026809586469 
0.619999999999948, 0.8959094502561529 
0.6299999999999469, 0.903836819991856 
0.6399999999999458, 0.9060406658671123 
0.6499999999999447, 0.9058849714593362 
0.6599999999999436, 0.9037653148585669 
0.6699999999999425, 0.8986694334976439 
0.6799999999999414, 0.8882954545629242 
0.6899999999999403, 0.8708279269782887 
0.6999999999999392, 0.8509996792592183 
0.7099999999999381, 0.8385356853522563 
0.719999999999937, 0.8346203868619101 
0.7299999999999359, 0.8344512006976597 
0.7399999999999348, 0.8349800178469762 
0.7499999999999337, 0.8351393274418359 
0.7599999999999326, 0.8344489676846107 
0.7699999999999315, 0.8321173141054613 
0.7799999999999304, 0.8256181872285259 
0.7899999999999293, 0.8040062884429254 
0.7999999999999282, 0.6899484520522831 
0.8099999999999271, -0.5622440133406614 
0.819999999999926, -2.8127694144609023 
0.8299999999999249, -2.9858456082913647 
0.8399999999999238, -3.0082018941921183 
0.8499999999999227, -3.0133396068887843 
0.8599999999999216, -3.0140276692274868 
0.8699999999999205, -3.012334482405679 
0.8799999999999194, -3.0069812006405976 
0.8899999999999183, -2.9879977674282094 
0.8999999999999172, -2.936415786561115 
0.9099999999999161, -2.9385964751417477 
0.919999999999915, -2.948109259375741 
0.9299999999999139, -2.9491768316615583 
0.9399999999999128, -2.9480894124252073 
0.9499999999999117, -2.9489191313431373 
0.9599999999999106, -2.950901184154768 
0.9699999999999095, -2.9514304905457704 
0.9799999999999084, -2.9513121257317203 
0.9899999999999073, -2.9500270633829926 
0.9999999999999062, -2.94290311064377 
1.0099999999999052, -2.8830354190234333 
1.019999999999904, -1.0910053439762488 
1.029999999999903, 1.9100563717344912 
1.039999999999902, 1.9758901405912526 
1.0499999999999008, 1.9819365266022042 
1.0599999999998997, 1.9819449880117976 
1.0699999999998986, 1.9774394213230255 
1.0799999999998975, 1.9491214349841173 
1.0899999999998964, 1.6710272569566804 
1.0999999999998953, 1.5776097291240454 
1.1099999999998942, 1.6446878695163012 
1.119999999999893, 1.65620937330214 
1.129999999999892, 1.6583793611520474 
1.1399999999998909, 1.6581806278930755 
1.1499999999998898, 1.657473165873024 
1.1599999999998887, 1.6582867387405336 
1.1699999999998876, 1.6619377840756595 
1.1799999999998865, 1.666194733232943 
1.1899999999998854, 1.6688044728928204 
1.1999999999998843, 1.669746891703051 
1.2099999999998832, 1.6694145724224427 
1.219999999999882, 1.6671192445740135 
1.229999999999881, 1.6565807598657123 
1.2399999999998799, 1.5443795386153014 
1.2499999999998788, -2.81463699080104 
1.2599999999998777, -3.6370841995008347 
1.2699999999998766, -3.663863724732173 
1.2799999999998755, -3.667099422472133 
1.2899999999998744, -3.6661339781517284 
1.2999999999998733, -3.6609239199452643 
1.3099999999998722, -3.632282501056396 
1.319999999999871, -3.5861339008368747 
1.32999999999987, -3.607669267043684 
1.3399999999998689, -3.6104003178183723 
1.3499999999998678, -3.609708856494602 
1.3599999999998666, -3.609857891268517 
1.3699999999998655, -3.6093780740597836 
1.3799999999998644, -3.6086168438514754 
1.3899999999998633, -3.6076960924725947 
1.3999999999998622, -3.5998011194390513 
1.4099999999998611, -3.559130805227152 
1.41999999999986, -3.663088344862645 
1.429999999999859, -3.688341549203968 
1.4399999999998578, -3.6917956531109533 
1.4499999999998567, -3.6912228349528293 
1.4599999999998556, -3.6857887909818303 
1.4699999999998545, -3.649283925796798 
1.4799999999998534, -2.183008336764259 
1.4899999999998523, 1.5728454193497297 
1.4999999999998512, 1.6525983008505531 
1.5099999999998501, 1.6608726079476757 
1.519999999999849, 1.6623465268857622 
1.529999999999848, 1.662219174145303 
1.5399999999998468, 1.6612563283205593 
1.5499999999998457, 1.6593800637344898 
1.5599999999998446, 1.6566680544103884 
1.5699999999998435, 1.654146446474686 
1.5799999999998424, 1.6529406142832168 
1.5899999999998413, 1.6526345857604974 
1.5999999999998402, 1.6519115147574819 
1.6099999999998391, 1.6486902802691676 
1.619999999999838, 1.6333767096434701 
1.629999999999837, 1.5032530189420794 
1.6399999999998358, 1.6704395262054288 
1.6499999999998347, 2.373214123014889 
1.6599999999998336, 2.3969274561878064 
1.6699999999998325, 2.399011369032917 
1.6799999999998314, 2.3964164785125313 
1.6899999999998303, 2.37218682225049 
1.6999999999998292, 0.5762184206999372 
1.709999999999828, -3.266139131221145 
1.719999999999827, -3.3388940024502696 
1.729999999999826, -3.3443436786490386 
1.7399999999998248, -3.3442861804126323 
1.7499999999998237, -3.3429813505721775 
1.7599999999998226, -3.339646738978156 
1.7699999999998215, -3.335157764831821 
1.7799999999998204, -3.3357076026969503 
1.7899999999998193, -3.3352930979601405 
1.7999999999998182, -3.3306431585066667 
1.809999999999817, -3.3334281935298464 
1.819999999999816, -3.3451418767318204 
1.8299999999998149, -3.3486899338116722 
1.8399999999998138, -3.3491149718780937 
1.8499999999998127, -3.34712497371322 
1.8599999999998116, -3.3359018470643163 
1.8699999999998105, -3.2172949248057625 
1.8799999999998094, 0.3486479322718557 
1.8899999999998083, 1.3933068352429863 
1.8999999999998072, 1.433395408388959 
1.909999999999806, 1.439571908575802 
1.919999999999805, 1.4406170669191372 
1.9299999999998039, 1.439680164226516 
1.9399999999998028, 1.4366214571184686 
1.9499999999998017, 1.430035274246478 
1.9599999999998006, 1.4194150590622403 
1.9699999999997995, 1.4101270917959543 
1.9799999999997984, 1.4075226201265576 
1.9899999999997973, 1.4083080972833537 
1.9999999999997962, 1.408939629550277 
2.0099999999998173, 1.408190767105134 
2.0199999999998384, 1.404423387268194 
2.0299999999998595, 1.3901373892537565 
2.0399999999998806, 1.3275572821286932 
2.0499999999999017, 1.398058755973925 
2.059999999999923, 1.7126492202017345 
2.069999999999944, 1.7549957021427152 
2.079999999999965, 1.761456963125823 
2.089999999999986, 1.7620306088061337 
2.100000000000007, 1.7589493772665956 
2.1100000000000283, 1.7414974921862747 
2.1200000000000494, 1.493363020614589 
2.1300000000000705, -1.0765949904736543 
2.1400000000000916, -1.8762371197167245 
2.1500000000001127, -1.9747307420208113 
2.160000000000134, -1.99197697995033 
2.170000000000155, -1.9957804749817716 
2.180000000000176, -1.9961197621015816 
2.190000000000197, -1.9954727081799295 
2.2000000000002182, -1.9957295177118837 
2.2100000000002393, -1.9976499001396189 
2.2200000000002604, -1.999695218574042 
2.2300000000002815, -2.000907162037593 
2.2400000000003026, -2.001514275988961 
2.2500000000003237, -2.0016238254510865 
2.260000000000345, -2.0007776992546065 
2.270000000000366, -1.997997204552704 
2.280000000000387, -1.9911765309761353 
2.290000000000408, -1.9753217530711678 
2.3000000000004293, -1.9377374990302427 
2.3100000000004504, -1.8415700770217724 
2.3200000000004715, -1.572073003734097 
2.3300000000004926, -0.9731882894876083 
2.3400000000005137, -0.43676718564970124 
2.3500000000005348, -0.21884991513984625 
2.360000000000556, -0.14084284496986832 
2.370000000000577, -0.10931954447606129 
2.380000000000598, -0.09485524373763449 
2.390000000000619, -0.08757723441519907 
2.4000000000006403, -0.0837262246740618 
2.4100000000006614, -0.08171375812706891 
2.4200000000006825, -0.08083112553903844 
2.4300000000007036, -0.08078258533214283 
2.4400000000007247, -0.08151428579670136 
2.450000000000746, -0.08317564217933968 
2.460000000000767, -0.08617561307606666 
2.470000000000788, -0.0913723739582318 
2.480000000000809, -0.1005559287677977 
2.49000000000083, -0.11771333128422341 
2.5000000000008513, -0.152620861135035 
2.5100000000008724, -0.23156781573677923 
2.5200000000008935, -0.42314975971595786 
2.5300000000009146, -0.8106210865293744 
2.5400000000009357, -1.2051191281406681 
2.550000000000957, -1.3867046117919375 
2.560000000000978, -1.4458728149097966 
2.570000000000999, -1.4648772838519197 
2.58000000000102, -1.471254483989815 
2.5900000000010412, -1.4731732885473967 
2.6000000000010624, -1.4732181314945056 
2.6100000000010835, -1.4725300680116986 
2.6200000000011046, -1.4724068383479134 
2.6300000000011257, -1.4744661969252415 
2.6400000000011468, -1.4789021255446884 
2.650000000001168, -1.48401838273236 
2.660000000001189, -1.4883787492238651 
2.67000000000121, -1.491669993313128 
2.680000000001231, -1.4940647712326578 
2.6900000000012523, -1.4957192705250164 
2.7000000000012734, -1.4966940852924373 
2.7100000000012945, -1.4970174311321909 
2.7200000000013156, -1.4967147074112435 
2.7300000000013367, -1.4957962642570037 
2.740000000001358, -1.4942389640611484 
2.750000000001379, -1.4919802942740161 
2.7600000000014, -1.4889139574349268 
2.770000000001421, -1.4848539087278643 
2.780000000001442, -1.4794827823116148 
2.7900000000014633, -1.4724969154915848 
2.8000000000014844, -1.464340999899822 
2.8100000000015055, -1.4571803980379447 
2.8200000000015266, -1.4535483081270444 
2.8300000000015477, -1.4530725645782563 
2.840000000001569, -1.4534664778628033 
2.85000000000159, -1.453169031180528 
2.860000000001611, -1.4511273816105208 
2.870000000001632, -1.445084195706213 
2.8800000000016532, -1.4275009308679014 
2.8900000000016743, -1.3700040108134237 
2.9000000000016954, -1.1657191615275182 
2.9100000000017165, -0.6366126981492333 
2.9200000000017377, -0.15324655534798712 
2.9300000000017588, 0.025373885742304515 
2.94000000000178, 0.08355153496604213 
2.950000000001801, 0.10582886657808646 
2.960000000001822, 0.1157225772008599 
2.970000000001843, 0.12055528593062137 
2.9800000000018643, 0.12301550745350813 
2.9900000000018854, 0.12424455054892207 
3.0000000000019065, 0.12478810394476922 
3.0100000000019276, 0.12492955892902131 
3.0200000000019487, 0.1248209009270638 
3.03000000000197, 0.12454553260839732 
3.040000000001991, 0.12417438031707909 
3.050000000002012, 0.1239005794003355 
3.060000000002033, 0.12456170459174096 
3.070000000002054, 0.12989118870478378 
3.0800000000020753, 0.15536886403673036 
3.0900000000020964, 0.24355744109576896 
3.1000000000021175, 0.39584925312525876 
3.1100000000021386, 0.4992202637385882 
3.1200000000021597, 0.539446240883001 
3.130000000002181, 0.5538842275131337 
3.140000000002202, 0.5593426649746136 
3.150000000002223, 0.5612264841391347 
3.160000000002244, 0.5612216714189929 
3.1700000000022652, 0.5596839936112381 
3.1800000000022863, 0.5563292753631297 
3.1900000000023074, 0.5505697135742789 
3.2000000000023285, 0.5421489686888201 
3.2100000000023496, 0.5321391995681306 
3.2200000000023707, 0.5229280912060098 
3.230000000002392, 0.5163607462178341 
3.240000000002413, 0.5125430527624738 
3.250000000002434, 0.5106116475781847 
3.260000000002455, 0.5097024090653799 
3.2700000000024763, 0.509230465904551 
3.2800000000024974, 0.508812376013417 
3.2900000000025185, 0.5081261749523207 
3.3000000000025396, 0.5067509583704946 
3.3100000000025607, 0.5038616879317759 
3.3200000000025818, 0.49730932748970486 
3.330000000002603, 0.47987489040947784 
3.340000000002624, 0.41786380135612067 
3.350000000002645, 0.0651039717029241 
3.360000000002666, -1.5344761871143218 
3.3700000000026873, -2.2708860238937474 
3.3800000000027084, -2.370211071966021 
3.3900000000027295, -2.3890863524165082 
3.4000000000027506, -2.3935150410117547 
3.4100000000027717, -2.3941398024209777 
3.420000000002793, -2.3934973639766244 
3.430000000002814, -2.3923549520166 
3.440000000002835, -2.3903414348145207 
3.450000000002856, -2.3874334212981783 
3.460000000002877, -2.385883165486881 
3.4700000000028983, -2.3859682429134073 
3.4800000000029194, -2.38500622754888 
3.4900000000029405, -2.379396130413997 
3.5000000000029616, -2.3524238632268917 
3.5100000000029827, -2.2892935787650552 
3.520000000003004, -2.5850278068350976 
3.530000000003025, -2.726897152241938 
3.540000000003046, -2.7532037900192217 
3.550000000003067, -2.7603372026914323 
3.5600000000030882, -2.7624051884515683 
3.5700000000031094, -2.7620867856678393 
3.5800000000031305, -2.759531680161618 
3.5900000000031516, -2.752584046565448 
3.6000000000031727, -2.729755241707539 
3.6100000000031938, -2.6364569272583003 
3.620000000003215, -2.5535887933146095 
3.630000000003236, -2.5856980157944136 
3.640000000003257, -2.5946736235251313 
3.650000000003278, -2.5957443171376124 
3.6600000000032993, -2.594829579739586 
3.6700000000033204, -2.5952023527395607 
3.6800000000033415, -2.5974004390619307 
3.6900000000033626, -2.5986553058428794 
3.7000000000033837, -2.5989420975126385 
3.710000000003405, -2.598687881487858 
3.720000000003426, -2.5967442109763255 
3.730000000003447, -2.5884301133588696 
3.740000000003468, -2.542595690084398 
3.750000000003489, -2.0259536642531373 
3.7600000000035103, 0.47026596795245484 
3.7700000000035314, 0.8659919411490609 
3.7800000000035525, 0.9081112970874756 
3.7900000000035736, 0.9174374938364925 
3.8000000000035947, 0.9200986373033537 
3.810000000003616, 0.9205189919206982 
3.820000000003637, 0.919717950714792 
3.830000000003658, 0.9178896484404921 
3.840000000003679, 0.91506983785816 
3.8500000000037002, 0.9115229816923988 
3.8600000000037213, 0.9079267709782718 
3.8700000000037424, 0.9050709626227655 
3.8800000000037635, 0.9033070070855981 
3.8900000000037847, 0.9024273818478175 
3.9000000000038058, 0.9019699140241995 
3.910000000003827, 0.9014489781078506 
3.920000000003848, 0.900295904613575 
3.930000000003869, 0.8973745595231826 
3.94000000000389, 0.8889395886327754 
3.9500000000039113, 0.8556216172547984 
3.9600000000039324, 0.5939182720999835 
3.9700000000039535, -1.94683418024498 
3.9800000000039746, -2.811116814804006 
3.9900000000039957, -2.881102229859331 
4.000000000004016, -2.893798324260696 
4.010000000003993, -2.896575651879562 
4.02000000000397, -2.896288444269858 
4.030000000003946, -2.894079233085271 
4.040000000003923, -2.8881855386839415 
4.0500000000039, -2.873197007442248 
4.0600000000038765, -2.8631834809302763 
4.070000000003853, -2.867792901589034 
4.08000000000383, -2.869115458422187 
4.090000000003807, -2.867282024000595 
4.100000000003783, -2.866387676294673 
4.11000000000376, -2.872219519633174 
4.120000000003737, -2.8764046707021853 
4.130000000003713, -2.8777000269747006 
4.14000000000369, -2.877630240862508 
4.150000000003667, -2.8754397976366404 
4.1600000000036434, -2.8657392186700177 
4.17000000000362, -2.8070057861823714 
4.180000000003597, -1.9499656994104453 
4.1900000000035735, 0.6863151814489739 
4.20000000000355, 0.9249784156686788 
4.210000000003527, 0.9537123951427443 
4.220000000003504, 0.9605096888013337 
4.23000000000348, 0.9624484289350586 
4.240000000003457, 0.9626978785454329 
4.250000000003434, 0.9620862116612077 
4.26000000000341, 0.9608849036904148 
4.270000000003387, 0.9592687140810691 
4.280000000003364, 0.9574907677018143 
4.2900000000033405, 0.9558864499453724 
4.300000000003317, 0.9547220948795705 
4.310000000003294, 0.9540430381320103 
4.320000000003271, 0.9536738952537492 
4.330000000003247, 0.9533127081797499 
4.340000000003224, 0.9525485550993084 
4.350000000003201, 0.9506196243754108 
4.360000000003177, 0.9452949530116399 
4.370000000003154, 0.9265661055186529 
4.380000000003131, 0.8120662545117796 
4.390000000003107, -0.8756855824085725 
4.400000000003084, -2.7908078729724 
4.410000000003061, -2.920255026295881 
4.4200000000030375, -2.938561245535914 
4.430000000003014, -2.9423231864872537 
4.440000000002991, -2.942356385548255 
4.450000000002968, -2.9404855884267 
4.460000000002944, -2.9354734587941107 
4.470000000002921, -2.922577969355031 
4.480000000002898, -2.913031946435872 
4.490000000002874, -2.9170650416785953 
4.500000000002851, -2.9182204916262973 
4.510000000002828, -2.9162194264225394 
4.520000000002804, -2.9155079039616014 
4.530000000002781, -2.921740642540547 
4.540000000002758, -2.9257808063999593 
4.5500000000027345, -2.9269482040307744 
4.560000000002711, -2.9267295615082256 
4.570000000002688, -2.9240752337574665 
4.580000000002665, -2.911853005501751 
4.590000000002641, -2.8248750110822014 
4.600000000002618, -1.2600416956712024 
4.610000000002595, 0.8699476056867892 
4.620000000002571, 1.0007755244749512 
4.630000000002548, 1.0193574688868583 
4.640000000002525, 1.023975383863313 
4.6500000000025015, 1.0251359892265604 
4.660000000002478, 1.0249125876348877 
4.670000000002455, 1.0238048333124083 
4.6800000000024315, 1.0219359398096752 
4.690000000002408, 1.0194668138113232 
4.700000000002385, 1.0168149587565065 
4.710000000002362, 1.0145676763342317 
4.720000000002338, 1.0130975574951346 
4.730000000002315, 1.0123311249351112 
4.740000000002292, 1.0118926140585747 
4.750000000002268, 1.0112963415062959 
4.760000000002245, 1.00985479252886 
4.770000000002222, 1.0058987359883538 
4.7800000000021985, 0.9926637273865536 
4.790000000002175, 0.9214180218526142 
4.800000000002152, -0.12418883951155221 
4.810000000002129, -2.792344785933233 
4.820000000002105, -2.9881250266672574 
4.830000000002082, -3.0118339629254187 
4.840000000002059, -3.0168130237614235 
4.850000000002035, -3.01727755339001 
4.860000000002012, -3.015514721916254 
4.870000000001989, -3.010289993411587 
4.880000000001965, -2.9937406253303207 
4.890000000001942, -2.9714193537846922 
4.900000000001919, -2.97775492091301 
4.9100000000018955, -2.9810587557385015 
4.920000000001872, -2.9802575025104714 
4.930000000001849, -2.9792180060979914 
4.940000000001826, -2.9823769424980897 
4.950000000001802, -2.9848859744353424 
4.960000000001779, -2.9854862411825143 
4.970000000001756, -2.985148493208915 
4.980000000001732, -2.982382453443706 
