t, s[1].omega / s[0].omega 
0, -0.9597126616126157 
0.009999999999999995, -0.93160096931952 
0.019999999999999934, -0.9051656381876476 
0.029999999999999874, -0.8805930730630331 
0.04000000000000012, -0.857936298802868 
0.050000000000000405, -0.8374837004725094 
0.06000000000000069, -0.8198410573847974 
0.07000000000000098, -0.8057346701461642 
0.08000000000000126, -0.795609522343821 
0.09000000000000155, -0.7892858466351635 
0.10000000000000184, -0.7859677923441214 
0.11000000000000212, -0.7845910313716463 
0.12000000000000241, -0.784200237758047 
0.130000000000002, -0.7841188389340873 
0.1400000000000009, -0.7839231006582937 
0.1499999999999998, -0.7833486309614799 
0.1599999999999987, -0.7822278889306858 
0.1699999999999976, -0.7804941669447584 
0.1799999999999965, -0.7782248430777468 
0.1899999999999954, -0.7756441738200741 
0.1999999999999943, -0.7730345663644791 
0.2099999999999932, -0.7706155689992377 
0.2199999999999921, -0.7684840668148557 
0.229999999999991, -0.766629175224562 
0.2399999999999899, -0.7649800651928579 
0.2499999999999888, -0.7634564900589249 
0.2599999999999877, -0.7620102993049781 
0.2699999999999866, -0.7606495412578259 
0.2799999999999855, -0.7594402742683792 
0.2899999999999844, -0.7584885778637932 
0.2999999999999833, -0.7579102356541906 
0.3099999999999822, -0.7577989335048695 
0.3199999999999811, -0.7582055119249909 
0.32999999999998, -0.759135325624116 
0.3399999999999789, -0.7605597377714874 
0.3499999999999778, -0.7624320228345719 
0.35999999999997667, -0.7647022527094471 
0.36999999999997557, -0.7673325444185304 
0.37999999999997447, -0.7703145565119945 
0.38999999999997337, -0.7736853309441598 
0.39999999999997227, -0.7775317533751424 
0.40999999999997117, -0.781971656130027 
0.41999999999997006, -0.7870977452079935 
0.42999999999996896, -0.7928711413397694 
0.43999999999996786, -0.7989866472490534 
0.44999999999996676, -0.804833265282849 
0.45999999999996566, -0.8097085551371048 
0.46999999999996456, -0.8131822357596057 
0.47999999999996346, -0.8152465023976792 
0.48999999999996235, -0.8161580919798878 
0.49999999999996125, -0.8162278010554095 
0.5099999999999602, -0.8157507470383727 
0.519999999999959, -0.815104113929989 
0.529999999999958, -0.8150169959958282 
0.5399999999999568, -0.8170197587296257 
0.5499999999999557, -0.8238879566016285 
0.5599999999999546, -0.8394273066210868 
0.5699999999999535, -0.8668175834680593 
0.5799999999999524, -0.9061570046533584 
0.5899999999999513, -0.95380664709134 
0.5999999999999502, -1.0046848691305013 
0.6099999999999491, -1.0549245804191938 
0.619999999999948, -1.102444276197865 
0.6299999999999469, -1.1458760745262295 
0.6399999999999458, -1.1834033174795746 
0.6499999999999447, -1.2127876611669515 
0.6599999999999436, -1.2328743711455703 
0.6699999999999425, -1.244755847667279 
0.6799999999999414, -1.250917292336997 
0.6899999999999403, -1.2536764190330243 
0.6999999999999392, -1.254546110572923 
0.7099999999999381, -1.2544140692738113 
0.719999999999937, -1.2539696694994968 
0.7299999999999359, -1.2540504620312982 
0.7399999999999348, -1.2555175105517113 
0.7499999999999337, -1.2585677145884617 
0.7599999999999326, -1.2625008191237856 
0.7699999999999315, -1.2664424682805717 
0.7799999999999304, -1.2699352333022902 
0.7899999999999293, -1.2728882946380604 
0.7999999999999282, -1.2753318845597392 
0.8099999999999271, -1.2772969018116016 
0.819999999999926, -1.2788099815773417 
0.8299999999999249, -1.2799042463786663 
0.8399999999999238, -1.2806053592846833 
0.8499999999999227, -1.2809103042808687 
0.8599999999999216, -1.2807865745647429 
0.8699999999999205, -1.2802000685988575 
0.8799999999999194, -1.279154229359386 
0.8899999999999183, -1.2777116435947617 
0.8999999999999172, -1.2759749556115785 
0.9099999999999161, -1.2740288568137816 
0.919999999999915, -1.2719116639546177 
0.9299999999999139, -1.2697084609470244 
0.9399999999999128, -1.2676984893721335 
0.9499999999999117, -1.2662928177533461 
0.9599999999999106, -1.2656651819703009 
0.9699999999999095, -1.2655160200568694 
0.9799999999999084, -1.2652914135215405 
0.9899999999999073, -1.2644438915601477 
0.9999999999999062, -1.2624186880386032 
1.0099999999999052, -1.2585433955292245 
1.019999999999904, -1.2520793471305418 
1.029999999999903, -1.242512775666349 
1.039999999999902, -1.2298231743300876 
1.0499999999999008, -1.2143469087891958 
1.0599999999998997, -1.1963345988088026 
1.0699999999998986, -1.1756522934838465 
1.0799999999998975, -1.1518540883315698 
1.0899999999998964, -1.1247115706517878 
1.0999999999998953, -1.095351931307317 
1.1099999999998942, -1.0674974428788224 
1.119999999999893, -1.0465007341960573 
1.129999999999892, -1.0351196591107334 
1.1399999999998909, -1.0312672852767164 
1.1499999999998898, -1.0309870865345716 
1.1599999999998887, -1.0315528228113344 
1.1699999999998876, -1.0317531568180225 
1.1799999999998865, -1.031041899891934 
1.1899999999998854, -1.0288379148898499 
1.1999999999998843, -1.0240278736297312 
1.2099999999998832, -1.0145426067602874 
1.219999999999882, -0.9974020673578696 
1.229999999999881, -0.9703414992228598 
1.2399999999998799, -0.9347432869150628 
1.2499999999998788, -0.8958058383381078 
1.2599999999998777, -0.8586641264586529 
1.2699999999998766, -0.8257525625197959 
1.2799999999998755, -0.7973840730827937 
1.2899999999998744, -0.7731068444324504 
1.2999999999998733, -0.752464977667384 
1.3099999999998722, -0.7352221723331781 
1.319999999999871, -0.7213188184309282 
1.32999999999987, -0.7107165845392204 
1.3399999999998689, -0.703231182645108 
1.3499999999998678, -0.6984450990003767 
1.3599999999998666, -0.6957482585018907 
1.3699999999998655, -0.6944699725264127 
1.3799999999998644, -0.6940122789711649 
1.3899999999998633, -0.6939194468077734 
1.3999999999998622, -0.6938811646118536 
1.4099999999998611, -0.6937061160383647 
1.41999999999986, -0.6933018293201823 
1.429999999999859, -0.6926715071334159 
1.4399999999998578, -0.6919086702386592 
1.4499999999998567, -0.6911628807923497 
1.4599999999998556, -0.6905799465295761 
1.4699999999998545, -0.6902495820960033 
1.4799999999998534, -0.6901810734238067 
1.4899999999998523, -0.690302801726284 
1.4999999999998512, -0.6904829926270006 
1.5099999999998501, -0.6905758247164506 
1.519999999999849, -0.6904793292607216 
1.529999999999848, -0.6901746046186171 
1.5399999999998468, -0.6897361705539902 
1.5499999999998457, -0.6893341859133942 
1.5599999999998446, -0.6892487065527022 
1.5699999999998435, -0.6898905228020349 
1.5799999999998424, -0.6917992788083505 
1.5899999999998413, -0.6955871158334453 
1.5999999999998402, -0.7018273975971586 
1.6099999999998391, -0.7109401530133946 
1.619999999999838, -0.7231499040080169 
1.629999999999837, -0.7385528632843607 
1.6399999999998358, -0.7572616231764536 
1.6499999999998347, -0.7795549121194364 
1.6599999999998336, -0.8059484730242982 
1.6699999999998325, -0.8370534143751345 
1.6799999999998314, -0.8729527424917404 
1.6899999999998303, -0.9118666888516562 
1.6999999999998292, -0.9490443919218171 
1.709999999999828, -0.9786081125713624 
1.719999999999827, -0.9979255633088121 
1.729999999999826, -1.008678069275022 
1.7399999999998248, -1.0139918115972306 
1.7499999999998237, -1.0162520155123116 
1.7599999999998226, -1.0167894777039266 
1.7699999999998215, -1.0162681110557272 
1.7799999999998204, -1.015157792810681 
1.7899999999998193, -1.014366727076087 
1.7999999999998182, -1.016216744794387 
1.809999999999817, -1.0250317210529933 
1.819999999999816, -1.044987940405296 
1.8299999999998149, -1.0754388387276947 
1.8399999999998138, -1.1104513596260357 
1.8499999999998127, -1.1440841399172181 
1.8599999999998116, -1.1737003555020527 
1.8699999999998105, -1.1991186786761736 
1.8799999999998094, -1.22089292506202 
1.8899999999998083, -1.2393492043575993 
1.8999999999998072, -1.2543429569559241 
1.909999999999806, -1.26554754365661 
1.919999999999805, -1.2729923738229645 
1.9299999999998039, -1.2772900310700224 
1.9399999999998028, -1.2793440204585196 
1.9499999999998017, -1.27997125722895 
1.9599999999998006, -1.279801053609499 
1.9699999999997995, -1.2794003257311974 
1.9799999999997984, -1.2793636302260487 
1.9899999999997973, -1.2801086995399418 
1.9999999999997962, -1.281567675846968 
2.0099999999998173, -1.2833186616010206 
2.0199999999998384, -1.2850105533956857 
2.0299999999998595, -1.2865186109513582 
2.0399999999998806, -1.2878107233484895 
2.0499999999999017, -1.2888181451568754 
2.059999999999923, -1.2894394536369236 
2.069999999999944, -1.2896012848097218 
2.079999999999965, -1.2892883865118265 
2.089999999999986, -1.2885295376582984 
2.100000000000007, -1.2873600343356433 
2.1100000000000283, -1.2857895084185214 
2.1200000000000494, -1.2837964413117005 
2.1300000000000705, -1.2813464042434437 
2.1400000000000916, -1.2784085239841594 
2.1500000000001127, -1.2749481618134824 
2.160000000000134, -1.2709251536118482 
2.170000000000155, -1.2663957679991538 
2.180000000000176, -1.2617600717239745 
2.190000000000197, -1.2578832083222282 
2.2000000000002182, -1.2555826772144394 
2.2100000000002393, -1.2548072939890131 
2.2200000000002604, -1.2547198895575224 
2.2300000000002815, -1.2544346865090934 
2.2400000000003026, -1.253248869869711 
2.2500000000003237, -1.250324167059749 
2.260000000000345, -1.2442325338224511 
2.270000000000366, -1.2326758373294555 
2.280000000000387, -1.2129477141332283 
2.290000000000408, -1.1835085901580202 
2.3000000000004293, -1.145262425514408 
2.3100000000004504, -1.100667372581864 
2.3200000000004715, -1.0519548675495198 
2.3300000000004926, -1.0007396821869459 
2.3400000000005137, -0.9490227041595946 
2.3500000000005348, -0.9002883138785107 
2.360000000000556, -0.8592327056788104 
2.370000000000577, -0.8295500638061337 
2.380000000000598, -0.8116595142249586 
2.390000000000619, -0.8028802287360124 
2.4000000000006403, -0.7995524980023923 
2.4100000000006614, -0.7987785999742287 
2.4200000000006825, -0.7988507474245433 
2.4300000000007036, -0.7989199921117398 
2.4400000000007247, -0.7985631614396286 
2.450000000000746, -0.7974958393986299 
2.460000000000767, -0.7954497947934079 
2.470000000000788, -0.7922034334450754 
2.480000000000809, -0.7877406470134917 
2.49000000000083, -0.7823933318014311 
2.5000000000008513, -0.776749886237311 
2.5100000000008724, -0.771359902954043 
2.5200000000008935, -0.766524502344714 
2.5300000000009146, -0.7623020670084028 
2.5400000000009357, -0.7586174751643858 
2.550000000000957, -0.7553604849384173 
2.560000000000978, -0.7524438297922434 
2.570000000000999, -0.7498277833598463 
2.58000000000102, -0.7475202340343857 
2.5900000000010412, -0.7455612675641643 
2.6000000000010624, -0.744002680574795 
2.6100000000010835, -0.742890791852444 
2.6200000000011046, -0.7422551388548013 
2.6300000000011257, -0.7421007591895119 
2.6400000000011468, -0.742402346731704 
2.650000000001168, -0.74310338545422 
2.660000000001189, -0.7441256545120747 
2.67000000000121, -0.7453901911992785 
2.680000000001231, -0.7468436199959931 
2.6900000000012523, -0.7484795641150738 
2.7000000000012734, -0.7503451303121199 
2.7100000000012945, -0.7525263304794609 
2.7200000000013156, -0.7551114390743483 
2.7300000000013367, -0.7581329249373928 
2.740000000001358, -0.7614936738179059 
2.750000000001379, -0.7649156483047592 
2.7600000000014, -0.7679904751909831 
2.770000000001421, -0.7703533877696462 
2.780000000001442, -0.7718444661642235 
2.7900000000014633, -0.7725175380432022 
2.8000000000014844, -0.7725458627739974 
2.8100000000015055, -0.7721612010499481 
2.8200000000015266, -0.7716981387394417 
2.8300000000015477, -0.7717561009195978 
2.840000000001569, -0.7734552179342915 
2.85000000000159, -0.7786560885679235 
2.860000000001611, -0.7898274109043727 
2.870000000001632, -0.8092474903258988 
2.8800000000016532, -0.837796447802788 
2.8900000000016743, -0.874347838484822 
2.9000000000016954, -0.9164499710776995 
2.9100000000017165, -0.9616267901710389 
2.9200000000017377, -1.0080765415781923 
2.9300000000017588, -1.0543172694747294 
2.94000000000178, -1.0981814632398543 
2.950000000001801, -1.1362212386666188 
2.960000000001822, -1.1649653228482624 
2.970000000001843, -1.1834490957160824 
2.9800000000018643, -1.193703327467002 
2.9900000000018854, -1.198723550058434 
3.0000000000019065, -1.2008031968783635 
3.0100000000019276, -1.2012780102818654 
3.0200000000019487, -1.2009207183298938 
3.03000000000197, -1.2004408244221467 
3.040000000001991, -1.200867668799662 
3.050000000002012, -1.2033465972087607 
3.060000000002033, -1.2081670696875864 
3.070000000002054, -1.2143559311582064 
3.0800000000020753, -1.2206310892956274 
3.0900000000020964, -1.2262734207997648 
3.1000000000021175, -1.2311214533383672 
3.1100000000021386, -1.235249905176912 
3.1200000000021597, -1.2387703517180622 
3.130000000002181, -1.2417715102241114 
3.140000000002202, -1.2443030900633385 
3.150000000002223, -1.2463603174542974 
3.160000000002244, -1.2478840190830292 
3.1700000000022652, -1.24879791323383 
3.1800000000022863, -1.2490696515919408 
3.1900000000023074, -1.2487538177483999 
3.2000000000023285, -1.2479968866394358 
3.2100000000023496, -1.247010269478872 
3.2200000000023707, -1.2460004438856536 
3.230000000002392, -1.2450741156447405 
3.240000000002413, -1.244230548713554 
3.250000000002434, -1.2434850495952714 
3.260000000002455, -1.2429571130252934 
3.2700000000024763, -1.2427629582676454 
3.2800000000024974, -1.24282583794685 
3.2900000000025185, -1.2428598967764573 
3.3000000000025396, -1.2425136774826657 
3.3100000000025607, -1.2414702635930024 
3.3200000000025818, -1.2394767256317993 
3.330000000002603, -1.236387596174153 
3.340000000002624, -1.2322128779103427 
3.350000000002645, -1.2270851199431434 
3.360000000002666, -1.2211419470506661 
3.3700000000026873, -1.214420674586464 
3.3800000000027084, -1.206824842594826 
3.3900000000027295, -1.1981496751117233 
3.4000000000027506, -1.1881741893490787 
3.4100000000027717, -1.176916567009477 
3.420000000002793, -1.165133306143353 
3.430000000002814, -1.1546827004295495 
3.440000000002835, -1.1476861305251211 
3.450000000002856, -1.144638029837233 
3.460000000002877, -1.1440944285603951 
3.4700000000028983, -1.1443012468300804 
3.4800000000029194, -1.1441751366485837 
3.4900000000029405, -1.1430614151558633 
3.5000000000029616, -1.1401550038061474 
3.5100000000029827, -1.133921548838798 
3.520000000003004, -1.1215851034075917 
3.530000000003025, -1.0993732241136969 
3.540000000003046, -1.0648256717798175 
3.550000000003067, -1.019976727992289 
3.5600000000030882, -0.9706262774361092 
3.5700000000031094, -0.9220863849812753 
3.5800000000031305, -0.8770869669476319 
3.5900000000031516, -0.8366094847898943 
3.6000000000031727, -0.8011468228838247 
3.6100000000031938, -0.7712720302340034 
3.620000000003215, -0.7475665814679239 
3.630000000003236, -0.7302342635941026 
3.640000000003257, -0.7187877554863895 
3.650000000003278, -0.7120859782342601 
3.6600000000032993, -0.7086913457289788 
3.6700000000033204, -0.7072750533293393 
3.6800000000033415, -0.7068420719191882 
3.6900000000033626, -0.7067478870439148 
3.7000000000033837, -0.7066062235232556 
3.710000000003405, -0.706188663320215 
3.720000000003426, -0.7053690582763358 
3.730000000003447, -0.7041212010078126 
3.740000000003468, -0.7025377250977909 
3.750000000003489, -0.7008128920362887 
3.7600000000035103, -0.6991665416793664 
3.7700000000035314, -0.6977581735230076 
3.7800000000035525, -0.6966475920817928 
3.7900000000035736, -0.6958032144612644 
3.8000000000035947, -0.6951324655968056 
3.810000000003616, -0.6945223252318935 
3.820000000003637, -0.6938847721577388 
3.830000000003658, -0.6931934434454844 
3.840000000003679, -0.6925004616079998 
3.8500000000037002, -0.6919373786931484 
3.8600000000037213, -0.6917082032575335 
3.8700000000037424, -0.6920723761017278 
3.8800000000037635, -0.693309855145262 
3.8900000000037847, -0.6956708180182847 
3.9000000000038058, -0.6993305902238751 
3.910000000003827, -0.7043760498470167 
3.920000000003848, -0.7108339045134627 
3.930000000003869, -0.7187287709856427 
3.94000000000389, -0.7281498873910801 
3.9500000000039113, -0.7393104833736326 
3.9600000000039324, -0.7525869155256032 
3.9700000000039535, -0.7685045500349413 
3.9800000000039746, -0.7875722427544827 
3.9900000000039957, -0.8097783288232074 
4.000000000004016, -0.8337149931148147 
4.010000000003993, -0.8562000101372323 
4.02000000000397, -0.8738409893388226 
4.030000000003946, -0.8854055191640529 
4.040000000003923, -0.8919460630949085 
4.0500000000039, -0.8951767364494861 
4.0600000000038765, -0.8963982766834603 
4.070000000003853, -0.8963432568200137 
4.08000000000383, -0.895379690267891 
4.090000000003807, -0.8938387208590426 
4.100000000003783, -0.8926710153113746 
4.11000000000376, -0.8949881191601972 
4.120000000003737, -0.908786399662769 
4.130000000003713, -0.9480146650478432 
4.14000000000369, -1.0231677995196584 
4.150000000003667, -1.1229210927306645 
4.1600000000036434, -1.2195547430410107 
4.17000000000362, -1.2965655125308455 
4.180000000003597, -1.353363093832058 
4.1900000000035735, -1.3943372368040685 
4.20000000000355, -1.4231146405275437 
4.210000000003527, -1.4421274690166799 
4.220000000003504, -1.4535530479648453 
4.23000000000348, -1.4596677998405394 
4.240000000003457, -1.4624743784156455 
4.250000000003434, -1.4633779460453398 
4.26000000000341, -1.4632708338250004 
4.270000000003387, -1.46282224123236 
4.280000000003364, -1.462611578922796 
4.2900000000033405, -1.4628899316230477 
4.300000000003317, -1.46343365335364 
4.310000000003294, -1.463935869978372 
4.320000000003271, -1.4643497360302618 
4.330000000003247, -1.4647434581535372 
4.340000000003224, -1.4650139830949733 
4.350000000003201, -1.4648657619173773 
4.360000000003177, -1.4639462008892576 
4.370000000003154, -1.4619052851933143 
4.380000000003131, -1.4584166285131677 
4.390000000003107, -1.4532152633354065 
4.400000000003084, -1.4460763014996805 
4.410000000003061, -1.4366674262388335 
4.4200000000030375, -1.4243097335809818 
4.430000000003014, -1.4077197257760952 
4.440000000002991, -1.3849657643481454 
4.450000000002968, -1.3546843723614912 
4.460000000002944, -1.3204718428545463 
4.470000000002921, -1.2940576698645532 
4.480000000002898, -1.2834511511495106 
4.490000000002874, -1.2829506538243605 
4.500000000002851, -1.2847408043171527 
4.510000000002828, -1.2857888165398417 
4.520000000002804, -1.285420404594771 
4.530000000002781, -1.2829356207344211 
4.540000000002758, -1.275917275385024 
4.5500000000027345, -1.2559585177825228 
4.560000000002711, -1.1908876693064268 
4.570000000002688, -0.9519674687329989 
4.580000000002665, -0.31777143044020734 
4.590000000002641, 0.16945065150039285 
4.600000000002618, 0.30589850642227523 
4.610000000002595, 0.34359903015200627 
4.620000000002571, 0.35664397315339147 
4.630000000002548, 0.3618979047540007 
4.640000000002525, 0.3640777589191183 
4.6500000000025015, 0.36480079092013135 
4.660000000002478, 0.36473948285828606 
4.670000000002455, 0.3642554545859158 
4.6800000000024315, 0.363615440880591 
4.690000000002408, 0.3630642434130217 
4.700000000002385, 0.362847416701799 
4.710000000002362, 0.3632262024100883 
4.720000000002338, 0.3644884189108644 
4.730000000002315, 0.36691114073504966 
4.740000000002292, 0.3706055364898302 
4.750000000002268, 0.3752711004461956 
4.760000000002245, 0.3801315928422168 
4.770000000002222, 0.3842984863759931 
4.7800000000021985, 0.3872410321597556 
4.790000000002175, 0.3888619101128477 
4.800000000002152, 0.38923036091506974 
4.810000000002129, 0.3882702668988197 
4.820000000002105, 0.3854375525656281 
4.830000000002082, 0.37911011067092615 
4.840000000002059, 0.36505891658867573 
4.850000000002035, 0.3333997724237878 
4.860000000002012, 0.270056714738 
4.870000000001989, 0.18560650984260754 
4.880000000001965, 0.12453843883919771 
4.890000000001942, 0.09721819373460369 
4.900000000001919, 0.08702466847478464 
4.9100000000018955, 0.083123360130209 
4.920000000001872, 0.08143983906782017 
4.930000000001849, 0.0805898823567868 
