t, s[1].omega / s[0].omega 
0, -1.1400566417683016 
0.009999999999999995, -1.1454013814185935 
0.019999999999999934, -1.1499400597912117 
0.029999999999999874, -1.153411171306707 
0.04000000000000012, -1.1556843208193206 
0.050000000000000405, -1.1568412489848257 
0.06000000000000069, -1.1571217005459324 
0.07000000000000098, -1.1568418153229394 
0.08000000000000126, -1.156374327505487 
0.09000000000000155, -1.1561329090421641 
0.10000000000000184, -1.1564427849114745 
0.11000000000000212, -1.157358798855031 
0.12000000000000241, -1.1586761856717804 
0.130000000000002, -1.1601439723541442 
0.1400000000000009, -1.1616151341259653 
0.1499999999999998, -1.163021493005655 
0.1599999999999987, -1.164292324870229 
0.1699999999999976, -1.1653353791503993 
0.1799999999999965, -1.1660759317516582 
0.1899999999999954, -1.1664906762623029 
0.1999999999999943, -1.1666041519945218 
0.2099999999999932, -1.1664553864310412 
0.2199999999999921, -1.1660608939272383 
0.229999999999991, -1.1654003417217016 
0.2399999999999899, -1.164434835749193 
0.2499999999999888, -1.163145076188463 
0.2599999999999877, -1.1615621200598572 
0.2699999999999866, -1.159766056783283 
0.2799999999999855, -1.1578488976250165 
0.2899999999999844, -1.1558794703978958 
0.2999999999999833, -1.1539313196116425 
0.3099999999999822, -1.1521633434180518 
0.3199999999999811, -1.1508264587079369 
0.32999999999998, -1.1500982722829463 
0.3399999999999789, -1.149887748166902 
0.3499999999999778, -1.149855533369525 
0.35999999999997667, -1.1495969862231121 
0.36999999999997557, -1.1487554173700025 
0.37999999999997447, -1.1470351110682888 
0.38999999999997337, -1.1442293758998123 
0.39999999999997227, -1.1402995407114829 
0.40999999999997117, -1.1354070373477154 
0.41999999999997006, -1.1298147766988271 
0.42999999999996896, -1.123734544629833 
0.43999999999996786, -1.1172479779093432 
0.44999999999996676, -1.1103208101767414 
0.45999999999996566, -1.1028606449191451 
0.46999999999996456, -1.0947987003765738 
0.47999999999996346, -1.086229518649234 
0.48999999999996235, -1.077624250975387 
0.49999999999996125, -1.0699544718443728 
0.5099999999999602, -1.0643526410928632 
0.519999999999959, -1.0613021520068664 
0.529999999999958, -1.0602427129436147 
0.5399999999999568, -1.0601139214504796 
0.5499999999999557, -1.0600259671390844 
0.5599999999999546, -1.059389786249338 
0.5699999999999535, -1.0577066678082478 
0.5799999999999524, -1.0543578295200215 
0.5899999999999513, -1.048584388967074 
0.5999999999999502, -1.039796660589186 
0.6099999999999491, -1.0280913538576912 
0.619999999999948, -1.0143811498480892 
0.6299999999999469, -0.999835495870302 
0.6399999999999458, -0.9852581952855651 
0.6499999999999447, -0.9709528333696806 
0.6599999999999436, -0.9569271047119454 
0.6699999999999425, -0.9431458230150644 
0.6799999999999414, -0.9297388157047484 
0.6899999999999403, -0.9171524828174835 
0.6999999999999392, -0.9061679213641225 
0.7099999999999381, -0.8976491081041061 
0.719999999999937, -0.8920562595703192 
0.7299999999999359, -0.8891130551008721 
0.7399999999999348, -0.8879801171765214 
0.7499999999999337, -0.8877281422706821 
0.7599999999999326, -0.8876524176534695 
0.7699999999999315, -0.8872975007089554 
0.7799999999999304, -0.8863502646102445 
0.7899999999999293, -0.8845629637542023 
0.7999999999999282, -0.8817789634757809 
0.8099999999999271, -0.878039061419574 
0.819999999999926, -0.8736365206001038 
0.8299999999999249, -0.869000186031505 
0.8399999999999238, -0.8644896975734964 
0.8499999999999227, -0.8602859782759561 
0.8599999999999216, -0.8564156506223964 
0.8699999999999205, -0.85282906501239 
0.8799999999999194, -0.849468221183092 
0.8899999999999183, -0.8463055687867482 
0.8999999999999172, -0.8433548355168439 
0.9099999999999161, -0.8406635641362354 
0.919999999999915, -0.8383007865255889 
0.9299999999999139, -0.8363472283425102 
0.9399999999999128, -0.8348824790442517 
0.9499999999999117, -0.8339589725237209 
0.9599999999999106, -0.8335672426088117 
0.9699999999999095, -0.8336168484844899 
0.9799999999999084, -0.8339538555762116 
0.9899999999999073, -0.8344072852033888 
0.9999999999999062, -0.8348379417394881 
1.0099999999999052, -0.8351710921953689 
1.019999999999904, -0.8354075535872647 
1.029999999999903, -0.835609647542333 
1.039999999999902, -0.835862868600865 
1.0499999999999008, -0.8362278260723375 
1.0599999999998997, -0.8367025439971492 
1.0699999999998986, -0.8372092125407585 
1.0799999999998975, -0.8376157733912031 
1.0899999999998964, -0.8377917273811123 
1.0999999999998953, -0.8376700392885935 
1.1099999999998942, -0.837279943667836 
1.119999999999893, -0.836748654023871 
1.129999999999892, -0.8362927068077942 
1.1399999999998909, -0.8361997582082408 
1.1499999999998898, -0.8367767987660768 
1.1599999999998887, -0.8382589501867196 
1.1699999999998876, -0.8407269962073857 
1.1799999999998865, -0.8440986804827413 
1.1899999999998854, -0.8481988387382525 
1.1999999999998843, -0.8528497876518616 
1.2099999999998832, -0.8579297882781558 
1.219999999999882, -0.8633927361897239 
1.229999999999881, -0.8692653999250435 
1.2399999999998799, -0.8756293799644702 
1.2499999999998788, -0.8825760717694877 
1.2599999999998777, -0.8901124938718631 
1.2699999999998766, -0.8980141884210614 
1.2799999999998755, -0.9057090600546929 
1.2899999999998744, -0.9123896275307853 
1.2999999999998733, -0.9174121995971782 
1.3099999999998722, -0.9206270190009865 
1.319999999999871, -0.9223078810936958 
1.32999999999987, -0.9228688267002058 
1.3399999999998689, -0.9226956620407798 
1.3499999999998678, -0.92218039119904 
1.3599999999998666, -0.9219112857796002 
1.3699999999998655, -0.9229197212177717 
1.3799999999998644, -0.9267133193770759 
1.3899999999998633, -0.9347129175515893 
1.3999999999998622, -0.9472745719054793 
1.4099999999998611, -0.963340134153683 
1.41999999999986, -0.9812055815674692 
1.429999999999859, -0.9995066163865616 
1.4399999999998578, -1.0175773606772591 
1.4499999999998567, -1.0352660014171886 
1.4599999999998556, -1.0525795069437152 
1.4699999999998545, -1.0693281092910818 
1.4799999999998534, -1.0848505758462577 
1.4899999999998523, -1.09805156392119 
1.4999999999998512, -1.1079631954895768 
1.5099999999998501, -1.1144068370250302 
1.519999999999849, -1.1180002347080118 
1.529999999999848, -1.119621773179955 
1.5399999999998468, -1.1200072474860099 
1.5499999999998457, -1.1197152501721006 
1.5599999999998446, -1.1193177856271848 
1.5699999999998435, -1.119594546289171 
1.5799999999998424, -1.1214052076149588 
1.5899999999998413, -1.1251139643645565 
1.5999999999998402, -1.130228773597996 
1.6099999999998391, -1.1358431735677912 
1.619999999999838, -1.1412738534944635 
1.629999999999837, -1.146235724168839 
1.6399999999998358, -1.1506916037788326 
1.6499999999998347, -1.1546924597535324 
1.6599999999998336, -1.1583018989057277 
1.6699999999998325, -1.1615630202186455 
1.6799999999998314, -1.164467608320478 
1.6899999999998303, -1.166934290234588 
1.6999999999998292, -1.1688281063342232 
1.709999999999828, -1.1700316296591142 
1.719999999999827, -1.1705216086075647 
1.729999999999826, -1.170394714362163 
1.7399999999998248, -1.1698487257293664 
1.7499999999998237, -1.169152147758148 
1.7599999999998226, -1.1685818511911998 
1.7699999999998215, -1.1683085666318602 
1.7799999999998204, -1.1683288738022113 
1.7899999999998193, -1.168546472377296 
1.7999999999998182, -1.168902824029168 
1.809999999999817, -1.1693924488803968 
1.819999999999816, -1.169971664932567 
1.8299999999998149, -1.1705025749919138 
1.8399999999998138, -1.1707990267192958 
1.8499999999998127, -1.170706462459687 
1.8599999999998116, -1.1701492328038847 
1.8699999999998105, -1.1691381443971054 
1.8799999999998094, -1.1677423939143463 
1.8899999999998083, -1.1660377395972246 
1.8999999999998072, -1.164063841481946 
1.909999999999806, -1.1618170793440017 
1.919999999999805, -1.1592744108376334 
1.9299999999998039, -1.1564221727712345 
1.9399999999998028, -1.153265761059254 
1.9499999999998017, -1.1498262004535875 
1.9599999999998006, -1.1461706449361855 
1.9699999999997995, -1.142510126415559 
1.9799999999997984, -1.1392777327898618 
1.9899999999997973, -1.1369821598874055 
1.9999999999997962, -1.1358208642813181 
2.0099999999998173, -1.135477290066712 
2.0199999999998384, -1.1353641703324215 
2.0299999999998595, -1.1349319995146356 
2.0399999999998806, -1.1337187292330908 
2.0499999999999017, -1.1312587598935553 
2.059999999999923, -1.1270749829085944 
2.069999999999944, -1.1208563717847269 
2.079999999999965, -1.1126917887214103 
2.089999999999986, -1.103055333020988 
2.100000000000007, -1.0924944349712695 
2.1100000000000283, -1.081343218118716 
2.1200000000000494, -1.0696697665614838 
2.1300000000000705, -1.057387923712751 
2.1400000000000916, -1.0444394464861873 
2.1500000000001127, -1.0310434310054744 
2.160000000000134, -1.0179839131245547 
2.170000000000155, -1.0066722095979945 
2.180000000000176, -0.9985576818793198 
2.190000000000197, -0.9940951651037804 
2.2000000000002182, -0.9924254543565271 
2.2100000000002393, -0.9921597321690729 
2.2200000000002604, -0.9921954449618614 
2.2300000000002815, -0.9918696641337078 
2.2400000000003026, -0.9907270659618682 
2.2500000000003237, -0.9882787276335602 
2.260000000000345, -0.9839152061901599 
2.270000000000366, -0.9770827908823421 
2.280000000000387, -0.9677132943748697 
2.290000000000408, -0.9564966037327987 
2.3000000000004293, -0.9445405158651414 
2.3100000000004504, -0.9327438800864052 
2.3200000000004715, -0.9215243341322179 
2.3300000000004926, -0.9109397816879078 
2.3400000000005137, -0.9009057681106241 
2.3500000000005348, -0.8913542428328217 
2.360000000000556, -0.8823295271908936 
2.370000000000577, -0.874041211226481 
2.380000000000598, -0.8668565754071714 
2.390000000000619, -0.8611878052157664 
2.4000000000006403, -0.8572815798629806 
2.4100000000006614, -0.8550432592842722 
2.4200000000006825, -0.8540544878463937 
2.4300000000007036, -0.8537660536254613 
2.4400000000007247, -0.8536881716874397 
2.450000000000746, -0.8534628360147967 
2.460000000000767, -0.8528491401039222 
2.470000000000788, -0.8517039314171478 
2.480000000000809, -0.8499994410409928 
2.49000000000083, -0.8478482915971529 
2.5000000000008513, -0.8454703996764186 
2.5100000000008724, -0.8430943251728354 
2.5200000000008935, -0.8408672779342288 
2.5300000000009146, -0.8388309375438949 
2.5400000000009357, -0.8369511082753498 
2.550000000000957, -0.8351666316269835 
2.560000000000978, -0.8334351711046899 
2.570000000000999, -0.8317621401389689 
2.58000000000102, -0.8302048185929805 
2.5900000000010412, -0.8288533792435002 
2.6000000000010624, -0.827800177928294 
2.6100000000010835, -0.8271136812587301 
2.6200000000011046, -0.826828751250692 
2.6300000000011257, -0.8269505865690293 
2.6400000000011468, -0.8274593284276157 
2.650000000001168, -0.8283086435237429 
2.660000000001189, -0.8294260107951479 
2.67000000000121, -0.830726018460679 
2.680000000001231, -0.8321365586031293 
2.6900000000012523, -0.8336251342001573 
2.7000000000012734, -0.8352098213776342 
2.7100000000012945, -0.8369458506595603 
2.7200000000013156, -0.8388888570674338 
2.7300000000013367, -0.8410437573591079 
2.740000000001358, -0.8433152653997139 
2.750000000001379, -0.8454925694895475 
2.7600000000014, -0.8473077995521532 
2.770000000001421, -0.8485534961002401 
2.780000000001442, -0.8491684343093029 
2.7900000000014633, -0.8492352148507463 
2.8000000000014844, -0.8489398388610448 
2.8100000000015055, -0.8485668607301884 
2.8200000000015266, -0.8485398140761478 
2.8300000000015477, -0.8494427432626859 
2.840000000001569, -0.8519235266057459 
2.85000000000159, -0.8564543542594274 
2.860000000001611, -0.8631062432561544 
2.870000000001632, -0.871550894854215 
2.8800000000016532, -0.8812891427991397 
2.8900000000016743, -0.8919019972008952 
2.9000000000016954, -0.9031732652342115 
2.9100000000017165, -0.9150832659235044 
2.9200000000017377, -0.927724013881669 
2.9300000000017588, -0.9411461672391738 
2.94000000000178, -0.9551152112235186 
2.950000000001801, -0.9688427833670803 
2.960000000001822, -0.9810095190834289 
2.970000000001843, -0.9903865261936711 
2.9800000000018643, -0.9965879518418468 
2.9900000000018854, -1.0000980309735819 
3.0000000000019065, -1.0017091314405273 
3.0100000000019276, -1.002094409482565 
3.0200000000019487, -1.001749716610673 
3.03000000000197, -1.0011802405725871 
3.040000000001991, -1.0012127528889143 
3.050000000002012, -1.003217321490848 
3.060000000002033, -1.008741093927399 
3.070000000002054, -1.0184084785249563 
3.0800000000020753, -1.0312477564366493 
3.0900000000020964, -1.0454518807288606 
3.1000000000021175, -1.059576846333897 
3.1100000000021386, -1.0729662062274694 
3.1200000000021597, -1.0855220674683204 
3.130000000002181, -1.0973555811798996 
3.140000000002202, -1.1085252723346737 
3.150000000002223, -1.1188615559863178 
3.160000000002244, -1.1279100756680611 
3.1700000000022652, -1.1351048569611295 
3.1800000000022863, -1.1401283657563988 
3.1900000000023074, -1.1431198408586059 
3.2000000000023285, -1.1445317414510046 
3.2100000000023496, -1.1448730141396977 
3.2200000000023707, -1.1446113261605462 
3.230000000002392, -1.1442446762870493 
3.240000000002413, -1.1443656008305045 
3.250000000002434, -1.145490869232147 
3.260000000002455, -1.1477138607419646 
3.2700000000024763, -1.1506468254087778 
3.2800000000024974, -1.1537772751384399 
3.2900000000025185, -1.1567766385834874 
3.3000000000025396, -1.1595177804093126 
3.3100000000025607, -1.1619637849480944 
3.3200000000025818, -1.1640996952732872 
3.330000000002603, -1.1659266715371799 
3.340000000002624, -1.1674649788544749 
3.350000000002645, -1.168734757865963 
3.360000000002666, -1.169725555645537 
3.3700000000026873, -1.1703828897319888 
3.3800000000027084, -1.1706308479583523 
3.3900000000027295, -1.1704217909751338 
3.4000000000027506, -1.1697804520927657 
3.4100000000027717, -1.168817337744192 
3.420000000002793, -1.1677046167032268 
3.430000000002814, -1.1666114245902715 
3.440000000002835, -1.1656306428529133 
3.450000000002856, -1.1647795662516018 
3.460000000002877, -1.164087572388781 
3.4700000000028983, -1.1636481174346014 
3.4800000000029194, -1.1635353522037009 
3.4900000000029405, -1.1636725610164527 
3.5000000000029616, -1.1638232018105372 
3.5100000000029827, -1.1637008406272875 
3.520000000003004, -1.1630638291721633 
3.530000000003025, -1.1617569789922573 
3.540000000003046, -1.159738473643596 
3.550000000003067, -1.1570839560017063 
3.5600000000030882, -1.153934081665915 
3.5700000000031094, -1.1504110954929945 
3.5800000000031305, -1.1465680368255393 
3.5900000000031516, -1.142392033103739 
3.6000000000031727, -1.137834897294226 
3.6100000000031938, -1.1328433669144868 
3.620000000003215, -1.1273982611072384 
3.630000000003236, -1.121608800326433 
3.640000000003257, -1.115870790452986 
3.650000000003278, -1.1109274051879579 
3.6600000000032993, -1.1075436640773744 
3.6700000000033204, -1.1059038493382911 
3.6800000000033415, -1.1054529521404914 
3.6900000000033626, -1.1053744103182201 
3.7000000000033837, -1.105004504319855 
3.710000000003405, -1.1038303445645246 
3.720000000003426, -1.1013062873203094 
3.730000000003447, -1.0967594069775806 
3.740000000003468, -1.0895545836037186 
3.750000000003489, -1.0795109254817965 
3.7600000000035103, -1.0671602088465135 
3.7700000000035314, -1.0534342473757976 
3.7800000000035525, -1.039098154003875 
3.7900000000035736, -1.0244979257913014 
3.8000000000035947, -1.0096676921329246 
3.810000000003616, -0.9945695490567917 
3.820000000003637, -0.9793562407486442 
3.830000000003658, -0.964625834352686 
3.840000000003679, -0.9515215881090437 
3.8500000000037002, -0.9413849401664681 
3.8600000000037213, -0.9349558292225078 
3.8700000000037424, -0.9318314206579986 
3.8800000000037635, -0.9308172157235474 
3.8900000000037847, -0.9306998944290502 
3.9000000000038058, -0.9306503617660915 
3.910000000003827, -0.9301691832468538 
3.920000000003848, -0.9288864299447372 
3.930000000003869, -0.9264317151636892 
3.94000000000389, -0.922464384259772 
3.9500000000039113, -0.916875283347211 
3.9600000000039324, -0.9099886406451745 
3.9700000000039535, -0.9024728360739646 
3.9800000000039746, -0.8949829540097081 
3.9900000000039957, -0.8878991432025447 
4.000000000004016, -0.8813259160484742 
4.010000000003993, -0.8752179922202348 
4.02000000000397, -0.8694940450270945 
4.030000000003946, -0.8641017604135328 
4.040000000003923, -0.8590469111308469 
4.0500000000039, -0.8544044037848831 
4.0600000000038765, -0.8503165353972003 
4.070000000003853, -0.8469655665414303 
4.08000000000383, -0.8445060345609917 
4.090000000003807, -0.8429758680380143 
4.100000000003783, -0.8422469644811572 
4.11000000000376, -0.8420601110751346 
4.120000000003737, -0.8421158917391688 
4.130000000003713, -0.8421546052586363 
4.14000000000369, -0.8419950064368547 
4.150000000003667, -0.8415484917741699 
4.1600000000036434, -0.8408256868534936 
4.17000000000362, -0.8399239288401399 
4.180000000003597, -0.8389801599255113 
4.1900000000035735, -0.838107288966388 
4.20000000000355, -0.8373510762769873 
4.210000000003527, -0.8366837410208893 
4.220000000003504, -0.8360284839688885 
4.23000000000348, -0.8353036191229606 
4.240000000003457, -0.8344691955570014 
4.250000000003434, -0.8335561616665075 
4.26000000000341, -0.8326695690974029 
4.270000000003387, -0.8319684454756244 
4.280000000003364, -0.8316256008345204 
4.2900000000033405, -0.8317764862722441 
4.300000000003317, -0.8324810494722616 
4.310000000003294, -0.8337212078986942 
4.320000000003271, -0.8354296013885181 
4.330000000003247, -0.8375236099774239 
4.340000000003224, -0.8399265014544929 
4.350000000003201, -0.8425784590756203 
4.360000000003177, -0.8454475254102108 
4.370000000003154, -0.8485410139696077 
4.380000000003131, -0.8519066331673238 
4.390000000003107, -0.8556104486504641 
4.400000000003084, -0.8596839771852818 
4.410000000003061, -0.8640435968561822 
4.4200000000030375, -0.8684179469657171 
4.430000000003014, -0.8723706807386042 
4.440000000002991, -0.8754757619053167 
4.450000000002968, -0.8775249424987521 
4.460000000002944, -0.878573559116113 
4.470000000002921, -0.8788334851124493 
4.480000000002898, -0.8785781585646841 
4.490000000002874, -0.8781579992443979 
4.500000000002851, -0.8781144926677419 
4.510000000002828, -0.8792964921138745 
4.520000000002804, -0.8827864765785394 
4.530000000002781, -0.889485013739271 
4.540000000002758, -0.8995787754162017 
4.5500000000027345, -0.9124298062233887 
4.560000000002711, -0.927023850512354 
4.570000000002688, -0.9425132455021661 
4.580000000002665, -0.9584534212200262 
4.590000000002641, -0.9747392777050843 
4.600000000002618, -0.9913936835306212 
4.610000000002595, -1.0082780769384125 
4.620000000002571, -1.0247671683870878 
4.630000000002548, -1.0396195934461097 
4.640000000002525, -1.0514402930733877 
4.6500000000025015, -1.0595594718532408 
4.660000000002478, -1.064358063934777 
4.670000000002455, -1.0667507546539734 
4.6800000000024315, -1.0675944855642283 
4.690000000002408, -1.067507614425271 
4.700000000002385, -1.0670098293956136 
4.710000000002362, -1.0668006769706706 
4.720000000002338, -1.0679482156545093 
4.730000000002315, -1.0715713887279987 
4.740000000002292, -1.0779846653540543 
4.750000000002268, -1.0863289819737045 
4.760000000002245, -1.0952938910568628 
4.770000000002222, -1.103955474538781 
4.7800000000021985, -1.1119553534478945 
4.790000000002175, -1.119280770976901 
4.800000000002152, -1.12603773768291 
4.810000000002129, -1.1323179292478507 
4.820000000002105, -1.138119163712391 
4.830000000002082, -1.1432982676314332 
4.840000000002059, -1.147595647391288 
4.850000000002035, -1.1507656689992438 
4.860000000002012, -1.15273296008677 
4.870000000001989, -1.1536329143040218 
4.880000000001965, -1.1537339279650454 
4.890000000001942, -1.1533683570909106 
4.900000000001919, -1.1529264452336592 
4.9100000000018955, -1.1528209327773857 
4.920000000001872, -1.153325315778018 
4.930000000001849, -1.154415876199592 
