t, s[1].omega / s[0].omega 
0, -1.3799934898244521 
0.009999999999999995, -1.3790983704474102 
0.019999999999999934, -1.3777044539326657 
0.029999999999999874, -1.3757750594552018 
0.04000000000000012, -1.3732686837942827 
0.050000000000000405, -1.370133459747798 
0.06000000000000069, -1.3662770165217994 
0.07000000000000098, -1.3616101954471647 
0.08000000000000126, -1.3563302321997204 
0.09000000000000155, -1.3513405029282448 
0.10000000000000184, -1.347995967042742 
0.11000000000000212, -1.3467539028172506 
0.12000000000000241, -1.346676150694949 
0.130000000000002, -1.34654851375191 
0.1400000000000009, -1.3454769960489525 
0.1499999999999998, -1.34240057960379 
0.1599999999999987, -1.335052608900821 
0.1699999999999976, -1.3182083750618414 
0.1799999999999965, -1.2814361455187016 
0.1899999999999954, -1.2104517404244186 
0.1999999999999943, -1.0995540086348154 
0.2099999999999932, -0.9651183382710811 
0.2199999999999921, -0.8347913534243047 
0.229999999999991, -0.726838809315628 
0.2399999999999899, -0.645914200639738 
0.2499999999999888, -0.5889815786850582 
0.2599999999999877, -0.5506145109921172 
0.2699999999999866, -0.5255916798799587 
0.2799999999999855, -0.5097451402165092 
0.2899999999999844, -0.5000207794954796 
0.2999999999999833, -0.49428073362645203 
0.3099999999999822, -0.4910710423886614 
0.3199999999999811, -0.48942495807305 
0.32999999999998, -0.4887132443051712 
0.3399999999999789, -0.4885361104009145 
0.3499999999999778, -0.48864951362197306 
0.35999999999997667, -0.48891983632149827 
0.36999999999997557, -0.4893008694033557 
0.37999999999997447, -0.489824156140002 
0.38999999999997337, -0.4905909185960793 
0.39999999999997227, -0.4917575551751302 
0.40999999999997117, -0.4935161108397207 
0.41999999999997006, -0.49607046638251406 
0.42999999999996896, -0.49958825731776696 
0.43999999999996786, -0.5040911065231553 
0.44999999999996676, -0.5092938306971201 
0.45999999999996566, -0.5145485926539157 
0.46999999999996456, -0.5190865663434207 
0.47999999999996346, -0.5224116575755798 
0.48999999999996235, -0.5244441317586167 
0.49999999999996125, -0.5253482738771736 
0.5099999999999602, -0.525302343698115 
0.519999999999959, -0.5243586639843085 
0.529999999999958, -0.522356628613035 
0.5399999999999568, -0.5187816063206757 
0.5499999999999557, -0.5123667502392542 
0.5599999999999546, -0.49969870037356057 
0.5699999999999535, -0.4686866970451439 
0.5799999999999524, -0.3551333362296881 
0.5899999999999513, 0.21872681018758136 
0.5999999999999502, 0.9645475135275436 
0.6099999999999491, 1.0906236739709991 
0.619999999999948, 1.1111390269464236 
0.6299999999999469, 1.116071706625638 
0.6399999999999458, 1.1169074320196843 
0.6499999999999447, 1.115403382881449 
0.6599999999999436, 1.1103327320587257 
0.6699999999999425, 1.096109307791535 
0.6799999999999414, 1.058763060647014 
0.6899999999999403, 1.000888146814554 
0.6999999999999392, 0.9762753403765367 
0.7099999999999381, 0.9791733652819591 
0.719999999999937, 0.9840181055694298 
0.7299999999999359, 0.9865245055683214 
0.7399999999999348, 0.9871662929528793 
0.7499999999999337, 0.9861114364318858 
0.7599999999999326, 0.9822937363151946 
0.7699999999999315, 0.9709664607728866 
0.7799999999999304, 0.9310242950964641 
0.7899999999999293, 0.8056633602909038 
0.7999999999999282, 1.270289088722874 
0.8099999999999271, 1.6334856954516883 
0.819999999999926, 1.6668592752256246 
0.8299999999999249, 1.6721363837681182 
0.8399999999999238, 1.6723754333198233 
0.8499999999999227, 1.6689181480936326 
0.8599999999999216, 1.651110515596383 
0.8699999999999205, 1.4733977310689588 
0.8799999999999194, 0.5561102264500836 
0.8899999999999183, 0.6009211704485288 
0.8999999999999172, 0.6833974761373482 
0.9099999999999161, 0.70862788214073 
0.919999999999915, 0.717227320416149 
0.9299999999999139, 0.7203658595549537 
0.9399999999999128, 0.7211106374355656 
0.9499999999999117, 0.7202076268116532 
0.9599999999999106, 0.7172337887855993 
0.9699999999999095, 0.7100717693891789 
0.9799999999999084, 0.691916852805756 
0.9899999999999073, 0.6454698676842745 
0.9999999999999062, 0.6503748857732348 
1.0099999999999052, 1.1291842040222493 
1.019999999999904, 1.3123662377819802 
1.029999999999903, 1.3392221627573513 
1.039999999999902, 1.3448496017756726 
1.0499999999999008, 1.3456595644427038 
1.0599999999998997, 1.343663124773781 
1.0699999999998986, 1.3356835484415948 
1.0799999999998975, 1.3001164908562202 
1.0899999999998964, 1.1091613493956678 
1.0999999999998953, 0.8733512855548395 
1.1099999999998942, 0.9069381192369615 
1.119999999999893, 0.9336888900647633 
1.129999999999892, 0.9431152474366833 
1.1399999999998909, 0.9463513279312 
1.1499999999998898, 0.9469650959259681 
1.1599999999998887, 0.9457584766592859 
1.1699999999998876, 0.9421016609175098 
1.1799999999998865, 0.9334934153001864 
1.1899999999998854, 0.9165526031856184 
1.1999999999998843, 0.9264399583998614 
1.2099999999998832, 1.0635980434217058 
1.219999999999882, 1.1576602271816516 
1.229999999999881, 1.1829381303009971 
1.2399999999998799, 1.1897196855700423 
1.2499999999998788, 1.191304865440491 
1.2599999999998777, 1.1903037065902962 
1.2699999999998766, 1.1855045939118354 
1.2799999999998755, 1.1673283464763682 
1.2899999999998744, 1.0706361267603612 
1.2999999999998733, 0.646228016470303 
1.3099999999998722, 0.43417466204004124 
1.319999999999871, 0.46363112937196227 
1.32999999999987, 0.487355574380964 
1.3399999999998689, 0.4980006387405974 
1.3499999999998678, 0.5027432266870403 
1.3599999999998666, 0.5047524348796946 
1.3699999999998655, 0.5051951336762583 
1.3799999999998644, 0.504321135388639 
1.3899999999998633, 0.5016518101932321 
1.3999999999998622, 0.49533891721057416 
1.4099999999998611, 0.47904699942232687 
1.41999999999986, 0.42506192850604024 
1.429999999999859, 0.14918478900693904 
1.4399999999998578, -1.4448259245854738 
1.4499999999998567, -2.5271651021011063 
1.4599999999998556, -2.6510862448516948 
1.4699999999998545, -2.675331321749209 
1.4799999999998534, -2.68227875023961 
1.4899999999998523, -2.6840945442480586 
1.4999999999998512, -2.683579331668528 
1.5099999999998501, -2.6811645497870944 
1.519999999999849, -2.6751893409856424 
1.529999999999848, -2.6595758683064235 
1.5399999999998468, -2.638540060863206 
1.5499999999998457, -2.640644557432596 
1.5599999999998446, -2.6447074789454033 
1.5699999999998435, -2.6446825384042185 
1.5799999999998424, -2.6422953346053744 
1.5899999999998413, -2.643170243441264 
1.5999999999998402, -2.650283836150082 
1.6099999999998391, -2.65481060850519 
1.619999999999838, -2.65643677987657 
1.629999999999837, -2.6566424204908174 
1.6399999999998358, -2.6551310426204138 
1.6499999999998347, -2.6493736846484475 
1.6599999999998336, -2.6278660377181313 
1.6699999999998325, -2.5136169829606496 
1.6799999999998314, -1.4780952562083791 
1.6899999999998303, 0.3592669800435688 
1.6999999999998292, 0.6112907556952765 
1.709999999999828, 0.6518445985906054 
1.719999999999827, 0.6628522004318278 
1.729999999999826, 0.666657835688635 
1.7399999999998248, 0.668015490762302 
1.7499999999998237, 0.6683693006382373 
1.7599999999998226, 0.6683301336056078 
1.7699999999998215, 0.6683262502433166 
1.7799999999998204, 0.6688894909964306 
1.7899999999998193, 0.6708387940983215 
1.7999999999998182, 0.6751832323472567 
1.809999999999817, 0.6822909699600778 
1.819999999999816, 0.6908014374946247 
1.8299999999998149, 0.6983283291153957 
1.8399999999998138, 0.7034965421989204 
1.8499999999998127, 0.7063555867363297 
1.8599999999998116, 0.7074249411818799 
1.8699999999998105, 0.7069533717482737 
1.8799999999998094, 0.7044482706407351 
1.8899999999998083, 0.697498197212476 
1.8999999999998072, 0.676322883215284 
1.909999999999806, 0.5927142378080144 
1.919999999999805, 0.23736637435196334 
1.9299999999998039, -0.29872184261783985 
1.9399999999998028, -0.5058845357025905 
1.9499999999998017, -0.5665327618713556 
1.9599999999998006, -0.5883321349327999 
1.9699999999997995, -0.5976820043738209 
1.9799999999997984, -0.6020576006929608 
1.9899999999997973, -0.6040176302418032 
1.9999999999997962, -0.6045065476839608 
2.0099999999998173, -0.603772759696353 
2.0199999999998384, -0.6016262131909855 
2.0299999999998595, -0.597487793819034 
2.0399999999998806, -0.590485453480514 
2.0499999999999017, -0.5799306659286714 
2.059999999999923, -0.5662628023874139 
2.069999999999944, -0.5514728047933238 
2.079999999999965, -0.5379399844954003 
2.089999999999986, -0.5269597942125347 
2.100000000000007, -0.518602612986529 
2.1100000000000283, -0.5123711435141777 
2.1200000000000494, -0.5076995339713386 
2.1300000000000705, -0.504132883645606 
2.1400000000000916, -0.5013506683789478 
2.1500000000001127, -0.4991492466781577 
2.160000000000134, -0.4974210914750056 
2.170000000000155, -0.49613634898226266 
2.180000000000176, -0.4953268318150815 
2.190000000000197, -0.49507329742185807 
2.2000000000002182, -0.4954968180581873 
2.2100000000002393, -0.4967548088967083 
2.2200000000002604, -0.49904304688608836 
2.2300000000002815, -0.5026066926764944 
2.2400000000003026, -0.5077655567417538 
2.2500000000003237, -0.5149619038474326 
2.260000000000345, -0.524844092261597 
2.270000000000366, -0.5384077638635629 
2.280000000000387, -0.5572262759436322 
2.290000000000408, -0.5837893143767698 
2.3000000000004293, -0.6218100610702845 
2.3100000000004504, -0.6756494527252179 
2.3200000000004715, -0.7464092841704487 
2.3300000000004926, -0.8239884592544717 
2.3400000000005137, -0.8883151081242084 
2.3500000000005348, -0.9284002960756041 
2.360000000000556, -0.9489200786512976 
2.370000000000577, -0.9584436592196537 
2.380000000000598, -0.9625665158283336 
2.390000000000619, -0.9639853180040985 
2.4000000000006403, -0.9638118407449003 
2.4100000000006614, -0.9623965876917777 
2.4200000000006825, -0.9598388454604019 
2.4300000000007036, -0.9568776694259707 
2.4400000000007247, -0.9577757136732684 
2.450000000000746, -0.9778357482753297 
2.460000000000767, -1.0504326731575007 
2.470000000000788, -1.195744135438902 
2.480000000000809, -1.3580093950632104 
2.49000000000083, -1.4738812364985225 
2.5000000000008513, -1.5431785194988359 
2.5100000000008724, -1.5843174528990314 
2.5200000000008935, -1.609326195448234 
2.5300000000009146, -1.6243848860074663 
2.5400000000009357, -1.6329535866981353 
2.550000000000957, -1.6373398200470128 
2.560000000000978, -1.6391609978311 
2.570000000000999, -1.63948166556304 
2.58000000000102, -1.6390077156232903 
2.5900000000010412, -1.6382638550529403 
2.6000000000010624, -1.6375169228010749 
2.6100000000010835, -1.6366709944402167 
2.6200000000011046, -1.6356333569350956 
2.6300000000011257, -1.634720460811962 
2.6400000000011468, -1.634311658133651 
2.650000000001168, -1.634165340286734 
2.660000000001189, -1.6335359872509954 
2.67000000000121, -1.631451313980333 
2.680000000001231, -1.6261642285125828 
2.6900000000012523, -1.6137023240975847 
2.7000000000012734, -1.5853378669624463 
2.7100000000012945, -1.5245010271013673 
2.7200000000013156, -1.4065381051471797 
2.7300000000013367, -1.2101009283642037 
2.740000000001358, -0.9521731714242847 
2.750000000001379, -0.7093065755657512 
2.7600000000014, -0.543734799147564 
2.770000000001421, -0.45069948881785615 
2.780000000001442, -0.4017473905780765 
2.7900000000014633, -0.37604463917610004 
2.8000000000014844, -0.36233458821051034 
2.8100000000015055, -0.3549320429553181 
2.8200000000015266, -0.3509479091540912 
2.8300000000015477, -0.34887359572141996 
2.840000000001569, -0.3478991401111822 
2.85000000000159, -0.34758301107442097 
2.860000000001611, -0.3476902256769042 
2.870000000001632, -0.34811466034726757 
2.8800000000016532, -0.348846165224816 
2.8900000000016743, -0.3499624593230669 
2.9000000000016954, -0.35163547670910245 
2.9100000000017165, -0.3541510339040618 
2.9200000000017377, -0.35795009766932 
2.9300000000017588, -0.36369646476685075 
2.94000000000178, -0.3723277837999125 
2.950000000001801, -0.384899227043614 
2.960000000001822, -0.4018216061352284 
2.970000000001843, -0.42149363691319375 
2.9800000000018643, -0.4401228311802948 
2.9900000000018854, -0.45433812179520067 
3.0000000000019065, -0.4634403881081455 
3.0100000000019276, -0.46858068636762484 
3.0200000000019487, -0.4711170991201752 
3.03000000000197, -0.4719281123667482 
3.040000000001991, -0.4713589179284857 
3.050000000002012, -0.46924102286222 
3.060000000002033, -0.4647156443940318 
3.070000000002054, -0.45565644279339096 
3.0800000000020753, -0.4375343248043305 
3.0900000000020964, -0.40283541888161134 
3.1000000000021175, -0.3467590633210559 
3.1100000000021386, -0.2809264199042323 
3.1200000000021597, -0.2271689731911061 
3.130000000002181, -0.19308440172962002 
3.140000000002202, -0.17354237439697465 
3.150000000002223, -0.16238577120085668 
3.160000000002244, -0.15580702819265943 
3.1700000000022652, -0.15178072980268137 
3.1800000000022863, -0.14923690479253168 
3.1900000000023074, -0.1475827068273587 
3.2000000000023285, -0.14647193808872824 
3.2100000000023496, -0.14570248792562485 
3.2200000000023707, -0.1451734036351658 
3.230000000002392, -0.14487143766822883 
3.240000000002413, -0.1448837029146672 
3.250000000002434, -0.1454575222317066 
3.260000000002455, -0.14717296969390303 
3.2700000000024763, -0.15142639186276247 
3.2800000000024974, -0.16189831635756147 
3.2900000000025185, -0.18963792191979226 
3.3000000000025396, -0.27410399485235637 
3.3100000000025607, -0.6069605125480879 
3.3200000000025818, -2.5468055721297143 
3.330000000002603, -3.3272639216802573 
3.340000000002624, -3.3680790435829024 
3.350000000002645, -3.3744701962604076 
3.360000000002666, -3.375187954328284 
3.3700000000026873, -3.372945131823095 
3.3800000000027084, -3.364132984876887 
3.3900000000027295, -3.308971041948427 
3.4000000000027506, -3.0451373028818334 
3.4100000000027717, -3.1281669942529495 
3.420000000002793, -3.144964790225355 
3.430000000002814, -3.1464831655857735 
3.440000000002835, -3.1459287591241685 
3.450000000002856, -3.145861697103288 
3.460000000002877, -3.14522255552576 
3.4700000000028983, -3.144230823074267 
3.4800000000029194, -3.1438535888148396 
3.4900000000029405, -3.1411057517513123 
3.5000000000029616, -3.1216458017639885 
3.5100000000029827, -3.076767100182654 
3.520000000003004, -3.2710213511535415 
3.530000000003025, -3.3077656187555724 
3.540000000003046, -3.3138980750395914 
3.550000000003067, -3.3147482607123386 
3.5600000000030882, -3.3127283139520167 
3.5700000000031094, -3.3046134264578533 
3.5800000000031305, -3.259401730843698 
3.5900000000031516, -2.4377590349933334 
3.6000000000031727, -0.12162834924762664 
3.6100000000031938, 0.33468417384616156 
3.620000000003215, 0.42632233067439185 
3.630000000003236, 0.4521376506496485 
3.640000000003257, 0.4614795672220793 
3.650000000003278, 0.4652515529760214 
3.6600000000032993, 0.4665587239770992 
3.6700000000033204, 0.4663358177169184 
3.6800000000033415, 0.4645843477722261 
3.6900000000033626, 0.4603752421258093 
3.7000000000033837, 0.45062466370996523 
3.710000000003405, 0.4245401503864037 
3.720000000003426, 0.3335936027915375 
3.730000000003447, -0.11254572226791597 
3.740000000003468, -2.4144378376478315 
3.750000000003489, -3.2771721909492006 
3.7600000000035103, -3.3220630878258923 
3.7700000000035314, -3.3291546953658995 
3.7800000000035525, -3.330139088922315 
3.7900000000035736, -3.328233038300995 
3.8000000000035947, -3.320865416370645 
3.810000000003616, -3.2807897359926037 
3.820000000003637, -3.075391503380711 
3.830000000003658, -3.125945614438082 
3.840000000003679, -3.1440433729456267 
3.8500000000037002, -3.145771179209552 
3.8600000000037213, -3.145202392894678 
3.8700000000037424, -3.1452317915092713 
3.8800000000037635, -3.144859193763555 
3.8900000000037847, -3.1439577371192122 
3.9000000000038058, -3.143565318838741 
3.910000000003827, -3.141034828288772 
3.920000000003848, -3.122874715489237 
3.930000000003869, -3.0453524291600407 
3.94000000000389, -3.2975877345820033 
3.9500000000039113, -3.3485669894811543 
3.9600000000039324, -3.356118431279138 
3.9700000000039535, -3.3573015981408645 
3.9800000000039746, -3.355553332640909 
3.9900000000039957, -3.3481998068021284 
4.000000000004016, -3.3077181873665795 
4.010000000003993, -2.5868967786959542 
4.02000000000397, -0.6335086279907078 
4.030000000003946, -0.2904117954581363 
4.040000000003923, -0.20467873390184904 
4.0500000000039, -0.17653953497535874 
4.0600000000038765, -0.16576924706835272 
4.070000000003853, -0.16120168782659905 
4.08000000000383, -0.15913960069660163 
4.090000000003807, -0.15818800195527172 
4.100000000003783, -0.15776987825365038 
4.11000000000376, -0.15763907924989282 
4.120000000003737, -0.15770698431337296 
4.130000000003713, -0.15798221770405102 
4.14000000000369, -0.15855670597534136 
4.150000000003667, -0.15961529663044371 
4.1600000000036434, -0.16146926709091988 
4.17000000000362, -0.16463778528281506 
4.180000000003597, -0.17003117090851258 
4.1900000000035735, -0.17932258904695625 
4.20000000000355, -0.19556097178916887 
4.210000000003527, -0.2235395964522481 
4.220000000003504, -0.2673204299026822 
4.23000000000348, -0.32177951459795295 
4.240000000003457, -0.37022986690476783 
4.250000000003434, -0.40173548073436727 
4.26000000000341, -0.4187065671276562 
4.270000000003387, -0.4272020526192268 
4.280000000003364, -0.4312963545439753 
4.2900000000033405, -0.4330116548897622 
4.300000000003317, -0.4331969403859926 
4.310000000003294, -0.43204758487066125 
4.320000000003271, -0.4292921996206721 
4.330000000003247, -0.4242251713762471 
4.340000000003224, -0.41583644058056135 
4.350000000003201, -0.40345429506706204 
4.360000000003177, -0.3879430460633588 
4.370000000003154, -0.3720037057171354 
4.380000000003131, -0.3583833017798144 
4.390000000003107, -0.34816824448242684 
4.400000000003084, -0.3410214215672892 
4.410000000003061, -0.3361490941480643 
4.4200000000030375, -0.3328367279429335 
4.430000000003014, -0.33056383133141976 
4.440000000002991, -0.328969824355377 
4.450000000002968, -0.3278084696579649 
4.460000000002944, -0.3269236339984879 
4.470000000002921, -0.3262409670364442 
4.480000000002898, -0.32576815353290167 
4.490000000002874, -0.32560820133701873 
4.500000000002851, -0.32600333499948314 
4.510000000002828, -0.3274450382030624 
4.520000000002804, -0.3309297235680154 
4.530000000002781, -0.3385605698868111 
4.540000000002758, -0.3550356426946353 
4.5500000000027345, -0.3915023579240469 
4.560000000002711, -0.4752396131672626 
4.570000000002688, -0.664836953195488 
4.580000000002665, -1.0078529296326404 
4.590000000002641, -1.3684893797529374 
4.600000000002618, -1.5886063650454236 
4.610000000002595, -1.6964011229318199 
4.620000000002571, -1.74785521354124 
4.630000000002548, -1.7722226799005685 
4.640000000002525, -1.783344335680687 
4.6500000000025015, -1.7880315008914676 
4.660000000002478, -1.7896045969596905 
4.670000000002455, -1.789655005157881 
4.6800000000024315, -1.7890539891774897 
4.690000000002408, -1.7883323715713046 
4.700000000002385, -1.787537246297844 
4.710000000002362, -1.7864396409583443 
4.720000000002338, -1.7852522152679005 
4.730000000002315, -1.7845907326356891 
4.740000000002292, -1.7844069681674735 
4.750000000002268, -1.783813058961432 
4.760000000002245, -1.7815447397724662 
4.770000000002222, -1.7748797941073036 
4.7800000000021985, -1.755112226233648 
4.790000000002175, -1.6912188254630098 
4.800000000002152, -1.4795115235041763 
4.810000000002129, -0.9678594042970972 
4.820000000002105, -0.44534742890098344 
4.830000000002082, -0.20245996197011543 
4.840000000002059, -0.10966304629918922 
4.850000000002035, -0.07070692404408419 
4.860000000002012, -0.052141343664566075 
4.870000000001989, -0.042345093665382263 
4.880000000001965, -0.03680252730779269 
4.890000000001942, -0.033565713291143856 
4.900000000001919, -0.03174032827560885 
4.9100000000018955, -0.03093247268301851 
4.920000000001872, -0.03104569519582571 
4.930000000001849, -0.03224299271262755 
4.940000000001826, -0.03504681788888063 
