t, s[1].omega / s[0].omega 
0, -0.6199919817040438 
0.009999999999999995, -0.6193712633685228 
0.019999999999999934, -0.6190668621658839 
0.029999999999999874, -0.6189680157788683 
0.04000000000000012, -0.6189286406526725 
0.050000000000000405, -0.6188155553113913 
0.06000000000000069, -0.6185553401606538 
0.07000000000000098, -0.6181585342461338 
0.08000000000000126, -0.6177257271743277 
0.09000000000000155, -0.6174595577863372 
0.10000000000000184, -0.6176993871404608 
0.11000000000000212, -0.6189757637600006 
0.12000000000000241, -0.6220630716498549 
0.130000000000002, -0.627995974609982 
0.1400000000000009, -0.638018137682373 
0.1499999999999998, -0.6534610275566229 
0.1599999999999987, -0.675598751281589 
0.1699999999999976, -0.7055571451885401 
0.1799999999999965, -0.7443282103575475 
0.1899999999999954, -0.7928242250464946 
0.1999999999999943, -0.8516708869324352 
0.2099999999999932, -0.9200901127660419 
0.2199999999999921, -0.9933425016335817 
0.229999999999991, -1.0609218237115257 
0.2399999999999899, -1.1114904232774916 
0.2499999999999888, -1.1419812011012422 
0.2599999999999877, -1.1575939201372218 
0.2699999999999866, -1.1648022558068951 
0.2799999999999855, -1.1677845064091055 
0.2899999999999844, -1.168626144793211 
0.2999999999999833, -1.1683051745193587 
0.3099999999999822, -1.1674897980984045 
0.3199999999999811, -1.16725782977012 
0.32999999999998, -1.1695578888581175 
0.3399999999999789, -1.176293682149257 
0.3499999999999778, -1.1871834238967418 
0.35999999999997667, -1.199742710628099 
0.36999999999997557, -1.2116592677177977 
0.37999999999997447, -1.2219988174943035 
0.38999999999997337, -1.2307618834686898 
0.39999999999997227, -1.2382379357555926 
0.40999999999997117, -1.24468765192237 
0.41999999999997006, -1.2502422763147325 
0.42999999999996896, -1.254887462434142 
0.43999999999996786, -1.2585087212486952 
0.44999999999996676, -1.2610025855788005 
0.45999999999996566, -1.2623884910650305 
0.46999999999996456, -1.2628324731170606 
0.47999999999996346, -1.262598297201194 
0.48999999999996235, -1.262008159696283 
0.49999999999996125, -1.2614077225288216 
0.5099999999999602, -1.2610537593984374 
0.519999999999959, -1.2609859979802411 
0.529999999999958, -1.261084749828767 
0.5399999999999568, -1.261267549107921 
0.5499999999999557, -1.2615559435244228 
0.5599999999999546, -1.2619493046590615 
0.5699999999999535, -1.2623078004068264 
0.5799999999999524, -1.262392078996583 
0.5899999999999513, -1.2619694984362846 
0.5999999999999502, -1.260877496629448 
0.6099999999999491, -1.2590501437948975 
0.619999999999948, -1.2565181517474993 
0.6299999999999469, -1.253364030498306 
0.6399999999999458, -1.2496515937239696 
0.6499999999999447, -1.2453793323606401 
0.6599999999999436, -1.2404741528905228 
0.6699999999999425, -1.2348046630680651 
0.6799999999999414, -1.2282120041371483 
0.6899999999999403, -1.2206298378060723 
0.6999999999999392, -1.2123999945145365 
0.7099999999999381, -1.2046520041102904 
0.719999999999937, -1.1990240342062193 
0.7299999999999359, -1.1963120418859223 
0.7399999999999348, -1.1957075414229639 
0.7499999999999337, -1.1957980166953859 
0.7599999999999326, -1.195560395817765 
0.7699999999999315, -1.1943001672393503 
0.7799999999999304, -1.191123621360585 
0.7899999999999293, -1.184334561266694 
0.7999999999999282, -1.1709098225743317 
0.8099999999999271, -1.1468459089194085 
0.819999999999926, -1.1096213792888412 
0.8299999999999249, -1.0612192983505548 
0.8399999999999238, -1.0071692201375504 
0.8499999999999227, -0.9526113913702929 
0.8599999999999216, -0.9005626983673499 
0.8699999999999205, -0.8527494702614987 
0.8799999999999194, -0.8106879870444506 
0.8899999999999183, -0.7759329638681182 
0.8999999999999172, -0.7495740763719894 
0.9099999999999161, -0.7315938891616822 
0.919999999999915, -0.7207415552059346 
0.9299999999999139, -0.7150468916585113 
0.9399999999999128, -0.7125355203061745 
0.9499999999999117, -0.7116841349149714 
0.9599999999999106, -0.7115089743721165 
0.9699999999999095, -0.7114398852344366 
0.9799999999999084, -0.7111534528815877 
0.9899999999999073, -0.7104565210484426 
0.9999999999999062, -0.7092454404255367 
1.0099999999999052, -0.707527115801215 
1.019999999999904, -0.7054470413261462 
1.029999999999903, -0.7032536130024981 
1.039999999999902, -0.7011949076430157 
1.0499999999999008, -0.6994269732427891 
1.0599999999998997, -0.6979898202642849 
1.0699999999998986, -0.6968334250175603 
1.0799999999998975, -0.6958592097070679 
1.0899999999998964, -0.6949642500660094 
1.0999999999998953, -0.694082686272971 
1.1099999999998942, -0.6932136992799236 
1.119999999999893, -0.6924303891026515 
1.129999999999892, -0.6918739161938549 
1.1399999999998909, -0.6917370534883039 
1.1499999999998898, -0.6922357911393029 
1.1599999999998887, -0.6935703867115375 
1.1699999999998876, -0.6958883100896123 
1.1799999999998865, -0.699267478133495 
1.1899999999998854, -0.7037296008842437 
1.1999999999998843, -0.7092777436796005 
1.2099999999998832, -0.7159439337158001 
1.219999999999882, -0.7238355225696684 
1.229999999999881, -0.7331741523311003 
1.2399999999998799, -0.7443171927864435 
1.2499999999998788, -0.7577267227198662 
1.2599999999998777, -0.7737925058158879 
1.2699999999998766, -0.7923622644275088 
1.2799999999998755, -0.8120463487540407 
1.2899999999998744, -0.8301349941375891 
1.2999999999998733, -0.8440634471266145 
1.3099999999998722, -0.8531019123652364 
1.319999999999871, -0.858178555482368 
1.32999999999987, -0.8606183062869113 
1.3399999999998689, -0.8613989078927714 
1.3499999999998678, -0.8610645812175456 
1.3599999999998666, -0.8598995178738331 
1.3699999999998655, -0.8582497220379988 
1.3799999999998644, -0.8572706106456579 
1.3899999999998633, -0.8608028688517511 
1.3999999999998622, -0.878994562618973 
1.4099999999998611, -0.930658287770798 
1.41999999999986, -1.0311641432051835 
1.429999999999859, -1.1627440845111119 
1.4399999999998578, -1.2828142649249201 
1.4499999999998567, -1.3709015704338887 
1.4599999999998556, -1.4308294150831025 
1.4699999999998545, -1.4709496266830844 
1.4799999999998534, -1.4971226076469883 
1.4899999999998523, -1.5131739114362044 
1.4999999999998512, -1.5221424517667805 
1.5099999999998501, -1.5265845689721451 
1.519999999999849, -1.5283731852745874 
1.529999999999848, -1.528692534365526 
1.5399999999998468, -1.5283110643876077 
1.5499999999998457, -1.527845005273133 
1.5599999999998446, -1.5276867937185221 
1.5699999999998435, -1.5277739841582276 
1.5799999999998424, -1.527830963419197 
1.5899999999998413, -1.5278175082517613 
1.5999999999998402, -1.527887950485707 
1.6099999999998391, -1.5279999796748671 
1.619999999999838, -1.527794985991045 
1.629999999999837, -1.5267706609427605 
1.6399999999998358, -1.524322060843621 
1.6499999999998347, -1.5196604307233916 
1.6599999999998336, -1.511824147816834 
1.6699999999998325, -1.4997631056430962 
1.6799999999998314, -1.4822088258728487 
1.6899999999998303, -1.4570802524078443 
1.6999999999998292, -1.4205168097169032 
1.709999999999828, -1.3664834410832536 
1.719999999999827, -1.291278268281859 
1.729999999999826, -1.2089779266296419 
1.7399999999998248, -1.152567192224201 
1.7499999999998237, -1.132509145241206 
1.7599999999998226, -1.1310739470884965 
1.7699999999998215, -1.1337086439317572 
1.7799999999998204, -1.1357113890112531 
1.7899999999998193, -1.1363358299153448 
1.7999999999998182, -1.1354080603125272 
1.809999999999817, -1.1321086991039686 
1.819999999999816, -1.123682831709404 
1.8299999999998149, -1.1016376113637776 
1.8399999999998138, -1.0395335848831078 
1.8499999999998127, -0.8681906793920311 
1.8599999999998116, -0.5406653663361263 
1.8699999999998105, -0.2519790710418221 
1.8799999999998094, -0.11608741871676295 
1.8899999999998083, -0.060851657937921834 
1.8999999999998072, -0.036476374463196085 
1.909999999999806, -0.024432344826544307 
1.919999999999805, -0.017899374273227905 
1.9299999999998039, -0.014107061305974777 
1.9399999999998028, -0.011804655242932264 
1.9499999999998017, -0.010378498999299204 
1.9599999999998006, -0.009519731986160688 
1.9699999999997995, -0.009094491835357913 
1.9799999999997984, -0.009102540801911887 
1.9899999999997973, -0.009696568655052359 
1.9999999999997962, -0.011287536843569524 
2.0099999999998173, -0.01484554094112081 
2.0199999999998384, -0.022734664306341152 
2.0299999999998595, -0.041059576526846976 
2.0399999999998806, -0.08471805452652495 
2.0499999999999017, -0.1487638030377185 
2.059999999999923, 0.7406815835715383 
2.069999999999944, 1.9384678037933198 
2.079999999999965, 1.9881982322227745 
2.089999999999986, 1.9935041940340466 
2.100000000000007, 1.9932737489446155 
2.1100000000000283, 1.9878806161204725 
2.1200000000000494, 1.9457457034434782 
2.1300000000000705, 1.101370208846242 
2.1400000000000916, 0.6483335516667417 
2.1500000000001127, 0.8350391242151657 
2.160000000000134, 0.8788722219927747 
2.170000000000155, 0.8906711319912779 
2.180000000000176, 0.8944136291886965 
2.190000000000197, 0.895255295707084 
2.2000000000002182, 0.894422847622716 
2.2100000000002393, 0.8918590474728983 
2.2200000000002604, 0.8868105292508606 
2.2300000000002815, 0.8800517259209053 
2.2400000000003026, 0.8891861585065302 
2.2500000000003237, 0.9523392250980954 
2.260000000000345, 1.0175604378628993 
2.270000000000366, 1.0445174970048092 
2.280000000000387, 1.0534590148840877 
2.290000000000408, 1.056224894991526 
2.3000000000004293, 1.0562684437812568 
2.3100000000004504, 1.0537656019108126 
2.3200000000004715, 1.0453112742003425 
2.3300000000004926, 1.0122884662452596 
2.3400000000005137, 0.8406831321353854 
2.3500000000005348, 0.39644874238833544 
2.360000000000556, 0.26457941500400817 
2.370000000000577, 0.277142695905955 
2.380000000000598, 0.29138817325544053 
2.390000000000619, 0.2989244387261859 
2.4000000000006403, 0.30267981145138345 
2.4100000000006614, 0.3044601248245826 
2.4200000000006825, 0.30506945401343344 
2.4300000000007036, 0.3047821158061287 
2.4400000000007247, 0.30351505390603933 
2.450000000000746, 0.300751571017548 
2.460000000000767, 0.2950711922371639 
2.470000000000788, 0.28246976988609096 
2.480000000000809, 0.24948574049793937 
2.49000000000083, 0.1368294599944632 
2.5000000000008513, -0.37430153478098066 
2.5100000000008724, -1.6096203686734711 
2.5200000000008935, -2.129969019664311 
2.5300000000009146, -2.2391538114336447 
2.5400000000009357, -2.2668519539971745 
2.550000000000957, -2.27500490991111 
2.560000000000978, -2.2772175859789723 
2.570000000000999, -2.277211287497332 
2.58000000000102, -2.2762480968672874 
2.5900000000010412, -2.2746089476712195 
2.6000000000010624, -2.271778780036122 
2.6100000000010835, -2.2681761745343487 
2.6200000000011046, -2.266559145793916 
2.6300000000011257, -2.266793267271803 
2.6400000000011468, -2.2660488100423155 
2.650000000001168, -2.261347895409294 
2.660000000001189, -2.24053685344122 
2.67000000000121, -2.1737585493239004 
2.680000000001231, -2.3966782197997647 
2.6900000000012523, -2.62331002721948 
2.7000000000012734, -2.667397493294471 
2.7100000000012945, -2.6786783534029683 
2.7200000000013156, -2.6823156953873246 
2.7300000000013367, -2.68299697295691 
2.740000000001358, -2.6816782270721324 
2.750000000001379, -2.677725807777767 
2.7600000000014, -2.667124351228474 
2.770000000001421, -2.6308314938344948 
2.780000000001442, -2.5391409341188065 
2.7900000000014633, -2.5351540610588286 
2.8000000000014844, -2.5514817775215635 
2.8100000000015055, -2.5549255919344382 
2.8200000000015266, -2.5545185707805365 
2.8300000000015477, -2.55357821001268 
2.840000000001569, -2.5555456570087545 
2.85000000000159, -2.5583887616940206 
2.860000000001611, -2.5596573158576374 
2.870000000001632, -2.5599805022115496 
2.8800000000016532, -2.5594299733667376 
2.8900000000016743, -2.556469895067998 
2.9000000000016954, -2.54480515049627 
2.9100000000017165, -2.4844708716587327 
2.9200000000017377, -1.9315017882407683 
2.9300000000017588, 0.16338106166809852 
2.94000000000178, 0.6045272014431204 
2.950000000001801, 0.6628997389179464 
2.960000000001822, 0.677043535291697 
2.970000000001843, 0.6816781050590239 
2.9800000000018643, 0.6832949591852964 
2.9900000000018854, 0.6836862117323494 
3.0000000000019065, 0.6835203047728179 
3.0100000000019276, 0.683153872978374 
3.0200000000019487, 0.6828669852379622 
3.03000000000197, 0.6829230736951246 
3.040000000001991, 0.6835410495724039 
3.050000000002012, 0.6848087386417905 
3.060000000002033, 0.6865930185557236 
3.070000000002054, 0.688547575701593 
3.0800000000020753, 0.6902601773993404 
3.0900000000020964, 0.6914170462945987 
3.1000000000021175, 0.6918259361301634 
3.1100000000021386, 0.6912669612660209 
3.1200000000021597, 0.6891449044241899 
3.130000000002181, 0.6834932151800724 
3.140000000002202, 0.6665871209645731 
3.150000000002223, 0.595390024678661 
3.160000000002244, 0.09113777076473997 
3.1700000000022652, -1.4777964068878935 
3.1800000000022863, -1.9174470450445977 
3.1900000000023074, -1.9810729304179184 
3.2000000000023285, -1.9942395617938071 
3.2100000000023496, -1.997386728336269 
3.2200000000023707, -1.9976889582441255 
3.230000000002392, -1.9972387589847327 
3.240000000002413, -1.997327186141235 
3.250000000002434, -1.998071424160226 
3.260000000002455, -1.9985945006043107 
3.2700000000024763, -1.9986986509389522 
3.2800000000024974, -1.9987252371918252 
3.2900000000025185, -1.9984732950919017 
3.3000000000025396, -1.9970576649669922 
3.3100000000025607, -1.992664060622554 
3.3200000000025818, -1.9801549201428172 
3.330000000002603, -1.9425194551352778 
3.340000000002624, -1.8193904336301745 
3.350000000002645, -1.424561061373556 
3.360000000002666, -0.6874683520704209 
3.3700000000026873, -0.21567233583677708 
3.3800000000027084, -0.0518260187604526 
3.3900000000027295, 0.00621517341952096 
3.4000000000027506, 0.03001867935426645 
3.4100000000027717, 0.04117942434734541 
3.420000000002793, 0.04682955838409602 
3.430000000002814, 0.04971960207889928 
3.440000000002835, 0.05100754919785959 
3.450000000002856, 0.05116354869588739 
3.460000000002877, 0.050271069182088644 
3.4700000000028983, 0.048068387832343275 
3.4800000000029194, 0.043768011138451 
3.4900000000029405, 0.03544164151867942 
3.5000000000029616, 0.018109705506642725 
3.5100000000029827, -0.022753205185532123 
3.520000000003004, -0.13878940968474543 
3.530000000003025, -0.5200822814064969 
3.540000000003046, -1.347703043949784 
3.550000000003067, -1.8705870120553552 
3.5600000000030882, -2.0293943393576996 
3.5700000000031094, -2.080743412973571 
3.5800000000031305, -2.099840001754108 
3.5900000000031516, -2.107245554961488 
3.6000000000031727, -2.109815282248344 
3.6100000000031938, -2.1101556904673457 
3.620000000003215, -2.109362551661884 
3.630000000003236, -2.1078743663225774 
3.640000000003257, -2.1054718884570662 
3.650000000003278, -2.101826974800726 
3.6600000000032993, -2.098443635723797 
3.6700000000033204, -2.0975964036506145 
3.6800000000033415, -2.0978253890528924 
3.6900000000033626, -2.0967147765367624 
3.7000000000033837, -2.0912751049662086 
3.710000000003405, -2.067881957291082 
3.720000000003426, -1.9590203776660355 
3.730000000003447, -2.1100004559634042 
3.740000000003468, -2.8960554696634135 
3.750000000003489, -2.9949243940770436 
3.7600000000035103, -3.010379974215172 
3.7700000000035314, -3.0141917783897556 
3.7800000000035525, -3.0144805541777027 
3.7900000000035736, -3.012313239293027 
3.8000000000035947, -3.005437842141608 
3.810000000003616, -2.977855325029636 
3.820000000003637, -2.843752584455518 
3.830000000003658, -2.8111233740866926 
3.840000000003679, -2.8413123711128057 
3.8500000000037002, -2.846067401072443 
3.8600000000037213, -2.845959555574974 
3.8700000000037424, -2.8455074798328406 
3.8800000000037635, -2.8464701502763603 
3.8900000000037847, -2.8469046682762693 
3.9000000000038058, -2.846649250673562 
3.910000000003827, -2.846260639322341 
3.920000000003848, -2.84392963887861 
3.930000000003869, -2.8305135762484115 
3.94000000000389, -2.679169835301007 
3.9500000000039113, 0.3919270446203976 
3.9600000000039324, 2.6539493985586295 
3.9700000000039535, 2.679488280635579 
3.9800000000039746, 2.6809910630854654 
3.9900000000039957, 2.67693212316754 
4.000000000004016, 2.6171628962434306 
4.010000000003993, -1.5753294099522968 
4.02000000000397, -3.0593002765816557 
4.030000000003946, -3.1049931855782367 
4.040000000003923, -3.1093815975887837 
4.0500000000039, -3.109303318748577 
4.0600000000038765, -3.1084201946074366 
4.070000000003853, -3.1065379705773926 
4.08000000000383, -3.1035421622800152 
4.090000000003807, -3.103065217783419 
4.100000000003783, -3.102735437756169 
4.11000000000376, -3.0978629040673975 
4.120000000003737, -3.085849878267084 
4.130000000003713, -3.1171897762273213 
4.14000000000369, -3.1380856430722064 
4.150000000003667, -3.1430277852317277 
4.1600000000036434, -3.1438891390159873 
4.17000000000362, -3.142279419202281 
4.180000000003597, -3.1354032624261796 
4.1900000000035735, -3.1030128296273074 
4.20000000000355, -2.7248447983344892 
4.210000000003527, 0.6224142816001103 
4.220000000003504, 1.0725809956272372 
4.23000000000348, 1.1093108328925703 
4.240000000003457, 1.1167337730017528 
4.250000000003434, 1.11871228145811 
4.26000000000341, 1.1191195260722195 
4.270000000003387, 1.1190622814102995 
4.280000000003364, 1.11908757838288 
4.2900000000033405, 1.1195511092203225 
4.300000000003317, 1.120549694327866 
4.310000000003294, 1.1218475799443834 
4.320000000003271, 1.123051432992008 
4.330000000003247, 1.1238680915837849 
4.340000000003224, 1.1241476376454957 
4.350000000003201, 1.1237046247841087 
4.360000000003177, 1.1219190790491957 
4.370000000003154, 1.1163096346370007 
4.380000000003131, 1.0930461935327185 
4.390000000003107, 0.8836359823775914 
4.400000000003084, -2.1962991125059173 
4.410000000003061, -3.043413541554916 
4.4200000000030375, -3.092019991392429 
4.430000000003014, -3.0993364770234524 
4.440000000002991, -3.100169762682493 
4.450000000002968, -3.0987942607911485 
4.460000000002944, -3.0947764260247714 
4.470000000002921, -3.083524735584249 
4.480000000002898, -3.0737016095424337 
4.490000000002874, -3.077656487381188 
4.500000000002851, -3.0786299779358375 
4.510000000002828, -3.0765432629332565 
4.520000000002804, -3.076989715444475 
4.530000000002781, -3.0823629010157854 
4.540000000002758, -3.0847838475122087 
4.5500000000027345, -3.085218719948632 
4.560000000002711, -3.0842073605131803 
4.570000000002688, -3.078432436922531 
4.580000000002665, -3.03848832581771 
4.590000000002641, -2.0948261492114493 
4.600000000002618, 1.2357979454842167 
4.610000000002595, 1.3809061422977313 
4.620000000002571, 1.3955342974792322 
4.630000000002548, 1.3983773785791835 
4.640000000002525, 1.3982172849662493 
4.6500000000025015, 1.395792445261653 
4.660000000002478, 1.3892898364598516 
4.670000000002455, 1.3747729221793192 
4.6800000000024315, 1.3542878962332097 
4.690000000002408, 1.344367497200204 
4.700000000002385, 1.3453448071465115 
4.710000000002362, 1.3475236144712983 
4.720000000002338, 1.3482505419064654 
4.730000000002315, 1.3471182825849357 
4.740000000002292, 1.3424518137138053 
4.750000000002268, 1.3267337986022345 
4.760000000002245, 1.2841009646758728 
4.770000000002222, 1.396022953207412 
4.7800000000021985, 1.5530134224975196 
4.790000000002175, 1.5826434863457113 
4.800000000002152, 1.5884914912657853 
4.810000000002129, 1.5891838470637876 
4.820000000002105, 1.586661842048465 
4.830000000002082, 1.5742480069785982 
4.840000000002059, 1.4633099917101613 
4.850000000002035, -0.3201059808387676 
4.860000000002012, -1.652755222760936 
4.870000000001989, -1.8352961386599145 
4.880000000001965, -1.8662855941945071 
4.890000000001942, -1.873364247095417 
4.900000000001919, -1.8748085467758322 
4.9100000000018955, -1.8743584630013874 
4.920000000001872, -1.8737628375386755 
4.930000000001849, -1.8750353647024725 
4.940000000001826, -1.8781756663205775 
4.950000000001802, -1.8810999804841582 
4.960000000001779, -1.882956928718078 
