t, s[1].omega / s[0].omega 
0, -1.2798944646313204 
0.009999999999999995, -1.2683424484273669 
0.019999999999999934, -1.2546473772596096 
0.029999999999999874, -1.2383059140415702 
0.04000000000000012, -1.2186228044783358 
0.050000000000000405, -1.1953552190275918 
0.06000000000000069, -1.170192413196505 
0.07000000000000098, -1.1479636629587 
0.08000000000000126, -1.133972169229948 
0.09000000000000155, -1.128668599474501 
0.10000000000000184, -1.1281583896474345 
0.11000000000000212, -1.1288974131157623 
0.12000000000000241, -1.1292582839455694 
0.130000000000002, -1.1285876692483943 
0.1400000000000009, -1.1261838914104965 
0.1499999999999998, -1.1204386979162009 
0.1599999999999987, -1.1075512127319531 
0.1699999999999976, -1.079629873613679 
0.1799999999999965, -1.0250705305015075 
0.1899999999999954, -0.9391012588774243 
0.1999999999999943, -0.8378209038050113 
0.2099999999999932, -0.7459416892177827 
0.2199999999999921, -0.674794719473248 
0.229999999999991, -0.6231611691132481 
0.2399999999999899, -0.5862532187678926 
0.2499999999999888, -0.5598275896548924 
0.2599999999999877, -0.5408660046229865 
0.2699999999999866, -0.5273164267259781 
0.2799999999999855, -0.5177626699703575 
0.2899999999999844, -0.5111897520969844 
0.2999999999999833, -0.506840256580755 
0.3099999999999822, -0.5041323063493217 
0.3199999999999811, -0.5026143442276633 
0.32999999999998, -0.501939668474624 
0.3399999999999789, -0.5018505850894737 
0.3499999999999778, -0.5021676867711748 
0.35999999999997667, -0.5027835901681434 
0.36999999999997557, -0.5036615865258194 
0.37999999999997447, -0.5048378458200797 
0.38999999999997337, -0.5064232063325996 
0.39999999999997227, -0.5086012085273884 
0.40999999999997117, -0.5116216054905997 
0.41999999999997006, -0.5157805172504568 
0.42999999999996896, -0.5213483228614332 
0.43999999999996786, -0.5283789594282046 
0.44999999999996676, -0.5364170221728297 
0.45999999999996566, -0.5443999889814112 
0.46999999999996456, -0.5511212681645088 
0.47999999999996346, -0.5559195986732205 
0.48999999999996235, -0.5588339381230956 
0.49999999999996125, -0.560235670538918 
0.5099999999999602, -0.5604620285471344 
0.519999999999959, -0.5596450478794447 
0.529999999999958, -0.5576248142287108 
0.5399999999999568, -0.5537769326257078 
0.5499999999999557, -0.5464743726830635 
0.5599999999999546, -0.5312111303958928 
0.5699999999999535, -0.49245159561774293 
0.5799999999999524, -0.35815138878745195 
0.5899999999999513, 0.1654817831924825 
0.5999999999999502, 0.7488911549773724 
0.6099999999999491, 0.8749838189434065 
0.619999999999948, 0.8996241289157666 
0.6299999999999469, 0.9062498115462769 
0.6399999999999458, 0.908012582007913 
0.6499999999999447, 0.9075611701256463 
0.6599999999999436, 0.905009202991657 
0.6699999999999425, 0.8989782243098805 
0.6799999999999414, 0.8865287669915217 
0.6899999999999403, 0.865674226691089 
0.6999999999999392, 0.84342311342245 
0.7099999999999381, 0.83117162131852 
0.719999999999937, 0.8281853366295827 
0.7299999999999359, 0.8285265015780384 
0.7399999999999348, 0.8292232440632554 
0.7499999999999337, 0.8293827356006183 
0.7599999999999326, 0.8285795991944707 
0.7699999999999315, 0.8259500834094734 
0.7799999999999304, 0.818576634287291 
0.7899999999999293, 0.7933423574325134 
0.7999999999999282, 0.6522378805584313 
0.8099999999999271, -0.8841673359967631 
0.819999999999926, -2.8873266658657157 
0.8299999999999249, -3.022141818279772 
0.8399999999999238, -3.0407075342565024 
0.8499999999999227, -3.0449763816323197 
0.8599999999999216, -3.045295150408318 
0.8699999999999205, -3.0431994877643573 
0.8799999999999194, -3.0366116785119006 
0.8899999999999183, -3.0113428936830986 
0.8999999999999172, -2.952743283335532 
0.9099999999999161, -2.9644271576124246 
0.919999999999915, -2.972685680105389 
0.9299999999999139, -2.9732870323616902 
0.9399999999999128, -2.9723231691053984 
0.9499999999999117, -2.9734318221985427 
0.9599999999999106, -2.974888961489227 
0.9699999999999095, -2.9750576325589675 
0.9799999999999084, -2.974794767043519 
0.9899999999999073, -2.9729484516315754 
0.9999999999999062, -2.962217273033178 
1.0099999999999052, -2.8418597839457904 
1.019999999999904, 0.580910344632636 
1.029999999999903, 2.3053678073855397 
1.039999999999902, 2.3326647147771125 
1.0499999999999008, 2.3350136781121793 
1.0599999999998997, 2.33275857660785 
1.0699999999998986, 2.3144384751148137 
1.0799999999998975, 1.8228590659285893 
1.0899999999998964, 1.0665870603414631 
1.0999999999998953, 1.3210426047449995 
1.1099999999998942, 1.3540177381478635 
1.119999999999893, 1.3605222883039165 
1.129999999999892, 1.3618669095324527 
1.1399999999998909, 1.3615789867282266 
1.1499999999998898, 1.3609089702358763 
1.1599999999998887, 1.361475917655775 
1.1699999999998876, 1.3651787343302277 
1.1799999999998865, 1.3711631478716209 
1.1899999999998854, 1.3762370750549051 
1.1999999999998843, 1.3790835449697665 
1.2099999999998832, 1.3801123570083993 
1.219999999999882, 1.379686371334979 
1.229999999999881, 1.3770087905989299 
1.2399999999998799, 1.3661264485025242 
1.2499999999998788, 1.2838530585415857 
1.2599999999998777, -1.2911839824566513 
1.2699999999998766, -3.266012737376441 
1.2799999999998755, -3.3263906885962795 
1.2899999999998744, -3.3333024278704806 
1.2999999999998733, -3.3337058319507284 
1.3099999999998722, -3.331820020402529 
1.319999999999871, -3.3257590112835302 
1.32999999999987, -3.3095489193596634 
1.3399999999998689, -3.3077749500530174 
1.3499999999998678, -3.3116679451109134 
1.3599999999998666, -3.3110194431932976 
1.3699999999998655, -3.3098706815985772 
1.3799999999998644, -3.31297791083272 
1.3899999999998633, -3.3147442655369255 
1.3999999999998622, -3.314871376997165 
1.4099999999998611, -3.3138032389290175 
1.41999999999986, -3.306716664801166 
1.429999999999859, -3.220934163383119 
1.4399999999998578, 0.7952519818231821 
1.4499999999998567, 2.5662647413280864 
1.4599999999998556, 2.5864258902763466 
1.4699999999998545, 2.587633105877177 
1.4799999999998534, 2.5834158795623177 
1.4899999999998523, 2.5287807082317153 
1.4999999999998512, 0.2538424989539011 
1.5099999999998501, 0.013418222748058086 
1.519999999999849, 0.21447655431132776 
1.529999999999848, 0.2834507220462319 
1.5399999999998468, 0.30753205164076486 
1.5499999999998457, 0.31726267377746475 
1.5599999999998446, 0.32157755859689124 
1.5699999999998435, 0.32342170906579887 
1.5799999999998424, 0.3238370244059431 
1.5899999999998413, 0.32308453094550255 
1.5999999999998402, 0.32088407002916314 
1.6099999999998391, 0.3161443781942108 
1.619999999999838, 0.3056946176558276 
1.629999999999837, 0.27911014625995 
1.6399999999998358, 0.19201394368499386 
1.6499999999998347, -0.2065742196598309 
1.6599999999998336, -1.48331282885306 
1.6699999999998325, -2.150343949931189 
1.6799999999998314, -2.2850300184817733 
1.6899999999998303, -2.3198938645870015 
1.6999999999998292, -2.3310192261677036 
1.709999999999828, -2.3345962843031076 
1.719999999999827, -2.335201795306503 
1.729999999999826, -2.3343551436535277 
1.7399999999998248, -2.332467121241116 
1.7499999999998237, -2.3289421228580327 
1.7599999999998226, -2.323119162958419 
1.7699999999998215, -2.318556443244592 
1.7799999999998204, -2.3186756260023307 
1.7899999999998193, -2.3192290414721213 
1.7999999999998182, -2.3173706176324407 
1.809999999999817, -2.3092499302063825 
1.819999999999816, -2.29084841090991 
1.8299999999998149, -2.3361543353750225 
1.8399999999998138, -2.412379828179123 
1.8499999999998127, -2.4399330056931157 
1.8599999999998116, -2.4491685990595577 
1.8699999999998105, -2.452681752983331 
1.8799999999998094, -2.453685188055138 
1.8899999999998083, -2.4529532715694353 
1.8999999999998072, -2.450282835083462 
1.909999999999806, -2.444184249932995 
1.919999999999805, -2.428912139638146 
1.9299999999998039, -2.3812445220433953 
1.9399999999998028, -2.2682166157179955 
1.9499999999998017, -2.245115225540286 
1.9599999999998006, -2.2657006263900237 
1.9699999999997995, -2.2718523552559127 
1.9799999999997984, -2.2725611023959136 
1.9899999999997973, -2.2712236655710827 
1.9999999999997962, -2.270868902583356 
2.0099999999998173, -2.274931523421368 
2.0199999999998384, -2.2796428494570518 
2.0299999999998595, -2.2822016858024328 
2.0399999999998806, -2.283291629869834 
2.0499999999999017, -2.2833885709646395 
2.059999999999923, -2.2820614696602854 
2.069999999999944, -2.2778947324680314 
2.079999999999965, -2.2668871687624863 
2.089999999999986, -2.2360456657765253 
2.100000000000007, -2.1313065284162334 
2.1100000000000283, -1.6680328330255059 
2.1200000000000494, -0.4913803232473069 
2.1300000000000705, 0.057045877583442026 
2.1400000000000916, 0.18442411180015708 
2.1500000000001127, 0.22202719074280072 
2.160000000000134, 0.2362192712002377 
2.170000000000155, 0.2423957477781274 
2.180000000000176, 0.24515786691150504 
2.190000000000197, 0.24611705216570612 
2.2000000000002182, 0.24580967815583082 
2.2100000000002393, 0.24419828978552743 
2.2200000000002604, 0.24063387864779778 
2.2300000000002815, 0.2332162224498752 
2.2400000000003026, 0.21637914716695797 
2.2500000000003237, 0.17063676754423188 
2.260000000000345, 0.006304920989518502 
2.270000000000366, -0.766515105955426 
2.280000000000387, -2.193184859130406 
2.290000000000408, -2.5025368483384582 
2.3000000000004293, -2.5540609471871454 
2.3100000000004504, -2.56809342957684 
2.3200000000004715, -2.572681598126125 
2.3300000000004926, -2.5737252676947255 
2.3400000000005137, -2.5728280503074323 
2.3500000000005348, -2.570076258961613 
2.360000000000556, -2.563637114951082 
2.370000000000577, -2.5483106485987563 
2.380000000000598, -2.5305850250537363 
2.390000000000619, -2.532363034037716 
2.4000000000006403, -2.5358554258716866 
2.4100000000006614, -2.5357376506758955 
2.4200000000006825, -2.5329470063900597 
2.4300000000007036, -2.5326618018483638 
2.4400000000007247, -2.5419772602553534 
2.450000000000746, -2.5494509224839836 
2.460000000000767, -2.5525101191892516 
2.470000000000788, -2.5534863566295423 
2.480000000000809, -2.5529763941947 
2.49000000000083, -2.550112761931928 
2.5000000000008513, -2.5415292121976347 
2.5100000000008724, -2.513753523955742 
2.5200000000008935, -2.388377791676715 
2.5300000000009146, -1.4872016031162574 
2.5400000000009357, 0.14256077354707225 
2.550000000000957, 0.44777435348622985 
2.560000000000978, 0.5028162616946712 
2.570000000000999, 0.5184757838648566 
2.58000000000102, 0.5241507376029257 
2.5900000000010412, 0.5263054860828608 
2.6000000000010624, 0.5268345177406174 
2.6100000000010835, 0.5263433721915682 
2.6200000000011046, 0.5249334877583626 
2.6300000000011257, 0.5224488111468747 
2.6400000000011468, 0.5188960295599679 
2.650000000001168, 0.5170140971813203 
2.660000000001189, 0.5340184319059975 
2.67000000000121, 0.6084267860687632 
2.680000000001231, 0.7050166797772002 
2.6900000000012523, 0.7546439303285278 
2.7000000000012734, 0.7726292953152972 
2.7100000000012945, 0.7790253897554668 
2.7200000000013156, 0.7810777809824851 
2.7300000000013367, 0.7809023868430991 
2.740000000001358, 0.7785987171102706 
2.750000000001379, 0.7725297290248052 
2.7600000000014, 0.7576965567541138 
2.770000000001421, 0.7235894244065488 
2.780000000001442, 0.6676592516158429 
2.7900000000014633, 0.6238975343540563 
2.8000000000014844, 0.6102902331992841 
2.8100000000015055, 0.609726130806745 
2.8200000000015266, 0.6113924406339615 
2.8300000000015477, 0.6126677616517351 
2.840000000001569, 0.6131789165682234 
2.85000000000159, 0.6128333758823457 
2.860000000001611, 0.6112829584089666 
2.870000000001632, 0.6073924633921177 
2.8800000000016532, 0.5974150743106507 
2.8900000000016743, 0.5656669543063193 
2.9000000000016954, 0.40997892021317617 
2.9100000000017165, -0.8120232277330242 
2.9200000000017377, -2.4084654026079515 
2.9300000000017588, -2.61149444881855 
2.94000000000178, -2.6463768060605584 
2.950000000001801, -2.655659642424849 
2.960000000001822, -2.658174674938272 
2.970000000001843, -2.658036201621162 
2.9800000000018643, -2.6561848712247533 
2.9900000000018854, -2.6517768499470122 
3.0000000000019065, -2.6411304976220285 
3.0100000000019276, -2.626294056569133 
3.0200000000019487, -2.626174682951938 
3.03000000000197, -2.6292614150892466 
3.040000000001991, -2.6290051546112863 
3.050000000002012, -2.6259004223299804 
3.060000000002033, -2.6260232264244525 
3.070000000002054, -2.636289784941073 
3.0800000000020753, -2.643382994828229 
3.0900000000020964, -2.6460281850685474 
3.1000000000021175, -2.6467008793447846 
3.1100000000021386, -2.645736152550029 
3.1200000000021597, -2.6416945483068237 
3.130000000002181, -2.628671035650659 
3.140000000002202, -2.57684491612791 
3.150000000002223, -2.227768943034456 
3.160000000002244, -0.24820098826842535 
3.1700000000022652, 0.5140059034852327 
3.1800000000022863, 0.608776772095734 
3.1900000000023074, 0.6300158463027558 
3.2000000000023285, 0.6368067578106881 
3.2100000000023496, 0.6392606050746075 
3.2200000000023707, 0.6399916945124021 
3.230000000002392, 0.6398819122696937 
3.240000000002413, 0.6393408469668926 
3.250000000002434, 0.6388030505635119 
3.260000000002455, 0.6393283659298905 
3.2700000000024763, 0.6437046747094928 
3.2800000000024974, 0.6566936363383538 
3.2900000000025185, 0.6790586759605224 
3.3000000000025396, 0.7014667698353887 
3.3100000000025607, 0.7160619328131927 
3.3200000000025818, 0.7235023771252826 
3.330000000002603, 0.726745957333305 
3.340000000002624, 0.7276103821525318 
3.350000000002645, 0.7266327670886434 
3.360000000002666, 0.7230615921537702 
3.3700000000026873, 0.7134378217598617 
3.3800000000027084, 0.6851943836334804 
3.3900000000027295, 0.5973537073785657 
3.4000000000027506, 0.4187154374548082 
3.4100000000027717, 0.30059216488856355 
3.420000000002793, 0.2763694169100816 
3.430000000002814, 0.2764949241638276 
3.440000000002835, 0.27910365781397783 
3.450000000002856, 0.2809630221416866 
3.460000000002877, 0.2819685591421047 
3.4700000000028983, 0.28230880664359176 
3.4800000000029194, 0.28206382001948876 
3.4900000000029405, 0.28114600705541426 
3.5000000000029616, 0.27921995119906184 
3.5100000000029827, 0.27545182473399704 
3.520000000003004, 0.2677288454215993 
3.530000000003025, 0.2499062684272432 
3.540000000003046, 0.1997750083807483 
3.550000000003067, 0.0113689284526901 
3.5600000000030882, -0.7848322238726375 
3.5700000000031094, -1.840643254476977 
3.5800000000031305, -2.1272787349991567 
3.5900000000031516, -2.1864149907342005 
3.6000000000031727, -2.201341311767556 
3.6100000000031938, -2.205423512408204 
3.620000000003215, -2.2061218338363204 
3.630000000003236, -2.2056014722337594 
3.640000000003257, -2.204708840147987 
3.650000000003278, -2.203363272555594 
3.6600000000032993, -2.201254025992506 
3.6700000000033204, -2.199455854948506 
3.6800000000033415, -2.1990881359149124 
3.6900000000033626, -2.1987640709910776 
3.7000000000033837, -2.196242242282988 
3.710000000003405, -2.1853049836947704 
3.720000000003426, -2.124231376387385 
3.730000000003447, -1.684259321193355 
3.740000000003468, -1.3265846405834256 
3.750000000003489, -5.745859917997881 
3.7600000000035103, -5.762575890413089 
3.7700000000035314, -5.760783024388551 
3.7800000000035525, -5.711360502974112 
3.7900000000035736, 3.613308743140892 
3.8000000000035947, 3.680591718714472 
3.810000000003616, 3.6817455194856654 
3.820000000003637, 3.6774343173744186 
3.830000000003658, 3.6410409738167466 
3.840000000003679, 3.6455962226841065 
3.8500000000037002, 3.6515735834434606 
3.8600000000037213, 3.651266443779119 
3.8700000000037424, 3.651282926251118 
3.8800000000037635, 3.6506220004733883 
3.8900000000037847, 3.649548480702671 
3.9000000000038058, 3.6485625008115776 
3.910000000003827, 3.639534828497305 
3.920000000003848, 3.64279400775862 
3.930000000003869, 3.6719099046959514 
3.94000000000389, 3.67413692766592 
3.9500000000039113, 3.671104848408813 
3.9600000000039324, 3.5411759895652786 
3.9700000000039535, -5.721101153666494 
3.9800000000039746, -5.749565445681742 
3.9900000000039957, -5.748540949046978 
4.000000000004016, -5.72102065422797 
4.010000000003993, -1.127935019728831 
4.02000000000397, -1.5416470281491788 
4.030000000003946, -1.9276916871451708 
4.040000000003923, -1.9945141188688933 
4.0500000000039, -2.007311594829674 
4.0600000000038765, -2.0100375009404776 
4.070000000003853, -2.0099369304064565 
4.08000000000383, -2.0091780220880717 
4.090000000003807, -2.0099601049187084 
4.100000000003783, -2.0127012794931813 
4.11000000000376, -2.015256153769841 
4.120000000003737, -2.016733902190584 
4.130000000003713, -2.017469843666531 
4.14000000000369, -2.0175535871885915 
4.150000000003667, -2.0165373750698707 
4.1600000000036434, -2.013470423036769 
4.17000000000362, -2.006343934049793 
4.180000000003597, -1.9905926200906081 
4.1900000000035735, -1.9547394757592234 
4.20000000000355, -1.8643617688448781 
4.210000000003527, -1.606375010217128 
4.220000000003504, -1.0255146856834905 
4.23000000000348, -0.519679607342374 
4.240000000003457, -0.31726169878757327 
4.250000000003434, -0.2449183983304259 
4.26000000000341, -0.2161004649514558 
4.270000000003387, -0.20328130692695737 
4.280000000003364, -0.19711394913928015 
4.2900000000033405, -0.1940205081126915 
4.300000000003317, -0.19248405329821067 
4.310000000003294, -0.19181503082044332 
4.320000000003271, -0.19169655900430138 
4.330000000003247, -0.1920062605645234 
4.340000000003224, -0.19274995604043144 
4.350000000003201, -0.19404978167355952 
4.360000000003177, -0.19617075477893003 
4.370000000003154, -0.19959716498986696 
4.380000000003131, -0.205206393154045 
4.390000000003107, -0.21465002116619333 
4.400000000003084, -0.23114154487617777 
4.410000000003061, -0.2607589302867718 
4.4200000000030375, -0.3127081585574577 
4.430000000003014, -0.39107342267807954 
4.440000000002991, -0.4764562607513283 
4.450000000002968, -0.5387142281290731 
4.460000000002944, -0.5725099888082201 
4.470000000002921, -0.5886808007812834 
4.480000000002898, -0.5962029803140815 
4.490000000002874, -0.5995701669310896 
4.500000000002851, -0.6007033466638447 
4.510000000002828, -0.6002682106972903 
4.520000000002804, -0.5981682795773524 
4.530000000002781, -0.5934939499583914 
4.540000000002758, -0.5839448342488627 
4.5500000000027345, -0.5646913837800496 
4.560000000002711, -0.5280673386441295 
4.570000000002688, -0.4699034417484479 
4.580000000002665, -0.40241966753239894 
4.590000000002641, -0.346660635675641 
4.600000000002618, -0.3100222216065648 
4.610000000002595, -0.28799393780454136 
4.620000000002571, -0.2747689861587842 
4.630000000002548, -0.2665618801265127 
4.640000000002525, -0.26126033647881247 
4.6500000000025015, -0.25770773237787176 
4.660000000002478, -0.25525713229734587 
4.670000000002455, -0.25354418127892686 
4.6800000000024315, -0.2523784870803098 
4.690000000002408, -0.25169507383506884 
4.700000000002385, -0.25154195592630335 
4.710000000002362, -0.25210200022571483 
4.720000000002338, -0.2537659584344419 
4.730000000002315, -0.2573039040355485 
4.740000000002292, -0.2642538295658934 
4.750000000002268, -0.27783399810363774 
4.760000000002245, -0.3051928812456386 
4.770000000002222, -0.3630418839042286 
4.7800000000021985, -0.4895985681480912 
4.790000000002175, -0.7470644054905107 
4.800000000002152, -1.1221698571027183 
4.810000000002129, -1.4392948865709694 
4.820000000002105, -1.6172809002045732 
4.830000000002082, -1.702472570453778 
4.840000000002059, -1.7410402279576431 
4.850000000002035, -1.757775720296 
4.860000000002012, -1.7646514834574485 
4.870000000001989, -1.76712359065685 
4.880000000001965, -1.7675788826063314 
4.890000000001942, -1.7671663351015325 
4.900000000001919, -1.7666128665554783 
4.9100000000018955, -1.7661963163668328 
4.920000000001872, -1.76567270131277 
4.930000000001849, -1.764926504525969 
4.940000000001826, -1.764348718179597 
4.950000000001802, -1.76416016016416 
4.960000000001779, -1.7638306215886275 
4.970000000001756, -1.7624017140568125 
