t, s[1].omega / s[0].omega 
0, -0.8699976230785648 
0.009999999999999995, -0.8697492051665037 
0.019999999999999934, -0.8694599705132091 
0.029999999999999874, -0.8690831041273214 
0.04000000000000012, -0.8685726616183398 
0.050000000000000405, -0.8679123290795502 
0.06000000000000069, -0.8671318504594424 
0.07000000000000098, -0.8663098618326208 
0.08000000000000126, -0.8655674514760513 
0.09000000000000155, -0.8650516127093908 
0.10000000000000184, -0.8649053165952841 
0.11000000000000212, -0.86523110764426 
0.12000000000000241, -0.866066963790896 
0.130000000000002, -0.8673878175683429 
0.1400000000000009, -0.8691269531757382 
0.1499999999999998, -0.8712013474200108 
0.1599999999999987, -0.8735315440586368 
0.1699999999999976, -0.8760555075499086 
0.1799999999999965, -0.8787362524085118 
0.1899999999999954, -0.8815587578146985 
0.1999999999999943, -0.8845106701151565 
0.2099999999999932, -0.8875470361718965 
0.2199999999999921, -0.8905522943951265 
0.229999999999991, -0.8933296658270822 
0.2399999999999899, -0.8956487724421741 
0.2499999999999888, -0.8973379401029951 
0.2599999999999877, -0.8983508287221458 
0.2699999999999866, -0.8987575473407657 
0.2799999999999855, -0.8986918635282773 
0.2899999999999844, -0.8983171126247205 
0.2999999999999833, -0.8978395921109039 
0.3099999999999822, -0.897558076198733 
0.3199999999999811, -0.8979062260076509 
0.32999999999998, -0.8994183194677963 
0.3399999999999789, -0.9025744967122616 
0.3499999999999778, -0.907598552995539 
0.35999999999997667, -0.914373695134857 
0.36999999999997557, -0.9225473542049283 
0.37999999999997447, -0.9317176903562643 
0.38999999999997337, -0.9415586913417453 
0.39999999999997227, -0.9518339136551051 
0.40999999999997117, -0.9623223647535049 
0.41999999999997006, -0.972699980784947 
0.42999999999996896, -0.9824466513249497 
0.43999999999996786, -0.9908950861231014 
0.44999999999996676, -0.9974829848398823 
0.45999999999996566, -1.0020343333063952 
0.46999999999996456, -1.0047901115730058 
0.47999999999996346, -1.0061910960088079 
0.48999999999996235, -1.0066578635041663 
0.49999999999996125, -1.006511140112318 
0.5099999999999602, -1.0060152153402557 
0.519999999999959, -1.0054954387577042 
0.529999999999958, -1.0054824078319644 
0.5399999999999568, -1.0067650557740602 
0.5499999999999557, -1.0101667605500475 
0.5599999999999546, -1.0160719452022389 
0.5699999999999535, -1.024147756006121 
0.5799999999999524, -1.0335878207915083 
0.5899999999999513, -1.0435812732457297 
0.5999999999999502, -1.0535724223733822 
0.6099999999999491, -1.063247245938795 
0.619999999999948, -1.0723996691424706 
0.6299999999999469, -1.080800671373891 
0.6399999999999458, -1.0881386642964272 
0.6499999999999447, -1.0940793991187703 
0.6599999999999436, -1.0984238097360275 
0.6699999999999425, -1.1012256682050166 
0.6799999999999414, -1.102750618998883 
0.6899999999999403, -1.1033355816768697 
0.6999999999999392, -1.1032876445995015 
0.7099999999999381, -1.1028801094130256 
0.719999999999937, -1.1024165268389765 
0.7299999999999359, -1.1022863269016818 
0.7399999999999348, -1.1029048351394322 
0.7499999999999337, -1.1045113773488757 
0.7599999999999326, -1.1070153401532583 
0.7699999999999315, -1.1100848200659512 
0.7799999999999304, -1.113366227339484 
0.7899999999999293, -1.116612944288262 
0.7999999999999282, -1.1196876817689139 
0.8099999999999271, -1.122521920713329 
0.819999999999926, -1.1250831337927312 
0.8299999999999249, -1.1273504443712157 
0.8399999999999238, -1.129292315860256 
0.8499999999999227, -1.1308539710866685 
0.8599999999999216, -1.1319678733515584 
0.8699999999999205, -1.1325861530653758 
0.8799999999999194, -1.132712196568227 
0.8899999999999183, -1.1324101011026007 
0.8999999999999172, -1.1317970081051716 
0.9099999999999161, -1.131034023006181 
0.919999999999915, -1.1303092844027214 
0.9299999999999139, -1.1297924507413777 
0.9399999999999128, -1.1295767726064607 
0.9499999999999117, -1.129665759219831 
0.9599999999999106, -1.1300149682707679 
0.9699999999999095, -1.1305667518637514 
0.9799999999999084, -1.1312425085431166 
0.9899999999999073, -1.1319295510508862 
0.9999999999999062, -1.1324988984861968 
1.0099999999999052, -1.1328393394556389 
1.019999999999904, -1.1328803489458932 
1.029999999999903, -1.1325975047770611 
1.039999999999902, -1.1320032496638148 
1.0499999999999008, -1.1311261505026158 
1.0599999999998997, -1.1299890101179648 
1.0699999999998986, -1.1286001975303057 
1.0799999999998975, -1.1269630685710985 
1.0899999999998964, -1.1250947353282303 
1.0999999999998953, -1.1230402901285919 
1.1099999999998942, -1.1208742900775317 
1.119999999999893, -1.1186949067057896 
1.129999999999892, -1.116627331740442 
1.1399999999998909, -1.114836319039298 
1.1499999999998898, -1.1135045080269381 
1.1599999999998887, -1.1127396937177019 
1.1699999999998876, -1.1124761356036514 
1.1799999999998865, -1.1124859879662303 
1.1899999999998854, -1.1124876810894264 
1.1999999999998843, -1.1122292809903995 
1.2099999999998832, -1.1114981784598048 
1.219999999999882, -1.1101065338035645 
1.229999999999881, -1.1079069084260715 
1.2399999999998799, -1.1048404623342243 
1.2499999999998788, -1.1009668145342864 
1.2599999999998777, -1.0964296498535622 
1.2699999999998766, -1.0913817869168032 
1.2799999999998755, -1.0859335355131354 
1.2899999999998744, -1.0801536703490018 
1.2999999999998733, -1.0741103721796834 
1.3099999999998722, -1.0679352523118242 
1.319999999999871, -1.0618988376308756 
1.32999999999987, -1.0564542170737508 
1.3399999999998689, -1.0521477222527555 
1.3499999999998678, -1.049345994521277 
1.3599999999998666, -1.047974498720221 
1.3699999999998655, -1.0475636202787109 
1.3799999999998644, -1.0475466002597984 
1.3899999999998633, -1.0474797300062764 
1.3999999999998622, -1.0470538179840152 
1.4099999999998611, -1.0459999969522031 
1.41999999999986, -1.0440052900480392 
1.429999999999859, -1.0407032997644312 
1.4399999999998578, -1.0357783998529304 
1.4499999999998567, -1.0291467026919152 
1.4599999999998556, -1.0210530258010722 
1.4699999999998545, -1.0119570896033794 
1.4799999999998534, -1.002315476391556 
1.4899999999998523, -0.9924575827360631 
1.4999999999998512, -0.9826075544708383 
1.5099999999998501, -0.9729835868705126 
1.519999999999849, -0.9639014742292418 
1.529999999999848, -0.9558226504991814 
1.5399999999998468, -0.949279080779753 
1.5499999999998457, -0.9446520839080886 
1.5599999999998446, -0.941935836361974 
1.5699999999998435, -0.9407111377181299 
1.5799999999998424, -0.940368090235973 
1.5899999999998413, -0.9403599915088099 
1.5999999999998402, -0.9403044352548593 
1.6099999999998391, -0.9399462919423562 
1.619999999999838, -0.939081312514948 
1.629999999999837, -0.9375106457185604 
1.6399999999998358, -0.9350591449513287 
1.6499999999998347, -0.9316553161355046 
1.6599999999998336, -0.9274096420203165 
1.6699999999998325, -0.9225966220369569 
1.6799999999998314, -0.9175341335627143 
1.6899999999998303, -0.9124656473507005 
1.6999999999998292, -0.9075257010527811 
1.709999999999828, -0.9027735053344917 
1.719999999999827, -0.8982443738886212 
1.729999999999826, -0.8939886201638293 
1.7399999999998248, -0.890090917162631 
1.7499999999998237, -0.8866713156941668 
1.7599999999998226, -0.8838659773197344 
1.7699999999998215, -0.8817843855962876 
1.7799999999998204, -0.8804542849636056 
1.7899999999998193, -0.8797880135945473 
1.7999999999998182, -0.8796001020159114 
1.809999999999817, -0.8796656362891329 
1.819999999999816, -0.8797775415420274 
1.8299999999998149, -0.8797750659062336 
1.8399999999998138, -0.8795494227592968 
1.8499999999998127, -0.8790459443980205 
1.8599999999998116, -0.8782693251948686 
1.8699999999998105, -0.8772794335877311 
1.8799999999998094, -0.8761648082462958 
1.8899999999998083, -0.8750030367592997 
1.8999999999998072, -0.8738328074206111 
1.909999999999806, -0.8726524045463849 
1.919999999999805, -0.8714403073668164 
1.9299999999998039, -0.870183413093908 
1.9399999999998028, -0.868898788540149 
1.9499999999998017, -0.8676416086798758 
1.9599999999998006, -0.8664987692134438 
1.9699999999997995, -0.8655709061095334 
1.9799999999997984, -0.864948550894481 
1.9899999999997973, -0.8646919009618899 
1.9999999999997962, -0.8648218947376206 
2.0099999999998173, -0.8653218432227787 
2.0199999999998384, -0.8661437059355087 
2.0299999999998595, -0.8672167181469617 
2.0399999999998806, -0.8684605161979098 
2.0499999999999017, -0.8698025232959129 
2.059999999999923, -0.8711938529408018 
2.069999999999944, -0.8726159967518289 
2.079999999999965, -0.8740728579942816 
2.089999999999986, -0.8755678835795953 
2.100000000000007, -0.8770737929546465 
2.1100000000000283, -0.8785109105783038 
2.1200000000000494, -0.8797537778722664 
2.1300000000000705, -0.8806730737868425 
2.1400000000000916, -0.8811893399768657 
2.1500000000001127, -0.8813003474904054 
2.160000000000134, -0.8810729360868106 
2.170000000000155, -0.8806261284744925 
2.180000000000176, -0.8801312729179536 
2.190000000000197, -0.879826970555602 
2.2000000000002182, -0.8800194719349832 
2.2100000000002393, -0.8810335952899113 
2.2200000000002604, -0.883114669774872 
2.2300000000002815, -0.886341326913081 
2.2400000000003026, -0.8906183438983243 
2.2500000000003237, -0.8957502374348703 
2.260000000000345, -0.9015331868947147 
2.270000000000366, -0.907811021931883 
2.280000000000387, -0.9144824411831027 
2.290000000000408, -0.9214675256353798 
2.3000000000004293, -0.9286418175590903 
2.3100000000004504, -0.9357554786342881 
2.3200000000004715, -0.9423922148792249 
2.3300000000004926, -0.9480517459271688 
2.3400000000005137, -0.9523592749367896 
2.3500000000005348, -0.9552362880856107 
2.360000000000556, -0.9568737897265145 
2.370000000000577, -0.9575720235462853 
2.380000000000598, -0.9576125768107643 
2.390000000000619, -0.957233170405717 
2.4000000000006403, -0.9566892305867774 
2.4100000000006614, -0.9563701870422106 
2.4200000000006825, -0.9569109834163727 
2.4300000000007036, -0.9591627273012138 
2.4400000000007247, -0.9638920913383962 
2.450000000000746, -0.9713505296310885 
2.460000000000767, -0.9811247049180352 
2.470000000000788, -0.9924223369148704 
2.480000000000809, -1.0044743173375656 
2.49000000000083, -1.0167290045408302 
2.5000000000008513, -1.0288129293912591 
2.5100000000008724, -1.0403837597602368 
2.5200000000008935, -1.0509977249299076 
2.5300000000009146, -1.0601019414448591 
2.5400000000009357, -1.0672154041850754 
2.550000000000957, -1.07218085921719 
2.560000000000978, -1.075233533680118 
2.570000000000999, -1.0768257026579624 
2.58000000000102, -1.0774083159191936 
2.5900000000010412, -1.07733556282598 
2.6000000000010624, -1.0768977802285336 
2.6100000000010835, -1.0764261127336472 
2.6200000000011046, -1.0763933089331927 
2.6300000000011257, -1.0773793233670195 
2.6400000000011468, -1.0798081820364074 
2.650000000001168, -1.08365373653429 
2.660000000001189, -1.0884675895477545 
2.67000000000121, -1.0936936241704882 
2.680000000001231, -1.0989198491536685 
2.6900000000012523, -1.1039236505539793 
2.7000000000012734, -1.1086072801945979 
2.7100000000012945, -1.1129237519447417 
2.7200000000013156, -1.1168219411369567 
2.7300000000013367, -1.1202146231942731 
2.740000000001358, -1.1229817794089842 
2.750000000001379, -1.1250164436281174 
2.7600000000014, -1.1262847813460044 
2.770000000001421, -1.126850028545514 
2.780000000001442, -1.1268481072991399 
2.7900000000014633, -1.1264547245533107 
2.8000000000014844, -1.1258784949836655 
2.8100000000015055, -1.1253643143263394 
2.8200000000015266, -1.1251556105871907 
2.8300000000015477, -1.125403050571122 
2.840000000001569, -1.1261021854374353 
2.85000000000159, -1.1271355922086461 
2.860000000001611, -1.1283630772101372 
2.870000000001632, -1.1296647724962532 
2.8800000000016532, -1.1309346407655911 
2.8900000000016743, -1.132074785241994 
2.9000000000016954, -1.1330078807383925 
2.9100000000017165, -1.133690134390322 
2.9200000000017377, -1.1341100299118012 
2.9300000000017588, -1.1342730008498603 
2.94000000000178, -1.1341817826815184 
2.950000000001801, -1.1338259176048473 
2.960000000001822, -1.1331885443961727 
2.970000000001843, -1.1322660090867327 
2.9800000000018643, -1.1310873158039165 
2.9900000000018854, -1.1297224318231691 
3.0000000000019065, -1.1282740363353942 
3.0100000000019276, -1.1268542980449576 
3.0200000000019487, -1.1255638796495977 
3.03000000000197, -1.1244941998577151 
3.040000000001991, -1.1237367630199975 
3.050000000002012, -1.1233533100223068 
3.060000000002033, -1.123311820556268 
3.070000000002054, -1.123464203072293 
3.0800000000020753, -1.1235998894079569 
3.0900000000020964, -1.123514708783102 
3.1000000000021175, -1.123041486141253 
3.1100000000021386, -1.1220566555883085 
3.1200000000021597, -1.1204932185226557 
3.130000000002181, -1.1183561743363222 
3.140000000002202, -1.115713113207626 
3.150000000002223, -1.1126545981077351 
3.160000000002244, -1.1092541030819754 
3.1700000000022652, -1.1055556132840156 
3.1800000000022863, -1.1015889206945917 
3.1900000000023074, -1.097397937588274 
3.2000000000023285, -1.093075504459083 
3.2100000000023496, -1.0888079510216053 
3.2200000000023707, -1.0849111076528466 
3.230000000002392, -1.0817855755434453 
3.240000000002413, -1.079730285830663 
3.250000000002434, -1.078728457586083 
3.260000000002455, -1.0784426534787155 
3.2700000000024763, -1.0784250616090865 
3.2800000000024974, -1.078297721839553 
3.2900000000025185, -1.0777731354719644 
3.3000000000025396, -1.0765854296058874 
3.3100000000025607, -1.0744352131145567 
3.3200000000025818, -1.071011703576326 
3.330000000002603, -1.066106908017254 
3.340000000002624, -1.0597451804172582 
3.350000000002645, -1.0521904306004515 
3.360000000002666, -1.0438055796984855 
3.3700000000026873, -1.0349018311668912 
3.3800000000027084, -1.0256951911992094 
3.3900000000027295, -1.0163658561056206 
3.4000000000027506, -1.007164834215203 
3.4100000000027717, -0.9985129485614463 
3.420000000002793, -0.9910134938704193 
3.430000000002814, -0.9852814995630089 
3.440000000002835, -0.9816167628235399 
3.450000000002856, -0.979789690347902 
3.460000000002877, -0.9791814935875024 
3.4700000000028983, -0.9791267286609173 
3.4800000000029194, -0.979131070662991 
3.4900000000029405, -0.9788751161972955 
3.5000000000029616, -0.9781184211631144 
3.5100000000029827, -0.9766128071043261 
3.520000000003004, -0.974079059926644 
3.530000000003025, -0.9702762718497665 
3.540000000003046, -0.965143452245235 
3.550000000003067, -0.9588939739731762 
3.5600000000030882, -0.9519396379282931 
3.5700000000031094, -0.9447003933669018 
3.5800000000031305, -0.9374713693182599 
3.5900000000031516, -0.9304154572721884 
3.6000000000031727, -0.9236273905762932 
3.6100000000031938, -0.917204667803213 
3.620000000003215, -0.9112958978170784 
3.630000000003236, -0.9061139241994033 
3.640000000003257, -0.9018989795983282 
3.650000000003278, -0.8988278822572935 
3.6600000000032993, -0.8969106617839492 
3.6700000000033204, -0.8959549272666841 
3.6800000000033415, -0.8956357147342697 
3.6900000000033626, -0.8956124693129406 
3.7000000000033837, -0.8956069143238686 
3.710000000003405, -0.8954163900462516 
3.720000000003426, -0.8948953627767186 
3.730000000003447, -0.8939455320832183 
3.740000000003468, -0.8925307081082418 
3.750000000003489, -0.8906986889943171 
3.7600000000035103, -0.8885732714959996 
3.7700000000035314, -0.88630435352327 
3.7800000000035525, -0.8840101608937259 
3.7900000000035736, -0.8817514023334813 
3.8000000000035947, -0.8795430859335406 
3.810000000003616, -0.8773845992847823 
3.820000000003637, -0.8752875951548568 
3.830000000003658, -0.8732903380910271 
3.840000000003679, -0.8714565224805725 
3.8500000000037002, -0.8698631941150762 
3.8600000000037213, -0.8685851460341061 
3.8700000000037424, -0.8676810181698702 
3.8800000000037635, -0.8671811769609808 
3.8900000000037847, -0.8670761756087957 
3.9000000000038058, -0.8673103246660382 
3.910000000003827, -0.8677887163618923 
3.920000000003848, -0.8683990055186142 
3.930000000003869, -0.8690384989381365 
3.94000000000389, -0.8696354435986388 
3.9500000000039113, -0.870159219942719 
3.9600000000039324, -0.8706175021492358 
3.9700000000039535, -0.8710392071653963 
3.9800000000039746, -0.8714471454919446 
3.9900000000039957, -0.8718323620048534 
4.000000000004016, -0.8721449488479591 
4.010000000003993, -0.8723097074742497 
4.02000000000397, -0.8722602322107356 
4.030000000003946, -0.8719711045541298 
4.040000000003923, -0.8714720651306033 
4.0500000000039, -0.8708473525716176 
4.0600000000038765, -0.8702319962101678 
4.070000000003853, -0.8698054093616345 
4.08000000000383, -0.8697691914479957 
4.090000000003807, -0.8703015210282322 
4.100000000003783, -0.871505570345007 
4.11000000000376, -0.8733856371328056 
4.120000000003737, -0.8758661543876343 
4.130000000003713, -0.8788351645536935 
4.14000000000369, -0.8821840587299864 
4.150000000003667, -0.8858304233511278 
4.1600000000036434, -0.889724306744864 
4.17000000000362, -0.8938386308818069 
4.180000000003597, -0.8981406565765158 
4.1900000000035735, -0.902544952516499 
4.20000000000355, -0.9068656724680203 
4.210000000003527, -0.9108122617891986 
4.220000000003504, -0.9140707525564233 
4.23000000000348, -0.9164379508605436 
4.240000000003457, -0.9178970284972022 
4.250000000003434, -0.9185775903685738 
4.26000000000341, -0.9186662557969123 
4.270000000003387, -0.918355660160098 
4.280000000003364, -0.9178609369788944 
4.2900000000033405, -0.9174890481429671 
4.300000000003317, -0.917718448482167 
4.310000000003294, -0.9192033825894474 
4.320000000003271, -0.9226087755308189 
4.330000000003247, -0.9283161063514237 
4.340000000003224, -0.9362341686267099 
4.350000000003201, -0.945893669753494 
4.360000000003177, -0.956714825364773 
4.370000000003154, -0.9682121751148849 
4.380000000003131, -0.9800337486045414 
4.390000000003107, -0.9918721891128139 
4.400000000003084, -1.003326386572954 
4.410000000003061, -1.0138124424597985 
4.4200000000030375, -1.0226486150447336 
4.430000000003014, -1.0293394522940802 
4.440000000002991, -1.0338305115228397 
4.450000000002968, -1.0364713860518577 
4.460000000002944, -1.0377613331436728 
4.470000000002921, -1.0381399842506132 
4.480000000002898, -1.0379342205951305 
4.490000000002874, -1.0374233047767536 
4.500000000002851, -1.0369671981961477 
4.510000000002828, -1.0371312321522734 
4.520000000002804, -1.0386592886255257 
4.530000000002781, -1.0421570299377048 
4.540000000002758, -1.0476805499880346 
4.5500000000027345, -1.0546932163049476 
4.560000000002711, -1.0624417307008276 
4.570000000002688, -1.0703235920456304 
4.580000000002665, -1.077990488542818 
4.590000000002641, -1.085270818157038 
4.600000000002618, -1.092052926704974 
4.610000000002595, -1.0981952929920087 
4.620000000002571, -1.1034932560463726 
4.630000000002548, -1.107726540536664 
4.640000000002525, -1.1107674802312473 
4.6500000000025015, -1.112658516107116 
4.660000000002478, -1.113586679701994 
4.670000000002455, -1.113796350017079 
4.6800000000024315, -1.1135316001555373 
4.690000000002408, -1.1130447980061997 
4.700000000002385, -1.1126369403030605 
4.710000000002362, -1.112649071346022 
4.720000000002338, -1.113345062332178 
4.730000000002315, -1.1147668219929754 
4.740000000002292, -1.1167327181622284 
4.750000000002268, -1.1189816476839376 
4.760000000002245, -1.1212983765112121 
4.770000000002222, -1.123540754157441 
4.7800000000021985, -1.125618477144097 
4.790000000002175, -1.1274763996093342 
4.800000000002152, -1.129086685013507 
4.810000000002129, -1.1304365068633482 
4.820000000002105, -1.1315096107823772 
4.830000000002082, -1.1322733190033707 
4.840000000002059, -1.1326837150530582 
4.850000000002035, -1.1327088871932047 
4.860000000002012, -1.1323544986072127 
4.870000000001989, -1.1316765544037333 
4.880000000001965, -1.130780790200791 
4.890000000001942, -1.129811084321656 
4.900000000001919, -1.1289194369855162 
4.9100000000018955, -1.1282215603796277 
4.920000000001872, -1.127773623299837 
4.930000000001849, -1.127591259655794 
