t, s[1].omega / s[0].omega 
0, -1.3999934743200302 
0.009999999999999995, -1.3990853822214537 
0.019999999999999934, -1.3976545427232467 
0.029999999999999874, -1.3956608773572827 
0.04000000000000012, -1.393054988969951 
0.050000000000000405, -1.3897675403123269 
0.06000000000000069, -1.3856771867127065 
0.07000000000000098, -1.3806742622895165 
0.08000000000000126, -1.3750065065099766 
0.09000000000000155, -1.3697534554643267 
0.10000000000000184, -1.366421302094619 
0.11000000000000212, -1.365341944619056 
0.12000000000000241, -1.3653573494081415 
0.130000000000002, -1.3651873866211328 
0.1400000000000009, -1.3639170636117102 
0.1499999999999998, -1.3603187284321814 
0.1599999999999987, -1.3515073897609995 
0.1699999999999976, -1.330302932065191 
0.1799999999999965, -1.2810444311750395 
0.1899999999999954, -1.1808154509708786 
0.1999999999999943, -1.0239625815478839 
0.2099999999999932, -0.848324177332203 
0.2199999999999921, -0.7006406456139291 
0.229999999999991, -0.5960281686739639 
0.2399999999999899, -0.5273245943426113 
0.2499999999999888, -0.4832618201489284 
0.2599999999999877, -0.4550710168949249 
0.2699999999999866, -0.43698339140001013 
0.2799999999999855, -0.42537630858113007 
0.2899999999999844, -0.4179828322727655 
0.2999999999999833, -0.41336715738956337 
0.3099999999999822, -0.41060578742040327 
0.3199999999999811, -0.40909778470008895 
0.32999999999998, -0.4084516614295793 
0.3399999999999789, -0.4084180147221253 
0.3499999999999778, -0.40885091198396345 
0.35999999999997667, -0.4096890529741318 
0.36999999999997557, -0.4109517059253802 
0.37999999999997447, -0.41274603364166695 
0.38999999999997337, -0.4152843552756072 
0.39999999999997227, -0.4189144160979138 
0.40999999999997117, -0.4241681913800951 
0.41999999999997006, -0.4318147089840327 
0.42999999999996896, -0.4428168632195586 
0.43999999999996786, -0.45791123549406576 
0.44999999999996676, -0.47652770015650986 
0.45999999999996566, -0.49584314991465517 
0.46999999999996456, -0.5120737891099857 
0.47999999999996346, -0.5232858463983574 
0.48999999999996235, -0.5299663090240226 
0.49999999999996125, -0.5334882075238776 
0.5099999999999602, -0.5349650585655196 
0.519999999999959, -0.5349779248104125 
0.529999999999958, -0.5335953851754791 
0.5399999999999568, -0.5302835945105392 
0.5499999999999557, -0.52341419507779 
0.5599999999999546, -0.5087588610047968 
0.5699999999999535, -0.4756300792173024 
0.5799999999999524, -0.40160105036287075 
0.5899999999999513, -0.27014953927350116 
0.5999999999999502, -0.13014766529970118 
0.6099999999999491, -0.04271069775030191 
0.619999999999948, -0.0007150263085424222 
0.6299999999999469, 0.018531663221132234 
0.6399999999999458, 0.02789342045122062 
0.6499999999999447, 0.03267723255241204 
0.6599999999999436, 0.03514978662130847 
0.6699999999999425, 0.036361806487342926 
0.6799999999999414, 0.03686012398810996 
0.6899999999999403, 0.03696975159181458 
0.6999999999999392, 0.03690628283444716 
0.7099999999999381, 0.03682499269587914 
0.719999999999937, 0.036857616197760894 
0.7299999999999359, 0.03716950159403372 
0.7399999999999348, 0.03808773055008728 
0.7499999999999337, 0.040451047860174574 
0.7599999999999326, 0.046661734263512306 
0.7699999999999315, 0.06364586380811729 
0.7799999999999304, 0.10738373971915023 
0.7899999999999293, 0.18977743164516345 
0.7999999999999282, 0.2760698973999388 
0.8099999999999271, 0.3273186729304837 
0.819999999999926, 0.3504416803833436 
0.8299999999999249, 0.3603985139448242 
0.8399999999999238, 0.3646933672230409 
0.8499999999999227, 0.3663098518144544 
0.8599999999999216, 0.3663693345446447 
0.8699999999999205, 0.3652343449688869 
0.8799999999999194, 0.36296895752868524 
0.8899999999999183, 0.3596266418225501 
0.8999999999999172, 0.3554944282556271 
0.9099999999999161, 0.35117171503654343 
0.919999999999915, 0.3473465035015219 
0.9299999999999139, 0.3444641439432637 
0.9399999999999128, 0.34262135052622866 
0.9499999999999117, 0.3416902381654853 
0.9599999999999106, 0.3414633064077078 
0.9699999999999095, 0.3417160965245322 
0.9799999999999084, 0.34221262623123244 
0.9899999999999073, 0.3427038821606349 
0.9999999999999062, 0.3429363216170234 
1.0099999999999052, 0.3426441064295703 
1.019999999999904, 0.34147243747456174 
1.029999999999903, 0.338744580732885 
1.039999999999902, 0.33280991592693016 
1.0499999999999008, 0.3189321985603288 
1.0599999999998997, 0.28115428116949553 
1.0699999999998986, 0.15971736735073444 
1.0799999999998975, -0.18494184010861137 
1.0899999999998964, -0.5925989607821006 
1.0999999999998953, -0.7745255114032175 
1.1099999999998942, -0.8353198187376725 
1.119999999999893, -0.8571069528602658 
1.129999999999892, -0.865720992992661 
1.1399999999998909, -0.8691666105953066 
1.1499999999998898, -0.8701033989114372 
1.1599999999998887, -0.8692721963092692 
1.1699999999998876, -0.8663134959524582 
1.1799999999998865, -0.8593820774843947 
1.1899999999998854, -0.8429016331211683 
1.1999999999998843, -0.7992091112619853 
1.2099999999998832, -0.6683658192376618 
1.219999999999882, -0.30917986781223233 
1.229999999999881, 0.13394904589992043 
1.2399999999998799, 0.3149973807872032 
1.2499999999998788, 0.36696631326485285 
1.2599999999998777, 0.384120331409126 
1.2699999999998766, 0.39073814358178194 
1.2799999999998755, 0.3934116178561843 
1.2899999999998744, 0.39426289011758875 
1.2999999999998733, 0.39408787646000476 
1.3099999999998722, 0.393255830476248 
1.319999999999871, 0.39202583411308334 
1.32999999999987, 0.39066154996896796 
1.3399999999998689, 0.3894414491726411 
1.3499999999998678, 0.3886204739201479 
1.3599999999998666, 0.3883959778729572 
1.3699999999998655, 0.3888931681384337 
1.3799999999998644, 0.39014283072767886 
1.3899999999998633, 0.3920315775011995 
1.3999999999998622, 0.39426553958174854 
1.4099999999998611, 0.396427186356047 
1.41999999999986, 0.3981225070730425 
1.429999999999859, 0.3990878475118226 
1.4399999999998578, 0.3991498858039127 
1.4499999999998567, 0.39804621370905596 
1.4599999999998556, 0.3950850531469955 
1.4699999999998545, 0.38832999628371184 
1.4799999999998534, 0.37205590941745625 
1.4899999999998523, 0.3281764375980203 
1.4999999999998512, 0.20770237686048718 
1.5099999999998501, -0.012653238326729665 
1.519999999999849, -0.1820595088575267 
1.529999999999848, -0.250052598473708 
1.5399999999998468, -0.2741105163321513 
1.5499999999998457, -0.2836484719354574 
1.5599999999998446, -0.2879647874839992 
1.5699999999998435, -0.29004542339314476 
1.5799999999998424, -0.29095604589572405 
1.5899999999998413, -0.29110453690223564 
1.5999999999998402, -0.29064347816682623 
1.6099999999998391, -0.28963359732248745 
1.619999999999838, -0.2881450643123524 
1.629999999999837, -0.2863320187398744 
1.6399999999998358, -0.284450470260608 
1.6499999999998347, -0.2827960840596703 
1.6599999999998336, -0.281612669003194 
1.6699999999998325, -0.28105186672476196 
1.6799999999998314, -0.2811949859864976 
1.6899999999998303, -0.28208230402520884 
1.6999999999998292, -0.2836990887821055 
1.709999999999828, -0.2859132054215999 
1.719999999999827, -0.288424448371368 
1.729999999999826, -0.29081924582092034 
1.7399999999998248, -0.2927289773067367 
1.7499999999998237, -0.2939496698159984 
1.7599999999998226, -0.294422060265927 
1.7699999999998215, -0.2941188295987533 
1.7799999999998204, -0.2929093647145808 
1.7899999999998193, -0.290380322988521 
1.7999999999998182, -0.2854554554760591 
1.809999999999817, -0.27538363974998975 
1.819999999999816, -0.25307010925774875 
1.8299999999998149, -0.20237088280863696 
1.8399999999998138, -0.10522526309669414 
1.8499999999998127, 0.011690832356510774 
1.8599999999998116, 0.09142187878484181 
1.8699999999998105, 0.13027607333324503 
1.8799999999998094, 0.1477749300127052 
1.8899999999998083, 0.15588587571054718 
1.8999999999998072, 0.1597369774095005 
1.909999999999806, 0.16145187211164258 
1.919999999999805, 0.16196378748747048 
1.9299999999998039, 0.1617411295483296 
1.9399999999998028, 0.16108538185297774 
1.9499999999998017, 0.16024930239791563 
1.9599999999998006, 0.1594677733323168 
1.9699999999997995, 0.15895848771023807 
1.9799999999997984, 0.1589388237819635 
1.9899999999997973, 0.15968179990592818 
1.9999999999997962, 0.1616062564828949 
2.0099999999998173, 0.1653538344560193 
2.0199999999998384, 0.17168909993091216 
2.0299999999998595, 0.18092587734198254 
2.0399999999998806, 0.19201377997011762 
2.0499999999999017, 0.2026196162499104 
2.059999999999923, 0.2107966483833152 
2.069999999999944, 0.21609652121273829 
2.079999999999965, 0.21903799309858737 
2.089999999999986, 0.22025515557358494 
2.100000000000007, 0.22011852529535386 
2.1100000000000283, 0.21866902831014157 
2.1200000000000494, 0.21564255713934996 
2.1300000000000705, 0.21057810540175037 
2.1400000000000916, 0.20317353676206967 
2.1500000000001127, 0.1939312843697895 
2.160000000000134, 0.18443354592369426 
2.170000000000155, 0.17644811692260537 
2.180000000000176, 0.17077578278701425 
2.190000000000197, 0.16721722408415657 
2.2000000000002182, 0.16521453764109975 
2.2100000000002393, 0.16427488210955848 
2.2200000000002604, 0.16405863032691587 
2.2300000000002815, 0.1643250500513912 
2.2400000000003026, 0.1648602709400897 
2.2500000000003237, 0.16543532547252765 
2.260000000000345, 0.16580339309017794 
2.270000000000366, 0.16571018292879408 
2.280000000000387, 0.1648668048063327 
2.290000000000408, 0.16283240994577924 
2.3000000000004293, 0.15872910003753554 
2.3100000000004504, 0.15057703696251284 
2.3200000000004715, 0.1337190037778247 
2.3300000000004926, 0.09783508875963277 
2.3400000000005137, 0.02769257728680611 
2.3500000000005348, -0.0707110884952509 
2.360000000000556, -0.15224157153849655 
2.370000000000577, -0.19572724963921612 
2.380000000000598, -0.2151026156242247 
2.390000000000619, -0.22373432239945457 
2.4000000000006403, -0.22776437380751807 
2.4100000000006614, -0.22963518445194153 
2.4200000000006825, -0.2303180694619134 
2.4300000000007036, -0.23020054047648605 
2.4400000000007247, -0.22943244457149783 
2.450000000000746, -0.2280918050676169 
2.460000000000767, -0.22629493926570973 
2.470000000000788, -0.22426144357608369 
2.480000000000809, -0.22229724290053188 
2.49000000000083, -0.22070317841877546 
2.5000000000008513, -0.2196944736364818 
2.5100000000008724, -0.21939660926089188 
2.5200000000008935, -0.2198912217647225 
2.5300000000009146, -0.22124473494698602 
2.5400000000009357, -0.22347271229692162 
2.550000000000957, -0.22643947948434956 
2.560000000000978, -0.22977564334204473 
2.570000000000999, -0.2329505593474356 
2.58000000000102, -0.23549750203177333 
2.5900000000010412, -0.2371785211329724 
2.6000000000010624, -0.2379493646304313 
2.6100000000010835, -0.23780732358448012 
2.6200000000011046, -0.236629507324056 
2.6300000000011257, -0.23399142492264083 
2.6400000000011468, -0.22885561508782817 
2.650000000001168, -0.21898351576181954 
2.660000000001189, -0.2002560893685427 
2.67000000000121, -0.16794039943503214 
2.680000000001231, -0.12373088661884848 
2.6900000000012523, -0.08054111345106656 
2.7000000000012734, -0.04962506851816518 
2.7100000000012945, -0.031197789791656855 
2.7200000000013156, -0.02087753181131969 
2.7300000000013367, -0.015107707258357661 
2.740000000001358, -0.011865726305712258 
2.750000000001379, -0.010094937741550701 
2.7600000000014, -0.009223770764403184 
2.770000000001421, -0.00889899391640992 
2.780000000001442, -0.008859822341032187 
2.7900000000014633, -0.008893231855434072 
2.8000000000014844, -0.008823928242631259 
2.8100000000015055, -0.008499468463888719 
2.8200000000015266, -0.0077439024299749805 
2.8300000000015477, -0.006253567416966944 
2.840000000001569, -0.0033651162701826658 
2.85000000000159, 0.0023428863855497425 
2.860000000001611, 0.014388408011749346 
2.870000000001632, 0.04006869787431878 
2.8800000000016532, 0.0854101282426333 
2.8900000000016743, 0.14027455763478863 
2.9000000000016954, 0.18290586134101838 
2.9100000000017165, 0.20715143378835282 
2.9200000000017377, 0.2192539002013405 
2.9300000000017588, 0.22508449228142696 
2.94000000000178, 0.22773923476875146 
2.950000000001801, 0.2286190117378315 
2.960000000001822, 0.2283203807643198 
2.970000000001843, 0.22709642436585314 
2.9800000000018643, 0.22511333380059523 
2.9900000000018854, 0.2226117042373928 
3.0000000000019065, 0.219957718898534 
3.0100000000019276, 0.21755995590448246 
3.0200000000019487, 0.21573674985794766 
3.03000000000197, 0.21466227048324776 
3.040000000001991, 0.21440929065454087 
3.050000000002012, 0.21500898161993173 
3.060000000002033, 0.21645676619485799 
3.070000000002054, 0.2186484806961171 
3.0800000000020753, 0.22130038387673417 
3.0900000000020964, 0.22396321919414913 
3.1000000000021175, 0.2261748994775218 
3.1100000000021386, 0.2276207184114618 
3.1200000000021597, 0.22814387952913223 
3.130000000002181, 0.2276096352894522 
3.140000000002202, 0.22569756992695655 
3.150000000002223, 0.2216047864856457 
3.160000000002244, 0.21352842007075895 
3.1700000000022652, 0.1979036269159464 
3.1800000000022863, 0.1696920260008077 
3.1900000000023074, 0.12822413747061248 
3.2000000000023285, 0.08569107591158551 
3.2100000000023496, 0.056172910570385634 
3.2200000000023707, 0.0404013818649041 
3.230000000002392, 0.03273343978853389 
3.240000000002413, 0.028971458878535243 
3.250000000002434, 0.02705715239691564 
3.260000000002455, 0.026080733431905236 
3.2700000000024763, 0.025629357899361847 
3.2800000000024974, 0.025483286523162157 
3.2900000000025185, 0.025477875661596983 
3.3000000000025396, 0.025440183036614588 
3.3100000000025607, 0.025163821596344782 
3.3200000000025818, 0.024394760721136853 
3.330000000002603, 0.02278895230791074 
3.340000000002624, 0.019789218009606393 
3.350000000002645, 0.014341347460477199 
3.360000000002666, 0.004301670629619748 
3.3700000000026873, -0.014287951865988696 
3.3800000000027084, -0.048552137012445054 
3.3900000000027295, -0.10297227679894808 
3.4000000000027506, -0.16537003985779702 
3.4100000000027717, -0.21308905122068475 
3.420000000002793, -0.2400185535037299 
3.430000000002814, -0.2533445199437598 
3.440000000002835, -0.25979206990976533 
3.450000000002856, -0.26287612339265826 
3.460000000002877, -0.2641650205456268 
3.4700000000028983, -0.2643109141414067 
3.4800000000029194, -0.2635414661130786 
3.4900000000029405, -0.26189333015998917 
3.5000000000029616, -0.25937308115355673 
3.5100000000029827, -0.2561148081748446 
3.520000000003004, -0.25247902509531006 
3.530000000003025, -0.24897696730436145 
3.540000000003046, -0.24605323018407793 
3.550000000003067, -0.2439374497860071 
3.5600000000030882, -0.24266892218966585 
3.5700000000031094, -0.24219663676966346 
3.5800000000031305, -0.24244137519275966 
3.5900000000031516, -0.24329127793033756 
3.6000000000031727, -0.2445630721606495 
3.6100000000031938, -0.24598988937351773 
3.620000000003215, -0.24727750280637548 
3.630000000003236, -0.24819271378860397 
3.640000000003257, -0.24860180392121184 
3.650000000003278, -0.24842999788724546 
3.6600000000032993, -0.24757154234602813 
3.6700000000033204, -0.24575880717022353 
3.6800000000033415, -0.24230756831518946 
3.6900000000033626, -0.23544771454170327 
3.7000000000033837, -0.22036683855155817 
3.710000000003405, -0.18405053665632887 
3.720000000003426, -0.10041022675980571 
3.730000000003447, 0.03365763199683097 
3.740000000003468, 0.14691011196802817 
3.750000000003489, 0.20414566297509168 
3.7600000000035103, 0.22846106875214972 
3.7700000000035314, 0.2389685849329624 
3.7800000000035525, 0.2436950730049754 
3.7900000000035736, 0.24572554428354237 
3.8000000000035947, 0.24629584854858538 
3.810000000003616, 0.24594819052803113 
3.820000000003637, 0.24498279700889003 
3.830000000003658, 0.24365226038510449 
3.840000000003679, 0.24222779632683236 
3.8500000000037002, 0.24098518550627088 
3.8600000000037213, 0.24016759123847214 
3.8700000000037424, 0.23997839812480368 
3.8800000000037635, 0.24060867663638424 
3.8900000000037847, 0.24225464879951325 
3.9000000000038058, 0.245060051214936 
3.910000000003827, 0.24894861459314552 
3.920000000003848, 0.25345282193648927 
3.930000000003869, 0.2577972454753209 
3.94000000000389, 0.2612807664922816 
3.9500000000039113, 0.26357132691397606 
3.9600000000039324, 0.2646442641913323 
3.9700000000039535, 0.2645293234299658 
3.9800000000039746, 0.26306698297542386 
3.9900000000039957, 0.25966327649495735 
4.000000000004016, 0.25292165547863465 
4.010000000003993, 0.24018193063437412 
4.02000000000397, 0.21799052776639738 
4.030000000003946, 0.18629766985501325 
4.040000000003923, 0.1537249378742473 
4.0500000000039, 0.13032592467625165 
4.0600000000038765, 0.11728147402504954 
4.070000000003853, 0.11075775777181077 
4.08000000000383, 0.10753189096429765 
4.090000000003807, 0.1059032463496431 
4.100000000003783, 0.10507936838112612 
4.11000000000376, 0.10467924323632274 
4.120000000003737, 0.10448157916942732 
4.130000000003713, 0.10430663504440485 
4.14000000000369, 0.10395973270046148 
4.150000000003667, 0.10319645747076955 
4.1600000000036434, 0.10166904178925337 
4.17000000000362, 0.09878959991952035 
4.180000000003597, 0.09337802875901267 
4.1900000000035735, 0.08274574438735434 
4.20000000000355, 0.06024868248074786 
4.210000000003527, 0.009531462808598654 
4.220000000003504, -0.09819940353931278 
4.23000000000348, -0.25939995623435397 
4.240000000003457, -0.3896883332377572 
4.250000000003434, -0.45440524267211363 
4.26000000000341, -0.4817790391507262 
4.270000000003387, -0.49362622721629157 
4.280000000003364, -0.49902276552083685 
4.2900000000033405, -0.5014165569301048 
4.300000000003317, -0.5021159243422417 
4.310000000003294, -0.5015305742987279 
4.320000000003271, -0.49957442687758497 
4.330000000003247, -0.49577934510922644 
4.340000000003224, -0.48940687495925317 
4.350000000003201, -0.479867247773156 
4.360000000003177, -0.46755095686046266 
4.370000000003154, -0.4542540522146049 
4.380000000003131, -0.44218247318463694 
4.390000000003107, -0.4325635275852993 
4.400000000003084, -0.4254552849022809 
4.410000000003061, -0.42036341278638795 
4.4200000000030375, -0.41672968235540103 
4.430000000003014, -0.41410376388970305 
4.440000000002991, -0.41215881143308186 
4.450000000002968, -0.4106722872638878 
4.460000000002944, -0.40951175510127247 
4.470000000002921, -0.40862807333652784 
4.480000000002898, -0.4080536777351417 
4.490000000002874, -0.40790980020168066 
4.500000000002851, -0.40843100529471765 
4.510000000002828, -0.41001806556603587 
4.520000000002804, -0.4133358624692297 
4.530000000002781, -0.41948597357405076 
4.540000000002758, -0.4303071568391352 
4.5500000000027345, -0.4488903651522085 
4.560000000002711, -0.4804096267434682 
4.570000000002688, -0.5332139760154344 
4.580000000002665, -0.6192783965380262 
4.590000000002641, -0.7507230128882507 
4.600000000002618, -0.9273143540494736 
4.610000000002595, -1.1206842339867054 
4.620000000002571, -1.283333736202869 
4.630000000002548, -1.3872612048628865 
4.640000000002525, -1.4402212228810416 
4.6500000000025015, -1.4636201779079987 
4.660000000002478, -1.4732215626981104 
4.670000000002455, -1.4768710876649966 
4.6800000000024315, -1.4778950170870586 
4.690000000002408, -1.4777300891265381 
4.700000000002385, -1.4773151218238285 
4.710000000002362, -1.4776233306694837 
4.720000000002338, -1.4791771025970948 
4.730000000002315, -1.4814666996795165 
4.740000000002292, -1.4836607909307005 
4.750000000002268, -1.4854097066520031 
4.760000000002245, -1.4867312328011186 
4.770000000002222, -1.4876359807325152 
4.7800000000021985, -1.4880174495074052 
4.790000000002175, -1.4877353820388843 
4.800000000002152, -1.4866841852402009 
4.810000000002129, -1.4848024340416548 
4.820000000002105, -1.4820445704209735 
4.830000000002082, -1.4783268380508205 
4.840000000002059, -1.47346300678119 
4.850000000002035, -1.4670884324877171 
4.860000000002012, -1.4585657924479936 
4.870000000001989, -1.4470185697400395 
4.880000000001965, -1.432095807780338 
4.890000000001942, -1.416186559574005 
