t, s[1].omega / s[0].omega 
0, -1.3400071311761907 
0.009999999999999995, -1.340481866024359 
0.019999999999999934, -1.3404674700263381 
0.029999999999999874, -1.3399371945912812 
0.04000000000000012, -1.3388930219621815 
0.050000000000000405, -1.337388020484966 
0.06000000000000069, -1.3355079855462173 
0.07000000000000098, -1.3333118082524862 
0.08000000000000126, -1.330812014113512 
0.09000000000000155, -1.3281120955802603 
0.10000000000000184, -1.325613013627129 
0.11000000000000212, -1.3239042038023492 
0.12000000000000241, -1.3231985120636491 
0.130000000000002, -1.3230468208264878 
0.1400000000000009, -1.322733174477649 
0.1499999999999998, -1.3215830009481353 
0.1599999999999987, -1.318802193421591 
0.1699999999999976, -1.313147614197431 
0.1799999999999965, -1.3027936623892937 
0.1899999999999954, -1.2857721719056165 
0.1999999999999943, -1.2609205792024687 
0.2099999999999932, -1.2282870670282304 
0.2199999999999921, -1.1883649995719232 
0.229999999999991, -1.1412670455276541 
0.2399999999999899, -1.0871550974825943 
0.2499999999999888, -1.0282443472115115 
0.2599999999999877, -0.9710962435876567 
0.2699999999999866, -0.9252121729808798 
0.2799999999999855, -0.8964152535800867 
0.2899999999999844, -0.8827992380071292 
0.2999999999999833, -0.8783063353107601 
0.3099999999999822, -0.877721230867046 
0.3199999999999811, -0.8781964745507874 
0.32999999999998, -0.8785335110794664 
0.3399999999999789, -0.878240242093973 
0.3499999999999778, -0.876964172344373 
0.35999999999997667, -0.8742134112411037 
0.36999999999997557, -0.8692745314029958 
0.37999999999997447, -0.8614227384052265 
0.38999999999997337, -0.8505129331097111 
0.39999999999997227, -0.8374840116656236 
0.40999999999997117, -0.8239682591324353 
0.41999999999997006, -0.8113081672723688 
0.42999999999996896, -0.8000822901680603 
0.43999999999996786, -0.7903017071539766 
0.44999999999996676, -0.7817532528650201 
0.45999999999996566, -0.774210846831274 
0.46999999999996456, -0.7675196925314672 
0.47999999999996346, -0.7616147656535194 
0.48999999999996235, -0.7565102330441775 
0.49999999999996125, -0.7522720040571849 
0.5099999999999602, -0.7489746806958716 
0.519999999999959, -0.7466481620154658 
0.529999999999958, -0.7452333060400521 
0.5399999999999568, -0.7445721575709452 
0.5499999999999557, -0.7444406418850077 
0.5599999999999546, -0.7446034377257107 
0.5699999999999535, -0.7448621036532307 
0.5799999999999524, -0.7450838268691272 
0.5899999999999513, -0.7452148371085275 
0.5999999999999502, -0.7452810497992023 
0.6099999999999491, -0.7453690661348547 
0.619999999999948, -0.745585562245514 
0.6299999999999469, -0.7460093739635169 
0.6399999999999458, -0.7466532974151047 
0.6499999999999447, -0.7474439788035406 
0.6599999999999436, -0.7482309510192218 
0.6699999999999425, -0.7488371358967318 
0.6799999999999414, -0.7491330101720399 
0.6899999999999403, -0.7490870894271296 
0.6999999999999392, -0.7487731074074515 
0.7099999999999381, -0.7483636499333105 
0.719999999999937, -0.7481427198854851 
0.7299999999999359, -0.7485321305999474 
0.7399999999999348, -0.7500887074663136 
0.7499999999999337, -0.7534223142246036 
0.7599999999999326, -0.7590356423663398 
0.7699999999999315, -0.7671738141391378 
0.7799999999999304, -0.7777974429803292 
0.7899999999999293, -0.790703346524418 
0.7999999999999282, -0.8057079591629984 
0.8099999999999271, -0.8227903337350038 
0.819999999999926, -0.8421380265034974 
0.8299999999999249, -0.8640530282022738 
0.8399999999999238, -0.8886178645845488 
0.8499999999999227, -0.915013488467828 
0.8599999999999216, -0.9408226801588704 
0.8699999999999205, -0.9625654959459098 
0.8799999999999194, -0.9779266750064943 
0.8899999999999183, -0.9871528873622999 
0.8999999999999172, -0.9919923525842662 
0.9099999999999161, -0.994144589821446 
0.919999999999915, -0.9947031980136257 
0.9299999999999139, -0.9942795476597113 
0.9399999999999128, -0.9933434929366985 
0.9499999999999117, -0.9927376294234989 
0.9599999999999106, -0.9944182881431635 
0.9699999999999095, -1.0018205246711516 
0.9799999999999084, -1.01824772467171 
0.9899999999999073, -1.0435444126924698 
0.9999999999999062, -1.0735234706518622 
1.0099999999999052, -1.1034832020238514 
1.019999999999904, -1.130915533530994 
1.029999999999903, -1.1553000971524967 
1.039999999999902, -1.1768936830435268 
1.0499999999999008, -1.1958657119367644 
1.0599999999998997, -1.2119466486934922 
1.0699999999998986, -1.224569992140552 
1.0799999999998975, -1.2334134875974032 
1.0899999999998964, -1.238819428228345 
1.0999999999998953, -1.2416285195685197 
1.1099999999998942, -1.2427245286222206 
1.119999999999893, -1.2428001487258578 
1.129999999999892, -1.2424245310230377 
1.1399999999998909, -1.2422051833584857 
1.1499999999998898, -1.2427428230143966 
1.1599999999998887, -1.24427006227033 
1.1699999999998876, -1.2464665138399622 
1.1799999999998865, -1.248816051977566 
1.1899999999998854, -1.2509995791013926 
1.1999999999998843, -1.2529193525593896 
1.2099999999998832, -1.2545438196027363 
1.219999999999882, -1.2558237399559973 
1.229999999999881, -1.2567110027858013 
1.2399999999998799, -1.2571937623140688 
1.2499999999998788, -1.2572957122249044 
1.2599999999998777, -1.2570464221924924 
1.2699999999998766, -1.25645184017544 
1.2799999999998755, -1.255489245194585 
1.2899999999998744, -1.25413039530413 
1.2999999999998733, -1.2523736526395157 
1.3099999999998722, -1.2502552921705734 
1.319999999999871, -1.2478236511628533 
1.32999999999987, -1.245110345018952 
1.3399999999998689, -1.2421845353190142 
1.3499999999998678, -1.2393051858984756 
1.3599999999998666, -1.2369716636196382 
1.3699999999998655, -1.2356127531943644 
1.3799999999998644, -1.235147906705627 
1.3899999999998633, -1.2350291215519456 
1.3999999999998622, -1.2346287305971693 
1.4099999999998611, -1.2333842922509266 
1.41999999999986, -1.2306649768090798 
1.429999999999859, -1.2256547055357978 
1.4399999999998578, -1.2174935788709547 
1.4499999999998567, -1.205703297747211 
1.4599999999998556, -1.1904847097782136 
1.4699999999998545, -1.1724426389689548 
1.4799999999998534, -1.1520190491628428 
1.4899999999998523, -1.1292209418970462 
1.4999999999998512, -1.1038104712759398 
1.5099999999998501, -1.0759252664307415 
1.519999999999849, -1.0470904704492345 
1.529999999999848, -1.020918354696819 
1.5399999999998468, -1.0017470984105947 
1.5499999999998457, -0.9913043774717585 
1.5599999999998446, -0.9875246365418582 
1.5699999999998435, -0.987025129643615 
1.5799999999998424, -0.987423228710343 
1.5899999999998413, -0.9875808739822393 
1.5999999999998402, -0.986960929435118 
1.6099999999998391, -0.9850649384880839 
1.619999999999838, -0.9810736291453986 
1.629999999999837, -0.9736707319490872 
1.6399999999998358, -0.9613248643495587 
1.6499999999998347, -0.9433910831376213 
1.6599999999998336, -0.9212636891073913 
1.6699999999998325, -0.897781500775948 
1.6799999999998314, -0.8753374733099563 
1.6899999999998303, -0.8549806985684636 
1.6999999999998292, -0.8368041778629159 
1.709999999999828, -0.820567408990518 
1.719999999999827, -0.8060639926154071 
1.729999999999826, -0.7932627485928351 
1.7399999999998248, -0.7823150125127298 
1.7499999999998237, -0.7734642108954932 
1.7599999999998226, -0.7668832242380574 
1.7699999999998215, -0.7625133936313275 
1.7799999999998204, -0.7600112323765225 
1.7899999999998193, -0.7588431668842712 
1.7999999999998182, -0.7584507228932722 
1.809999999999817, -0.7583728930876119 
1.819999999999816, -0.7582826528369336 
1.8299999999998149, -0.7579709860836962 
1.8399999999998138, -0.7573293362817535 
1.8499999999998127, -0.7563522494804537 
1.8599999999998116, -0.7551392248009519 
1.8699999999998105, -0.753858998988567 
1.8799999999998094, -0.7526777833883392 
1.8899999999998083, -0.7516967076570421 
1.8999999999998072, -0.7509298896700034 
1.909999999999806, -0.7503171889759948 
1.919999999999805, -0.7497578567735033 
1.9299999999998039, -0.7491568234308281 
1.9399999999998028, -0.7484691187050556 
1.9499999999998017, -0.7477254619257703 
1.9599999999998006, -0.7470361234493436 
1.9699999999997995, -0.7465801054367672 
1.9799999999997984, -0.746580273669908 
1.9899999999997973, -0.7472601689033892 
1.9999999999997962, -0.7487905076554223 
2.0099999999998173, -0.7512509519855062 
2.0199999999998384, -0.7546302575261798 
2.0299999999998595, -0.7588630025068648 
2.0399999999998806, -0.7638803517724526 
2.0499999999999017, -0.7696540828169578 
2.059999999999923, -0.7762267453534417 
2.069999999999944, -0.7837275033132979 
2.079999999999965, -0.7923661280127445 
2.089999999999986, -0.8023776703203584 
2.100000000000007, -0.8138624646088001 
2.1100000000000283, -0.8264795668559431 
2.1200000000000494, -0.8391494790767059 
2.1300000000000705, -0.8502597390019734 
2.1400000000000916, -0.8585615262250135 
2.1500000000001127, -0.8638572943584594 
2.160000000000134, -0.8667389718702558 
2.170000000000155, -0.8679491270815423 
2.180000000000176, -0.8680428347698237 
2.190000000000197, -0.8673876431982428 
2.2000000000002182, -0.8663683829534587 
2.2100000000002393, -0.8658352442161202 
2.2200000000002604, -0.8679642057260505 
2.2300000000002815, -0.877378301335573 
2.2400000000003026, -0.9010385152406677 
2.2500000000003237, -0.9442688049675875 
2.260000000000345, -1.0044324310563406 
2.270000000000366, -1.071066959375909 
2.280000000000387, -1.134076604228555 
2.290000000000408, -1.188865930684776 
2.3000000000004293, -1.2347395986933676 
2.3100000000004504, -1.271907886918781 
2.3200000000004715, -1.3002416311836151 
2.3300000000004926, -1.3197876668002606 
2.3400000000005137, -1.3316953849150956 
2.3500000000005348, -1.3380739996772033 
2.360000000000556, -1.3410193228870666 
2.370000000000577, -1.3420097953253838 
2.380000000000598, -1.3419598758115883 
2.390000000000619, -1.3415588032209604 
2.4000000000006403, -1.3415179001078867 
2.4100000000006614, -1.342380512845437 
2.4200000000006825, -1.34408002020851 
2.4300000000007036, -1.3460720355541935 
2.4400000000007247, -1.3479163100579208 
2.450000000000746, -1.349481753438176 
2.460000000000767, -1.350758134403263 
2.470000000000788, -1.3516865403674745 
2.480000000000809, -1.3521628045089067 
2.49000000000083, -1.3521067447903539 
2.5000000000008513, -1.3514946012894749 
2.5100000000008724, -1.350345404938186 
2.5200000000008935, -1.3486835488860784 
2.5300000000009146, -1.3465049934847095 
2.5400000000009357, -1.343766794608098 
2.550000000000957, -1.3403930576668879 
2.560000000000978, -1.3362712989654255 
2.570000000000999, -1.3312444819172708 
2.58000000000102, -1.325205318251308 
2.5900000000010412, -1.318456723480604 
2.6000000000010624, -1.312179780792653 
2.6100000000010835, -1.3080282381801482 
2.6200000000011046, -1.306488202538347 
2.6300000000011257, -1.3064139124330554 
2.6400000000011468, -1.3064207941696364 
2.650000000001168, -1.3055894185310228 
2.660000000001189, -1.3029816832027037 
2.67000000000121, -1.2966743947170616 
2.680000000001231, -1.2821768983750788 
2.6900000000012523, -1.2501558414158283 
2.7000000000012734, -1.1867167030049763 
2.7100000000012945, -1.084397468662948 
2.7200000000013156, -0.9576113370837345 
2.7300000000013367, -0.8339207504383838 
2.740000000001358, -0.7314377938591713 
2.750000000001379, -0.6541688870039514 
2.7600000000014, -0.5989466357326495 
2.770000000001421, -0.560809686343979 
2.780000000001442, -0.5351704917813986 
2.7900000000014633, -0.518375311933555 
2.8000000000014844, -0.5076907137434493 
2.8100000000015055, -0.5011369826811368 
2.8200000000015266, -0.4973115585740314 
2.8300000000015477, -0.4952406930618446 
2.840000000001569, -0.49426301251534965 
2.85000000000159, -0.49394070198229567 
2.860000000001611, -0.49399441061198673 
2.870000000001632, -0.49425954804136074 
2.8800000000016532, -0.49466160889696437 
2.8900000000016743, -0.4952053477663818 
2.9000000000016954, -0.4959684768199174 
2.9100000000017165, -0.49709075346125264 
2.9200000000017377, -0.49875683600003484 
2.9300000000017588, -0.5011750701755991 
2.94000000000178, -0.5045393430772365 
2.950000000001801, -0.5089373665993567 
2.960000000001822, -0.5141891045388591 
2.970000000001843, -0.5197266912413654 
2.9800000000018643, -0.5247444201458188 
2.9900000000018854, -0.5286078758594205 
3.0000000000019065, -0.5311168928314645 
3.0100000000019276, -0.5324006589641079 
3.0200000000019487, -0.5326670714513291 
3.03000000000197, -0.532028133850852 
3.040000000001991, -0.5304074800764379 
3.050000000002012, -0.5274356382926525 
3.060000000002033, -0.5221840295338032 
3.070000000002054, -0.5123064385564495 
3.0800000000020753, -0.4904457977165927 
3.0900000000020964, -0.4226504622061079 
3.1000000000021175, -0.08104709294300305 
3.1100000000021386, 0.8558280327777196 
3.1200000000021597, 1.115627646790996 
3.130000000002181, 1.1502443983165045 
3.140000000002202, 1.1576482645029806 
3.150000000002223, 1.1592675461368351 
3.160000000002244, 1.1583578819802889 
3.1700000000022652, 1.154321489864967 
3.1800000000022863, 1.1424061265592873 
3.1900000000023074, 1.1075767796839942 
3.2000000000023285, 1.0396363038771665 
3.2100000000023496, 1.003053344474517 
3.2200000000023707, 1.0063972196511566 
3.230000000002392, 1.0127793531457125 
3.240000000002413, 1.0159832422649777 
3.250000000002434, 1.0169379120578665 
3.260000000002455, 1.0161193406389768 
3.2700000000024763, 1.0127426004192943 
3.2800000000024974, 1.0029801014713577 
3.2900000000025185, 0.9718707121047758 
3.3000000000025396, 0.9029299187013354 
3.3100000000025607, 1.200479161797788 
3.3200000000025818, 1.4474152858972134 
3.330000000002603, 1.4820128861244746 
3.340000000002624, 1.4884753511772544 
3.350000000002645, 1.4893921972498525 
3.360000000002666, 1.4872717579125465 
3.3700000000026873, 1.4777597933148534 
3.3800000000027084, 1.4208660417946817 
3.3900000000027295, 0.9285170952403135 
3.4000000000027506, 0.5342520523911553 
3.4100000000027717, 0.6186365791736355 
3.420000000002793, 0.6581047677542718 
3.430000000002814, 0.6718514466232441 
3.440000000002835, 0.6770727481659825 
3.450000000002856, 0.6789365425428353 
3.460000000002877, 0.6789745827317268 
3.4700000000028983, 0.6773417095560444 
3.4800000000029194, 0.6729992007671777 
3.4900000000029405, 0.6621182273155206 
3.5000000000029616, 0.6305587690164239 
3.5100000000029827, 0.5257896497704073 
3.520000000003004, 0.4982172094857934 
3.530000000003025, 1.636390318354044 
3.540000000003046, 1.7839676229027355 
3.550000000003067, 1.7972330709381776 
3.5600000000030882, 1.7991432775728768 
3.5700000000031094, 1.7974779059195427 
3.5800000000031305, 1.7879387795444175 
3.5900000000031516, 1.7082595434916317 
3.6000000000031727, 0.8535461105056166 
3.6100000000031938, 0.7776760772347786 
3.620000000003215, 0.890640969933038 
3.630000000003236, 0.9186253300926698 
3.640000000003257, 0.9267388808060393 
3.650000000003278, 0.9292500143073965 
3.6600000000032993, 0.9294542011743664 
3.6700000000033204, 0.9280288529927585 
3.6800000000033415, 0.9246026899990966 
3.6900000000033626, 0.9184832836240091 
3.7000000000033837, 0.9143990781214981 
3.710000000003405, 0.9437232729351429 
3.720000000003426, 1.0144620805379527 
3.730000000003447, 1.0580819252851266 
3.740000000003468, 1.0735843245021428 
3.750000000003489, 1.078655431970808 
3.7600000000035103, 1.0798673547673592 
3.7700000000035314, 1.0787408384522 
3.7800000000035525, 1.0739508129376285 
3.7900000000035736, 1.0568110073561772 
3.8000000000035947, 0.9715798152154468 
3.810000000003616, 0.538672021592085 
3.820000000003637, 0.142643926395172 
3.830000000003658, 0.10900200289052775 
3.840000000003679, 0.12124511480832594 
3.8500000000037002, 0.12993037206473051 
3.8600000000037213, 0.13448045946181794 
3.8700000000037424, 0.1367551118438215 
3.8800000000037635, 0.1377944665274153 
3.8900000000037847, 0.13807896799604408 
3.9000000000038058, 0.13778716184397793 
3.910000000003827, 0.13690068916045847 
3.920000000003848, 0.13520384554901546 
3.930000000003869, 0.13216994830389886 
3.94000000000389, 0.12661466334972277 
3.9500000000039113, 0.11567318406329127 
3.9600000000039324, 0.09139425573665774 
3.9700000000039535, 0.027287750249067193 
3.9800000000039746, -0.1809318841794953 
3.9900000000039957, -0.8256540090335889 
4.000000000004016, -1.5560833984725482 
4.010000000003993, -1.7959599967075863 
4.02000000000397, -1.8531516720111338 
4.030000000003946, -1.8684504389040988 
4.040000000003923, -1.8728573566873632 
4.0500000000039, -1.8737906446470767 
4.0600000000038765, -1.8735000876520291 
4.070000000003853, -1.8731886572849343 
4.08000000000383, -1.873462997634307 
4.090000000003807, -1.8739002282124038 
4.100000000003783, -1.8740080847833933 
4.11000000000376, -1.8739648639924282 
4.120000000003737, -1.8739547688191511 
4.130000000003713, -1.8735346309179477 
4.14000000000369, -1.8717773012457055 
4.150000000003667, -1.8668963879049674 
4.1600000000036434, -1.8543813207996553 
4.17000000000362, -1.8221282363392113 
4.180000000003597, -1.737936393050338 
4.1900000000035735, -1.5237405052829445 
4.20000000000355, -1.0825393668686962 
4.210000000003527, -0.5856646602906017 
4.220000000003504, -0.308028187190467 
4.23000000000348, -0.19260429991656894 
4.240000000003457, -0.14354582729690749 
4.250000000003434, -0.12053231124612526 
4.26000000000341, -0.10871747107741139 
4.270000000003387, -0.10225718876212012 
4.280000000003364, -0.09863437149225984 
4.2900000000033405, -0.09668944885291339 
4.300000000003317, -0.09588404820677296 
4.310000000003294, -0.09601181537123944 
4.320000000003271, -0.09709684255996723 
4.330000000003247, -0.09939873532820989 
4.340000000003224, -0.10352570227355748 
4.350000000003201, -0.11074055613934815 
4.360000000003177, -0.12372800281766645 
4.370000000003154, -0.1486323418781024 
4.380000000003131, -0.20089199788877338 
4.390000000003107, -0.3219185296472391 
4.400000000003084, -0.606534275188119 
4.410000000003061, -1.0866861646867718 
4.4200000000030375, -1.458545369336712 
4.430000000003014, -1.6050595805367962 
4.440000000002991, -1.6513757337603052 
4.450000000002968, -1.6661931360092694 
4.460000000002944, -1.671023884236139 
4.470000000002921, -1.6722884551265007 
4.480000000002898, -1.6721386276937373 
4.490000000002874, -1.6717450896242085 
4.500000000002851, -1.6721075140040647 
4.510000000002828, -1.6733817308593504 
4.520000000002804, -1.6747951364697102 
4.530000000002781, -1.6758250799306573 
4.540000000002758, -1.6765160687710938 
4.5500000000027345, -1.6769318363972818 
4.560000000002711, -1.6768436182396058 
4.570000000002688, -1.675833199332322 
4.580000000002665, -1.673355432319827 
4.590000000002641, -1.6686745178853193 
4.600000000002618, -1.660793879146721 
4.610000000002595, -1.6482638268309717 
4.620000000002571, -1.628518963292541 
4.630000000002548, -1.5962624159891996 
4.640000000002525, -1.5407205608170533 
4.6500000000025015, -1.44741206515493 
4.660000000002478, -1.3296738831960857 
4.670000000002455, -1.2530470592252851 
4.6800000000024315, -1.2351098194152788 
4.690000000002408, -1.2385558073392235 
4.700000000002385, -1.2432024888248903 
4.710000000002362, -1.2456176529083245 
4.720000000002338, -1.2460566432845233 
4.730000000002315, -1.2445314131984897 
4.740000000002292, -1.2397010175340504 
4.750000000002268, -1.2265220468497735 
4.760000000002245, -1.1864164065970264 
4.770000000002222, -1.0393273664034521 
4.7800000000021985, -0.398797474666427 
4.790000000002175, 0.7608874032362013 
4.800000000002152, 0.9952757248553119 
4.810000000002129, 1.0279972378731874 
4.820000000002105, 1.0354910918597442 
4.830000000002082, 1.037325191274236 
4.840000000002059, 1.0367896864299957 
4.850000000002035, 1.0339205551606332 
4.860000000002012, 1.0267434306980205 
4.870000000001989, 1.0107401135317964 
4.880000000001965, 0.9833849924868179 
4.890000000001942, 0.9587501903311605 
4.900000000001919, 0.9506341231711695 
4.9100000000018955, 0.9512335877981124 
4.920000000001872, 0.95295895411754 
4.930000000001849, 0.953858779320816 
4.940000000001826, 0.9535918018068974 
4.950000000001802, 0.951570228596046 
