t, s[1].omega / s[0].omega 
0, -0.37986798948333084 
0.009999999999999995, -0.3690758359572798 
0.019999999999999934, -0.361856602089872 
0.029999999999999874, -0.3569040889474503 
0.04000000000000012, -0.353407952735001 
0.050000000000000405, -0.3508757822854167 
0.06000000000000069, -0.3490164997903463 
0.07000000000000098, -0.3476763675322964 
0.08000000000000126, -0.346806394185227 
0.09000000000000155, -0.34645011932351866 
0.10000000000000184, -0.34675040889927466 
0.11000000000000212, -0.3479803209864915 
0.12000000000000241, -0.35061018651118725 
0.130000000000002, -0.355436070614513 
0.1400000000000009, -0.3638207259227268 
0.1499999999999998, -0.378148441530024 
0.1599999999999987, -0.4026823808659383 
0.1699999999999976, -0.4451014549845498 
0.1799999999999965, -0.5187212029637732 
0.1899999999999954, -0.6431111698092302 
0.1999999999999943, -0.8335029230016057 
0.2099999999999932, -1.0690748163684942 
0.2199999999999921, -1.2811775327595227 
0.229999999999991, -1.4172397006352357 
0.2399999999999899, -1.4843263513475393 
0.2499999999999888, -1.5127794053934793 
0.2599999999999877, -1.5240704816253807 
0.2699999999999866, -1.5282973056783482 
0.2799999999999855, -1.5295341209387001 
0.2899999999999844, -1.5294472046984784 
0.2999999999999833, -1.5290286857357285 
0.3099999999999822, -1.529233729003267 
0.3199999999999811, -1.5305332932181774 
0.32999999999998, -1.5324120462890325 
0.3399999999999789, -1.5341302116333713 
0.3499999999999778, -1.5354445850252898 
0.35999999999997667, -1.5364106855402944 
0.36999999999997557, -1.536998195918525 
0.37999999999997447, -1.5370241772809794 
0.38999999999997337, -1.5362638648995595 
0.39999999999997227, -1.534514300148427 
0.40999999999997117, -1.5316048408767602 
0.41999999999997006, -1.5273723389567953 
0.42999999999996896, -1.5215772477403908 
0.43999999999996786, -1.5137546109593383 
0.44999999999996676, -1.502995211932572 
0.45999999999996566, -1.4877028507475152 
0.46999999999996456, -1.4658794768635262 
0.47999999999996346, -1.4379572068825226 
0.48999999999996235, -1.4125235958027873 
0.49999999999996125, -1.4007073267176258 
0.5099999999999602, -1.399998660832654 
0.519999999999959, -1.4019676841883728 
0.529999999999958, -1.4030486480145792 
0.5399999999999568, -1.4025178901647677 
0.5499999999999557, -1.3994866353486677 
0.5599999999999546, -1.390519829262251 
0.5699999999999535, -1.3622182072917743 
0.5799999999999524, -1.253422513574201 
0.5899999999999513, -0.7363448893653374 
0.5999999999999502, 0.6729465956774943 
0.6099999999999491, 1.0496187374151187 
0.619999999999948, 1.092873375809321 
0.6299999999999469, 1.1017273688761633 
0.6399999999999458, 1.1038505998509975 
0.6499999999999447, 1.10341092058618 
0.6599999999999436, 1.1005241042240563 
0.6699999999999425, 1.0928557976333104 
0.6799999999999414, 1.0743285451088964 
0.6899999999999403, 1.0404986514924048 
0.6999999999999392, 1.011939082149566 
0.7099999999999381, 1.0058384384151116 
0.719999999999937, 1.00829206968303 
0.7299999999999359, 1.0106410773286858 
0.7399999999999348, 1.011595617929376 
0.7499999999999337, 1.0110907113998184 
0.7599999999999326, 1.0083988680694926 
0.7699999999999315, 1.0001824303742461 
0.7799999999999304, 0.9706472122770222 
0.7899999999999293, 0.8298402655248969 
0.7999999999999282, 0.8845417976697695 
0.8099999999999271, 1.9445640697392874 
0.819999999999926, 2.007920311904168 
0.8299999999999249, 2.014298170417434 
0.8399999999999238, 2.014386184149879 
0.8499999999999227, 2.0096855673007323 
0.8599999999999216, 1.9732339501374128 
0.8699999999999205, 0.9962010325650736 
0.8799999999999194, -0.528691012697227 
0.8899999999999183, -0.6899121300195961 
0.8999999999999172, -0.7403391092240035 
0.9099999999999161, -0.7629662270258794 
0.919999999999915, -0.7738624153340419 
0.9299999999999139, -0.7792050900892952 
0.9399999999999128, -0.7816762518070495 
0.9499999999999117, -0.782408097145282 
0.9599999999999106, -0.7817161955562344 
0.9699999999999095, -0.7792840414738283 
0.9799999999999084, -0.7739769832269835 
0.9899999999999073, -0.7633285296509282 
0.9999999999999062, -0.7431518019461412 
1.0099999999999052, -0.7092893198455194 
1.019999999999904, -0.6634285427843541 
1.029999999999903, -0.6157176201545367 
1.039999999999902, -0.5759998245710067 
1.0499999999999008, -0.5468902575150825 
1.0599999999998997, -0.5264503979515791 
1.0699999999998986, -0.5120340983476867 
1.0799999999998975, -0.5016356555709487 
1.0899999999998964, -0.49395032012503426 
1.0999999999998953, -0.4881660480193838 
1.1099999999998942, -0.48378299412017334 
1.119999999999893, -0.48049468514355287 
1.129999999999892, -0.4781137411842856 
1.1399999999998909, -0.476525648286679 
1.1499999999998898, -0.47566059334695937 
1.1599999999998887, -0.47547773579194025 
1.1699999999998876, -0.47595881460775813 
1.1799999999998865, -0.47710964034791303 
1.1899999999998854, -0.47896932904334905 
1.1999999999998843, -0.4816283783035569 
1.2099999999998832, -0.48525812580582767 
1.219999999999882, -0.4901563325988635 
1.229999999999881, -0.4968174707915304 
1.2399999999998799, -0.50603996546985 
1.2499999999998788, -0.5190690760099346 
1.2599999999998777, -0.5376767659642396 
1.2699999999998766, -0.5637463549763331 
1.2799999999998755, -0.5974473198701169 
1.2899999999998744, -0.6343096892973196 
1.2999999999998733, -0.6661238563066412 
1.3099999999998722, -0.6877635520638459 
1.319999999999871, -0.7001277776597223 
1.32999999999987, -0.7064745626164445 
1.3399999999998689, -0.7093939983023664 
1.3499999999998678, -0.7102991136008605 
1.3599999999998666, -0.7097442217696679 
1.3699999999998655, -0.7076440513634734 
1.3799999999998644, -0.7031513318473877 
1.3899999999998633, -0.6938674458983115 
1.3999999999998622, -0.672994749884529 
1.4099999999998611, -0.6175408827457338 
1.41999999999986, -0.42770010621802657 
1.429999999999859, 0.2070164739593095 
1.4399999999998578, 0.7299562775325156 
1.4499999999998567, 0.8327168662180788 
1.4599999999998556, 0.8541208900614758 
1.4699999999998545, 0.8601402250021793 
1.4799999999998534, 0.8617553124507369 
1.4899999999998523, 0.8612853579496516 
1.4999999999998512, 0.8588689788393831 
1.5099999999998501, 0.8534761464159042 
1.519999999999849, 0.8432005715593096 
1.529999999999848, 0.8273046458386265 
1.5399999999998468, 0.8105413742125501 
1.5499999999998457, 0.8000489992730989 
1.5599999999998446, 0.7962985426812389 
1.5699999999998435, 0.795735592349248 
1.5799999999998424, 0.7959500867810881 
1.5899999999998413, 0.7959581878281633 
1.5999999999998402, 0.795257088526908 
1.6099999999998391, 0.7931003497361921 
1.619999999999838, 0.787306523103078 
1.629999999999837, 0.769040923245188 
1.6399999999998358, 0.6818602327375299 
1.6499999999998347, -0.19317560733999958 
1.6599999999998336, -2.5612495935752433 
1.6699999999998325, -2.8302111487936683 
1.6799999999998314, -2.8640592266237066 
1.6899999999998303, -2.871947857080357 
1.6999999999998292, -2.8737140009790876 
1.709999999999828, -2.8729641493112856 
1.719999999999827, -2.8699481747805464 
1.729999999999826, -2.861440238412663 
1.7399999999998248, -2.837157128754638 
1.7499999999998237, -2.8205048371152825 
1.7599999999998226, -2.82845296953641 
1.7699999999998215, -2.8309064372394093 
1.7799999999998204, -2.8298316560906756 
1.7899999999998193, -2.8288741927005296 
1.7999999999998182, -2.8325310149157668 
1.809999999999817, -2.8356729753375998 
1.819999999999816, -2.836654876759932 
1.8299999999998149, -2.8365922116965194 
1.8399999999998138, -2.834724635846426 
1.8499999999998127, -2.8260813729813226 
1.8599999999998116, -2.7713082576725965 
1.8699999999998105, -1.888760158585156 
1.8799999999998094, 0.8108190468191981 
1.8899999999998083, 1.0230330663664555 
1.8999999999998072, 1.0476742587339054 
1.909999999999806, 1.0533252468740324 
1.919999999999805, 1.0547057224409642 
1.9299999999998039, 1.05439126581532 
1.9399999999998028, 1.0528444559581231 
1.9499999999998017, 1.0499721867369751 
1.9599999999998006, 1.045756043053972 
1.9699999999997995, 1.0408775600296516 
1.9799999999997984, 1.036729390159151 
1.9899999999997973, 1.0342621904856983 
1.9999999999997962, 1.0332424289983826 
2.0099999999998173, 1.032863624584928 
2.0199999999998384, 1.0323729316785317 
2.0299999999998595, 1.030986719050266 
2.0399999999998806, 1.02698237177731 
2.0499999999999017, 1.0133561421134472 
2.059999999999923, 0.9390436454417019 
2.069999999999944, -0.1535536071181519 
2.079999999999965, -2.9166678873663012 
2.089999999999986, -3.0945601266266114 
2.100000000000007, -3.1152022429040684 
2.1100000000000283, -3.1195454852724396 
2.1200000000000494, -3.11975257946065 
2.1300000000000705, -3.117475061044334 
2.1400000000000916, -3.1100900845892068 
2.1500000000001127, -3.0806869131216534 
2.160000000000134, -3.0376039087816396 
2.170000000000155, -3.053188939346316 
2.180000000000176, -3.058016514795718 
2.190000000000197, -3.0576970273029023 
2.2000000000002182, -3.057143228458483 
2.2100000000002393, -3.058775413286729 
2.2200000000002604, -3.0595819913605737 
2.2300000000002815, -3.0594739277530447 
2.2400000000003026, -3.058803057565218 
2.2500000000003237, -3.054611720239784 
2.260000000000345, -3.0224107711693935 
2.270000000000366, -2.2544678533678857 
2.280000000000387, 2.7918065124284435 
2.290000000000408, 2.9374527036651648 
2.3000000000004293, 2.9420317368181252 
2.3100000000004504, 2.9399237282785853 
2.3200000000004715, 2.908998669560318 
2.3300000000004926, -2.1611695428814293 
2.3400000000005137, -3.8615512585107448 
2.3500000000005348, -3.881288341134799 
2.360000000000556, -3.8822217559945758 
2.370000000000577, -3.8807159797998123 
2.380000000000598, -3.8755899773263387 
2.390000000000619, -3.8683939611082714 
2.4000000000006403, -3.870989241510572 
2.4100000000006614, -3.8703886669312495 
2.4200000000006825, -3.8689937071812666 
2.4300000000007036, -3.8723909503779352 
2.4400000000007247, -3.873352458068724 
2.450000000000746, -3.872918052655373 
2.460000000000767, -3.8690212651689393 
2.470000000000788, -3.811402939636534 
2.480000000000809, -3.897195286015117 
2.49000000000083, -4.526728148131775 
2.5000000000008513, -4.538778195996313 
2.5100000000008724, -4.538810226374577 
2.5200000000008935, -4.53231182762776 
2.5300000000009146, -4.40293477044701 
2.5400000000009357, 2.092056970971506 
2.550000000000957, 2.317992919424115 
2.560000000000978, 2.326631163026276 
2.570000000000999, 2.327469765137627 
2.58000000000102, 2.3266595326043786 
2.5900000000010412, 2.323980164134773 
2.6000000000010624, 2.3186822346808578 
2.6100000000010835, 2.314925757701013 
2.6200000000011046, 2.315369917654416 
2.6300000000011257, 2.3155110864505715 
2.6400000000011468, 2.3126027809654914 
2.650000000001168, 2.3014988610796894 
2.660000000001189, 2.3101567041001885 
2.67000000000121, 2.3472868306258037 
2.680000000001231, 2.35693250590789 
2.6900000000012523, 2.3583528039000687 
2.7000000000012734, 2.35644161377285 
2.7100000000012945, 2.34107261976008 
2.7200000000013156, 1.3633815680543688 
2.7300000000013367, -4.298735456824787 
2.740000000001358, -4.341450935787926 
2.750000000001379, -4.34381643007227 
2.7600000000014, -4.3415075694960334 
2.770000000001421, -4.325561074089022 
2.780000000001442, -4.247571447157477 
2.7900000000014633, -4.282955019882034 
2.8000000000014844, -4.285745191586427 
2.8100000000015055, -4.285021330371324 
2.8200000000015266, -4.283918439772295 
2.8300000000015477, -4.281796976385086 
2.840000000001569, -4.28157296257289 
2.85000000000159, -4.27729604641457 
2.860000000001611, -4.277465480938266 
2.870000000001632, -4.289226988651505 
2.8800000000016532, -4.290816699097357 
2.8900000000016743, -4.28934267019975 
2.9000000000016954, -4.272951898031279 
2.9100000000017165, -1.9678570942990823 
2.9200000000017377, 2.982668076479239 
2.9300000000017588, 3.002727547324925 
2.94000000000178, 3.003141205183839 
2.950000000001801, 2.9952086765062305 
2.960000000001822, 2.652585658836879 
2.970000000001843, 0.6785273941176624 
2.9800000000018643, 1.2452088745338947 
2.9900000000018854, 1.305006381625398 
3.0000000000019065, 1.3152303045265952 
3.0100000000019276, 1.3175595469499002 
3.0200000000019487, 1.3176973536828969 
3.03000000000197, 1.3171374247631245 
3.040000000001991, 1.3171244804893951 
3.050000000002012, 1.3193984906367073 
3.060000000002033, 1.3244081779412797 
3.070000000002054, 1.3297948723530255 
3.0800000000020753, 1.3334362883033735 
3.0900000000020964, 1.335165488262041 
3.1000000000021175, 1.3354241307555637 
3.1100000000021386, 1.3341042772221132 
3.1200000000021597, 1.3290043307432853 
3.130000000002181, 1.3044978055448782 
3.140000000002202, 0.9787560720783993 
3.150000000002223, -2.881045575066351 
3.160000000002244, -3.255129049612866 
3.1700000000022652, -3.2780601276738657 
3.1800000000022863, -3.281197608558353 
3.1900000000023074, -3.280651078273146 
3.2000000000023285, -3.277921153626546 
3.2100000000023496, -3.26934083302042 
3.2200000000023707, -3.255616051690823 
3.230000000002392, -3.2588731828540802 
3.240000000002413, -3.260707577903252 
3.250000000002434, -3.2590810429974395 
3.260000000002455, -3.2592160426175796 
3.2700000000024763, -3.2631866956205386 
3.2800000000024974, -3.2646728950809694 
3.2900000000025185, -3.2647008113348877 
3.3000000000025396, -3.263050316016149 
3.3100000000025607, -3.252561715606273 
3.3200000000025818, -3.1036983637568687 
3.330000000002603, 1.4730622145287935 
3.340000000002624, 2.099620446411924 
3.350000000002645, 2.1172566344064827 
3.360000000002666, 2.11906129643286 
3.3700000000026873, 2.1168368994442472 
3.3800000000027084, 2.1026439449631718 
3.3900000000027295, 1.9415272636930603 
3.4000000000027506, 1.6520416353593297 
3.4100000000027717, 1.7623045846000138 
3.420000000002793, 1.7787414622075641 
3.430000000002814, 1.7815514669719132 
3.440000000002835, 1.7815725596306649 
3.450000000002856, 1.7811337030704997 
3.460000000002877, 1.7819670306210464 
3.4700000000028983, 1.7845067646266535 
3.4800000000029194, 1.786970022026671 
3.4900000000029405, 1.7882270964807598 
3.5000000000029616, 1.7884213197780223 
3.5100000000029827, 1.7875876886342759 
3.520000000003004, 1.784082745548296 
3.530000000003025, 1.7638504373327233 
3.540000000003046, 1.2635039347582744 
3.550000000003067, -3.6837861839781687 
3.5600000000030882, -3.81910965937388 
3.5700000000031094, -3.8285901216186327 
3.5800000000031305, -3.8292021340953766 
3.5900000000031516, -3.826149502328101 
3.6000000000031727, -3.809443048458445 
3.6100000000031938, -3.6642138513951394 
3.620000000003215, -3.6921596803124963 
3.630000000003236, -3.7073421877004664 
3.640000000003257, -3.7079765813028005 
3.650000000003278, -3.7073700886600895 
3.6600000000032993, -3.706481287433187 
3.6700000000033204, -3.704652288184853 
3.6800000000033415, -3.704363356845375 
3.6900000000033626, -3.701830120016518 
3.7000000000033837, -3.6886401004726457 
3.710000000003405, -3.7120574298766016 
3.720000000003426, -3.7289384228828055 
3.730000000003447, -3.7315837505128897 
3.740000000003468, -3.730880951852877 
3.750000000003489, -3.7245846351646117 
3.7600000000035103, -3.6655380761430365 
3.7700000000035314, -0.1442415569673589 
3.7800000000035525, 1.7080914266802647 
3.7900000000035736, 1.7453052823944357 
3.8000000000035947, 1.7499944325253551 
3.810000000003616, 1.7503485589801415 
3.820000000003637, 1.7485994167687604 
3.830000000003658, 1.743462631864024 
3.840000000003679, 1.7320768231863675 
3.8500000000037002, 1.719066328669258 
3.8600000000037213, 1.716620242155359 
3.8700000000037424, 1.7188152948588464 
3.8800000000037635, 1.719739340508194 
3.8900000000037847, 1.7184623207829435 
3.9000000000038058, 1.7129442171231015 
3.910000000003827, 1.6984167321535355 
3.920000000003848, 1.7147546745858375 
3.930000000003869, 1.7770372426984227 
3.94000000000389, 1.7980322800374158 
3.9500000000039113, 1.8028241187699332 
3.9600000000039324, 1.803213490826138 
3.9700000000039535, 1.800226616569601 
3.9800000000039746, 1.782393703382962 
3.9900000000039957, 1.3998050609886132 
4.000000000004016, -3.303986908485592 
4.010000000003993, -3.4842148874495704 
4.02000000000397, -3.494533996054571 
4.030000000003946, -3.495190988858223 
4.040000000003923, -3.493620347611168 
4.0500000000039, -3.4886608307648297 
4.0600000000038765, -3.4780001198682244 
4.070000000003853, -3.4789474659235347 
4.08000000000383, -3.4805218996329295 
4.090000000003807, -3.47860548791378 
4.100000000003783, -3.479264869394185 
4.11000000000376, -3.4832298830093835 
4.120000000003737, -3.4842522344298494 
4.130000000003713, -3.4839363489344457 
4.14000000000369, -3.4807312818347036 
4.150000000003667, -3.452141559226996 
4.1600000000036434, -2.046500334756312 
4.17000000000362, 2.6936601396018616 
4.180000000003597, 2.7411692578886315 
4.1900000000035735, 2.7437256921086535 
4.20000000000355, 2.740735174058411 
4.210000000003527, 2.701993339677766 
4.220000000003504, -0.21883728789334467 
4.23000000000348, -2.3285081858494254 
4.240000000003457, -2.5078034741004003 
4.250000000003434, -2.52619775233956 
4.26000000000341, -2.529048276004022 
4.270000000003387, -2.5289315883371364 
4.280000000003364, -2.528553406162529 
4.2900000000033405, -2.528619749474064 
4.300000000003317, -2.528177488958376 
4.310000000003294, -2.5274376714504005 
4.320000000003271, -2.5271430154406653 
4.330000000003247, -2.5260792612384724 
4.340000000003224, -2.5206866977738476 
4.350000000003201, -2.489366860384787 
4.360000000003177, -2.1305163638576734 
4.370000000003154, 1.5138974717431248 
4.380000000003131, 2.4522565216314858 
4.390000000003107, 2.470271463431703 
4.400000000003084, 2.4715129335220167 
4.410000000003061, 2.4676749146147925 
4.4200000000030375, 2.4251744466715546 
4.430000000003014, 0.1581972151864497 
4.440000000002991, -1.751800623486463 
4.450000000002968, -2.030957625068911 
4.460000000002944, -2.070317430191573 
4.470000000002921, -2.07799706911861 
4.480000000002898, -2.079362466122156 
4.490000000002874, -2.0788853864438197 
4.500000000002851, -2.078599209347016 
4.510000000002828, -2.0799828201354758 
4.520000000002804, -2.081960140500582 
4.530000000002781, -2.0831732239332337 
4.540000000002758, -2.0837275537110704 
4.5500000000027345, -2.0838468108713113 
4.560000000002711, -2.083078416947866 
4.570000000002688, -2.080289079436084 
4.580000000002665, -2.072717475010602 
4.590000000002641, -2.052466018239996 
4.600000000002618, -1.9945294899772605 
4.610000000002595, -1.8096912920691761 
4.620000000002571, -1.2394343537907082 
4.630000000002548, -0.4379385333849556 
4.640000000002525, -0.08436546996279917 
4.6500000000025015, 0.024076230976994177 
4.660000000002478, 0.06236159166384435 
4.670000000002455, 0.07845871443711495 
4.6800000000024315, 0.08604814429420997 
4.690000000002408, 0.08978828593157746 
4.700000000002385, 0.09148612533982059 
4.710000000002362, 0.09186498786712105 
4.720000000002338, 0.09112411091028336 
4.730000000002315, 0.08907225531098836 
4.740000000002292, 0.08499335842431137 
4.750000000002268, 0.07708048695168324 
4.760000000002245, 0.06063110948750087 
4.770000000002222, 0.021659897174715274 
4.7800000000021985, -0.08925488248111038 
4.790000000002175, -0.46076030639644106 
4.800000000002152, -1.3019067731729694 
4.810000000002129, -1.8565367530056296 
4.820000000002105, -2.026377171182126 
4.830000000002082, -2.079989157685521 
4.840000000002059, -2.0991672018332586 
4.850000000002035, -2.1062836276019956 
4.860000000002012, -2.1086125397879933 
4.870000000001989, -2.1088153794192435 
4.880000000001965, -2.107991889323803 
4.890000000001942, -2.106567917254313 
4.900000000001919, -2.1042975812556644 
4.9100000000018955, -2.100988018266024 
4.920000000001872, -2.0982415487680246 
4.930000000001849, -2.097726573717099 
4.940000000001826, -2.097779137040889 
4.950000000001802, -2.0961806971834873 
4.960000000001779, -2.089167630005676 
4.970000000001756, -2.057220841616132 
4.980000000001732, -1.8894683282451652 
4.990000000001709, -2.1559949545354256 
