t, s[1].omega / s[0].omega 
0, -0.4199702373425186 
0.009999999999999995, -0.4174671425509313 
0.019999999999999934, -0.4157540894727118 
0.029999999999999874, -0.41461296109965257 
0.04000000000000012, -0.41384206265218754 
0.050000000000000405, -0.41326987768495893 
0.06000000000000069, -0.4127740549625932 
0.07000000000000098, -0.41229849484200776 
0.08000000000000126, -0.4118630519823007 
0.09000000000000155, -0.41157702827170856 
0.10000000000000184, -0.4116808273665381 
0.11000000000000212, -0.4126527011703069 
0.12000000000000241, -0.4154512163489222 
0.130000000000002, -0.4220561196570631 
0.1400000000000009, -0.4366993755484982 
0.1499999999999998, -0.4686854188623423 
0.1599999999999987, -0.5382468949219709 
0.1699999999999976, -0.6826864385254161 
0.1799999999999965, -0.9312556259146593 
0.1899999999999954, -1.219537041685919 
0.1999999999999943, -1.4358908567642996 
0.2099999999999932, -1.5625055469507303 
0.2199999999999921, -1.6304454193199835 
0.229999999999991, -1.6652089659685703 
0.2399999999999899, -1.6819976740589837 
0.2499999999999888, -1.6895358843694104 
0.2599999999999877, -1.6925264077586566 
0.2699999999999866, -1.6933020399657432 
0.2799999999999855, -1.693039093377288 
0.2899999999999844, -1.6924956219977343 
0.2999999999999833, -1.6921199231654687 
0.3099999999999822, -1.6918287956817466 
0.3199999999999811, -1.6913613767607643 
0.32999999999998, -1.6908524870678554 
0.3399999999999789, -1.6906225759125397 
0.3499999999999778, -1.690508260124585 
0.35999999999997667, -1.6898456257139411 
0.36999999999997557, -1.687687492121532 
0.37999999999997447, -1.6823123165126261 
0.38999999999997337, -1.6699434857853284 
0.39999999999997227, -1.642611534971186 
0.40999999999997117, -1.5852141940627489 
0.41999999999997006, -1.4725591643436273 
0.42999999999996896, -1.272843938626014 
0.43999999999996786, -0.986960918968381 
0.44999999999996676, -0.7077335281337848 
0.45999999999996566, -0.525336758745746 
0.46999999999996456, -0.4304000257541246 
0.47999999999996346, -0.38385826160228087 
0.48999999999996235, -0.3607762949076127 
0.49999999999996125, -0.34903149721660837 
0.5099999999999602, -0.3429534560038556 
0.519999999999959, -0.339820403858291 
0.529999999999958, -0.33827347185005124 
0.5399999999999568, -0.3376104080224077 
0.5499999999999557, -0.337462974279675 
0.5599999999999546, -0.33764688200596216 
0.5699999999999535, -0.33809420765749576 
0.5799999999999524, -0.33882764756852285 
0.5899999999999513, -0.339956191533629 
0.5999999999999502, -0.3416829119087951 
0.6099999999999491, -0.3443267820120544 
0.619999999999948, -0.3483682319995517 
0.6299999999999469, -0.35451434076319877 
0.6399999999999458, -0.36370849293089735 
0.6499999999999447, -0.37683777373302785 
0.6599999999999436, -0.39378638467829685 
0.6699999999999425, -0.41228900669297097 
0.6799999999999414, -0.4286332343345406 
0.6899999999999403, -0.44040919183404725 
0.6999999999999392, -0.4476659197063402 
0.7099999999999381, -0.4516301997585864 
0.719999999999937, -0.4534330206194874 
0.7299999999999359, -0.4537172976857054 
0.7399999999999348, -0.45263408984572406 
0.7499999999999337, -0.4498063220984392 
0.7599999999999326, -0.44405160742154715 
0.7699999999999315, -0.43269445681743673 
0.7799999999999304, -0.41063959533581346 
0.7899999999999293, -0.37158362668324224 
0.7999999999999282, -0.31659364751856434 
0.8099999999999271, -0.26134579474039155 
0.819999999999926, -0.2207377656004578 
0.8299999999999249, -0.19582427156661014 
0.8399999999999238, -0.18136352719229817 
0.8499999999999227, -0.17287690044166482 
0.8599999999999216, -0.16773394342679743 
0.8699999999999205, -0.16451565920545783 
0.8799999999999194, -0.16244442656073838 
0.8899999999999183, -0.16107156094690794 
0.8999999999999172, -0.1601292908865825 
0.9099999999999161, -0.15946621148202544 
0.919999999999915, -0.15902180195090465 
0.9299999999999139, -0.1588244520127879 
0.9399999999999128, -0.15902061618217123 
0.9499999999999117, -0.15997099266712084 
0.9599999999999106, -0.162517993631621 
0.9699999999999095, -0.1687550686372628 
0.9799999999999084, -0.18449865307116717 
0.9899999999999073, -0.22863931667763265 
0.9999999999999062, -0.3781090500920551 
1.0099999999999052, -1.101952226937562 
1.019999999999904, -2.8168865522127424 
1.029999999999903, -3.0363595879177803 
1.039999999999902, -3.0609956697460516 
1.0499999999999008, -3.0664732218526245 
1.0599999999998997, -3.067326223299995 
1.0699999999998986, -3.065672004332995 
1.0799999999998975, -3.0600617046545007 
1.0899999999998964, -3.0383563076533995 
1.0999999999998953, -2.9406429864250283 
1.1099999999998942, -2.9184599603527865 
1.119999999999893, -2.9414041473472015 
1.129999999999892, -2.944888577408514 
1.1399999999998909, -2.9444418270243484 
1.1499999999998898, -2.9442582570709286 
1.1599999999998887, -2.9453330106625897 
1.1699999999998876, -2.9455028798784744 
1.1799999999998865, -2.945219618028273 
1.1899999999998854, -2.9445154680716596 
1.1999999999998843, -2.940262641357312 
1.2099999999998832, -2.9094344327770214 
1.219999999999882, -2.357051997935836 
1.229999999999881, 2.296481750959886 
1.2399999999998799, 4.255497156017193 
1.2499999999998788, 4.259735447306512 
1.2599999999998777, 4.252501354164052 
1.2699999999998766, -4.316187869284558 
1.2799999999998755, -6.005735232066675 
1.2899999999998744, -6.007858071017308 
1.2999999999998733, -6.000495128360514 
1.3099999999998722, -5.924937239602047 
1.319999999999871, -5.963171190096445 
1.32999999999987, -5.9626144165785355 
1.3399999999998689, -5.958852250912313 
1.3499999999998678, -5.9567079778818535 
1.3599999999998666, -5.956090277194681 
1.3699999999998655, -5.95589796507887 
1.3799999999998644, -5.955173123405698 
1.3899999999998633, -5.953259713991941 
1.3999999999998622, -5.940752508566759 
1.4099999999998611, -5.961701499440416 
1.41999999999986, -5.962142949880336 
1.429999999999859, -5.951428789215671 
1.4399999999998578, -5.724154040313632 
1.4499999999998567, -7.036192030062973 
1.4599999999998556, -7.0360482834633045 
1.4699999999998545, -6.952521096411742 
1.4799999999998534, 5.016219988988252 
1.4899999999998523, 5.024638168757166 
1.4999999999998512, 5.018265468201383 
1.5099999999998501, 4.816176932693516 
1.519999999999849, 4.925598870456676 
1.529999999999848, 4.926244304815517 
1.5399999999998468, 4.92286540967766 
1.5499999999998457, 4.915699494889463 
1.5599999999998446, 4.918519383537505 
1.5699999999998435, 4.917255810527467 
1.5799999999998424, 4.917982361590227 
1.5899999999998413, 4.917121600213747 
1.5999999999998402, 4.91545882614424 
1.6099999999998391, 4.89944493863089 
1.619999999999838, 4.925880113326049 
1.629999999999837, 4.928336006769722 
1.6399999999998358, 4.92273798616735 
1.6499999999998347, 2.3951890449485083 
1.6599999999998336, 6.151442669531826 
1.6699999999998325, 6.150396138308511 
1.6799999999998314, -5.84938012253896 
1.6899999999998303, -8.10504474432027 
1.6999999999998292, -8.101418954459259 
1.709999999999828, -7.749281566653515 
1.719999999999827, -7.89399161783602 
1.729999999999826, -7.8901345035432895 
1.7399999999998248, -7.874300308845518 
1.7499999999998237, -7.879190318573221 
1.7599999999998226, -7.87577958953243 
1.7699999999998215, -7.873773545308749 
1.7799999999998204, -7.871955225463518 
1.7899999999998193, -7.870460917594132 
1.7999999999998182, -7.867790783875968 
1.809999999999817, -7.86775686075153 
1.819999999999816, -7.867736571221999 
1.8299999999998149, -7.848292605675837 
1.8399999999998138, -7.882769660833587 
1.8499999999998127, -7.882801020257162 
1.8599999999998116, -7.477409411825566 
1.8699999999998105, 8.431914751411496 
1.8799999999998094, 8.428720262265998 
1.8899999999998083, -10.414283439105985 
1.8999999999998072, -10.416254345341269 
1.909999999999806, -9.335785180422143 
1.919999999999805, -9.445343172065346 
1.9299999999998039, -9.413718190176096 
1.9399999999998028, -9.416324336879896 
1.9499999999998017, -9.412745011793174 
1.9599999999998006, -9.40727169275988 
1.9699999999997995, -9.405770087199649 
1.9799999999997984, -9.401703791665401 
1.9899999999997973, -9.39961750852713 
1.9999999999997962, -9.39760464699684 
2.0099999999998173, -9.393225850030944 
2.0199999999998384, -9.394139323341513 
2.0299999999998595, -9.389886229017005 
2.0399999999998806, -9.394571709838917 
2.0499999999999017, -9.393981511161893 
2.059999999999923, -9.384024298311887 
2.069999999999944, -9.479934647531676 
2.079999999999965, -9.42734882950608 
2.089999999999986, 7.735408273168375 
2.100000000000007, 7.7319037950109335 
2.1100000000000283, -9.466994234829254 
2.1200000000000494, -9.477153641961397 
2.1300000000000705, -9.114824834620595 
2.1400000000000916, -9.381071957805108 
2.1500000000001127, -9.37356674746849 
2.160000000000134, -9.367744659874923 
2.170000000000155, -9.365690334358685 
2.180000000000176, -9.360832905709378 
2.190000000000197, -9.359410039264427 
2.2000000000002182, -9.356384746530372 
2.2100000000002393, -9.353153749103573 
2.2200000000002604, -9.352600236727435 
2.2300000000002815, -9.34810945644947 
2.2400000000003026, -9.350278788309904 
2.2500000000003237, -9.347885019814969 
2.260000000000345, -9.355361836642578 
2.270000000000366, -9.369081204579633 
2.280000000000387, -9.0239865232077 
2.290000000000408, -10.796851022458169 
2.3000000000004293, -10.781849458415474 
2.3100000000004504, 8.811463528500715 
2.3200000000004715, 8.805002335918454 
2.3300000000004926, -8.863389374371275 
2.3400000000005137, -8.875071561668808 
2.3500000000005348, -8.821343595287278 
2.360000000000556, -8.844565915229447 
2.370000000000577, -8.84155945746042 
2.380000000000598, -8.835233965367259 
2.390000000000619, -8.834831436736973 
2.4000000000006403, -8.830991686972922 
2.4100000000006614, -8.829300452782007 
2.4200000000006825, -8.827931631500814 
2.4300000000007036, -8.825424559664036 
2.4400000000007247, -8.823074058185034 
2.450000000000746, -8.823755108812957 
2.460000000000767, -8.792160745578915 
2.470000000000788, -8.83551007737389 
2.480000000000809, -8.831152147243772 
2.49000000000083, -9.291273370477288 
2.5000000000008513, -9.3229203676816 
2.5100000000008724, -9.180686748935887 
2.5200000000008935, 7.3407385950647335 
2.5300000000009146, 7.337213896312751 
2.5400000000009357, 5.988068730651047 
2.550000000000957, 6.139309355222791 
2.560000000000978, 6.136656677384739 
2.570000000000999, 6.091273542881217 
2.58000000000102, 6.1165924020602365 
2.5900000000010412, 6.115672536640604 
2.6000000000010624, 6.110319781878382 
2.6100000000010835, 6.110907767994076 
2.6200000000011046, 6.109311811126641 
2.6300000000011257, 6.109550419240266 
2.6400000000011468, 6.108163864090676 
2.650000000001168, 6.100489104998264 
2.660000000001189, 6.110536534546953 
2.67000000000121, 6.111352422287972 
2.680000000001231, 6.093007670408069 
2.6900000000012523, 6.205583840260401 
2.7000000000012734, 6.213716348283337 
2.7100000000012945, 6.183381250808026 
2.7200000000013156, -8.230344277136279 
2.7300000000013367, -8.233904085212847 
2.740000000001358, -8.077016810667944 
2.750000000001379, 5.847229866443477 
2.7600000000014, 5.850072235237652 
2.770000000001421, 5.8309080383199285 
2.780000000001442, 5.812885804662356 
2.7900000000014633, 5.817435580309163 
2.8000000000014844, 5.815374862905819 
2.8100000000015055, 5.809640523362371 
2.8200000000015266, 5.81108831099967 
2.8300000000015477, 5.8099422937917815 
2.840000000001569, 5.809784627277937 
2.85000000000159, 5.8084470093325145 
2.860000000001611, 5.799644494139901 
2.870000000001632, 5.8117497019072255 
2.8800000000016532, 5.812668051346436 
2.8900000000016743, 5.7991486743153615 
2.9000000000016954, 5.930805785187942 
2.9100000000017165, 5.948954742985194 
2.9200000000017377, 5.938526789935248 
2.9300000000017588, -7.934417245393307 
2.94000000000178, -7.954136609784435 
2.950000000001801, -7.939071874082336 
2.960000000001822, 4.628955342062009 
2.970000000001843, 4.7458457782270305 
2.9800000000018643, 4.745870918911525 
2.9900000000018854, 4.73497738310743 
3.0000000000019065, 4.71884267532772 
3.0100000000019276, 4.727140814670698 
3.0200000000019487, 4.726669851986413 
3.03000000000197, 4.725639215026383 
3.040000000001991, 4.723517738489915 
3.050000000002012, 4.722962125650352 
3.060000000002033, 4.717674739595222 
3.070000000002054, 4.725060887943098 
3.0800000000020753, 4.7268919215956675 
3.0900000000020964, 4.72458608745632 
3.1000000000021175, 4.607159084946119 
3.1100000000021386, 4.862597259795288 
3.1200000000021597, 4.870239215250797 
3.130000000002181, 4.863876598080436 
3.140000000002202, -6.485311127357093 
3.150000000002223, -6.864815307237761 
3.160000000002244, -6.863855482201276 
3.1700000000022652, -6.759547700609588 
3.1800000000022863, -6.4647484384799885 
3.1900000000023074, -6.473918445983472 
3.2000000000023285, -6.470412508797921 
3.2100000000023496, -6.451408808124471 
3.2200000000023707, -6.460520453432584 
3.230000000002392, -6.459298359588762 
3.240000000002413, -6.456342243794239 
3.250000000002434, -6.455674356149194 
3.260000000002455, -6.453047130766396 
3.2700000000024763, -6.454789836324709 
3.2800000000024974, -6.453472884496932 
3.2900000000025185, -6.434622513765683 
3.3000000000025396, -6.465229255144827 
3.3100000000025607, -6.467693497928852 
3.3200000000025818, -6.458780638377981 
3.330000000002603, 5.231589492910926 
3.340000000002624, 5.728283772739049 
3.350000000002645, 5.726133949242079 
3.360000000002666, -5.720059616818079 
3.3700000000026873, -7.601064834892287 
3.3800000000027084, -7.5989455752270345 
3.3900000000027295, -7.29018088745074 
3.4000000000027506, -7.497861810932531 
3.4100000000027717, -7.49629306176774 
3.420000000002793, -7.479942028835635 
3.430000000002814, -7.487435807739779 
3.440000000002835, -7.485702538549042 
3.450000000002856, -7.4823798452458785 
3.460000000002877, -7.480925285675016 
3.4700000000028983, -7.480589264253107 
3.4800000000029194, -7.47912023141874 
3.4900000000029405, -7.469407560508695 
3.5000000000029616, -7.480824503016114 
3.5100000000029827, -7.47969978758142 
3.520000000003004, -7.3341420713848695 
3.530000000003025, -7.570299196682086 
3.540000000003046, -7.570239504719877 
3.550000000003067, -7.307499953635461 
3.5600000000030882, 5.693578396021793 
3.5700000000031094, 5.695368780367073 
3.5800000000031305, 5.58792718999396 
3.5900000000031516, -6.42553036612733 
3.6000000000031727, -6.438441715230721 
3.6100000000031938, -6.434923659971226 
3.620000000003215, -6.394417914413755 
3.630000000003236, -6.416264165096548 
3.640000000003257, -6.4153787436618925 
3.650000000003278, -6.411675277888993 
3.6600000000032993, -6.41090349071699 
3.6700000000033204, -6.408914697066777 
3.6800000000033415, -6.40951009298909 
3.6900000000033626, -6.408321663949255 
3.7000000000033837, -6.400524011350915 
3.710000000003405, -6.411091773143928 
3.720000000003426, -6.414588060117518 
3.730000000003447, -6.409630343367462 
3.740000000003468, -5.699078439998699 
3.750000000003489, -6.897745618482082 
3.7600000000035103, -6.898352258622367 
3.7700000000035314, -6.856139212165597 
3.7800000000035525, 4.878817748635319 
3.7900000000035736, 4.894750761778915 
3.8000000000035947, 4.890825651782839 
3.810000000003616, 4.564793352208104 
3.820000000003637, 4.761747599075681 
3.830000000003658, 4.764268558406778 
3.840000000003679, 4.762159150496744 
3.8500000000037002, 4.752673031248709 
3.8600000000037213, 4.755533140723317 
3.8700000000037424, 4.754946148796455 
3.8800000000037635, 4.755057943732664 
3.8900000000037847, 4.754949617776612 
3.9000000000038058, 4.7539148809958816 
3.910000000003827, 4.747556868220569 
3.920000000003848, 4.751723530926214 
3.930000000003869, 4.7677117484433085 
3.94000000000389, 4.766970056767393 
3.9500000000039113, 4.727795721359112 
3.9600000000039324, -7.809322621515304 
3.9700000000039535, -7.842472336531587 
3.9800000000039746, -7.8329298572329495 
3.9900000000039957, 5.7984403042785795 
4.000000000004016, 5.8288296586368515 
4.010000000003993, 5.82204017933009 
4.02000000000397, 5.644891234273894 
4.030000000003946, 5.699799416155665 
4.040000000003923, 5.698557534611151 
4.0500000000039, 5.684109802528533 
4.0600000000038765, 5.689468834897186 
4.070000000003853, 5.689044582401861 
4.08000000000383, 5.688080859960911 
4.090000000003807, 5.686193081593191 
4.100000000003783, 5.684335913239551 
4.11000000000376, 5.683663392597236 
4.120000000003737, 5.686996693790137 
4.130000000003713, 5.685066541990835 
4.14000000000369, 5.615967995896779 
4.150000000003667, 5.724183330355052 
4.1600000000036434, 5.7249000056528025 
4.17000000000362, 5.63425639077885 
4.180000000003597, -7.868619795411574 
4.1900000000035735, -7.871244108388405 
4.20000000000355, -7.778686290749659 
4.210000000003527, 5.771608039962089 
4.220000000003504, 5.775035085515688 
4.23000000000348, 5.752587919959279 
4.240000000003457, 5.712049863432133 
4.250000000003434, 5.718917597360103 
4.26000000000341, 5.716673717384899 
4.270000000003387, 5.7083433632268825 
4.280000000003364, 5.711414352470409 
4.2900000000033405, 5.7103536759852735 
4.300000000003317, 5.709787701337374 
4.310000000003294, 5.708484530859716 
4.320000000003271, 5.703253729932735 
4.330000000003247, 5.709149696354146 
4.340000000003224, 5.711133784643477 
4.350000000003201, 5.705863533754991 
4.360000000003177, 5.723646487088899 
4.370000000003154, 5.797594733859334 
4.380000000003131, 5.7945305293471785 
4.390000000003107, -7.321928814535982 
4.400000000003084, -7.8200213739590385 
4.410000000003061, -7.816464449044591 
4.4200000000030375, 3.85264346797371 
4.430000000003014, 5.350293162331388 
4.440000000002991, 5.350502447577616 
4.450000000002968, 5.327732957656325 
4.460000000002944, 5.319189890883273 
4.470000000002921, 5.323621559760063 
4.480000000002898, 5.3224904199370995 
4.490000000002874, 5.318012351748022 
4.500000000002851, 5.318360708301859 
4.510000000002828, 5.316301481621535 
4.520000000002804, 5.317871759379688 
4.530000000002781, 5.317635820187556 
4.540000000002758, 5.315166080383702 
4.5500000000027345, 5.290705640749979 
4.560000000002711, 5.333215253623916 
4.570000000002688, 5.33346256477814 
4.580000000002665, 5.297147989510703 
4.590000000002641, -8.202343121805644 
4.600000000002618, -8.216288691185294 
4.610000000002595, -8.187039013804432 
4.620000000002571, 6.19974076799374 
4.630000000002548, 6.204478381239769 
4.640000000002525, 6.150352845315304 
4.6500000000025015, 6.04453463386381 
4.660000000002478, 6.0482349830732804 
4.670000000002455, 6.041284658919849 
4.6800000000024315, 6.034162429646104 
4.690000000002408, 6.036596544360631 
4.700000000002385, 6.035432876647837 
4.710000000002362, 6.032573076914723 
4.720000000002338, 6.031809222770251 
4.730000000002315, 6.030257909873285 
4.740000000002292, 6.03201437310388 
4.750000000002268, 6.030142672528622 
4.760000000002245, 6.001910575242268 
4.770000000002222, 6.044904019860472 
4.7800000000021985, 6.044143212370366 
4.790000000002175, 5.608640720946156 
4.800000000002152, 6.938606334516956 
4.810000000002129, 6.938022442177887 
4.820000000002105, -8.695991940563196 
4.830000000002082, -8.91761727967417 
4.840000000002059, -8.902641808690909 
4.850000000002035, -8.480890536775753 
4.860000000002012, -8.486002975502736 
4.870000000001989, -8.45109081642499 
4.880000000001965, -8.466793152545662 
4.890000000001942, -8.464432075234916 
4.900000000001919, -8.458883628696963 
4.9100000000018955, -8.458540134441453 
4.920000000001872, -8.45603373221082 
4.930000000001849, -8.453953334533654 
4.940000000001826, -8.452608231708528 
4.950000000001802, -8.451173288904618 
4.960000000001779, -8.438857461897125 
4.970000000001756, -8.452407320203774 
4.980000000001732, -8.44786764714913 
4.990000000001709, -8.496175487631804 
5.000000000001686, -8.512507428640609 
5.0100000000016625, -8.475262007923726 
5.020000000001639, 6.820180114577051 
5.030000000001616, 6.82146577605521 
5.0400000000015925, -5.2355389651851425 
5.050000000001569, -8.507493821233995 
