t, s[1].omega / s[0].omega 
0, -0.4398679499624508 
0.009999999999999995, -0.42887472588797804 
0.019999999999999934, -0.42125927057644397 
0.029999999999999874, -0.4158692041712314 
0.04000000000000012, -0.4119533203845429 
0.050000000000000405, -0.40904265238938164 
0.06000000000000069, -0.40685679245533696 
0.07000000000000098, -0.40524626048551643 
0.08000000000000126, -0.40415866275493045 
0.09000000000000155, -0.40362014917635597 
0.10000000000000184, -0.4037291552906007 
0.11000000000000212, -0.40466223936950296 
0.12000000000000241, -0.4066938357435964 
0.130000000000002, -0.41023495594240955 
0.1400000000000009, -0.41590167066969774 
0.1499999999999998, -0.4246345609985604 
0.1599999999999987, -0.4379090111585403 
0.1699999999999976, -0.4581089216335834 
0.1799999999999965, -0.48918264272655465 
0.1899999999999954, -0.5376966455667292 
0.1999999999999943, -0.6139454341034136 
0.2099999999999932, -0.7302515329575046 
0.2199999999999921, -0.8873839115828728 
0.229999999999991, -1.0499334108845597 
0.2399999999999899, -1.1659304161460704 
0.2499999999999888, -1.2257360013955818 
0.2599999999999877, -1.2515189526641548 
0.2699999999999866, -1.2619490713418462 
0.2799999999999855, -1.2659631099884527 
0.2899999999999844, -1.2671461985464711 
0.2999999999999833, -1.2669103865561206 
0.3099999999999822, -1.2660457904726459 
0.3199999999999811, -1.2657345030079559 
0.32999999999998, -1.2680705483834835 
0.3399999999999789, -1.274709122917158 
0.3499999999999778, -1.284584546852308 
0.35999999999997667, -1.2949339771792976 
0.36999999999997557, -1.3039678137512785 
0.37999999999997447, -1.3113204363572732 
0.38999999999997337, -1.3172448932232788 
0.39999999999997227, -1.3220629783023914 
0.40999999999997117, -1.3260025369426813 
0.41999999999997006, -1.3291841310011365 
0.42999999999996896, -1.3316354651233222 
0.43999999999996786, -1.3333258553084208 
0.44999999999996676, -1.334228337676021 
0.45999999999996566, -1.3343797683149419 
0.46999999999996456, -1.3339036360216414 
0.47999999999996346, -1.3329979454760112 
0.48999999999996235, -1.3318888452205075 
0.49999999999996125, -1.3307337202689586 
0.5099999999999602, -1.3295584849856283 
0.519999999999959, -1.3283669828917153 
0.529999999999958, -1.3273174118281037 
0.5399999999999568, -1.3266690487034714 
0.5499999999999557, -1.326471469161363 
0.5599999999999546, -1.3264153998415895 
0.5699999999999535, -1.3260210157907895 
0.5799999999999524, -1.3247975640842335 
0.5899999999999513, -1.3222168857283776 
0.5999999999999502, -1.3176956934846509 
0.6099999999999491, -1.3107346488340623 
0.619999999999948, -1.3011069317895614 
0.6299999999999469, -1.2888281760095464 
0.6399999999999458, -1.2738638939879583 
0.6499999999999447, -1.2558309603762459 
0.6599999999999436, -1.2339249153683398 
0.6699999999999425, -1.207300015115819 
0.6799999999999414, -1.1764021804148443 
0.6899999999999403, -1.145242140651432 
0.6999999999999392, -1.1212505679624656 
0.7099999999999381, -1.10896359506293 
0.719999999999937, -1.1056492665860145 
0.7299999999999359, -1.1060250564667131 
0.7399999999999348, -1.1068953225582268 
0.7499999999999337, -1.1070822452047655 
0.7599999999999326, -1.106061870348363 
0.7699999999999315, -1.1030139458921355 
0.7799999999999304, -1.095937898812474 
0.7899999999999293, -1.080179203444843 
0.7999999999999282, -1.0465633958103124 
0.8099999999999271, -0.9835413490656718 
0.819999999999926, -0.8910717547309703 
0.8299999999999249, -0.7907273993100281 
0.8399999999999238, -0.7055214644866231 
0.8499999999999227, -0.6421611641091874 
0.8599999999999216, -0.5971456535921924 
0.8699999999999205, -0.5652971339922499 
0.8799999999999194, -0.5425907254824762 
0.8899999999999183, -0.5263078790817846 
0.8999999999999172, -0.5146511011059541 
0.9099999999999161, -0.5064035889706997 
0.919999999999915, -0.5007066339442954 
0.9299999999999139, -0.4969269774706415 
0.9399999999999128, -0.4945815397055445 
0.9499999999999117, -0.4932961574070175 
0.9599999999999106, -0.4927831891471498 
0.9699999999999095, -0.49282907044760915 
0.9799999999999084, -0.49328765388781315 
0.9899999999999073, -0.4940783051692509 
0.9999999999999062, -0.4951885993638486 
1.0099999999999052, -0.4966800651823302 
1.019999999999904, -0.4986939306418992 
1.029999999999903, -0.5014550994956585 
1.039999999999902, -0.505272821500318 
1.0499999999999008, -0.5105209191795272 
1.0599999999998997, -0.5175372790903465 
1.0699999999998986, -0.5263496772654002 
1.0799999999998975, -0.5362779496468056 
1.0899999999998964, -0.5458806528068318 
1.0999999999998953, -0.5536896423440876 
1.1099999999998942, -0.5590720750142559 
1.119999999999893, -0.5622496461875757 
1.129999999999892, -0.5637488189681819 
1.1399999999998909, -0.563982141299989 
1.1499999999998898, -0.5630904458831384 
1.1599999999998887, -0.5608562918497104 
1.1699999999998876, -0.5564708692670836 
1.1799999999998865, -0.5477617781018604 
1.1899999999998854, -0.5284483860577132 
1.1999999999998843, -0.47660483721514 
1.2099999999998832, -0.3026997584731025 
1.219999999999882, 0.18088690061025406 
1.229999999999881, 0.5620613359873352 
1.2399999999998799, 0.6587486981072675 
1.2499999999998788, 0.6826429921081266 
1.2599999999998777, 0.6900660037173065 
1.2699999999998766, 0.6924846117462307 
1.2799999999998755, 0.6927244127317479 
1.2899999999998744, 0.6914297719814069 
1.2999999999998733, 0.6884462110065335 
1.3099999999998722, 0.6833071358256214 
1.319999999999871, 0.6758799857329004 
1.32999999999987, 0.6672622127186901 
1.3399999999998689, 0.6596391195010819 
1.3499999999998678, 0.654519175967361 
1.3599999999998666, 0.651791780777832 
1.3699999999998655, 0.6505632401601806 
1.3799999999998644, 0.6500204370986564 
1.3899999999998633, 0.6496175228465191 
1.3999999999998622, 0.648942007079728 
1.4099999999998611, 0.6474833827999952 
1.41999999999986, 0.6441699459219135 
1.429999999999859, 0.6358144131973721 
1.4399999999998578, 0.6093634726631791 
1.4499999999998567, 0.4797782943657058 
1.4599999999998556, -0.6222968226715041 
1.4699999999998545, -2.349846429012138 
1.4799999999998534, -2.5813200307559847 
1.4899999999998523, -2.6165910924004687 
1.4999999999998512, -2.6245828889299947 
1.5099999999998501, -2.6262412023792243 
1.519999999999849, -2.6257281728704136 
1.529999999999848, -2.6239924617230437 
1.5399999999998468, -2.620308598976283 
1.5499999999998457, -2.6136149337805326 
1.5599999999998446, -2.609572613147031 
1.5699999999998435, -2.6107573761709224 
1.5799999999998424, -2.610841466588279 
1.5899999999998413, -2.6073640902977457 
1.5999999999998402, -2.599237615871929 
1.6099999999998391, -2.6133563382254685 
1.619999999999838, -2.639819452082525 
1.629999999999837, -2.650309111150743 
1.6399999999998358, -2.6537954961096153 
1.6499999999998347, -2.6546549156158283 
1.6599999999998336, -2.653619414365017 
1.6699999999998325, -2.6497952556193267 
1.6799999999998314, -2.6392663187695833 
1.6899999999998303, -2.6038481538998477 
1.6999999999998292, -2.4041038832349715 
1.709999999999828, -1.1920493162822818 
1.719999999999827, -0.2701965646907781 
1.729999999999826, -0.05370108051663908 
1.7399999999998248, 0.008326075569057623 
1.7499999999998237, 0.030702713784035957 
1.7599999999998226, 0.0402282511799125 
1.7699999999998215, 0.04465079688767265 
1.7799999999998204, 0.04669691606564309 
1.7899999999998193, 0.04744310005302939 
1.7999999999998182, 0.04731358402549539 
1.809999999999817, 0.046404226133998555 
1.819999999999816, 0.04456166039267252 
1.8299999999998149, 0.041314385653962934 
1.8399999999998138, 0.03559689269773911 
1.8499999999998127, 0.024966664676303214 
1.8599999999998116, 0.003243301430750874 
1.8699999999998105, -0.04718654127143336 
1.8799999999998094, -0.18701281777450302 
1.8899999999998083, -0.5963408843531333 
1.8999999999998072, -1.28800775725392 
1.909999999999806, -1.6656275057914407 
1.919999999999805, -1.7726119549243282 
1.9299999999998039, -1.8017951522495512 
1.9399999999998028, -1.8104938846618404 
1.9499999999998017, -1.812995523979285 
1.9599999999998006, -1.8132743409389793 
1.9699999999997995, -1.8128566763014304 
1.9799999999997984, -1.8127770511238648 
1.9899999999997973, -1.8133271588471438 
1.9999999999997962, -1.8139066146836451 
2.0099999999998173, -1.8141512908942707 
2.0199999999998384, -1.8142665269712226 
2.0299999999998595, -1.814304811427693 
2.0399999999998806, -1.8137930028578346 
2.0499999999999017, -1.8118869423182153 
2.059999999999923, -1.80705326101102 
2.069999999999944, -1.7959770483542254 
2.079999999999965, -1.771472198871472 
2.089999999999986, -1.7181847167748785 
2.100000000000007, -1.6026506664610172 
2.1100000000000283, -1.3604118311187314 
2.1200000000000494, -0.9647219133437226 
2.1300000000000705, -0.6035256861754197 
2.1400000000000916, -0.41198132092131534 
2.1500000000001127, -0.3283232289890815 
2.160000000000134, -0.2912308921229289 
2.170000000000155, -0.27372193447222976 
2.180000000000176, -0.26498593718208924 
2.190000000000197, -0.2604797548228869 
2.2000000000002182, -0.2581564909062433 
2.2100000000002393, -0.2570366551309149 
2.2200000000002604, -0.25663499397435957 
2.2300000000002815, -0.256717885732227 
2.2400000000003026, -0.25719972716280176 
2.2500000000003237, -0.2581044828658092 
2.260000000000345, -0.2595632303183172 
2.270000000000366, -0.26183980648078087 
2.280000000000387, -0.26539489211503664 
2.290000000000408, -0.2710221269696445 
2.3000000000004293, -0.28011323382641545 
2.3100000000004504, -0.2950814492142975 
2.3200000000004715, -0.31963611824649035 
2.3300000000004926, -0.35731277738448797 
2.3400000000005137, -0.4057275432168478 
2.3500000000005348, -0.45241498862494484 
2.360000000000556, -0.4855695549260819 
2.370000000000577, -0.5045157732748108 
2.380000000000598, -0.5142498369694175 
2.390000000000619, -0.5189834468022915 
2.4000000000006403, -0.5210089303443424 
2.4100000000006614, -0.5213349644298191 
2.4200000000006825, -0.5202006429048118 
2.4300000000007036, -0.5172180945232746 
2.4400000000007247, -0.51117206098445 
2.450000000000746, -0.49951516962465625 
2.460000000000767, -0.47811398746271844 
2.470000000000788, -0.4435546216538368 
2.480000000000809, -0.39956470110263365 
2.49000000000083, -0.35785034092043666 
2.5000000000008513, -0.3268538131422809 
2.5100000000008724, -0.30668368392647855 
2.5200000000008935, -0.29405974603065443 
2.5300000000009146, -0.2860733272055379 
2.5400000000009357, -0.280874117599067 
2.550000000000957, -0.27738016942306465 
2.560000000000978, -0.2749605587947662 
2.570000000000999, -0.2732444618814136 
2.58000000000102, -0.27202406608811464 
2.5900000000010412, -0.27120944530580726 
2.6000000000010624, -0.2708134572299098 
2.6100000000010835, -0.2709635516351626 
2.6200000000011046, -0.27195321942883893 
2.6300000000011257, -0.2743681440189506 
2.6400000000011468, -0.27937289506007956 
2.650000000001168, -0.28937673989302576 
2.660000000001189, -0.3096590943299622 
2.67000000000121, -0.3524906111178658 
2.680000000001231, -0.4469512462036578 
2.6900000000012523, -0.6511609303458568 
2.7000000000012734, -1.0001631944264067 
2.7100000000012945, -1.3554385420194024 
2.7200000000013156, -1.575178032539468 
2.7300000000013367, -1.6841570368575791 
2.740000000001358, -1.7351424506745985 
2.750000000001379, -1.7581957988776746 
2.7600000000014, -1.7681453950105581 
2.770000000001421, -1.772079879460173 
2.780000000001442, -1.7732341385761323 
2.7900000000014633, -1.7730942070923976 
2.8000000000014844, -1.7725057767188492 
2.8100000000015055, -1.771960499362536 
2.8200000000015266, -1.7714031323009318 
2.8300000000015477, -1.770589780930966 
2.840000000001569, -1.7697578665558118 
2.85000000000159, -1.7693652540829317 
2.860000000001611, -1.769190887886613 
2.870000000001632, -1.7683763189530595 
2.8800000000016532, -1.7656519294204496 
2.8900000000016743, -1.7581589247209535 
2.9000000000016954, -1.7375925723596235 
2.9100000000017165, -1.6791690846875416 
2.9200000000017377, -1.517199888306429 
2.9300000000017588, -1.1569398741557453 
2.94000000000178, -0.6974400333231359 
2.950000000001801, -0.3957432244830663 
2.960000000001822, -0.25582448999889135 
2.970000000001843, -0.19306353983045094 
2.9800000000018643, -0.16274103627173733 
2.9900000000018854, -0.1468173219642915 
3.0000000000019065, -0.13788227836680916 
3.0100000000019276, -0.13265992488468975 
3.0200000000019487, -0.1295996028739801 
3.03000000000197, -0.12794076772784496 
3.040000000001991, -0.1273289146492518 
3.050000000002012, -0.12765885865388257 
3.060000000002033, -0.12903096727408875 
3.070000000002054, -0.1317909274266782 
3.0800000000020753, -0.13667926821364668 
3.0900000000020964, -0.14519915309602058 
3.1000000000021175, -0.16051269074491215 
3.1100000000021386, -0.18975855852010423 
3.1200000000021597, -0.25037702745510265 
3.130000000002181, -0.3862761074463877 
3.140000000002202, -0.6838515276247745 
3.150000000002223, -1.141641709123562 
3.160000000002244, -1.487681467397425 
3.1700000000022652, -1.6315778106454975 
3.1800000000022863, -1.6797559836733313 
3.1900000000023074, -1.6957096022591265 
3.2000000000023285, -1.7010376435016679 
3.2100000000023496, -1.7025238531748783 
3.2200000000023707, -1.7024769344434507 
3.230000000002392, -1.7020684036535052 
3.240000000002413, -1.7022140055124857 
3.250000000002434, -1.7030682954773937 
3.260000000002455, -1.7039934237477596 
3.2700000000024763, -1.704597236557636 
3.2800000000024974, -1.7049893605153355 
3.2900000000025185, -1.7052151207597621 
3.3000000000025396, -1.704953597068998 
3.3100000000025607, -1.7036497706803064 
3.3200000000025818, -1.700505700825812 
3.330000000002603, -1.6942613543342193 
3.340000000002624, -1.6829562410068388 
3.350000000002645, -1.6635119986643683 
3.360000000002666, -1.6303980848255595 
3.3700000000026873, -1.572113893658524 
3.3800000000027084, -1.4658225565218421 
3.3900000000027295, -1.2899414130929336 
3.4000000000027506, -1.0968053551471597 
3.4100000000027717, -0.9850510542883815 
3.420000000002793, -0.9501119312662769 
3.430000000002814, -0.9457266729375895 
3.440000000002835, -0.9482592412127724 
3.450000000002856, -0.9508637880633533 
3.460000000002877, -0.9522906677539508 
3.4700000000028983, -0.9524646716198832 
3.4800000000029194, -0.9512183920801661 
3.4900000000029405, -0.9477988461632982 
3.5000000000029616, -0.9402292257449705 
3.5100000000029827, -0.924141647419521 
3.520000000003004, -0.8917945324715459 
3.530000000003025, -0.8356887751606793 
3.540000000003046, -0.7605240490401646 
3.550000000003067, -0.6856405730638736 
3.5600000000030882, -0.6259997766417188 
3.5700000000031094, -0.5834080427395312 
3.5800000000031305, -0.5537860906043602 
3.5900000000031516, -0.5329513524315028 
3.6000000000031727, -0.5179836601111638 
3.6100000000031938, -0.5070339309442027 
3.620000000003215, -0.49894709803430964 
3.630000000003236, -0.4929878163163786 
3.640000000003257, -0.4886706265681534 
3.650000000003278, -0.48565891035088316 
3.6600000000032993, -0.48370601307060535 
3.6700000000033204, -0.48262244537641424 
3.6800000000033415, -0.4822595938213932 
3.6900000000033626, -0.48250415010505965 
3.7000000000033837, -0.4832799207101194 
3.710000000003405, -0.48455547674808763 
3.720000000003426, -0.4863572595205838 
3.730000000003447, -0.48878816801391417 
3.740000000003468, -0.4920520383352347 
3.750000000003489, -0.496485792061052 
3.7600000000035103, -0.5025993344018076 
3.7700000000035314, -0.5110997671768402 
3.7800000000035525, -0.5227939367588096 
3.7900000000035736, -0.5381222294650857 
3.8000000000035947, -0.5561877187945417 
3.810000000003616, -0.574182659526925 
3.820000000003637, -0.5888425890223362 
3.830000000003658, -0.5987630414627614 
3.840000000003679, -0.6045753820638224 
3.8500000000037002, -0.607552145456596 
3.8600000000037213, -0.608674879532107 
3.8700000000037424, -0.6084302819350333 
3.8800000000037635, -0.6068249077836028 
3.8900000000037847, -0.6032705625661416 
3.9000000000038058, -0.5960163143903486 
3.910000000003827, -0.5801664521050256 
3.920000000003848, -0.5403651252932652 
3.930000000003869, -0.4231086369683771 
3.94000000000389, -0.10031596291769049 
3.9500000000039113, 0.28634739749082555 
3.9600000000039324, 0.4379423612990859 
3.9700000000039535, 0.48042029349357973 
3.9800000000039746, 0.49415693642985703 
3.9900000000039957, 0.4992575243797427 
4.000000000004016, 0.501071460009836 
4.010000000003993, 0.5012425141715394 
4.02000000000397, 0.5002983301922831 
4.030000000003946, 0.49841038806151083 
4.040000000003923, 0.4957266903595963 
4.0500000000039, 0.4925619350238768 
4.0600000000038765, 0.489410692425282 
4.070000000003853, 0.48676270345803996 
4.08000000000383, 0.4848967651239347 
4.090000000003807, 0.4838361029327479 
4.100000000003783, 0.48343417667584443 
4.11000000000376, 0.483468013579418 
4.120000000003737, 0.48368959629534247 
4.130000000003713, 0.48384696391876647 
4.14000000000369, 0.48368062247726007 
4.150000000003667, 0.4828676984417048 
4.1600000000036434, 0.4808368304967023 
4.17000000000362, 0.47620490237518665 
4.180000000003597, 0.4647542510503208 
4.1900000000035735, 0.4299037320095838 
4.20000000000355, 0.28024664869507687 
4.210000000003527, -0.4907313268180248 
4.220000000003504, -1.513711901525257 
4.23000000000348, -1.7549704032737423 
4.240000000003457, -1.8011584231306117 
4.250000000003434, -1.8124661889756997 
4.26000000000341, -1.8154429130471534 
4.270000000003387, -1.8157628477937013 
4.280000000003364, -1.8152635700870086 
4.2900000000033405, -1.8153461862644817 
4.300000000003317, -1.816693364379418 
4.310000000003294, -1.8184173659492273 
4.320000000003271, -1.8196377763977416 
4.330000000003247, -1.8203590768603308 
4.340000000003224, -1.8207329196602817 
4.350000000003201, -1.8205247291819873 
4.360000000003177, -1.8191897853220496 
4.370000000003154, -1.8158572169862495 
4.380000000003131, -1.8090112942599483 
4.390000000003107, -1.7959571886612982 
4.400000000003084, -1.771595970236645 
4.410000000003061, -1.7247169979559724 
4.4200000000030375, -1.6276969441034779 
4.430000000003014, -1.424831622324051 
4.440000000002991, -1.1191892844143894 
4.450000000002968, -0.8944270776387462 
4.460000000002944, -0.8067799383408563 
4.470000000002921, -0.7835684705019357 
4.480000000002898, -0.7803301505704517 
4.490000000002874, -0.7817332219091245 
4.500000000002851, -0.7834648817459031 
4.510000000002828, -0.7845215955100462 
4.520000000002804, -0.7847070508852987 
4.530000000002781, -0.7838751464094685 
4.540000000002758, -0.7816714922389086 
4.5500000000027345, -0.7774168911687058 
4.560000000002711, -0.7701678674333835 
4.570000000002688, -0.7592166356537248 
4.580000000002665, -0.7450038792391566 
4.590000000002641, -0.7294075874748324 
4.600000000002618, -0.714614071592603 
4.610000000002595, -0.7018701048505382 
4.620000000002571, -0.6913778301363129 
4.630000000002548, -0.6828206131507356 
4.640000000002525, -0.6757796211812498 
4.6500000000025015, -0.6699070587319441 
4.660000000002478, -0.6649645088801893 
4.670000000002455, -0.6608112101415518 
4.6800000000024315, -0.6573777238670662 
4.690000000002408, -0.6546375464401117 
4.700000000002385, -0.6525813064207098 
4.710000000002362, -0.6511953320169087 
4.720000000002338, -0.6504460483181319 
4.730000000002315, -0.6502726133168519 
4.740000000002292, -0.6505901492609223 
4.750000000002268, -0.6513035090603951 
4.760000000002245, -0.6523281418116192 
4.770000000002222, -0.6536126995005376 
4.7800000000021985, -0.6551577095299858 
4.790000000002175, -0.6570245538429387 
4.800000000002152, -0.6593298196138416 
4.810000000002129, -0.6622219685785353 
4.820000000002105, -0.6658340293922707 
4.830000000002082, -0.6701970700088203 
4.840000000002059, -0.675116315418478 
4.850000000002035, -0.6800982681100167 
4.860000000002012, -0.6844867566728672 
4.870000000001989, -0.687784599340258 
4.880000000001965, -0.6898562276048553 
4.890000000001942, -0.6908445254112252 
4.900000000001919, -0.6909775930560749 
4.9100000000018955, -0.6904605328370569 
4.920000000001872, -0.6895019585368016 
