t, s[1].omega / s[0].omega 
0, -0.980071069086973 
0.009999999999999995, -0.9871386754964778 
0.019999999999999934, -0.9938096096975867 
0.029999999999999874, -0.9995039307522047 
0.04000000000000012, -1.003751325177143 
0.050000000000000405, -1.0064404301621965 
0.06000000000000069, -1.0077937924933738 
0.07000000000000098, -1.0081710958375454 
0.08000000000000126, -1.0079477756463977 
0.09000000000000155, -1.0075506630856763 
0.10000000000000184, -1.0075703813826054 
0.11000000000000212, -1.0087625265559093 
0.12000000000000241, -1.0117511966388941 
0.130000000000002, -1.0165996711761691 
0.1400000000000009, -1.0227591677920425 
0.1499999999999998, -1.0294837055630797 
0.1599999999999987, -1.0362284406820244 
0.1699999999999976, -1.042744279340183 
0.1799999999999965, -1.048985151517272 
0.1899999999999954, -1.054996311663691 
0.1999999999999943, -1.060832880765418 
0.2099999999999932, -1.0664890729684087 
0.2199999999999921, -1.0718297308115148 
0.229999999999991, -1.0765676083919447 
0.2399999999999899, -1.0803553032056938 
0.2499999999999888, -1.0829694388214728 
0.2599999999999877, -1.0844272602988372 
0.2699999999999866, -1.084940849513866 
0.2799999999999855, -1.0848136544711238 
0.2899999999999844, -1.0844070164669943 
0.2999999999999833, -1.084162334443022 
0.3099999999999822, -1.0845452267673978 
0.3199999999999811, -1.0858353738099278 
0.32999999999998, -1.0879507895650042 
0.3399999999999789, -1.0905503267243515 
0.3499999999999778, -1.0932934464727284 
0.35999999999997667, -1.0959773676176208 
0.36999999999997557, -1.0985103550922823 
0.37999999999997447, -1.100846502800869 
0.38999999999997337, -1.1029613843522883 
0.39999999999997227, -1.104856234884878 
0.40999999999997117, -1.106551582838308 
0.41999999999997006, -1.1080582325052326 
0.42999999999996896, -1.1093435585080302 
0.43999999999996786, -1.1103219554398909 
0.44999999999996676, -1.110887504113046 
0.45999999999996566, -1.1109745115062915 
0.46999999999996456, -1.110604936560822 
0.47999999999996346, -1.1098990263689545 
0.48999999999996235, -1.1090549286197469 
0.49999999999996125, -1.1082941425780073 
0.5099999999999602, -1.1077732066852992 
0.519999999999959, -1.1075262972773765 
0.529999999999958, -1.1075086918246702 
0.5399999999999568, -1.1076870751592645 
0.5499999999999557, -1.1080595599836593 
0.5599999999999546, -1.108590824833309 
0.5699999999999535, -1.1091606899655548 
0.5799999999999524, -1.10959478386636 
0.5899999999999513, -1.109737496617248 
0.5999999999999502, -1.1095041837788404 
0.6099999999999491, -1.1088951662926818 
0.619999999999948, -1.1079737522954125 
0.6299999999999469, -1.1068179653102874 
0.6399999999999458, -1.1054745179602177 
0.6499999999999447, -1.1039437678874089 
0.6599999999999436, -1.1021999744115536 
0.6699999999999425, -1.1002281663676177 
0.6799999999999414, -1.0980503457769546 
0.6899999999999403, -1.095722526542564 
0.6999999999999392, -1.0933119080776779 
0.7099999999999381, -1.0908944905937745 
0.719999999999937, -1.0885999730962173 
0.7299999999999359, -1.0866524457070628 
0.7399999999999348, -1.0853007318319432 
0.7499999999999337, -1.0846335670332616 
0.7599999999999326, -1.0844661554263566 
0.7699999999999315, -1.084434544912964 
0.7799999999999304, -1.084164026999963 
0.7899999999999293, -1.0833475856365282 
0.7999999999999282, -1.0817579072334165 
0.8099999999999271, -1.079281290817265 
0.819999999999926, -1.0759708327628952 
0.8299999999999249, -1.0720319655499855 
0.8399999999999238, -1.0677116572105345 
0.8499999999999227, -1.0631833013249075 
0.8599999999999216, -1.0585110745144246 
0.8699999999999205, -1.0536824629838115 
0.8799999999999194, -1.048658800585009 
0.8899999999999183, -1.0434174019719298 
0.8999999999999172, -1.0379957183267094 
0.9099999999999161, -1.0325616771665105 
0.919999999999915, -1.0274889903911233 
0.9299999999999139, -1.0233217360320768 
0.9399999999999128, -1.0205146113747214 
0.9499999999999117, -1.0190988347620997 
0.9599999999999106, -1.018641857227675 
0.9699999999999095, -1.018537419819687 
0.9799999999999084, -1.0182656891388215 
0.9899999999999073, -1.0174335701606245 
0.9999999999999062, -1.0157117513180682 
1.0099999999999052, -1.0128293313847843 
1.019999999999904, -1.008680959433702 
1.029999999999903, -1.0034445497915505 
1.039999999999902, -0.9975302550676315 
1.0499999999999008, -0.9913636762915383 
1.0599999999998997, -0.9852109411076869 
1.0699999999998986, -0.9791591678139993 
1.0799999999998975, -0.9731892138167064 
1.0899999999998964, -0.9672553202453699 
1.0999999999998953, -0.9613429014746215 
1.1099999999998942, -0.9555148426814689 
1.119999999999893, -0.9499581485044342 
1.129999999999892, -0.945005687682084 
1.1399999999998909, -0.9410636422402213 
1.1499999999998898, -0.9384136319335757 
1.1599999999998887, -0.9370151189969318 
1.1699999999998876, -0.9365055663457349 
1.1799999999998865, -0.9363943980462149 
1.1899999999998854, -0.9362469758018728 
1.1999999999998843, -0.9357407202421604 
1.2099999999998832, -0.9346485106983989 
1.219999999999882, -0.9328424335359113 
1.229999999999881, -0.9303395406867374 
1.2399999999998799, -0.9273219787871906 
1.2499999999998788, -0.9240620550706604 
1.2599999999998777, -0.9207952179974613 
1.2699999999998766, -0.9176449692021901 
1.2799999999998755, -0.9146311525930676 
1.2899999999998744, -0.9117212113272558 
1.2999999999998733, -0.9088822891826501 
1.3099999999998722, -0.9061130184630052 
1.319999999999871, -0.9034496658667983 
1.32999999999987, -0.9009554820030019 
1.3399999999998689, -0.8987103506621713 
1.3499999999998678, -0.8968090173251599 
1.3599999999998666, -0.8953545228733099 
1.3699999999998655, -0.8944257696054079 
1.3799999999998644, -0.8940250181471828 
1.3899999999998633, -0.8940474725680554 
1.3999999999998622, -0.894306840093865 
1.4099999999998611, -0.894599408586467 
1.41999999999986, -0.8947634576367018 
1.429999999999859, -0.8947136543356434 
1.4399999999998578, -0.8944516588790116 
1.4499999999998567, -0.8940501803978715 
1.4599999999998556, -0.8936088903221091 
1.4699999999998545, -0.8932010832940362 
1.4799999999998534, -0.8928389952560533 
1.4899999999998523, -0.8924716178356382 
1.4999999999998512, -0.8920140296984955 
1.5099999999998501, -0.891396101811158 
1.519999999999849, -0.8906070223296366 
1.529999999999848, -0.8897153814119623 
1.5399999999998468, -0.8888610869295974 
1.5499999999998457, -0.8882219808830968 
1.5599999999998446, -0.8879596738505432 
1.5699999999998435, -0.8881662158258395 
1.5799999999998424, -0.8888460231190095 
1.5899999999998413, -0.8899419898411338 
1.5999999999998402, -0.8913753531341904 
1.6099999999998391, -0.8930673576301149 
1.619999999999838, -0.8949424134388535 
1.629999999999837, -0.8969324808598943 
1.6399999999998358, -0.8989923965221422 
1.6499999999998347, -0.9011156182016766 
1.6599999999998336, -0.9033328743273872 
1.6699999999998325, -0.905684969910844 
1.6799999999998314, -0.9081744613489848 
1.6899999999998303, -0.9107134731701295 
1.6999999999998292, -0.9131021682780103 
1.709999999999828, -0.91507991171775 
1.719999999999827, -0.9164407486195353 
1.729999999999826, -0.9171249759009434 
1.7399999999998248, -0.917221944932027 
1.7499999999998237, -0.916928245995253 
1.7599999999998226, -0.9165348066805572 
1.7699999999998215, -0.9164451034998324 
1.7799999999998204, -0.9171486024534442 
1.7899999999998193, -0.9190743471037569 
1.7999999999998182, -0.9223838485500091 
1.809999999999817, -0.9268964599679602 
1.819999999999816, -0.9322308496978803 
1.8299999999998149, -0.9380173537315034 
1.8399999999998138, -0.9440177114055468 
1.8499999999998127, -0.9501342006033298 
1.8599999999998116, -0.9563695819203616 
1.8699999999998105, -0.9627770347530197 
1.8799999999998094, -0.9693968680506417 
1.8899999999998083, -0.9761646185888051 
1.8999999999998072, -0.9828081078455224 
1.909999999999806, -0.9888268496366995 
1.919999999999805, -0.993668425631373 
1.9299999999998039, -0.9970225319287731 
1.9399999999998028, -0.998947676806854 
1.9499999999998017, -0.9997403160301855 
1.9599999999998006, -0.9997598220773913 
1.9699999999997995, -0.9993873474223504 
1.9799999999997984, -0.999113611941102 
1.9899999999997973, -0.9996241103498095 
1.9999999999997962, -1.001669921040016 
2.0099999999998173, -1.0056589567188041 
2.0199999999998384, -1.0113467471150965 
2.0299999999998595, -1.0180330157231356 
2.0399999999998806, -1.0250289295901436 
2.0499999999999017, -1.0319231455856053 
2.059999999999923, -1.0385701475027038 
2.069999999999944, -1.0449768163444626 
2.079999999999965, -1.0512026081689372 
2.089999999999986, -1.0572814876502692 
2.100000000000007, -1.0631448159556416 
2.1100000000000283, -1.0685617351687413 
2.1200000000000494, -1.0731679255769593 
2.1300000000000705, -1.0766285783185878 
2.1400000000000916, -1.078826312935836 
2.1500000000001127, -1.079896528642894 
2.160000000000134, -1.080120367669365 
2.170000000000155, -1.079836897434119 
2.180000000000176, -1.0794502790153626 
2.190000000000197, -1.0794484955793318 
2.2000000000002182, -1.0802818998463606 
2.2100000000002393, -1.0821116516131286 
2.2200000000002604, -1.0847132152997276 
2.2300000000002815, -1.0876841625515972 
2.2400000000003026, -1.0907019300938399 
2.2500000000003237, -1.093599503305045 
2.260000000000345, -1.0963081266178523 
2.270000000000366, -1.098798377200523 
2.280000000000387, -1.1010644691363756 
2.290000000000408, -1.1031225027622886 
2.3000000000004293, -1.1049915031940558 
2.3100000000004504, -1.106658631932915 
2.3200000000004715, -1.1080539657226065 
2.3300000000004926, -1.1090631006297993 
2.3400000000005137, -1.109582464857901 
2.3500000000005348, -1.1095824848110243 
2.360000000000556, -1.1091368640753465 
2.370000000000577, -1.108415188125455 
2.380000000000598, -1.1076503429536784 
2.390000000000619, -1.1070673718057595 
2.4000000000006403, -1.1067880499422968 
2.4100000000006614, -1.1067998762015352 
2.4200000000006825, -1.1070327820873875 
2.4300000000007036, -1.107445598661684 
2.4400000000007247, -1.1080198457747044 
2.450000000000746, -1.1086916827906848 
2.460000000000767, -1.109325427817336 
2.470000000000788, -1.1097611251615862 
2.480000000000809, -1.1098802636537555 
2.49000000000083, -1.109641253197768 
2.5000000000008513, -1.109076034149905 
2.5100000000008724, -1.1082539205482915 
2.5200000000008935, -1.1072327583321069 
2.5300000000009146, -1.106028136189456 
2.5400000000009357, -1.1046178843900571 
2.550000000000957, -1.1029743917654364 
2.560000000000978, -1.101100658607756 
2.570000000000999, -1.0990441624056597 
2.58000000000102, -1.096878788400211 
2.5900000000010412, -1.0946776492131778 
2.6000000000010624, -1.0925221473637585 
2.6100000000010835, -1.0905543360194074 
2.6200000000011046, -1.0889942260045968 
2.6300000000011257, -1.0880326138297611 
2.6400000000011468, -1.0876595987070563 
2.650000000001168, -1.0876233110296942 
2.660000000001189, -1.0875618719468114 
2.67000000000121, -1.0871403301627152 
2.680000000001231, -1.0860979640581916 
2.6900000000012523, -1.0842665240766554 
2.7000000000012734, -1.081613354738384 
2.7100000000012945, -1.0782645474911703 
2.7200000000013156, -1.0744413711301344 
2.7300000000013367, -1.0703440023054858 
2.740000000001358, -1.0660788607913418 
2.750000000001379, -1.0616625848772732 
2.7600000000014, -1.057065805550351 
2.770000000001421, -1.0522564476814809 
2.780000000001442, -1.0472341098677633 
2.7900000000014633, -1.0420776752944783 
2.8000000000014844, -1.0370219899003381 
2.8100000000015055, -1.0325071071161331 
2.8200000000015266, -1.0290622096997637 
2.8300000000015477, -1.0269869772027689 
2.840000000001569, -1.026106076479943 
2.85000000000159, -1.0258886615858616 
2.860000000001611, -1.025761249881517 
2.870000000001632, -1.025270950343869 
2.8800000000016532, -1.0240613559061014 
2.8900000000016743, -1.021824354978049 
2.9000000000016954, -1.0183498974974465 
2.9100000000017165, -1.013658161803911 
2.9200000000017377, -1.00805219337372 
2.9300000000017588, -1.0019708451831533 
2.94000000000178, -0.9957686786887132 
2.950000000001801, -0.9896165339588959 
2.960000000001822, -0.9835383053229959 
2.970000000001843, -0.9774931312648235 
2.9800000000018643, -0.9714448207912143 
2.9900000000018854, -0.9654140962864289 
3.0000000000019065, -0.9595299587544149 
3.0100000000019276, -0.9540749882877391 
3.0200000000019487, -0.94946609100928 
3.03000000000197, -0.9460982411846979 
3.040000000001991, -0.9441018682756377 
3.050000000002012, -0.943229491299646 
3.060000000002033, -0.9429947323430333 
3.070000000002054, -0.9429027422371604 
3.0800000000020753, -0.9425682878669435 
3.0900000000020964, -0.9417128630583493 
3.1000000000021175, -0.9401458128337614 
3.1100000000021386, -0.9377973675472571 
3.1200000000021597, -0.9347722456767695 
3.130000000002181, -0.93132808818593 
3.140000000002202, -0.9277538561883885 
3.150000000002223, -0.9242485205602087 
3.160000000002244, -0.9208870219229539 
3.1700000000022652, -0.9176588649585744 
3.1800000000022863, -0.9145263785363541 
3.1900000000023074, -0.9114691120827965 
3.2000000000023285, -0.9085027972047028 
3.2100000000023496, -0.9056770078315495 
3.2200000000023707, -0.9030669288330433 
3.230000000002392, -0.9007715212036811 
3.240000000002413, -0.8989100559311755 
3.250000000002434, -0.8975934533599814 
3.260000000002455, -0.8968655950676178 
3.2700000000024763, -0.8966537236522184 
3.2800000000024974, -0.8967769007874173 
3.2900000000025185, -0.8970098005060816 
3.3000000000025396, -0.8971531119642553 
3.3100000000025607, -0.8970777045094411 
3.3200000000025818, -0.8967440490698235 
3.330000000002603, -0.896199845003407 
3.340000000002624, -0.8955477753117114 
3.350000000002645, -0.8948901556760195 
3.360000000002666, -0.8942801310634879 
3.3700000000026873, -0.893703538583645 
3.3800000000027084, -0.8930949088511848 
3.3900000000027295, -0.892378592262695 
3.4000000000027506, -0.8915165241546111 
3.4100000000027717, -0.8905399252314575 
3.420000000002793, -0.8895529993080519 
3.430000000002814, -0.8887091432167233 
3.440000000002835, -0.8881648930783304 
3.450000000002856, -0.8880282692293979 
3.460000000002877, -0.8883317706252374 
3.4700000000028983, -0.889045698736551 
3.4800000000029194, -0.8901112308788524 
3.4900000000029405, -0.8914614171129094 
3.5000000000029616, -0.8930236276612987 
3.5100000000029827, -0.8947215067110248 
3.520000000003004, -0.8964903917296375 
3.530000000003025, -0.8982993084136043 
3.540000000003046, -0.9001610010111769 
3.550000000003067, -0.9021170615674212 
3.5600000000030882, -0.9041989017236556 
3.5700000000031094, -0.9063771907611787 
3.5800000000031305, -0.9085235788181032 
3.5900000000031516, -0.9104213322444398 
3.6000000000031727, -0.9118460863369418 
3.6100000000031938, -0.9126705521810997 
3.620000000003215, -0.9129113388227239 
3.630000000003236, -0.9127079680920482 
3.640000000003257, -0.9122970491093441 
3.650000000003278, -0.9120166302880364 
3.6600000000032993, -0.9122986200877129 
3.6700000000033204, -0.913573473851506 
3.6800000000033415, -0.9160902785841383 
3.6900000000033626, -0.9197951007901141 
3.7000000000033837, -0.9243953903493594 
3.710000000003405, -0.9295432929676709 
3.720000000003426, -0.934977804954379 
3.730000000003447, -0.9405644507221134 
3.740000000003468, -0.9462728794593224 
3.750000000003489, -0.9521385009089458 
3.7600000000035103, -0.9582159049625865 
3.7700000000035314, -0.9645085328320526 
3.7800000000035525, -0.9708704397779885 
3.7900000000035736, -0.9769299872055397 
3.8000000000035947, -0.9821514454969884 
3.810000000003616, -0.9860816786032691 
3.820000000003637, -0.988586207581668 
3.830000000003658, -0.989844436206703 
3.840000000003679, -0.990178955975663 
3.8500000000037002, -0.9899427643282973 
3.8600000000037213, -0.9895495302495221 
3.8700000000037424, -0.9895785290434492 
3.8800000000037635, -0.9907798554387643 
3.8900000000037847, -0.9937987436076412 
3.9000000000038058, -0.9987525622879794 
3.910000000003827, -1.0051410391921691 
3.920000000003848, -1.0122226545387438 
3.930000000003869, -1.019422440627122 
3.94000000000389, -1.0264584257318123 
3.9500000000039113, -1.0332664970889751 
3.9600000000039324, -1.0398881064398096 
3.9700000000039535, -1.0463800364678675 
3.9800000000039746, -1.0527323811034355 
3.9900000000039957, -1.0587874456508248 
4.000000000004016, -1.064209220188119 
4.010000000003993, -1.0685874229127097 
4.02000000000397, -1.071654990072606 
4.030000000003946, -1.073426838405663 
4.040000000003923, -1.0741406887307674 
4.0500000000039, -1.074124809775685 
4.0600000000038765, -1.0737511943327642 
4.070000000003853, -1.0734757051400075 
4.08000000000383, -1.0738262856808751 
4.090000000003807, -1.075203858099929 
4.100000000003783, -1.0776246943313872 
4.11000000000376, -1.0807354899467525 
4.120000000003737, -1.084100414038928 
4.130000000003713, -1.0874255862456657 
4.14000000000369, -1.090577607663962 
4.150000000003667, -1.0935098671374024 
4.1600000000036434, -1.096211886380941 
4.17000000000362, -1.0986958174204375 
4.180000000003597, -1.1009846791181002 
4.1900000000035735, -1.1030827280598359 
4.20000000000355, -1.1049409660893592 
4.210000000003527, -1.1064485696414685 
4.220000000003504, -1.1074730425061892 
4.23000000000348, -1.1079323109210364 
4.240000000003457, -1.1078468603595437 
4.250000000003434, -1.1073457544549263 
4.26000000000341, -1.1066459583960362 
4.270000000003387, -1.1060091194892316 
4.280000000003364, -1.1056525520131153 
4.2900000000033405, -1.1056536104869408 
4.300000000003317, -1.1059526143601368 
4.310000000003294, -1.1064565515660698 
4.320000000003271, -1.1071137027430829 
4.330000000003247, -1.107886711525858 
4.340000000003224, -1.1086907804398836 
4.350000000003201, -1.1093892311073092 
4.360000000003177, -1.1098476167681246 
4.370000000003154, -1.1099873655081087 
4.380000000003131, -1.1098038564807104 
4.390000000003107, -1.1093467105933075 
4.400000000003084, -1.108675934284843 
4.410000000003061, -1.107821041728454 
4.4200000000030375, -1.1067686047543095 
4.430000000003014, -1.105483536404316 
4.440000000002991, -1.1039479468887476 
4.450000000002968, -1.1021906511544766 
4.460000000002944, -1.100285648897653 
4.470000000002921, -1.0983203820452039 
4.480000000002898, -1.0963688779402374 
4.490000000002874, -1.0945137971197256 
4.500000000002851, -1.0928999447906849 
4.510000000002828, -1.091724532737989 
4.520000000002804, -1.0911082924134727 
4.530000000002781, -1.09095879408838 
4.540000000002758, -1.090990003450552 
4.5500000000027345, -1.0908619997610063 
4.560000000002711, -1.0902838791821547 
4.570000000002688, -1.0890466443749474 
4.580000000002665, -1.0870505186617108 
4.590000000002641, -1.0843389502543082 
4.600000000002618, -1.0810799457096383 
4.610000000002595, -1.077474388154615 
4.620000000002571, -1.0736623417600741 
4.630000000002548, -1.0696937035997705 
4.640000000002525, -1.0655560098360615 
4.6500000000025015, -1.0612178654382358 
4.660000000002478, -1.0566619889260174 
4.670000000002455, -1.0519146922505798 
4.6800000000024315, -1.047099695059981 
4.690000000002408, -1.0425138376193754 
4.700000000002385, -1.0386322371361505 
4.710000000002362, -1.0359131587819104 
4.720000000002338, -1.0344743147712472 
4.730000000002315, -1.0339796428363432 
4.740000000002292, -1.0338685069806406 
4.750000000002268, -1.0336252492031113 
4.760000000002245, -1.0328512317085976 
4.770000000002222, -1.0312153494112812 
4.7800000000021985, -1.028444980718827 
4.790000000002175, -1.024423845376339 
4.800000000002152, -1.019306642757336 
4.810000000002129, -1.0134774053135653 
4.820000000002105, -1.007344804377301 
4.830000000002082, -1.0011694639163047 
4.840000000002059, -0.995038906916086 
4.850000000002035, -0.988935050749995 
4.860000000002012, -0.9828120918667999 
4.870000000001989, -0.9766566231301544 
4.880000000001965, -0.9705414412449749 
4.890000000001942, -0.9646834347491773 
4.900000000001919, -0.9594697252007123 
4.9100000000018955, -0.9553650290984855 
4.920000000001872, -0.9526709821846711 
4.930000000001849, -0.9513069607354486 
