t, s[1].omega / s[0].omega 
0, -0.20000765413642618 
0.009999999999999995, -0.20124990229184814 
0.019999999999999934, -0.2035185061757831 
0.029999999999999874, -0.20685074753365976 
0.04000000000000012, -0.21103250175575877 
0.050000000000000405, -0.21550956786246794 
0.06000000000000069, -0.21956659961543723 
0.07000000000000098, -0.22267460891341878 
0.08000000000000126, -0.22465237845747335 
0.09000000000000155, -0.22554304032804579 
0.10000000000000184, -0.2254011689577468 
0.11000000000000212, -0.22412024510890144 
0.12000000000000241, -0.22126980860392204 
0.130000000000002, -0.2158586163289901 
0.1400000000000009, -0.20604134454245887 
0.1499999999999998, -0.18929677461672528 
0.1599999999999987, -0.16452385701946237 
0.1699999999999976, -0.13563734853770276 
0.1799999999999965, -0.11008840318433329 
0.1899999999999954, -0.09201395361417426 
0.1999999999999943, -0.08073530663112959 
0.2099999999999932, -0.07402542724826969 
0.2199999999999921, -0.07009297368745168 
0.229999999999991, -0.0678445528674616 
0.2399999999999899, -0.06665217366834283 
0.2499999999999888, -0.06612971303646678 
0.2599999999999877, -0.06599927503647805 
0.2699999999999866, -0.06603399824520087 
0.2799999999999855, -0.06604732116732179 
0.2899999999999844, -0.06589165269533862 
0.2999999999999833, -0.06543699812062051 
0.3099999999999822, -0.0645127649848043 
0.3199999999999811, -0.06278185334712592 
0.32999999999998, -0.059435982036488165 
0.3399999999999789, -0.05236785175231003 
0.3499999999999778, -0.03599154407594713 
0.35999999999997667, 0.0023413686759027534 
0.36999999999997557, 0.07538818742945172 
0.37999999999997447, 0.16244887419851725 
0.38999999999997337, 0.22229018022322172 
0.39999999999997227, 0.2518048186060565 
0.40999999999997117, 0.2651040333971687 
0.41999999999997006, 0.2711246928300969 
0.42999999999996896, 0.27375759125687216 
0.43999999999996786, 0.27458750365774043 
0.44999999999996676, 0.27425508479784316 
0.45999999999996566, 0.27303272716649923 
0.46999999999996456, 0.27110621405753543 
0.47999999999996346, 0.26873124780662344 
0.48999999999996235, 0.2662699515577839 
0.49999999999996125, 0.26410525559910386 
0.5099999999999602, 0.2625251983697053 
0.519999999999959, 0.2616843760227593 
0.529999999999958, 0.2616423174466706 
0.5399999999999568, 0.2624032981254578 
0.5499999999999557, 0.2639032667364252 
0.5599999999999546, 0.2659531959119407 
0.5699999999999535, 0.2682116092897581 
0.5799999999999524, 0.27026021079211515 
0.5899999999999513, 0.27174374945417623 
0.5999999999999502, 0.27243769336985046 
0.6099999999999491, 0.2721743019467685 
0.619999999999948, 0.2706575024067058 
0.6299999999999469, 0.267152726233652 
0.6399999999999458, 0.25985322941010336 
0.6499999999999447, 0.24445521089577205 
0.6599999999999436, 0.2118896057090617 
0.6699999999999425, 0.1513648001755122 
0.6799999999999414, 0.07389101640579143 
0.6899999999999403, 0.015442288002500578 
0.6999999999999392, -0.013693343768226026 
0.7099999999999381, -0.0259795831668724 
0.719999999999937, -0.031191452996313818 
0.7299999999999359, -0.03348954614882767 
0.7399999999999348, -0.03447967092552603 
0.7499999999999337, -0.034798058095406335 
0.7599999999999326, -0.034724594293362734 
0.7699999999999315, -0.03441813067007916 
0.7799999999999304, -0.034017296706030674 
0.7899999999999293, -0.03368591398819955 
0.7999999999999282, -0.03362903398878511 
0.8099999999999271, -0.034102865824665346 
0.819999999999926, -0.03545491826895724 
0.8299999999999249, -0.03823855138700617 
0.8399999999999238, -0.043454546889200835 
0.8499999999999227, -0.052972568819814526 
0.8599999999999216, -0.06998405461803361 
0.8699999999999205, -0.09826407845319214 
0.8799999999999194, -0.13745249590952996 
0.8899999999999183, -0.17770653608444167 
0.8999999999999172, -0.2075533232189684 
0.9099999999999161, -0.22506059569851528 
0.919999999999915, -0.23424841052571937 
0.9299999999999139, -0.23886518752207747 
0.9399999999999128, -0.24102242545965308 
0.9499999999999117, -0.2417164936141361 
0.9599999999999106, -0.24135214388021983 
0.9699999999999095, -0.24003291019977208 
0.9799999999999084, -0.2377380059610934 
0.9899999999999073, -0.23449203630250365 
0.9999999999999062, -0.2305367679124227 
1.0099999999999052, -0.22637926795186222 
1.019999999999904, -0.22260824123840953 
1.029999999999903, -0.21963190833877833 
1.039999999999902, -0.21759057546389698 
1.0499999999999008, -0.2164511023693751 
1.0599999999998997, -0.21612396678964002 
1.0699999999998986, -0.2165094238505012 
1.0799999999998975, -0.21747516967442637 
1.0899999999998964, -0.21881345362403434 
1.0999999999998953, -0.22024095572898728 
1.1099999999998942, -0.2214677780446558 
1.119999999999893, -0.2222798519599909 
1.129999999999892, -0.22255702697527538 
1.1399999999998909, -0.22221520898931116 
1.1499999999998898, -0.22110253009373296 
1.1599999999998887, -0.21883769080587928 
1.1699999999998876, -0.21446758537271485 
1.1799999999998865, -0.20557876068046146 
1.1899999999998854, -0.18601584577161373 
1.1999999999998843, -0.14205454008683652 
1.2099999999998832, -0.058611655391716797 
1.219999999999882, 0.04274095373842393 
1.229999999999881, 0.11421520955187374 
1.2399999999998799, 0.15015319852239645 
1.2499999999998788, 0.166615014654156 
1.2599999999998777, 0.17427670820742291 
1.2699999999998766, 0.17788172501100205 
1.2799999999998755, 0.17942163612234413 
1.2899999999998744, 0.1797687834332778 
1.2999999999998733, 0.17935568206498148 
1.3099999999998722, 0.17846588778829356 
1.319999999999871, 0.17735504088471243 
1.32999999999987, 0.1762777197456908 
1.3399999999998689, 0.17547155793199742 
1.3499999999998678, 0.17515223560851725 
1.3599999999998666, 0.17554791172080786 
1.3699999999998655, 0.1769613376654536 
1.3799999999998644, 0.17980889986251425 
1.3899999999998633, 0.18452680393440818 
1.3999999999998622, 0.19120654041772486 
1.4099999999998611, 0.19910497976154262 
1.41999999999986, 0.2067319075429508 
1.429999999999859, 0.21277665171329718 
1.4399999999998578, 0.21679892868375883 
1.4499999999998567, 0.21901426900904458 
1.4599999999998556, 0.21977315181838053 
1.4699999999998545, 0.21924856612211058 
1.4799999999998534, 0.21731414968632307 
1.4899999999998523, 0.21348853843743382 
1.4999999999998512, 0.20698075208108194 
1.5099999999998501, 0.19712581166744395 
1.519999999999849, 0.18444666280682304 
1.529999999999848, 0.17132366876879407 
1.5399999999998468, 0.16052875012746354 
1.5499999999998457, 0.15315980817151287 
1.5599999999998446, 0.14870403534454463 
1.5699999999998435, 0.14621657044344688 
1.5799999999998424, 0.14496055082614054 
1.5899999999998413, 0.14447814548502236 
1.5999999999998402, 0.14448467495087056 
1.6099999999998391, 0.1447638669518085 
1.619999999999838, 0.14510430789148382 
1.629999999999837, 0.14527706453628378 
1.6399999999998358, 0.14503206073627467 
1.6499999999998347, 0.14406902382997291 
1.6599999999998336, 0.141926936651322 
1.6699999999998325, 0.13770470387634276 
1.6799999999998314, 0.1293911257110843 
1.6899999999998303, 0.11223868035988034 
1.6999999999998292, 0.07547700748785764 
1.709999999999828, 0.00196342461033162 
1.719999999999827, -0.10497557276611613 
1.729999999999826, -0.19652669792830857 
1.7399999999998248, -0.24595433562886418 
1.7499999999998237, -0.26798637255664465 
1.7599999999998226, -0.2777837062093308 
1.7699999999998215, -0.2823560568311967 
1.7799999999998204, -0.28448564628338346 
1.7899999999998193, -0.2852727646307974 
1.7999999999998182, -0.28514341547967575 
1.809999999999817, -0.28423521660813494 
1.819999999999816, -0.28258041748203805 
1.8299999999998149, -0.28024243665277726 
1.8399999999998138, -0.27742808205542097 
1.8499999999998127, -0.274506248711199 
1.8599999999998116, -0.2718883948523391 
1.8699999999998105, -0.2698724255758683 
1.8799999999998094, -0.2685904223206722 
1.8899999999998083, -0.26806060183944536 
1.8999999999998072, -0.2682499011963569 
1.909999999999806, -0.2690865466829858 
1.919999999999805, -0.2704260852059544 
1.9299999999998039, -0.2720221724301858 
1.9399999999998028, -0.2735634403844033 
1.9499999999998017, -0.27477183210283285 
1.9599999999998006, -0.27547606741864183 
1.9699999999997995, -0.2755979466001587 
1.9799999999997984, -0.2750729089081907 
1.9899999999997973, -0.2737393398399133 
1.9999999999997962, -0.271162883528709 
2.0099999999998173, -0.26622043029893677 
2.0199999999998384, -0.25587787333120093 
2.0299999999998595, -0.23143047437369607 
2.0399999999998806, -0.1694998782565285 
2.0499999999999017, -0.0370371828134752 
2.059999999999923, 0.12247687148861426 
2.069999999999944, 0.21813349539713087 
2.079999999999965, 0.2581633989410065 
2.089999999999986, 0.27435322936189477 
2.100000000000007, 0.2813014519418821 
2.1100000000000283, 0.2843275401984974 
2.1200000000000494, 0.28541694577000254 
2.1300000000000705, 0.2853664059187629 
2.1400000000000916, 0.2845444600028409 
2.1500000000001127, 0.2832005433340303 
2.160000000000134, 0.2815962605004879 
2.170000000000155, 0.28002622112481373 
2.180000000000176, 0.2787727174988552 
2.190000000000197, 0.2780619432808257 
2.2000000000002182, 0.2780629658996866 
2.2100000000002393, 0.2789074078380714 
2.2200000000002604, 0.2806742592298361 
2.2300000000002815, 0.2833052116120256 
2.2400000000003026, 0.28649819380655417 
2.2500000000003237, 0.28972252248216546 
2.260000000000345, 0.292425846200315 
2.270000000000366, 0.29425449131836207 
2.280000000000387, 0.29507182547378236 
2.290000000000408, 0.29479295390564214 
2.3000000000004293, 0.2931490707098599 
2.3100000000004504, 0.2893583579413724 
2.3200000000004715, 0.28148151163379337 
2.3300000000004926, 0.2651250336457623 
2.3400000000005137, 0.23230100927028235 
2.3500000000005348, 0.1776963361294522 
2.360000000000556, 0.11716983599815392 
2.370000000000577, 0.0759682478340179 
2.380000000000598, 0.055877676909938556 
2.390000000000619, 0.0471014668194263 
2.4000000000006403, 0.0431489880748945 
2.4100000000006614, 0.04122193011872473 
2.4200000000006825, 0.0402137923576601 
2.4300000000007036, 0.039666430587533795 
2.4400000000007247, 0.03935576973767877 
2.450000000000746, 0.039126593512655974 
2.460000000000767, 0.038820048865370056 
2.470000000000788, 0.03823729933698614 
2.480000000000809, 0.037107808006865015 
2.49000000000083, 0.035021624165273116 
2.5000000000008513, 0.03125590169908814 
2.5100000000008724, 0.02435218294066743 
2.5200000000008935, 0.011109596693197197 
2.5300000000009146, -0.015394066145048683 
2.5400000000009357, -0.06881568367013831 
2.550000000000957, -0.16068341128821578 
2.560000000000978, -0.26576257593052943 
2.570000000000999, -0.33859834222376717 
2.58000000000102, -0.3750057550172537 
2.5900000000010412, -0.3915213883374068 
2.6000000000010624, -0.39913471566345493 
2.6100000000010835, -0.40269468880274684 
2.6200000000011046, -0.40417047772292297 
2.6300000000011257, -0.4043212298312436 
2.6400000000011468, -0.4033455821993505 
2.650000000001168, -0.40112917213545646 
2.660000000001189, -0.39739452143535076 
2.67000000000121, -0.39193866051658044 
2.680000000001231, -0.3849995108750474 
2.6900000000012523, -0.37744749639095243 
2.7000000000012734, -0.3704133467894019 
2.7100000000012945, -0.36465896848488955 
2.7200000000013156, -0.36036555275375487 
2.7300000000013367, -0.3573524906800434 
2.740000000001358, -0.35533303934676386 
2.750000000001379, -0.35403332612991784 
2.7600000000014, -0.3532157825999578 
2.770000000001421, -0.3526782231415828 
2.780000000001442, -0.3522621214283733 
2.7900000000014633, -0.3518679103398111 
2.8000000000014844, -0.35146508579402524 
2.8100000000015055, -0.35109897323016415 
2.8200000000015266, -0.3509144026581165 
2.8300000000015477, -0.35123333214128205 
2.840000000001569, -0.35276341092103547 
2.85000000000159, -0.35714498369992675 
2.860000000001611, -0.36847737589643625 
2.870000000001632, -0.39801094066787984 
2.8800000000016532, -0.4798883992418211 
2.8900000000016743, -0.7179076540400334 
2.9000000000016954, -1.2495908717716149 
2.9100000000017165, -1.7210663140225197 
2.9200000000017377, -1.9046846288431478 
2.9300000000017588, -1.9702398889048383 
2.94000000000178, -1.9972247959869882 
2.950000000001801, -2.009276732585189 
2.960000000001822, -2.014567766797352 
2.970000000001843, -2.0164945718800094 
2.9800000000018643, -2.016621663410832 
2.9900000000018854, -2.015720434263719 
3.0000000000019065, -2.0141191391062803 
3.0100000000019276, -2.011612919614837 
3.0200000000019487, -2.0078920498748487 
3.03000000000197, -2.0042146753936247 
3.040000000001991, -2.002924983290018 
3.050000000002012, -2.0031507676969276 
3.060000000002033, -2.002542145195791 
3.070000000002054, -1.9988830638813735 
3.0800000000020753, -1.9843003538955828 
3.0900000000020964, -1.9127075110954823 
3.1000000000021175, -1.6062432804167976 
3.1100000000021386, -2.974570558288202 
3.1200000000021597, -3.748840061784861 
3.130000000002181, -3.77554209768983 
3.140000000002202, -3.778853329162227 
3.150000000002223, -3.7778722462553427 
3.160000000002244, -3.7714815529704886 
3.1700000000022652, -3.7217762387676507 
3.1800000000022863, -2.8208736924193762 
3.1900000000023074, -3.058563500560304 
3.2000000000023285, -3.1084602734163456 
3.2100000000023496, -3.1130576615645706 
3.2200000000023707, -3.112962834635694 
3.230000000002392, -3.11242197291609 
3.240000000002413, -3.111519117868259 
3.250000000002434, -3.1097225781973314 
3.260000000002455, -3.1091877897934546 
3.2700000000024763, -3.108378485399043 
3.2800000000024974, -3.101839485721957 
3.2900000000025185, -3.072854942108841 
3.3000000000025396, -3.139386587680879 
3.3100000000025607, -3.18726856490152 
3.3200000000025818, -3.1962447089025963 
3.330000000002603, -3.1981074992727248 
3.340000000002624, -3.197221260947905 
3.350000000002645, -3.1925106046492067 
3.360000000002666, -3.1733759969301545 
3.3700000000026873, -3.0108982226920853 
3.3800000000027084, -0.4059292741454006 
3.3900000000027295, 0.8207070804801226 
3.4000000000027506, 0.9186845569196315 
3.4100000000027717, 0.9362749549463082 
3.420000000002793, 0.9410980300647769 
3.430000000002814, 0.9424231307989693 
3.440000000002835, 0.9423847639726052 
3.450000000002856, 0.9417527396749701 
3.460000000002877, 0.9412895328862867 
3.4700000000028983, 0.9426552187108435 
3.4800000000029194, 0.9485828431089374 
3.4900000000029405, 0.959669952898671 
3.5000000000029616, 0.9713460078104197 
3.5100000000029827, 0.9793713101994739 
3.520000000003004, 0.983572287524917 
3.530000000003025, 0.9852142636477051 
3.540000000003046, 0.9850482835791652 
3.550000000003067, 0.9827094286559038 
3.5600000000030882, 0.9749962757453672 
3.5700000000031094, 0.9434636249376522 
3.5800000000031305, 0.7044451668509661 
3.5900000000031516, -1.0202340979319513 
3.6000000000031727, -1.8704457896904383 
3.6100000000031938, -1.9743071688281062 
3.620000000003215, -1.9928693910673647 
3.630000000003236, -1.9971373644487282 
3.640000000003257, -1.9977354078517002 
3.650000000003278, -1.997262177410553 
3.6600000000032993, -1.9972779254241775 
3.6700000000033204, -1.9983309507835352 
3.6800000000033415, -1.9994075538830838 
3.6900000000033626, -1.9999198204505029 
3.7000000000033837, -2.0001381945365995 
3.710000000003405, -2.000072392631798 
3.720000000003426, -1.999073981287064 
3.730000000003447, -1.9958235193200184 
3.740000000003468, -1.9870772013221718 
3.750000000003489, -1.9635307130299406 
3.7600000000035103, -1.8966763172714753 
3.7700000000035314, -1.6959743612679106 
3.7800000000035525, -1.1653621731169168 
3.7900000000035736, -0.49234998063794955 
3.8000000000035947, -0.16713380630923863 
3.810000000003616, -0.05476156674136361 
3.820000000003637, -0.011996116946648993 
3.830000000003658, 0.006719077357018063 
3.840000000003679, 0.01567825083002018 
3.8500000000037002, 0.02025408670458091 
3.8600000000037213, 0.022515803553133155 
3.8700000000037424, 0.023345947824103153 
3.8800000000037635, 0.02307574632953444 
3.8900000000037847, 0.02168938100935371 
3.9000000000038058, 0.018815036219081434 
3.910000000003827, 0.01349408610405933 
3.920000000003848, 0.003480266118620063 
3.930000000003869, -0.01650883430922016 
3.94000000000389, -0.06256100529528025 
3.9500000000039113, -0.18581740020849077 
3.9600000000039324, -0.5413248659422721 
3.9700000000039535, -1.2282696040191816 
3.9800000000039746, -1.7228860932380456 
3.9900000000039957, -1.9041710043495896 
4.000000000004016, -1.9643663630692518 
4.010000000003993, -1.9852911035087337 
4.02000000000397, -1.992690454785422 
4.030000000003946, -1.99502343394532 
4.040000000003923, -1.9952634481250051 
4.0500000000039, -1.994648962229236 
4.0600000000038765, -1.9937830018921097 
4.070000000003853, -1.9926087057925241 
4.08000000000383, -1.9908845561886857 
4.090000000003807, -1.9892653893788215 
4.100000000003783, -1.9886865739785509 
4.11000000000376, -1.9884923257759948 
4.120000000003737, -1.9871222376849567 
4.130000000003713, -1.9818442744587699 
4.14000000000369, -1.9612123923963416 
4.150000000003667, -1.848756974335752 
4.1600000000036434, -0.9647278120248812 
4.17000000000362, 0.6466694189156548 
4.180000000003597, 0.8747704007468247 
4.1900000000035735, 0.9066436609281465 
4.20000000000355, 0.9143536991224179 
4.210000000003527, 0.9164785406077293 
4.220000000003504, 0.9164243320552279 
4.23000000000348, 0.9147807460777407 
4.240000000003457, 0.9112139536894259 
4.250000000003434, 0.9050978533508817 
4.26000000000341, 0.8965901189348606 
4.270000000003387, 0.8878702625973792 
4.280000000003364, 0.8817987282087012 
4.2900000000033405, 0.8789815517159987 
4.300000000003317, 0.8781240333337015 
4.310000000003294, 0.8779194121469519 
4.320000000003271, 0.8775737385771007 
4.330000000003247, 0.8764584596569825 
4.340000000003224, 0.8734136922521876 
4.350000000003201, 0.8645891349474792 
4.360000000003177, 0.8304151774508124 
4.370000000003154, 0.5770454424824034 
4.380000000003131, -1.890491276103262 
4.390000000003107, -2.840168268157403 
4.400000000003084, -2.9127604056641383 
4.410000000003061, -2.926161857781998 
4.4200000000030375, -2.9293553653657436 
4.430000000003014, -2.929270576933172 
4.440000000002991, -2.927027117240669 
4.450000000002968, -2.9206536118313227 
4.460000000002944, -2.9007534791235874 
4.470000000002921, -2.8759113823698117 
4.480000000002898, -2.8831722760529166 
4.490000000002874, -2.8869080601216575 
4.500000000002851, -2.8863343203095986 
4.510000000002828, -2.885043351216921 
4.520000000002804, -2.887873761347361 
4.530000000002781, -2.890903056660433 
4.540000000002758, -2.8918380358273663 
4.5500000000027345, -2.891782850957431 
4.560000000002711, -2.890023422973699 
4.570000000002688, -2.8813586856039817 
4.580000000002665, -2.8189863439083918 
4.590000000002641, -1.4878087766441719 
4.600000000002618, 1.0983649467258858 
4.610000000002595, 1.2259854469583993 
4.620000000002571, 1.2413944290981207 
4.630000000002548, 1.2447384107240607 
4.640000000002525, 1.244984278923213 
4.6500000000025015, 1.2433385939689523 
4.660000000002478, 1.239098202956805 
4.670000000002455, 1.230505294228782 
4.6800000000024315, 1.2173720408439719 
4.690000000002408, 1.2060335231899644 
4.700000000002385, 1.2021432401213046 
4.710000000002362, 1.202496384714371 
4.720000000002338, 1.2033037127760786 
4.730000000002315, 1.203222352022197 
4.740000000002292, 1.2013979406620692 
4.750000000002268, 1.1950642945402477 
4.760000000002245, 1.1700516239817378 
4.770000000002222, 1.0273827817539052 
4.7800000000021985, 1.1352694932501879 
4.790000000002175, 2.0447519008215886 
4.800000000002152, 2.0901499009004727 
4.810000000002129, 2.094898025971482 
4.820000000002105, 2.0943495897415985 
4.830000000002082, 2.087499419272633 
4.840000000002059, 2.0142370662830293 
4.850000000002035, -0.20200737165222496 
4.860000000002012, -1.7562602294483924 
4.870000000001989, -1.9662760339119392 
4.880000000001965, -1.9983917024019362 
4.890000000001942, -2.005122567428381 
4.900000000001919, -2.0063126466260837 
4.9100000000018955, -2.0057840930902544 
