t, s[1].omega / s[0].omega 
0, -1.2992485419357402 
0.009999999999999995, -1.2120549032888146 
0.019999999999999934, -1.102298984818163 
0.029999999999999874, -0.9783746497899241 
0.04000000000000012, -0.8598533634987525 
0.050000000000000405, -0.767974417358537 
0.06000000000000069, -0.7099162676890366 
0.07000000000000098, -0.6788721489554234 
0.08000000000000126, -0.6644074797997368 
0.09000000000000155, -0.6585607289846792 
0.10000000000000184, -0.6566542760634267 
0.11000000000000212, -0.6562978951365396 
0.12000000000000241, -0.6563656545185679 
0.130000000000002, -0.6563378387161103 
0.1400000000000009, -0.6559504531853848 
0.1499999999999998, -0.655039398732306 
0.1599999999999987, -0.6535075985559161 
0.1699999999999976, -0.6513693098090173 
0.1799999999999965, -0.6488014619749689 
0.1899999999999954, -0.6461105750452278 
0.1999999999999943, -0.6436055580503725 
0.2099999999999932, -0.6414814165772927 
0.2199999999999921, -0.6397922287640603 
0.229999999999991, -0.6384872331344116 
0.2399999999999899, -0.6374585664750343 
0.2499999999999888, -0.6365843793483532 
0.2599999999999877, -0.6357690553483945 
0.2699999999999866, -0.6349750470586584 
0.2799999999999855, -0.6342387595145493 
0.2899999999999844, -0.6336733241647069 
0.2999999999999833, -0.6334660532261335 
0.3099999999999822, -0.6338715001736795 
0.3199999999999811, -0.6351939828193588 
0.32999999999998, -0.6377562075065104 
0.3399999999999789, -0.6418622524003663 
0.3499999999999778, -0.6477737686488153 
0.35999999999997667, -0.6557177750732223 
0.36999999999997557, -0.6659328337238822 
0.37999999999997447, -0.6787476194242914 
0.38999999999997337, -0.6946790535356854 
0.39999999999997227, -0.7145274306538975 
0.40999999999997117, -0.7393982510005657 
0.41999999999997006, -0.770424910128716 
0.42999999999996896, -0.8077038091552463 
0.43999999999996786, -0.8482722343935876 
0.44999999999996676, -0.8854134770940123 
0.45999999999996566, -0.9128132096539625 
0.46999999999996456, -0.9294095894494816 
0.47999999999996346, -0.9381478418760597 
0.48999999999996235, -0.942279099275417 
0.49999999999996125, -0.9438703396318863 
0.5099999999999602, -0.9439539032895518 
0.519999999999959, -0.9429772668609449 
0.529999999999958, -0.9412349988379903 
0.5399999999999568, -0.9395948306114198 
0.5499999999999557, -0.9412678306022737 
0.5599999999999546, -0.9550762687486316 
0.5699999999999535, -0.9963836607278834 
0.5799999999999524, -1.0744727456720726 
0.5899999999999513, -1.1728442648522082 
0.5999999999999502, -1.262557907818113 
0.6099999999999491, -1.3309849240153182 
0.619999999999948, -1.3802357474902505 
0.6299999999999469, -1.415318748333357 
0.6399999999999458, -1.4397800560693452 
0.6499999999999447, -1.4558685886476812 
0.6599999999999436, -1.465505057451589 
0.6699999999999425, -1.470625486112878 
0.6799999999999414, -1.4729083023424452 
0.6899999999999403, -1.4735395130369944 
0.6999999999999392, -1.4733057781762988 
0.7099999999999381, -1.472833072857246 
0.719999999999937, -1.47262839157381 
0.7299999999999359, -1.4728232893767585 
0.7399999999999348, -1.4731612710469824 
0.7499999999999337, -1.473428500079582 
0.7599999999999326, -1.4736692314226238 
0.7699999999999315, -1.473943195579903 
0.7799999999999304, -1.4740714565835504 
0.7899999999999293, -1.4736933733768427 
0.7999999999999282, -1.472401169830119 
0.8099999999999271, -1.46976375899319 
0.819999999999926, -1.4653453344015523 
0.8299999999999249, -1.458762872945112 
0.8399999999999238, -1.4496606049203953 
0.8499999999999227, -1.437503434048303 
0.8599999999999216, -1.4212334585450668 
0.8699999999999205, -1.398921731043893 
0.8799999999999194, -1.3679222982988588 
0.8899999999999183, -1.3274585460965718 
0.8999999999999172, -1.2854602129501378 
0.9099999999999161, -1.258028793674189 
0.919999999999915, -1.249652706630973 
0.9299999999999139, -1.2503826465466659 
0.9399999999999128, -1.2523957567902435 
0.9499999999999117, -1.2533641918921767 
0.9599999999999106, -1.2528369152569145 
0.9699999999999095, -1.2500860716045554 
0.9799999999999084, -1.2425050660707595 
0.9899999999999073, -1.2211472448138192 
0.9999999999999062, -1.1524836091338593 
1.0099999999999052, -0.9097140629480267 
1.019999999999904, -0.3142403266744572 
1.029999999999903, 0.12794917432674308 
1.039999999999902, 0.25858106064687986 
1.0499999999999008, 0.29655274073762394 
1.0599999999998997, 0.31011452302131776 
1.0699999999998986, 0.3157205803109865 
1.0799999999998975, 0.318140314003459 
1.0899999999998964, 0.3190517538663214 
1.0999999999998953, 0.31916639417068265 
1.1099999999998942, 0.31886530980002503 
1.119999999999893, 0.3184177086369798 
1.129999999999892, 0.31806116816922303 
1.1399999999998909, 0.3180408436353097 
1.1499999999998898, 0.3186516017258859 
1.1599999999998887, 0.32028895913700256 
1.1699999999998876, 0.32345442717364864 
1.1799999999998865, 0.32857187554924716 
1.1899999999998854, 0.33550647399748745 
1.1999999999998843, 0.3431681948562345 
1.2099999999998832, 0.3499881418596279 
1.219999999999882, 0.3549606146889989 
1.229999999999881, 0.3579721912163567 
1.2399999999998799, 0.35933834006729987 
1.2499999999998788, 0.3593104862773822 
1.2599999999998777, 0.3578015302118923 
1.2699999999998766, 0.3541365286228665 
1.2799999999998755, 0.3465812059406953 
1.2899999999998744, 0.33164268626537374 
1.2999999999998733, 0.30470518216643017 
1.3099999999998722, 0.266579845648964 
1.319999999999871, 0.23030387990976403 
1.32999999999987, 0.20735582160432003 
1.3399999999998689, 0.19619060205781572 
1.3499999999998678, 0.1912435911608868 
1.3599999999998666, 0.189023854833075 
1.3699999999998655, 0.18796109725135673 
1.3799999999998644, 0.18739014117688874 
1.3899999999998633, 0.18699768894380675 
1.3999999999998622, 0.18658383631189046 
1.4099999999998611, 0.1859536707101948 
1.41999999999986, 0.18484527182140845 
1.429999999999859, 0.1828286250095133 
1.4399999999998578, 0.1790699275437549 
1.4499999999998567, 0.17167488332373942 
1.4599999999998556, 0.15561136401220563 
1.4699999999998545, 0.1150999699232736 
1.4799999999998534, -0.006659127988915126 
1.4899999999998523, -0.3691885812596641 
1.4999999999998512, -0.8948105608061923 
1.5099999999998501, -1.1505723235262528 
1.519999999999849, -1.2280758782429175 
1.529999999999848, -1.2520410405202997 
1.5399999999998468, -1.260172693282717 
1.5499999999998457, -1.2628447836659396 
1.5599999999998446, -1.2631294328495313 
1.5699999999998435, -1.2619597016823216 
1.5799999999998424, -1.259896951517784 
1.5899999999998413, -1.2589811262220467 
1.5999999999998402, -1.265202117665072 
1.6099999999998391, -1.285383641354805 
1.619999999999838, -1.3161000752576122 
1.629999999999837, -1.346337099655638 
1.6399999999998358, -1.3702918950828038 
1.6499999999998347, -1.3880650127607432 
1.6599999999998336, -1.4013361777772095 
1.6699999999998325, -1.4114551856746727 
1.6799999999998314, -1.4191891507491476 
1.6899999999998303, -1.4248996468300157 
1.6999999999998292, -1.4287787485974044 
1.709999999999828, -1.4310411872890199 
1.719999999999827, -1.4319927158023478 
1.729999999999826, -1.4319907905461866 
1.7399999999998248, -1.4314046310741235 
1.7499999999998237, -1.4305943238592147 
1.7599999999998226, -1.429808496639481 
1.7699999999998215, -1.4290656382114242 
1.7799999999998204, -1.428283077662392 
1.7899999999998193, -1.4275514204792135 
1.7999999999998182, -1.4271178390313186 
1.809999999999817, -1.4270234516081735 
1.819999999999816, -1.426925750745403 
1.8299999999998149, -1.426301129965913 
1.8399999999998138, -1.4245685328721207 
1.8499999999998127, -1.4209958350633665 
1.8599999999998116, -1.4146475264435674 
1.8699999999998105, -1.4045469368447496 
1.8799999999998094, -1.3898997844316887 
1.8899999999998083, -1.3699906412046294 
1.8999999999998072, -1.3436576942150213 
1.909999999999806, -1.3087534091548583 
1.919999999999805, -1.262433083917066 
1.9299999999998039, -1.2042086100743703 
1.9399999999998028, -1.1429129779664848 
1.9499999999998017, -1.0968053594004448 
1.9599999999998006, -1.0751727508123659 
1.9699999999997995, -1.070142859636946 
1.9799999999997984, -1.0710161175585922 
1.9899999999997973, -1.0725714672620015 
1.9999999999997962, -1.0733135324160596 
2.0099999999998173, -1.0728515882231902 
2.0199999999998384, -1.070647387571969 
2.0299999999998595, -1.0651971238345417 
2.0399999999998806, -1.0526156174352095 
2.0499999999999017, -1.0237874320102276 
2.059999999999923, -0.9620953729108201 
2.069999999999944, -0.855183905347445 
2.079999999999965, -0.725015540009635 
2.089999999999986, -0.6141423575162235 
2.100000000000007, -0.5382420524117102 
2.1100000000000283, -0.48997064256876033 
2.1200000000000494, -0.4591718248770563 
2.1300000000000705, -0.43895478556467926 
2.1400000000000916, -0.42527708204159953 
2.1500000000001127, -0.415807388148475 
2.160000000000134, -0.40917124307622377 
2.170000000000155, -0.40453195663721775 
2.180000000000176, -0.40136393955813104 
2.190000000000197, -0.39932864408564683 
2.2000000000002182, -0.39820584069991977 
2.2100000000002393, -0.39785613811887294 
2.2200000000002604, -0.3982025745866209 
2.2300000000002815, -0.39922557808298775 
2.2400000000003026, -0.4009696135626295 
2.2500000000003237, -0.4035629773116324 
2.260000000000345, -0.4072557591027569 
2.270000000000366, -0.41248703489571065 
2.280000000000387, -0.4200038195605047 
2.290000000000408, -0.4310703065174183 
2.3000000000004293, -0.4477985718800667 
2.3100000000004504, -0.47345729528250524 
2.3200000000004715, -0.5118277170296437 
2.3300000000004926, -0.5632599977040379 
2.3400000000005137, -0.6183829019187986 
2.3500000000005348, -0.6623184535708645 
2.360000000000556, -0.6892573615398928 
2.370000000000577, -0.7033452455751312 
2.380000000000598, -0.7101639463779155 
2.390000000000619, -0.7131914215921609 
2.4000000000006403, -0.7140894821450792 
2.4100000000006614, -0.7134452350713254 
2.4200000000006825, -0.7110964464470849 
2.4300000000007036, -0.7059374538261028 
2.4400000000007247, -0.694769112787113 
2.450000000000746, -0.6681171695542087 
2.460000000000767, -0.5940211023720705 
2.470000000000788, -0.3642580428048642 
2.480000000000809, 0.11030482202140357 
2.49000000000083, 0.4050882280371825 
2.5000000000008513, 0.48665368574597057 
2.5100000000008724, 0.5099475439756337 
2.5200000000008935, 0.5179858053782623 
2.5300000000009146, 0.5209676026520029 
2.5400000000009357, 0.5217631522869355 
2.550000000000957, 0.5212736175408539 
2.560000000000978, 0.5197758785230805 
2.570000000000999, 0.5173923851608294 
2.58000000000102, 0.5143464151869019 
2.5900000000010412, 0.5110712231630458 
2.6000000000010624, 0.5081017610202221 
2.6100000000010835, 0.5058365116251353 
2.6200000000011046, 0.5044032321447285 
2.6300000000011257, 0.5037051698353298 
2.6400000000011468, 0.5035312633059436 
2.650000000001168, 0.503632530239486 
2.660000000001189, 0.5037548284985229 
2.67000000000121, 0.5036408926265789 
2.680000000001231, 0.5029879289449567 
2.6900000000012523, 0.501300488541949 
2.7000000000012734, 0.4974445988447225 
2.7100000000012945, 0.4880920733349267 
2.7200000000013156, 0.4606613599746531 
2.7300000000013367, 0.3478558412459394 
2.740000000001358, -0.3038839426773501 
2.750000000001379, -1.559622400437259 
2.7600000000014, -1.8815134970119338 
2.770000000001421, -1.936265578736169 
2.780000000001442, -1.9486550963896672 
2.7900000000014633, -1.9517683995934827 
2.8000000000014844, -1.9521114373088597 
2.8100000000015055, -1.9516726835282132 
2.8200000000015266, -1.9516923496424146 
2.8300000000015477, -1.952380868188769 
2.840000000001569, -1.9529326807979175 
2.85000000000159, -1.953073278263354 
2.860000000001611, -1.9531197829526363 
2.870000000001632, -1.9529695918086578 
2.8800000000016532, -1.9518702927466645 
2.8900000000016743, -1.9483856160066033 
2.9000000000016954, -1.9389016532691616 
2.9100000000017165, -1.9127601634921914 
2.9200000000017377, -1.836968309512309 
2.9300000000017588, -1.6125192468329481 
2.94000000000178, -1.0760790869970795 
2.950000000001801, -0.4770120347371825 
2.960000000001822, -0.19060099950227283 
2.970000000001843, -0.08582232045759776 
2.9800000000018643, -0.04400211011931708 
2.9900000000018854, -0.024909985627515088 
3.0000000000019065, -0.015213000327947285 
3.0100000000019276, -0.009944781060359637 
3.0200000000019487, -0.007043669095264611 
3.03000000000197, -0.005604335376370674 
3.040000000001991, -0.005263669935336416 
3.050000000002012, -0.005990429694316648 
3.060000000002033, -0.008069181466378644 
3.070000000002054, -0.012264370982507286 
3.0800000000020753, -0.02032601304913892 
3.0900000000020964, -0.036422230703557615 
3.1000000000021175, -0.07155633244341542 
3.1100000000021386, -0.15858478159033834 
3.1200000000021597, -0.39891114613005096 
3.130000000002181, -0.9574400604938026 
3.140000000002202, -1.5501060829062214 
3.150000000002223, -1.8204925433907921 
3.160000000002244, -1.913107578595493 
3.1700000000022652, -1.9448922495903609 
3.1800000000022863, -1.956105859309048 
3.1900000000023074, -1.9599032917240162 
3.2000000000023285, -1.960773146943993 
3.2100000000023496, -1.9604227499911473 
3.2200000000023707, -1.9597080638164956 
3.230000000002392, -1.9588898654694678 
3.240000000002413, -1.957676737787919 
3.250000000002434, -1.9561683662655214 
3.260000000002455, -1.9552391692937021 
3.2700000000024763, -1.9550299447994035 
3.2800000000024974, -1.9543939364344205 
3.2900000000025185, -1.9516084456436946 
3.3000000000025396, -1.941906851608469 
3.3100000000025607, -1.9021781937350546 
3.3200000000025818, -1.6743043062104803 
3.330000000002603, -0.4850021036907116 
3.340000000002624, 0.40433399127417335 
3.350000000002645, 0.5456701871117138 
3.360000000002666, 0.5754393240855358 
3.3700000000026873, 0.5845191792793394 
3.3800000000027084, 0.5877748264200238 
3.3900000000027295, 0.5888017919462412 
3.4000000000027506, 0.5887283877555165 
3.4100000000027717, 0.5880018836282634 
3.420000000002793, 0.5868877826878979 
3.430000000002814, 0.5856379016250834 
3.440000000002835, 0.5845215410466947 
3.450000000002856, 0.5837809226034524 
3.460000000002877, 0.5835655168791262 
3.4700000000028983, 0.5838880760026495 
3.4800000000029194, 0.5846184571254018 
3.4900000000029405, 0.5855192098672266 
3.5000000000029616, 0.5863136339952677 
3.5100000000029827, 0.5867441792737897 
3.520000000003004, 0.5865616435812824 
3.530000000003025, 0.585390685213673 
3.540000000003046, 0.5823352887743722 
3.550000000003067, 0.5746624288345632 
3.5600000000030882, 0.5518330696135586 
3.5700000000031094, 0.45605834299988557 
3.5800000000031305, -0.14145382865852824 
3.5900000000031516, -1.4615457729648371 
3.6000000000031727, -1.815959232710036 
3.6100000000031938, -1.8750977197624408 
3.620000000003215, -1.888347906511585 
3.630000000003236, -1.8917102750417623 
3.640000000003257, -1.8921286921787164 
3.650000000003278, -1.8916607126719391 
3.6600000000032993, -1.891702994486364 
3.6700000000033204, -1.8927900610484074 
3.6800000000033415, -1.8940259078214854 
3.6900000000033626, -1.8947526063851203 
3.7000000000033837, -1.8951293121138852 
3.710000000003405, -1.895244334416627 
3.720000000003426, -1.8946631689470177 
3.730000000003447, -1.8925318764124917 
3.740000000003468, -1.8872016248984806 
3.750000000003489, -1.8750313210299274 
3.7600000000035103, -1.8477996367482814 
3.7700000000035314, -1.7859872729029962 
3.7800000000035525, -1.6394840359233283 
3.7900000000035736, -1.303010973127387 
3.8000000000035947, -0.7977090877436359 
3.810000000003616, -0.45028916042397615 
3.820000000003637, -0.30262578088999503 
3.830000000003658, -0.24312149655100654 
3.840000000003679, -0.21707114576661174 
3.8500000000037002, -0.20462953399442324 
3.8600000000037213, -0.1983009030273886 
3.8700000000037424, -0.1949828593917019 
3.8800000000037635, -0.19328155348687925 
3.8900000000037847, -0.192536516104891 
3.9000000000038058, -0.19243762253259594 
3.910000000003827, -0.19286881109226334 
3.920000000003848, -0.19385076028072418 
3.930000000003869, -0.19553770190022096 
3.94000000000389, -0.19826032856485332 
3.9500000000039113, -0.20263730395982632 
3.9600000000039324, -0.20982781316544336 
3.9700000000039535, -0.22209952674284633 
3.9800000000039746, -0.2440691738718988 
3.9900000000039957, -0.2849500592214661 
4.000000000004016, -0.3593308344235359 
4.010000000003993, -0.4723235887154841 
4.02000000000397, -0.5885251149468066 
4.030000000003946, -0.6647483812737409 
4.040000000003923, -0.702195265209202 
4.0500000000039, -0.7188946656380172 
4.0600000000038765, -0.7262762900724781 
4.070000000003853, -0.7293998013833485 
4.08000000000383, -0.7302724990830832 
4.090000000003807, -0.7295103922204095 
4.100000000003783, -0.7268433214332097 
4.11000000000376, -0.7208409938733782 
4.120000000003737, -0.707410258466026 
4.130000000003713, -0.6748799004872407 
4.14000000000369, -0.590464882998595 
4.150000000003667, -0.3940091591427714 
4.1600000000036434, -0.12777890308406953 
4.17000000000362, 0.037014687984428314 
4.180000000003597, 0.10326511298299061 
4.1900000000035735, 0.12930939782803763 
4.20000000000355, 0.14057820557721964 
4.210000000003527, 0.1458686859691552 
4.220000000003504, 0.14841281172146198 
4.23000000000348, 0.1495460587926162 
4.240000000003457, 0.14990532850732557 
4.250000000003434, 0.1498533919975235 
4.26000000000341, 0.14963850072875579 
4.270000000003387, 0.1494597923170941 
4.280000000003364, 0.14951279380609775 
4.2900000000033405, 0.15006049328758544 
4.300000000003317, 0.1515772765931419 
4.310000000003294, 0.1550388004261784 
4.320000000003271, 0.16239536995837156 
4.330000000003247, 0.176725746600391 
4.340000000003224, 0.19999265667636484 
4.350000000003201, 0.22794594303095925 
4.360000000003177, 0.25167233761917407 
4.370000000003154, 0.2669511722677305 
4.380000000003131, 0.2753474364519151 
4.390000000003107, 0.27955092947761917 
4.400000000003084, 0.281331385834403 
4.410000000003061, 0.2815450705768149 
4.4200000000030375, 0.2804718025645059 
4.430000000003014, 0.2780568400236774 
4.440000000002991, 0.2741271462609157 
4.450000000002968, 0.26870839952151193 
4.460000000002944, 0.2623651970365669 
4.470000000002921, 0.2561569347393002 
4.480000000002898, 0.2510560984744547 
4.490000000002874, 0.24745639721112345 
4.500000000002851, 0.24524192779460594 
4.510000000002828, 0.24410721302121638 
4.520000000002804, 0.24375746274714233 
4.530000000002781, 0.24394790411361011 
4.540000000002758, 0.24445277221949743 
4.5500000000027345, 0.24503514301957016 
4.560000000002711, 0.245444632860305 
4.570000000002688, 0.24542567360922068 
4.580000000002665, 0.24468820162773564 
4.590000000002641, 0.2427819372623025 
4.600000000002618, 0.23876932178724924 
4.610000000002595, 0.23036481188216382 
4.620000000002571, 0.21142874615813456 
4.630000000002548, 0.16477373155841257 
4.640000000002525, 0.05178950432342342 
4.6500000000025015, -0.1372520290262151 
4.660000000002478, -0.29115175612732164 
4.670000000002455, -0.3621067706255846 
4.6800000000024315, -0.3901345527326749 
4.690000000002408, -0.401886749969499 
4.700000000002385, -0.4072591858929531 
4.710000000002362, -0.4097653315980582 
4.720000000002338, -0.41071970972246924 
4.730000000002315, -0.41059922334752724 
4.740000000002292, -0.4095005126522149 
4.750000000002268, -0.4073281298409109 
4.760000000002245, -0.4039502084174682 
4.770000000002222, -0.39941475682136124 
4.7800000000021985, -0.3941428822212153 
4.790000000002175, -0.38885961195809127 
4.800000000002152, -0.38423823020706604 
4.810000000002129, -0.3806168160988065 
4.820000000002105, -0.3780116380771326 
4.830000000002082, -0.37627549668013327 
4.840000000002059, -0.37521473591801424 
4.850000000002035, -0.3746307360618128 
4.860000000002012, -0.3743292586058414 
4.870000000001989, -0.3741358526462808 
4.880000000001965, -0.373921902913104 
4.890000000001942, -0.3736242282457026 
4.900000000001919, -0.37325078604555884 
4.9100000000018955, -0.3728884996349668 
4.920000000001872, -0.3727456825189174 
4.930000000001849, -0.3732847584425746 
