t, s[1].omega / s[0].omega 
0, -1.2799757104590543 
0.009999999999999995, -1.2772977764891418 
0.019999999999999934, -1.2741184670113443 
0.029999999999999874, -1.2703873304627575 
0.04000000000000012, -1.266012393052009 
0.050000000000000405, -1.2608676178066882 
0.06000000000000069, -1.254836143831202 
0.07000000000000098, -1.2480027250162318 
0.08000000000000126, -1.2410311148168378 
0.09000000000000155, -1.2352967973044966 
0.10000000000000184, -1.232004002954686 
0.11000000000000212, -1.2309713541437692 
0.12000000000000241, -1.230963832114813 
0.130000000000002, -1.2308471258616696 
0.1400000000000009, -1.2298595425292014 
0.1499999999999998, -1.2271581849816466 
0.1599999999999987, -1.2211713940839757 
0.1699999999999976, -1.2089017044623334 
0.1799999999999965, -1.1857873054741717 
0.1899999999999954, -1.1477142293612748 
0.1999999999999943, -1.094969541884282 
0.2099999999999932, -1.033061966448496 
0.2199999999999921, -0.9686335633998725 
0.229999999999991, -0.9063301280185584 
0.2399999999999899, -0.8490659046793058 
0.2499999999999888, -0.799159923891936 
0.2599999999999877, -0.7585821448617476 
0.2699999999999866, -0.7283700059520747 
0.2799999999999855, -0.7080765402253735 
0.2899999999999844, -0.6959139639280616 
0.2999999999999833, -0.689491089093891 
0.3099999999999822, -0.6865809647736892 
0.3199999999999811, -0.6855261670137287 
0.32999999999998, -0.685271713929285 
0.3399999999999789, -0.6852095247690603 
0.3499999999999778, -0.6849991900293961 
0.35999999999997667, -0.6844438193062027 
0.36999999999997557, -0.683439747473823 
0.37999999999997447, -0.6819861603371503 
0.38999999999997337, -0.6802076475611087 
0.39999999999997227, -0.6783267091074915 
0.40999999999997117, -0.6765750070069844 
0.41999999999997006, -0.6751070486891216 
0.42999999999996896, -0.6739701702017326 
0.43999999999996786, -0.6731208665615582 
0.44999999999996676, -0.6724581923473042 
0.45999999999996566, -0.671864443652281 
0.46999999999996456, -0.6712496383830878 
0.47999999999996346, -0.6705867904695564 
0.48999999999996235, -0.6699279566158272 
0.49999999999996125, -0.6694063358907762 
0.5099999999999602, -0.6692334510504916 
0.519999999999959, -0.6696894885871445 
0.529999999999958, -0.6710967455762249 
0.5399999999999568, -0.6737732204655233 
0.5499999999999557, -0.6779817940881765 
0.5599999999999546, -0.6839029299896227 
0.5699999999999535, -0.6916509861442419 
0.5799999999999524, -0.7013321336888475 
0.5899999999999513, -0.71312530349165 
0.5999999999999502, -0.7273651606698338 
0.6099999999999491, -0.7446039586674242 
0.619999999999948, -0.7655953621771328 
0.6299999999999469, -0.7910359500905088 
0.6399999999999458, -0.8207581026962801 
0.6499999999999447, -0.8523916268289542 
0.6599999999999436, -0.8811087263361734 
0.6699999999999425, -0.9025001591066601 
0.6799999999999414, -0.9157524955246672 
0.6899999999999403, -0.9228923543493508 
0.6999999999999392, -0.9262930100985789 
0.7099999999999381, -0.9275362913932087 
0.719999999999937, -0.9274437361065434 
0.7299999999999359, -0.9264024973439415 
0.7399999999999348, -0.9247642536701843 
0.7499999999999337, -0.9236096022935024 
0.7599999999999326, -0.9265035658997064 
0.7699999999999315, -0.9422412217900419 
0.7799999999999304, -0.9844082832391665 
0.7899999999999293, -1.0591955100540913 
0.7999999999999282, -1.1509065992772647 
0.8099999999999271, -1.2352219656715815 
0.819999999999926, -1.3013388716908239 
0.8299999999999249, -1.350425647713005 
0.8399999999999238, -1.3863233850590917 
0.8499999999999227, -1.4118414875978404 
0.8599999999999216, -1.4288354463175206 
0.8699999999999205, -1.4390892955450505 
0.8799999999999194, -1.4445736444209536 
0.8899999999999183, -1.4470585378128398 
0.8999999999999172, -1.4478025981076605 
0.9099999999999161, -1.4476283327061141 
0.919999999999915, -1.4471815381595177 
0.9299999999999139, -1.4470204018057935 
0.9399999999999128, -1.4473574251734114 
0.9499999999999117, -1.4479486582296888 
0.9599999999999106, -1.448496639223389 
0.9699999999999095, -1.448959249658347 
0.9799999999999084, -1.449392370694532 
0.9899999999999073, -1.4496853439378663 
0.9999999999999062, -1.4495533885150802 
1.0099999999999052, -1.448668051037961 
1.019999999999904, -1.4467179294358643 
1.029999999999903, -1.4434340857733674 
1.039999999999902, -1.4386198223826756 
1.0499999999999008, -1.432117964202559 
1.0599999999998997, -1.4236756489285574 
1.0699999999998986, -1.4127507818463774 
1.0799999999998975, -1.3983181279583676 
1.0899999999998964, -1.378848808355994 
1.0999999999998953, -1.353240362840215 
1.1099999999998942, -1.3241465122329665 
1.119999999999893, -1.3008233230629795 
1.129999999999892, -1.2906457272089666 
1.1399999999998909, -1.2897362777720502 
1.1499999999998898, -1.2912564790495447 
1.1599999999998887, -1.2921983617136954 
1.1699999999998876, -1.2917896945104295 
1.1799999999998865, -1.2892785129894913 
1.1899999999998854, -1.2822173239235761 
1.1999999999998843, -1.2621988098991896 
1.2099999999998832, -1.1976190810655667 
1.219999999999882, -0.9679009704933369 
1.229999999999881, -0.38645040258517754 
1.2399999999998799, 0.07436479367187876 
1.2499999999998788, 0.216597223809771 
1.2599999999998777, 0.2584871704219012 
1.2699999999998766, 0.27355138628780995 
1.2799999999998755, 0.27985069783315775 
1.2899999999998744, 0.28265332468743887 
1.2999999999998733, 0.2838206145167904 
1.3099999999998722, 0.28414072775431487 
1.319999999999871, 0.2840252603362642 
1.32999999999987, 0.2837487994929383 
1.3399999999998689, 0.2835426348129152 
1.3499999999998678, 0.2836505805495376 
1.3599999999998666, 0.28439793607266667 
1.3699999999998655, 0.28629456482440985 
1.3799999999998644, 0.2901317909982971 
1.3899999999998633, 0.29685669511905916 
1.3999999999998622, 0.3068128356632148 
1.4099999999998611, 0.31860546179864546 
1.41999999999986, 0.3294622847316705 
1.429999999999859, 0.3374182248615617 
1.4399999999998578, 0.3422967936366713 
1.4499999999998567, 0.3448074240147338 
1.4599999999998556, 0.34561123911423597 
1.4699999999998545, 0.3449826943229271 
1.4799999999998534, 0.34271698877093026 
1.4899999999998523, 0.3379989054554235 
1.4999999999998512, 0.329244961331669 
1.5099999999998501, 0.31452857499561737 
1.519999999999849, 0.29390129673790083 
1.529999999999848, 0.2721484929503658 
1.5399999999998468, 0.25546927599947444 
1.5499999999998457, 0.24550989978285903 
1.5599999999998446, 0.24031999185501104 
1.5699999999998435, 0.2377412030419832 
1.5799999999998424, 0.2364664046250716 
1.5899999999998413, 0.23582473731788692 
1.5999999999998402, 0.23546011749004864 
1.6099999999998391, 0.2351380900477127 
1.619999999999838, 0.23464304626868318 
1.629999999999837, 0.23370767216519112 
1.6399999999998358, 0.2319144175092051 
1.6499999999998347, 0.2284624694511581 
1.6599999999998336, 0.221507056394132 
1.6699999999998325, 0.20601236054028216 
1.6799999999998314, 0.16551836563918418 
1.6899999999998303, 0.036797463679767176 
1.6999999999998292, -0.3702823643117882 
1.709999999999828, -0.944191445772419 
1.719999999999827, -1.1983547453342527 
1.729999999999826, -1.2711632469011236 
1.7399999999998248, -1.2931641745351892 
1.7499999999998237, -1.3005047695829908 
1.7599999999998226, -1.3028120643103198 
1.7699999999998215, -1.302890657042044 
1.7799999999998204, -1.301623309444676 
1.7899999999998193, -1.2997898169139763 
1.7999999999998182, -1.3000536162381553 
1.809999999999817, -1.308209214727677 
1.819999999999816, -1.327440385650193 
1.8299999999998149, -1.3516885240907432 
1.8399999999998138, -1.3732715180419925 
1.8499999999998127, -1.3898143479567728 
1.8599999999998116, -1.402111364289182 
1.8699999999998105, -1.4114037678731353 
1.8799999999998094, -1.4185533013040046 
1.8899999999998083, -1.424023443075392 
1.8999999999998072, -1.4280215503031983 
1.909999999999806, -1.4306540100409264 
1.919999999999805, -1.4320532179716576 
1.9299999999998039, -1.4324278526365806 
1.9399999999998028, -1.432046333015769 
1.9499999999998017, -1.4312101177938217 
1.9599999999998006, -1.430198851795982 
1.9699999999997995, -1.4291475313238862 
1.9799999999997984, -1.428021197683136 
1.9899999999997973, -1.426839642954517 
1.9999999999997962, -1.425868437619455 
2.0099999999998173, -1.4253889031039702 
2.0199999999998384, -1.4252760038400987 
2.0299999999998595, -1.4250211089737805 
2.0399999999998806, -1.42401310595642 
2.0499999999999017, -1.421533164864555 
2.059999999999923, -1.416544690153958 
2.069999999999944, -1.4076192622416468 
2.079999999999965, -1.3932063566106059 
2.089999999999986, -1.3720238319683997 
2.100000000000007, -1.3429465705877264 
2.1100000000000283, -1.3042810883366174 
2.1200000000000494, -1.253294849896103 
2.1300000000000705, -1.1877037082375286 
2.1400000000000916, -1.1113967180801787 
2.1500000000001127, -1.040531048194381 
2.160000000000134, -0.9937367146201141 
2.170000000000155, -0.973220101857778 
2.180000000000176, -0.9680549792501454 
2.190000000000197, -0.9683888960340434 
2.2000000000002182, -0.9696413177718288 
2.2100000000002393, -0.9703567953869454 
2.2200000000002604, -0.9701084971337964 
2.2300000000002815, -0.9685053572639795 
2.2400000000003026, -0.9646754217555775 
2.2500000000003237, -0.9567604279811283 
2.260000000000345, -0.9414857621077888 
2.270000000000366, -0.9149590959860376 
2.280000000000387, -0.8763141495454756 
2.290000000000408, -0.8310649567749426 
2.3000000000004293, -0.787466722233951 
2.3100000000004504, -0.7503510954250447 
2.3200000000004715, -0.7204138623695169 
2.3300000000004926, -0.6965533435384741 
2.3400000000005137, -0.6774643319566375 
2.3500000000005348, -0.6621435312446768 
2.360000000000556, -0.6499186267975295 
2.370000000000577, -0.6403484802009042 
2.380000000000598, -0.6331110955705821 
2.390000000000619, -0.6279143320641691 
2.4000000000006403, -0.6244437879395861 
2.4100000000006614, -0.6223523288432914 
2.4200000000006825, -0.6212825737399522 
2.4300000000007036, -0.6209028114748205 
2.4400000000007247, -0.6209370592268587 
2.450000000000746, -0.6211808141817846 
2.460000000000767, -0.6215059452821927 
2.470000000000788, -0.6218618179604692 
2.480000000000809, -0.6222733924516105 
2.49000000000083, -0.6228288901602743 
2.5000000000008513, -0.6236519008192404 
2.5100000000008724, -0.6248634578058032 
2.5200000000008935, -0.6265402382693643 
2.5300000000009146, -0.628665364695842 
2.5400000000009357, -0.6310789352884337 
2.550000000000957, -0.6334768117366416 
2.560000000000978, -0.6355097655511485 
2.570000000000999, -0.6369335232298036 
2.58000000000102, -0.6376809653030608 
2.5900000000010412, -0.6378209324797307 
2.6000000000010624, -0.6374902566877968 
2.6100000000010835, -0.636886360027302 
2.6200000000011046, -0.636371193782736 
2.6300000000011257, -0.6367642858720893 
2.6400000000011468, -0.6400095557216894 
2.650000000001168, -0.6505675078084362 
2.660000000001189, -0.6779173948184946 
2.67000000000121, -0.7392476618833026 
2.680000000001231, -0.8549448472942126 
2.6900000000012523, -1.0226454114592711 
2.7000000000012734, -1.1971568586141847 
2.7100000000012945, -1.3349430475371629 
2.7200000000013156, -1.4289904791539831 
2.7300000000013367, -1.4891943173753228 
2.740000000001358, -1.525596122346897 
2.750000000001379, -1.5459349906283708 
2.7600000000014, -1.5562823429539552 
2.770000000001421, -1.5610051792350605 
2.780000000001442, -1.562767914965304 
2.7900000000014633, -1.563018274068479 
2.8000000000014844, -1.5626194994422862 
2.8100000000015055, -1.5622499859592198 
2.8200000000015266, -1.5622889786213707 
2.8300000000015477, -1.5625751894140953 
2.840000000001569, -1.5627829359937888 
2.85000000000159, -1.5628935789387133 
2.860000000001611, -1.5630505036502789 
2.870000000001632, -1.56314886040836 
2.8800000000016532, -1.5627873921379531 
2.8900000000016743, -1.5614347884622852 
2.9000000000016954, -1.5584167713375179 
2.9100000000017165, -1.5528242569176094 
2.9200000000017377, -1.5435259737128058 
2.9300000000017588, -1.5291787248682271 
2.94000000000178, -1.5078839134680349 
2.950000000001801, -1.4762311725180495 
2.960000000001822, -1.4279516124304734 
2.970000000001843, -1.3546195302781199 
2.9800000000018643, -1.2578162291814805 
2.9900000000018854, -1.1703143127598117 
3.0000000000019065, -1.1265410664763569 
3.0100000000019276, -1.1170111473201825 
3.0200000000019487, -1.118872121112132 
3.03000000000197, -1.1217146105547324 
3.040000000001991, -1.1232690073380072 
3.050000000002012, -1.1233511635009246 
3.060000000002033, -1.121684782918086 
3.070000000002054, -1.1169543642057183 
3.0800000000020753, -1.1049897367516892 
3.0900000000020964, -1.0728895417003208 
3.1000000000021175, -0.9814284999667328 
3.1100000000021386, -0.7487619400113151 
3.1200000000021597, -0.4054001290308902 
3.130000000002181, -0.17817470294966387 
3.140000000002202, -0.08198976618065412 
3.150000000002223, -0.04228553406957104 
3.160000000002244, -0.024051850445812466 
3.1700000000022652, -0.014720590824762564 
3.1800000000022863, -0.009527675399984262 
3.1900000000023074, -0.006462289450995064 
3.2000000000023285, -0.004584810245877653 
3.2100000000023496, -0.0034239667550685854 
3.2200000000023707, -0.0027451594939354182 
3.230000000002392, -0.002461119577843314 
3.240000000002413, -0.0026111462557019158 
3.250000000002434, -0.0033987627157546683 
3.260000000002455, -0.005327614308151383 
3.2700000000024763, -0.009567738007000743 
3.2800000000024974, -0.01889841210691222 
3.2900000000025185, -0.0396062875698583 
3.3000000000025396, -0.07521517048900304 
3.3100000000025607, 0.08242771455427263 
3.3200000000025818, 1.343799456515574 
3.330000000002603, 1.5909999997950366 
3.340000000002624, 1.6124201765414188 
3.350000000002645, 1.6160366951047276 
3.360000000002666, 1.6156660466221566 
3.3700000000026873, 1.6112216141979598 
3.3800000000027084, 1.5895778803441794 
3.3900000000027295, 1.4231686793841245 
3.4000000000027506, 1.0560890832314658 
3.4100000000027717, 1.1335472130717617 
3.420000000002793, 1.1683759043280961 
3.430000000002814, 1.1775209467761403 
3.440000000002835, 1.1800012745327177 
3.450000000002856, 1.180004388216402 
3.460000000002877, 1.1783985651704416 
3.4700000000028983, 1.1754109258492202 
3.4800000000029194, 1.173738492236134 
3.4900000000029405, 1.1844808275409286 
3.5000000000029616, 1.2105519815886991 
3.5100000000029827, 1.2307686678920864 
3.520000000003004, 1.2398399498108692 
3.530000000003025, 1.2430998906929545 
3.540000000003046, 1.2435906929603342 
3.550000000003067, 1.241749673266194 
3.5600000000030882, 1.2344194897336835 
3.5700000000031094, 1.1972168894846156 
3.5800000000031305, 0.7127728220056055 
3.5900000000031516, -2.017964001001393 
3.6000000000031727, -2.4149340253075393 
3.6100000000031938, -2.4507005311979375 
3.620000000003215, -2.456719654107119 
3.630000000003236, -2.4575129309729493 
3.640000000003257, -2.4570395467989106 
3.650000000003278, -2.4565639270117274 
3.6600000000032993, -2.455773867891735 
3.6700000000033204, -2.4543624982377503 
3.6800000000033415, -2.453553995836553 
3.6900000000033626, -2.4533071954009467 
3.7000000000033837, -2.451476543476099 
3.710000000003405, -2.4424537199319234 
3.720000000003426, -2.384625474729826 
3.730000000003447, -1.9804647351673939 
3.740000000003468, -3.5235565888151923 
3.750000000003489, -3.8245345029150095 
3.7600000000035103, -3.8391297313823336 
3.7700000000035314, -3.8407847602974465 
3.7800000000035525, -3.838667895603207 
3.7900000000035736, -3.8273068196134394 
3.8000000000035947, -3.672342302269237 
3.810000000003616, -2.544021711945698 
3.820000000003637, -2.9098353732187334 
3.830000000003658, -2.940921317282508 
3.840000000003679, -2.9443551215957715 
3.8500000000037002, -2.9441569968101224 
3.8600000000037213, -2.9437084941812617 
3.8700000000037424, -2.9430906816754576 
3.8800000000037635, -2.941622476744659 
3.8900000000037847, -2.940968520547716 
3.9000000000038058, -2.9403853987593354 
3.910000000003827, -2.9357317438602974 
3.920000000003848, -2.906155297285547 
3.930000000003869, -2.9096637659773252 
3.94000000000389, -3.086636807009164 
3.9500000000039113, -3.1186906246527544 
3.9600000000039324, -3.125034750963983 
3.9700000000039535, -3.126238036079442 
3.9800000000039746, -3.1248384835104086 
3.9900000000039957, -3.1193370770222364 
4.000000000004016, -3.0976001292906967 
4.010000000003993, -2.9169730533804326 
4.02000000000397, -1.820377955578196 
4.030000000003946, -1.8602249768340193 
4.040000000003923, -1.9561521294141477 
4.0500000000039, -1.9767926834733536 
4.0600000000038765, -1.9814520165557525 
4.070000000003853, -1.9819471535916615 
4.08000000000383, -1.980974312001986 
4.090000000003807, -1.9807923385558897 
4.100000000003783, -1.9837295760321976 
4.11000000000376, -1.9879674099028635 
4.120000000003737, -1.9909685531014003 
4.130000000003713, -1.9926252466614496 
4.14000000000369, -1.993403633845745 
4.150000000003667, -1.9932978838662947 
4.1600000000036434, -1.9918967300384367 
4.17000000000362, -1.988396043067987 
4.180000000003597, -1.981239705191184 
4.1900000000035735, -1.9671653532221005 
4.20000000000355, -1.9381324072354058 
4.210000000003527, -1.8701577153475644 
4.220000000003504, -1.688973618085625 
4.23000000000348, -1.3147090603751261 
4.240000000003457, -1.0210429393814062 
4.250000000003434, -0.9366154374774529 
4.26000000000341, -0.927707795693897 
4.270000000003387, -0.9325168914904298 
4.280000000003364, -0.9371356794173182 
4.2900000000033405, -0.9398146802081353 
4.300000000003317, -0.9408442906037224 
4.310000000003294, -0.940435013830608 
4.320000000003271, -0.9382607647364475 
4.330000000003247, -0.9330158475100923 
4.340000000003224, -0.9213241463212001 
4.350000000003201, -0.8955276201575917 
4.360000000003177, -0.8422540403279024 
4.370000000003154, -0.752459047770077 
4.380000000003131, -0.6450067433409626 
4.390000000003107, -0.5545228671153553 
4.400000000003084, -0.4932797307107387 
4.410000000003061, -0.4547699051941915 
4.4200000000030375, -0.43040848997797265 
4.430000000003014, -0.41447671204439124 
4.440000000002991, -0.4036780134704344 
4.450000000002968, -0.396145355277988 
4.460000000002944, -0.3908007437811827 
4.470000000002921, -0.38700659219176525 
4.480000000002898, -0.38438011051874027 
4.490000000002874, -0.3826928252419345 
4.500000000002851, -0.38181566460153904 
4.510000000002828, -0.38169022465605085 
4.520000000002804, -0.38231695905844526 
4.530000000002781, -0.38375667550989234 
4.540000000002758, -0.386145772477556 
4.5500000000027345, -0.38972987957441346 
4.560000000002711, -0.3949269192173476 
4.570000000002688, -0.4024425874381355 
4.580000000002665, -0.4134852849240619 
4.590000000002641, -0.4301703514198624 
4.600000000002618, -0.45624069774424986 
4.610000000002595, -0.49802115986382234 
4.620000000002571, -0.5639290663482324 
4.630000000002548, -0.6563513944314613 
4.640000000002525, -0.7552621365198465 
4.6500000000025015, -0.8287516895088463 
4.660000000002478, -0.869035171089122 
4.670000000002455, -0.8878874808121816 
4.6800000000024315, -0.896236435377085 
4.690000000002408, -0.8997244097123993 
4.700000000002385, -0.9007574364674203 
4.710000000002362, -0.9001973758428266 
4.720000000002338, -0.8980920197599502 
4.730000000002315, -0.893888170800499 
4.740000000002292, -0.8866200604937033 
4.750000000002268, -0.8767546013794407 
4.760000000002245, -0.8789789367692954 
4.770000000002222, -0.9970589952142808 
4.7800000000021985, -1.6274263540757996 
4.790000000002175, -2.2465490365161616 
4.800000000002152, -2.3820436912665675 
4.810000000002129, -2.4146449426190677 
4.820000000002105, -2.425593182486069 
4.830000000002082, -2.429684419001563 
4.840000000002059, -2.4307666733151505 
4.850000000002035, -2.430044726149988 
4.860000000002012, -2.4276671221107122 
4.870000000001989, -2.422521649272418 
4.880000000001965, -2.410882499967169 
4.890000000001942, -2.3916660526935947 
4.900000000001919, -2.3856100433262455 
4.9100000000018955, -2.389752856312537 
4.920000000001872, -2.391180305739313 
4.930000000001849, -2.389598932238493 
