t, s[1].omega / s[0].omega 
0, -0.6799548043464183 
0.009999999999999995, -0.6758276502756507 
0.019999999999999934, -0.6724085207279951 
0.029999999999999874, -0.6695537471100517 
0.04000000000000012, -0.6671214179828902 
0.050000000000000405, -0.6650113759392177 
0.06000000000000069, -0.6631815495547284 
0.07000000000000098, -0.6616465221938833 
0.08000000000000126, -0.6604629174720564 
0.09000000000000155, -0.6597078732792985 
0.10000000000000184, -0.6594571756823832 
0.11000000000000212, -0.6597687483967637 
0.12000000000000241, -0.6606751460732586 
0.130000000000002, -0.6621855817891685 
0.1400000000000009, -0.66429563685449 
0.1499999999999998, -0.6670026234055233 
0.1599999999999987, -0.6703256025456911 
0.1699999999999976, -0.6743290589374945 
0.1799999999999965, -0.679147216596401 
0.1899999999999954, -0.6850022804377219 
0.1999999999999943, -0.6922019778525279 
0.2099999999999932, -0.7010798403078043 
0.2199999999999921, -0.7118036009545627 
0.229999999999991, -0.7239984114145176 
0.2399999999999899, -0.7364122325053661 
0.2499999999999888, -0.7472483109873489 
0.2599999999999877, -0.7552356867090948 
0.2699999999999866, -0.760262390906248 
0.2799999999999855, -0.762961395584532 
0.2899999999999844, -0.7640433630345156 
0.2999999999999833, -0.7639891592447944 
0.3099999999999822, -0.7630403110848503 
0.3199999999999811, -0.761331132982002 
0.32999999999998, -0.7592349775936661 
0.3399999999999789, -0.7584463852080983 
0.3499999999999778, -0.7654655058767245 
0.35999999999997667, -0.801831767043524 
0.36999999999997557, -0.9246403040875968 
0.37999999999997447, -1.1981095730082518 
0.38999999999997337, -1.4991030570752817 
0.39999999999997227, -1.6707299458068126 
0.40999999999997117, -1.7500431308675721 
0.41999999999997006, -1.7884828342016328 
0.42999999999996896, -1.8082828470819532 
0.43999999999996786, -1.8185194995109417 
0.44999999999996676, -1.8234777003715394 
0.45999999999996566, -1.8254628994658333 
0.46999999999996456, -1.8257638798535296 
0.47999999999996346, -1.8251320778628544 
0.48999999999996235, -1.8240303296756228 
0.49999999999996125, -1.822559949883877 
0.5099999999999602, -1.820520467145581 
0.519999999999959, -1.8181523162778952 
0.529999999999958, -1.8165582229024853 
0.5399999999999568, -1.8161987450209527 
0.5499999999999557, -1.8159826421011789 
0.5599999999999546, -1.8144719646573217 
0.5699999999999535, -1.8092219406022043 
0.5799999999999524, -1.7911687024113483 
0.5899999999999513, -1.7138340616110983 
0.5999999999999502, -1.2905355422230351 
0.6099999999999491, -0.1106133044408006 
0.619999999999948, 0.363715401604775 
0.6299999999999469, 0.4518518167921289 
0.6399999999999458, 0.47473505654344655 
0.6499999999999447, 0.4825963441274276 
0.6599999999999436, 0.48564132202772486 
0.6699999999999425, 0.4867076818437061 
0.6799999999999414, 0.4867938767790306 
0.6899999999999403, 0.4863506410461912 
0.6999999999999392, 0.4856666502568666 
0.7099999999999381, 0.4849963109093527 
0.719999999999937, 0.4845912654806151 
0.7299999999999359, 0.48469212006327095 
0.7399999999999348, 0.4854983483811045 
0.7499999999999337, 0.4871060379324061 
0.7599999999999326, 0.4894141636754127 
0.7699999999999315, 0.49207319608403566 
0.7799999999999304, 0.4945844829419085 
0.7899999999999293, 0.49651258480477745 
0.7999999999999282, 0.497608941075137 
0.8099999999999271, 0.49773633170559595 
0.819999999999926, 0.496642700753839 
0.8299999999999249, 0.4935482340149761 
0.8399999999999238, 0.48604244340563146 
0.8499999999999227, 0.46597567965075887 
0.8599999999999216, 0.40126953031657797 
0.8699999999999205, 0.17603301936412818 
0.8799999999999194, -0.24478506983134474 
0.8899999999999183, -0.48986018854737406 
0.8999999999999172, -0.571868916611836 
0.9099999999999161, -0.6007616723126558 
0.919999999999915, -0.6125730765960202 
0.9299999999999139, -0.6178843017862565 
0.9399999999999128, -0.6202262419893791 
0.9499999999999117, -0.6208730130891718 
0.9599999999999106, -0.6201821727930331 
0.9699999999999095, -0.617958576514695 
0.9799999999999084, -0.6134755782590737 
0.9899999999999073, -0.6054397413383554 
0.9999999999999062, -0.5923688019814977 
1.0099999999999052, -0.5739699899409825 
1.019999999999904, -0.5526440330842071 
1.029999999999903, -0.5324052541556272 
1.039999999999902, -0.5159239167441297 
1.0499999999999008, -0.5035952271070008 
1.0599999999998997, -0.4946373457502675 
1.0699999999998986, -0.48810387441106073 
1.0799999999998975, -0.48324874464707984 
1.0899999999998964, -0.47955938376554813 
1.0999999999998953, -0.4767073528303742 
1.1099999999998942, -0.4744994859271648 
1.119999999999893, -0.4728419894151356 
1.129999999999892, -0.47171451998955777 
1.1399999999998909, -0.4711517766078349 
1.1499999999998898, -0.471231722698664 
1.1599999999998887, -0.47207016575303823 
1.1699999999998876, -0.4738221910691629 
1.1799999999998865, -0.4766923955609593 
1.1899999999998854, -0.4809580192120501 
1.1999999999998843, -0.48701227224327015 
1.2099999999998832, -0.49544052185742055 
1.219999999999882, -0.5071515346427319 
1.229999999999881, -0.5236009744376842 
1.2399999999998799, -0.5471536105397997 
1.2499999999998788, -0.5815528844450862 
1.2599999999998777, -0.6319513364132823 
1.2699999999998766, -0.7022392240374348 
1.2799999999998755, -0.7864628610960964 
1.2899999999998744, -0.8634850960967466 
1.2999999999998733, -0.9150615429752301 
1.3099999999998722, -0.9423289320868042 
1.319999999999871, -0.9550928086531402 
1.32999999999987, -0.9607155743822602 
1.3399999999998689, -0.9628905293877068 
1.3499999999998678, -0.963185773513944 
1.3599999999998666, -0.9621426008145504 
1.3699999999998655, -0.95984588935179 
1.3799999999998644, -0.9565443473658641 
1.3899999999998633, -0.954593920279047 
1.3999999999998622, -0.9647107198319025 
1.4099999999998611, -1.0179256135182144 
1.41999999999986, -1.155459532384293 
1.429999999999859, -1.3445962317902342 
1.4399999999998578, -1.4909363092931653 
1.4499999999998567, -1.5759123754807216 
1.4599999999998556, -1.6235045289319423 
1.4699999999998545, -1.6511416304049358 
1.4799999999998534, -1.6673800425959864 
1.4899999999998523, -1.6765644071769983 
1.4999999999998512, -1.6813024468512388 
1.5099999999998501, -1.683321003659333 
1.519999999999849, -1.6837359737255735 
1.529999999999848, -1.6832706056204554 
1.5399999999998468, -1.682443477708744 
1.5499999999998457, -1.6815132748791108 
1.5599999999998446, -1.680383985317881 
1.5699999999998435, -1.678996342860831 
1.5799999999998424, -1.6777876363592015 
1.5899999999998413, -1.6772544261922266 
1.5999999999998402, -1.6770888135588193 
1.6099999999998391, -1.6763961470668716 
1.619999999999838, -1.674017434905521 
1.629999999999837, -1.6675781038079358 
1.6399999999998358, -1.6505687878218125 
1.6499999999998347, -1.60486338356434 
1.6599999999998336, -1.4863375140439647 
1.6699999999998325, -1.230042221906554 
1.6799999999998314, -0.8634182287754888 
1.6899999999998303, -0.5586442642028638 
1.6999999999998292, -0.3864729973318159 
1.709999999999828, -0.3008537207230839 
1.719999999999827, -0.25760801298155006 
1.729999999999826, -0.23450822968184845 
1.7399999999998248, -0.22146669881921363 
1.7499999999998237, -0.213792768643214 
1.7599999999998226, -0.2091883903366542 
1.7699999999998215, -0.20647304947725753 
1.7799999999998204, -0.20502628800308745 
1.7899999999998193, -0.2045349357267646 
1.7999999999998182, -0.20487956009888703 
1.809999999999817, -0.20609411174370437 
1.819999999999816, -0.20837701047797155 
1.8299999999998149, -0.21215944545354012 
1.8399999999998138, -0.21826976207714982 
1.8499999999998127, -0.2283008869385335 
1.8599999999998116, -0.2454589377295786 
1.8699999999998105, -0.27661603033454674 
1.8799999999998094, -0.3372524677723373 
1.8899999999998083, -0.46051035520383865 
1.8999999999998072, -0.6886543468425552 
1.909999999999806, -0.9712678178816125 
1.919999999999805, -1.1592154112498039 
1.9299999999998039, -1.2386558739414064 
1.9399999999998028, -1.2675977652540737 
1.9499999999998017, -1.2781497545306209 
1.9599999999998006, -1.2819360624258884 
1.9699999999997995, -1.282895380590884 
1.9799999999997984, -1.282414173222754 
1.9899999999997973, -1.2812611092486241 
1.9999999999997962, -1.2808697451003686 
2.0099999999998173, -1.2841658266842253 
2.0199999999998384, -1.293569977750789 
2.0299999999998595, -1.3073125523373414 
2.0399999999998806, -1.3212211569948091 
2.0499999999999017, -1.3329177010729847 
2.059999999999923, -1.3421459690334825 
2.069999999999944, -1.349408704383329 
2.079999999999965, -1.3552089367517746 
2.089999999999986, -1.3598700072856031 
2.100000000000007, -1.3635468963616317 
2.1100000000000283, -1.3662762642331054 
2.1200000000000494, -1.368050523095127 
2.1300000000000705, -1.3689001301250745 
2.1400000000000916, -1.368939048410075 
2.1500000000001127, -1.368361769176765 
2.160000000000134, -1.3674166800153509 
2.170000000000155, -1.3663388983182796 
2.180000000000176, -1.36523882041986 
2.190000000000197, -1.3640972825710735 
2.2000000000002182, -1.3629563525102 
2.2100000000002393, -1.3620540702756845 
2.2200000000002604, -1.3616183224836211 
2.2300000000002815, -1.3615308614220538 
2.2400000000003026, -1.3613483573568945 
2.2500000000003237, -1.360544186704889 
2.260000000000345, -1.3585573567455735 
2.270000000000366, -1.3547040762226774 
2.280000000000387, -1.3482082773971087 
2.290000000000408, -1.3384293010007067 
2.3000000000004293, -1.3250469759764165 
2.3100000000004504, -1.3078908002420857 
2.3200000000004715, -1.2865033563175516 
2.3300000000004926, -1.2598283718318268 
2.3400000000005137, -1.2264385932575097 
2.3500000000005348, -1.1860622564777619 
2.360000000000556, -1.142995353064483 
2.370000000000577, -1.1075023254782832 
2.380000000000598, -1.0877611765566386 
2.390000000000619, -1.081493802808866 
2.4000000000006403, -1.0813675006457097 
2.4100000000006614, -1.0825275387556998 
2.4200000000006825, -1.083184865218715 
2.4300000000007036, -1.0827810202067545 
2.4400000000007247, -1.0807671988606093 
2.450000000000746, -1.075803309230788 
2.460000000000767, -1.0646000606672836 
2.470000000000788, -1.039933140618329 
2.480000000000809, -0.9897727742585845 
2.49000000000083, -0.9060107776190087 
2.5000000000008513, -0.8025525796859088 
2.5100000000008724, -0.7077278661405715 
2.5200000000008935, -0.6359940810581265 
2.5300000000009146, -0.5858106810681567 
2.5400000000009357, -0.5511512555113246 
2.550000000000957, -0.5269418326081705 
2.560000000000978, -0.5097867383549366 
2.570000000000999, -0.4975243875355865 
2.58000000000102, -0.4887654105750789 
2.5900000000010412, -0.4825860526699568 
2.6000000000010624, -0.4783447495665791 
2.6100000000010835, -0.475576123553975 
2.6200000000011046, -0.47393111221235634 
2.6300000000011257, -0.47314412400161776 
2.6400000000011468, -0.47301588728768096 
2.650000000001168, -0.47340571875404996 
2.660000000001189, -0.4742303746106596 
2.67000000000121, -0.4754686164962771 
2.680000000001231, -0.47717095986242536 
2.6900000000012523, -0.4794735349303232 
2.7000000000012734, -0.48261566441065823 
2.7100000000012945, -0.48696205744058485 
2.7200000000013156, -0.49302115184449047 
2.7300000000013367, -0.5014065666592933 
2.740000000001358, -0.5125958407062273 
2.750000000001379, -0.5263261433454989 
2.7600000000014, -0.540955963952656 
2.770000000001421, -0.5539306427008454 
2.780000000001442, -0.563476752294753 
2.7900000000014633, -0.569476126118927 
2.8000000000014844, -0.5727535609137072 
2.8100000000015055, -0.5741602819304101 
2.8200000000015266, -0.5742005196424507 
2.8300000000015477, -0.5729669261363796 
2.840000000001569, -0.5700492063033774 
2.85000000000159, -0.5641248011846616 
2.860000000001611, -0.5515548170507744 
2.870000000001632, -0.5214576393923747 
2.8800000000016532, -0.4380258821270182 
2.8900000000016743, -0.20722765761581735 
2.9000000000016954, 0.14544355805142548 
2.9100000000017165, 0.3342661739245838 
2.9200000000017377, 0.39363428730014255 
2.9300000000017588, 0.4131283176637865 
2.94000000000178, 0.42049002925024254 
2.950000000001801, 0.4234046346322199 
2.960000000001822, 0.42428899547554977 
2.970000000001843, 0.42399180298722267 
2.9800000000018643, 0.4228486993657807 
2.9900000000018854, 0.42106942332402825 
3.0000000000019065, 0.418912794106639 
3.0100000000019276, 0.4167246843374885 
3.0200000000019487, 0.4148598634832828 
3.03000000000197, 0.4135745637426977 
3.040000000001991, 0.41298085745380997 
3.050000000002012, 0.41306298451194373 
3.060000000002033, 0.41370233174336785 
3.070000000002054, 0.4146902088906085 
3.0800000000020753, 0.41575221168235066 
3.0900000000020964, 0.41659958624530546 
3.1000000000021175, 0.41697251519326145 
3.1100000000021386, 0.41661412517723784 
3.1200000000021597, 0.4151225601473298 
3.130000000002181, 0.41156293422476076 
3.140000000002202, 0.4033231419589212 
3.150000000002223, 0.3818802337570286 
3.160000000002244, 0.3140374598170012 
3.1700000000022652, 0.07301095127003318 
3.1800000000022863, -0.4227284297325446 
3.1900000000023074, -0.7348182048597184 
3.2000000000023285, -0.8390083928669434 
3.2100000000023496, -0.8737766975787643 
3.2200000000023707, -0.8868336389029672 
3.230000000002392, -0.8920794387712221 
3.240000000002413, -0.8939463557892188 
3.250000000002434, -0.8938527195315974 
3.260000000002455, -0.8918963421939479 
3.2700000000024763, -0.8869644608989529 
3.2800000000024974, -0.8754469786455576 
3.2900000000025185, -0.846147164753541 
3.3000000000025396, -0.760243326615738 
3.3100000000025607, -0.48439395382719275 
3.3200000000025818, 0.07528983678135996 
3.330000000002603, 0.39186160301047657 
3.340000000002624, 0.4737236556421657 
3.350000000002645, 0.49676832847871805 
3.360000000002666, 0.5047350060252691 
3.3700000000026873, 0.5077170634628707 
3.3800000000027084, 0.5085552514871426 
3.3900000000027295, 0.5081672960753063 
3.4000000000027506, 0.5068752759005124 
3.4100000000027717, 0.5048575245212864 
3.420000000002793, 0.5023618355679187 
3.430000000002814, 0.49976852671274613 
3.440000000002835, 0.49749564122974144 
3.450000000002856, 0.4958401050926328 
3.460000000002877, 0.4948990140587986 
3.4700000000028983, 0.4945987693709613 
3.4800000000029194, 0.49476008534164173 
3.4900000000029405, 0.49514920035647975 
3.5000000000029616, 0.4955131463359894 
3.5100000000029827, 0.49559765600511724 
3.520000000003004, 0.4951199976414222 
3.530000000003025, 0.4936382302302252 
3.540000000003046, 0.4901573627476866 
3.550000000003067, 0.48181652120559837 
3.5600000000030882, 0.4582583223499486 
3.5700000000031094, 0.36839347727956967 
3.5800000000031305, -0.10645342895356943 
3.5900000000031516, -1.2362227494872173 
3.6000000000031727, -1.645426092868132 
3.6100000000031938, -1.722852987637847 
3.620000000003215, -1.7409228842108646 
3.630000000003236, -1.7458503327024075 
3.640000000003257, -1.7468792701924793 
3.650000000003278, -1.7464876737181154 
3.6600000000032993, -1.74610699464376 
3.6700000000033204, -1.7471443281248527 
3.6800000000033415, -1.7495292546792451 
3.6900000000033626, -1.7518689874266549 
3.7000000000033837, -1.7534858139027043 
3.710000000003405, -1.754500248440981 
3.720000000003426, -1.7550045826184288 
3.730000000003447, -1.754794307666004 
3.740000000003468, -1.7534917720612022 
3.750000000003489, -1.750579811925477 
3.7600000000035103, -1.745326965861278 
3.7700000000035314, -1.7366250443594464 
3.7800000000035525, -1.7224989711505754 
3.7900000000035736, -1.6987578408115094 
3.8000000000035947, -1.6558742891754128 
3.810000000003616, -1.5756411970815472 
3.820000000003637, -1.453179819872747 
3.830000000003658, -1.3580408605108834 
3.840000000003679, -1.3358621251109057 
3.8500000000037002, -1.3414497585043426 
3.8600000000037213, -1.3473465024056823 
3.8700000000037424, -1.3500962630571487 
3.8800000000037635, -1.3505168070114872 
3.8900000000037847, -1.3487719856615639 
3.9000000000038058, -1.3433556003493017 
3.910000000003827, -1.328810676422638 
3.920000000003848, -1.2894594961186037 
3.930000000003869, -1.2096462611755165 
3.94000000000389, -1.4408530995185065 
3.9500000000039113, -2.86855631028597 
3.9600000000039324, -3.0857894315101775 
3.9700000000039535, -3.1093042114827196 
3.9800000000039746, -3.114394116717592 
3.9900000000039957, -3.1150561033926873 
4.000000000004016, -3.1131486128073886 
4.010000000003993, -3.106647101956945 
4.02000000000397, -3.078939982889227 
4.030000000003946, -2.939524280689059 
4.040000000003923, -2.9272229667936642 
4.0500000000039, -2.953197884231822 
4.0600000000038765, -2.9567283522551016 
4.070000000003853, -2.9563468693253165 
4.08000000000383, -2.956171454454454 
4.090000000003807, -2.956897885464987 
4.100000000003783, -2.956732223330076 
4.11000000000376, -2.9563468899786245 
4.120000000003737, -2.955590447941767 
4.130000000003713, -2.950907832324848 
4.14000000000369, -2.9150195245925263 
4.150000000003667, -2.449586855734084 
4.1600000000036434, -3.8910505948782266 
4.17000000000362, -4.044211701318385 
4.180000000003597, -4.052634353704586 
4.1900000000035735, -4.052842998252197 
4.20000000000355, -4.048439592897788 
4.210000000003527, -4.013860929031413 
4.220000000003504, -2.3457306378364664 
4.23000000000348, -0.5754314486463223 
4.240000000003457, -0.39368989491104167 
4.250000000003434, -0.3474785619109054 
4.26000000000341, -0.3340782504848632 
4.270000000003387, -0.33022226351351575 
4.280000000003364, -0.3293395787503125 
4.2900000000033405, -0.3293588849957786 
4.300000000003317, -0.3295700893637544 
4.310000000003294, -0.3297108751001938 
4.320000000003271, -0.32967618569931606 
4.330000000003247, -0.32942615396603675 
4.340000000003224, -0.3289680322206129 
4.350000000003201, -0.3283666878190729 
4.360000000003177, -0.32775366544027384 
4.370000000003154, -0.3273126794367599 
4.380000000003131, -0.3272451266586212 
4.390000000003107, -0.32774371735106433 
4.400000000003084, -0.3289896836344123 
4.410000000003061, -0.3311497277040471 
4.4200000000030375, -0.33432300446931307 
4.430000000003014, -0.3384097932028573 
4.440000000002991, -0.34298087422052925 
4.450000000002968, -0.3473476011276668 
4.460000000002944, -0.3508831792572184 
4.470000000002921, -0.35329285661458093 
4.480000000002898, -0.3545849803785652 
4.490000000002874, -0.35486503137068715 
4.500000000002851, -0.3541443015300902 
4.510000000002828, -0.3521772480896881 
4.520000000002804, -0.34819374244555373 
4.530000000002781, -0.3402290487848632 
4.540000000002758, -0.32339555884761306 
4.5500000000027345, -0.2864292420887042 
4.560000000002711, -0.2122322175543215 
4.570000000002688, -0.10592260080513276 
4.580000000002665, -0.015093229409189394 
4.590000000002641, 0.03602928735277189 
4.600000000002618, 0.06051931125258329 
4.610000000002595, 0.07221610624651634 
4.620000000002571, 0.07799748251268002 
4.630000000002548, 0.08087083979080259 
4.640000000002525, 0.08218156794056056 
4.6500000000025015, 0.08258999887678395 
4.660000000002478, 0.0824771689922014 
4.670000000002455, 0.0821104053547293 
4.6800000000024315, 0.0817038459697841 
4.690000000002408, 0.08144212503029662 
4.700000000002385, 0.08151184351973192 
4.710000000002362, 0.08217269466419573 
4.720000000002338, 0.08390673832606012 
4.730000000002315, 0.08771739798806456 
4.740000000002292, 0.09562999872827435 
4.750000000002268, 0.11093047599071 
4.760000000002245, 0.13598992265000598 
4.770000000002222, 0.16667164999537828 
4.7800000000021985, 0.1932008001080942 
4.790000000002175, 0.21049791074128552 
4.800000000002152, 0.22010029830904831 
4.810000000002129, 0.22500680831404046 
4.820000000002105, 0.22724412057780868 
4.830000000002082, 0.22784018643424359 
4.840000000002059, 0.22721948732132854 
4.850000000002035, 0.22549638770410524 
4.860000000002012, 0.22269807656093912 
4.870000000001989, 0.2189841582803791 
4.880000000001965, 0.2147970421468485 
4.890000000001942, 0.21077930366182107 
4.900000000001919, 0.20748483979203458 
4.9100000000018955, 0.20517655026361367 
4.920000000001872, 0.20386558019758355 
4.930000000001849, 0.20345486725716805 
