t, s[1].omega / s[0].omega 
0, -0.7400118548339215 
0.009999999999999995, -0.7413310565301614 
0.019999999999999934, -0.7428448024417642 
0.029999999999999874, -0.7443708088605433 
0.04000000000000012, -0.7456730438758155 
0.050000000000000405, -0.7465593068090397 
0.06000000000000069, -0.7469561206178684 
0.07000000000000098, -0.7469151420190373 
0.08000000000000126, -0.7465877701603723 
0.09000000000000155, -0.7462297051169249 
0.10000000000000184, -0.7462583412774413 
0.11000000000000212, -0.7473348865499514 
0.12000000000000241, -0.750393103541088 
0.130000000000002, -0.7565130912030601 
0.1400000000000009, -0.7666166302913242 
0.1499999999999998, -0.7811434049996423 
0.1599999999999987, -0.7999603458296968 
0.1699999999999976, -0.8225863828533709 
0.1799999999999965, -0.8485509888401765 
0.1899999999999954, -0.8776306936498692 
0.1999999999999943, -0.9097972686175814 
0.2099999999999932, -0.9447568890133032 
0.2199999999999921, -0.9810253594049035 
0.229999999999991, -1.0151295486344296 
0.2399999999999899, -1.0426379947769253 
0.2499999999999888, -1.0611970369658286 
0.2599999999999877, -1.0718644243466775 
0.2699999999999866, -1.0772588979978597 
0.2799999999999855, -1.0796021791946706 
0.2899999999999844, -1.0802270456002159 
0.2999999999999833, -1.0798598832029074 
0.3099999999999822, -1.0790759787829753 
0.3199999999999811, -1.0788488270816865 
0.32999999999998, -1.0810212748055692 
0.3399999999999789, -1.087810311805476 
0.3499999999999778, -1.0998743953848131 
0.35999999999997667, -1.1152897776420372 
0.36999999999997557, -1.1312668254090936 
0.37999999999997447, -1.1460711133289174 
0.38999999999997337, -1.1592226681727156 
0.39999999999997227, -1.170867976556839 
0.40999999999997117, -1.1812707947150058 
0.41999999999997006, -1.1905605251701725 
0.42999999999996896, -1.1986382054166647 
0.43999999999996786, -1.205222358981548 
0.44999999999996676, -1.2100516651216626 
0.45999999999996566, -1.2131121454513791 
0.46999999999996456, -1.2146724322230757 
0.47999999999996346, -1.2151376386642707 
0.48999999999996235, -1.2149295906152697 
0.49999999999996125, -1.2144894492007783 
0.5099999999999602, -1.2142905757761262 
0.519999999999959, -1.2146903714346444 
0.529999999999958, -1.215710065797707 
0.5399999999999568, -1.2170788610440217 
0.5499999999999557, -1.218517101011478 
0.5599999999999546, -1.2198928156404272 
0.5699999999999535, -1.2211557280918757 
0.5799999999999524, -1.2222324957695927 
0.5899999999999513, -1.2230169223934815 
0.5999999999999502, -1.2234234939781994 
0.6099999999999491, -1.2234249124404786 
0.619999999999948, -1.2230468165154065 
0.6299999999999469, -1.2223326925141031 
0.6399999999999458, -1.2213062335037903 
0.6499999999999447, -1.219957404101178 
0.6599999999999436, -1.2182593826078316 
0.6699999999999425, -1.2161994556878999 
0.6799999999999414, -1.2137948829861254 
0.6899999999999403, -1.211077635414457 
0.6999999999999392, -1.2080782651255682 
0.7099999999999381, -1.2048812655188788 
0.719999999999937, -1.2017601473467143 
0.7299999999999359, -1.1992146187239834 
0.7399999999999348, -1.1976793588094041 
0.7499999999999337, -1.1971063042790804 
0.7599999999999326, -1.1969784725032393 
0.7699999999999315, -1.1966800323285223 
0.7799999999999304, -1.195675963117909 
0.7899999999999293, -1.1934202243302539 
0.7999999999999282, -1.1892546347037631 
0.8099999999999271, -1.1825173477100468 
0.819999999999926, -1.1728824705783043 
0.8299999999999249, -1.160601122506129 
0.8399999999999238, -1.1462816158131885 
0.8499999999999227, -1.130420095801251 
0.8599999999999216, -1.1131520343432733 
0.8699999999999205, -1.0943374403224349 
0.8799999999999194, -1.0738887505398524 
0.8899999999999183, -1.0523286454572396 
0.8999999999999172, -1.0314269658468105 
0.9099999999999161, -1.014121684013984 
0.919999999999915, -1.0028390150661142 
0.9299999999999139, -0.9975325490035246 
0.9399999999999128, -0.9960528409458715 
0.9499999999999117, -0.9961134537541341 
0.9599999999999106, -0.9963217152639465 
0.9699999999999095, -0.9959903661245824 
0.9799999999999084, -0.9946447811637238 
0.9899999999999073, -0.9916513378414015 
0.9999999999999062, -0.9860219316594234 
1.0099999999999052, -0.9765502642007462 
1.019999999999904, -0.9625412539698852 
1.029999999999903, -0.9447394535031239 
1.039999999999902, -0.9251758044233765 
1.0499999999999008, -0.9058460628701059 
1.0599999999998997, -0.8878085115070693 
1.0699999999998986, -0.8712973316517358 
1.0799999999998975, -0.8561886905767218 
1.0899999999998964, -0.8423415929791703 
1.0999999999998953, -0.8297655645151435 
1.1099999999998942, -0.818670387467305 
1.119999999999893, -0.8094110099399032 
1.129999999999892, -0.8023230822059736 
1.1399999999998909, -0.797508388597845 
1.1499999999998898, -0.7947131611080647 
1.1599999999998887, -0.7934016902231684 
1.1699999999998876, -0.7929587945109512 
1.1799999999998865, -0.7928608828767937 
1.1899999999998854, -0.7927341175988503 
1.1999999999998843, -0.7923344726088026 
1.2099999999998832, -0.7915202778157375 
1.219999999999882, -0.7902554335629349 
1.229999999999881, -0.7886258401443271 
1.2399999999998799, -0.7868168515945088 
1.2499999999998788, -0.7850344743316301 
1.2599999999998777, -0.7834221174135296 
1.2699999999998766, -0.7820263834132992 
1.2799999999998755, -0.7808116381230144 
1.2899999999998744, -0.7796986289948926 
1.2999999999998733, -0.7786105161789715 
1.3099999999998722, -0.777513526012788 
1.319999999999871, -0.7764392843397953 
1.32999999999987, -0.7754839352444461 
1.3399999999998689, -0.7747873243504786 
1.3499999999998678, -0.77449769332736 
1.3599999999998666, -0.7747318335086227 
1.3699999999998655, -0.7755475128172696 
1.3799999999998644, -0.7769410604026411 
1.3899999999998633, -0.7788666191706823 
1.3999999999998622, -0.781261949277737 
1.4099999999998611, -0.784069850658411 
1.41999999999986, -0.7872550030338269 
1.429999999999859, -0.7908194760868472 
1.4399999999998578, -0.7948144436840016 
1.4499999999998567, -0.7993382221021925 
1.4599999999998556, -0.804506349503975 
1.4699999999998545, -0.8103763566046348 
1.4799999999998534, -0.8168185154858666 
1.4899999999998523, -0.8233871732002619 
1.4999999999998512, -0.8293613109313052 
1.5099999999998501, -0.8340646978672993 
1.519999999999849, -0.8372151134072198 
1.529999999999848, -0.8389486073579823 
1.5399999999998468, -0.8395895730890979 
1.5499999999998457, -0.8394660782836436 
1.5599999999998446, -0.8388993843560772 
1.5699999999998435, -0.8383629438066518 
1.5799999999998424, -0.8388067206736256 
1.5899999999998413, -0.8420740724162951 
1.5999999999998402, -0.8510221909587832 
1.6099999999998391, -0.868644307575754 
1.619999999999838, -0.8961708545230653 
1.629999999999837, -0.9318434547611725 
1.6399999999998358, -0.9719850411468312 
1.6499999999998347, -1.0132130856372064 
1.6599999999998336, -1.053549504446403 
1.6699999999998325, -1.0920178554865714 
1.6799999999998314, -1.1276231271359514 
1.6899999999998303, -1.1586139320016664 
1.6999999999998292, -1.1828510777005046 
1.709999999999828, -1.1993142016407996 
1.719999999999827, -1.208986540971377 
1.729999999999826, -1.2139552686650115 
1.7399999999998248, -1.216107846184166 
1.7499999999998237, -1.2166709342103925 
1.7599999999998226, -1.2164014917875885 
1.7699999999998215, -1.2159741215136104 
1.7799999999998204, -1.2162735376787195 
1.7899999999998193, -1.218184084133628 
1.7999999999998182, -1.2218511114443367 
1.809999999999817, -1.2264902801965358 
1.819999999999816, -1.2311559228845859 
1.8299999999998149, -1.2353422851118019 
1.8399999999998138, -1.2389384823877745 
1.8499999999998127, -1.2419834857836405 
1.8599999999998116, -1.244533475275637 
1.8699999999998105, -1.246637935607712 
1.8799999999998094, -1.2483368210656873 
1.8899999999998083, -1.2496432347593733 
1.8999999999998072, -1.25052872521538 
1.909999999999806, -1.2509367070916966 
1.919999999999805, -1.2508253455926996 
1.9299999999998039, -1.2502127598816677 
1.9399999999998028, -1.2491962845737743 
1.9499999999998017, -1.2479329719350125 
1.9599999999998006, -1.246575117084477 
1.9699999999997995, -1.2451994970719205 
1.9799999999997984, -1.2438311797392763 
1.9899999999997973, -1.2425690448812097 
1.9999999999997962, -1.241632711557332 
2.0099999999998173, -1.241185349379585 
2.0199999999998384, -1.2411103233815424 
2.0299999999998595, -1.2410419279287546 
2.0399999999998806, -1.2405576954228559 
2.0499999999999017, -1.2392671026068582 
2.059999999999923, -1.2368095187953503 
2.069999999999944, -1.2329047441357304 
2.079999999999965, -1.227465007823453 
2.089999999999986, -1.2206229850132622 
2.100000000000007, -1.212592275133761 
2.1100000000000283, -1.203480991364327 
2.1200000000000494, -1.193201529463324 
2.1300000000000705, -1.1814958943401916 
2.1400000000000916, -1.1680818921023604 
2.1500000000001127, -1.1530294372214325 
2.160000000000134, -1.137437117860495 
2.170000000000155, -1.1238299020238223 
2.180000000000176, -1.1148892089635516 
2.190000000000197, -1.1110400150312556 
2.2000000000002182, -1.1103421308496062 
2.2100000000002393, -1.1106406518377878 
2.2200000000002604, -1.110693627989317 
2.2300000000002815, -1.109848308769687 
2.2400000000003026, -1.107407052746451 
2.2500000000003237, -1.1020518824376508 
2.260000000000345, -1.0912986102389217 
2.270000000000366, -1.071471973867335 
2.280000000000387, -1.0395818658067237 
2.290000000000408, -0.9968527675410461 
2.3000000000004293, -0.949085871159942 
2.3100000000004504, -0.902283887087328 
2.3200000000004715, -0.8596020532712385 
2.3300000000004926, -0.8219014810205536 
2.3400000000005137, -0.7892155620253651 
2.3500000000005348, -0.7615624213644623 
2.360000000000556, -0.7391018162116897 
2.370000000000577, -0.7219398065375023 
2.380000000000598, -0.709852042082479 
2.390000000000619, -0.7021530160696939 
2.4000000000006403, -0.6978097191362216 
2.4100000000006614, -0.6957084452098933 
2.4200000000006825, -0.6948942023409641 
2.4300000000007036, -0.6946744189662796 
2.4400000000007247, -0.6946004777983699 
2.450000000000746, -0.6943988315492248 
2.460000000000767, -0.6939132130313534 
2.470000000000788, -0.6930847360722189 
2.480000000000809, -0.6919591049853158 
2.49000000000083, -0.6906800378417761 
2.5000000000008513, -0.6894372907097988 
2.5100000000008724, -0.6883911007772001 
2.5200000000008935, -0.687621901573381 
2.5300000000009146, -0.6871208320299093 
2.5400000000009357, -0.6868056888209523 
2.550000000000957, -0.6865531447983712 
2.560000000000978, -0.6862455788532211 
2.570000000000999, -0.6858181514507368 
2.58000000000102, -0.6852862973176169 
2.5900000000010412, -0.6847529334943496 
2.6000000000010624, -0.6844103953269715 
2.6100000000010835, -0.6845432388409478 
2.6200000000011046, -0.6855194241494686 
2.6300000000011257, -0.6877517755970304 
2.6400000000011468, -0.6916289188929537 
2.650000000001168, -0.6974449845012206 
2.660000000001189, -0.705371695911384 
2.67000000000121, -0.7154961210350599 
2.680000000001231, -0.7279100630680021 
2.6900000000012523, -0.7428158216494537 
2.7000000000012734, -0.7606129519431796 
2.7100000000012945, -0.7819201245961763 
2.7200000000013156, -0.8074167013443428 
2.7300000000013367, -0.8372492090658241 
2.740000000001358, -0.8698235885073002 
2.750000000001379, -0.9009399645332156 
2.7600000000014, -0.925613569180469 
2.770000000001421, -0.9417534880594122 
2.780000000001442, -0.9507954305321483 
2.7900000000014633, -0.9552828143412363 
2.8000000000014844, -0.9571456972635657 
2.8100000000015055, -0.9574613343511214 
2.8200000000015266, -0.9567593520913414 
2.8300000000015477, -0.95541858591227 
2.840000000001569, -0.9542908311536529 
2.85000000000159, -0.9559460652172473 
2.860000000001611, -0.9663388809919766 
2.870000000001632, -0.9939969219928511 
2.8800000000016532, -1.0426308327883744 
2.8900000000016743, -1.1039688040343623 
2.9000000000016954, -1.1644172538957684 
2.9100000000017165, -1.2161943376432234 
2.9200000000017377, -1.258199454730876 
2.9300000000017588, -1.2917569513613592 
2.94000000000178, -1.3180062713035963 
2.950000000001801, -1.33744479603476 
2.960000000001822, -1.3505515668633983 
2.970000000001843, -1.3583939783902585 
2.9800000000018643, -1.3624829948006307 
2.9900000000018854, -1.3642127489858291 
3.0000000000019065, -1.364575139075574 
3.0100000000019276, -1.3642655187361885 
3.0200000000019487, -1.3639121959710245 
3.03000000000197, -1.3640810343415182 
3.040000000001991, -1.3649466262443855 
3.050000000002012, -1.3661903789852716 
3.060000000002033, -1.3674226540865586 
3.070000000002054, -1.3684991269110063 
3.0800000000020753, -1.3694170599332616 
3.0900000000020964, -1.370109344751234 
3.1000000000021175, -1.3704124650413299 
3.1100000000021386, -1.3701549819301808 
3.1200000000021597, -1.36922284437142 
3.130000000002181, -1.3675747812341923 
3.140000000002202, -1.365221458626324 
3.150000000002223, -1.3621762821564851 
3.160000000002244, -1.3584043909904753 
3.1700000000022652, -1.353792263539792 
3.1800000000022863, -1.3481286091321616 
3.1900000000023074, -1.3410955869471453 
3.2000000000023285, -1.3323792987075174 
3.2100000000023496, -1.3221637632275518 
3.2200000000023707, -1.3120222765887628 
3.230000000002392, -1.3047804304117103 
3.240000000002413, -1.3018278684081912 
3.250000000002434, -1.3016227308708312 
3.260000000002455, -1.301988919558997 
3.2700000000024763, -1.3016877225540917 
3.2800000000024974, -1.2998819907336707 
3.2900000000025185, -1.2949880079439426 
3.3000000000025396, -1.2827356321481842 
3.3100000000025607, -1.2515669983224464 
3.3200000000025818, -1.1744436315230016 
3.330000000002603, -1.0156386675350753 
3.340000000002624, -0.7960454705719543 
3.350000000002645, -0.6063123964393942 
3.360000000002666, -0.4857975821364933 
3.3700000000026873, -0.4166487942281084 
3.3800000000027084, -0.3767149847173311 
3.3900000000027295, -0.3527292076615297 
3.4000000000027506, -0.3377163008918523 
3.4100000000027717, -0.32800673807057157 
3.420000000002793, -0.32160096049782827 
3.430000000002814, -0.3173661468531692 
3.440000000002835, -0.3146410314088877 
3.450000000002856, -0.3130358944557131 
3.460000000002877, -0.3123292058753275 
3.4700000000028983, -0.31241555862418136 
3.4800000000029194, -0.31328437479100285 
3.4900000000029405, -0.31502173580112214 
3.5000000000029616, -0.3178363684326492 
3.5100000000029827, -0.3221202228879051 
3.520000000003004, -0.3285701451025696 
3.530000000003025, -0.33843113267474756 
3.540000000003046, -0.3539952500583049 
3.550000000003067, -0.37962679156700013 
3.5600000000030882, -0.4236521486149106 
3.5700000000031094, -0.5000984904340872 
3.5800000000031305, -0.6211808221329818 
3.5900000000031516, -0.7656789080610771 
3.6000000000031727, -0.8773210580167599 
3.6100000000031938, -0.9364821916493563 
3.620000000003215, -0.9625093549280704 
3.630000000003236, -0.9734308622134936 
3.640000000003257, -0.9778944404368876 
3.650000000003278, -0.9793662476118359 
3.6600000000032993, -0.9791012587681038 
3.6700000000033204, -0.9773669895400261 
3.6800000000033415, -0.9739415870183235 
3.6900000000033626, -0.9688368402239019 
3.7000000000033837, -0.9656163559614445 
3.710000000003405, -0.9848264786223776 
3.720000000003426, -1.0951695884295933 
3.730000000003447, -1.3663054913942527 
3.740000000003468, -1.6315228657980565 
3.750000000003489, -1.7636066308509484 
3.7600000000035103, -1.8213575618387003 
3.7700000000035314, -1.849001187759388 
3.7800000000035525, -1.863253491353636 
3.7900000000035736, -1.8706234148765692 
3.8000000000035947, -1.8741113930031994 
3.810000000003616, -1.875318172125485 
3.820000000003637, -1.8751530108735388 
3.830000000003658, -1.8741612265040277 
3.840000000003679, -1.8726072210462719 
3.8500000000037002, -1.8703550486926495 
3.8600000000037213, -1.867230743330044 
3.8700000000037424, -1.8641398714728061 
3.8800000000037635, -1.8627557346563735 
3.8900000000037847, -1.8627460251473358 
3.9000000000038058, -1.8623266032858723 
3.910000000003827, -1.8597569398864304 
3.920000000003848, -1.8505342431139937 
3.930000000003869, -1.8119953769845458 
3.94000000000389, -1.578304601705215 
3.9500000000039113, -0.062239404148557644 
3.9600000000039324, 1.047416006510646 
3.9700000000039535, 1.1427026991340685 
3.9800000000039746, 1.157377884489847 
3.9900000000039957, 1.16080468729349 
4.000000000004016, 1.160997534289461 
4.010000000003993, 1.1589195479967775 
4.02000000000397, 1.1529803288636165 
4.030000000003946, 1.138180244432437 
4.040000000003923, 1.108475789050253 
4.0500000000039, 1.0785494368319597 
4.0600000000038765, 1.0704439013113773 
4.070000000003853, 1.07280671785257 
4.08000000000383, 1.075351122280802 
4.090000000003807, 1.0764000603181865 
4.100000000003783, 1.0758988288110243 
4.11000000000376, 1.073089429690136 
4.120000000003737, 1.064342170385539 
4.130000000003713, 1.0326544076930166 
4.14000000000369, 0.9097338701591349 
4.150000000003667, 1.2432973877669147 
4.1600000000036434, 1.6852611515837341 
4.17000000000362, 1.724331993335151 
4.180000000003597, 1.7300834233013336 
4.1900000000035735, 1.7304059386970674 
4.20000000000355, 1.7269544437764934 
4.210000000003527, 1.708174201462517 
4.220000000003504, 1.4882497259632181 
4.23000000000348, 0.31426120898508586 
4.240000000003457, 0.32738925474984293 
4.250000000003434, 0.41471088788477123 
4.26000000000341, 0.44628890266896437 
4.270000000003387, 0.4582860355332376 
4.280000000003364, 0.46332161014636447 
4.2900000000033405, 0.46538280564892 
4.300000000003317, 0.4657956254800874 
4.310000000003294, 0.4648444168135101 
4.320000000003271, 0.46205509152623836 
4.330000000003247, 0.45559475089369156 
4.340000000003224, 0.4393286701333903 
4.350000000003201, 0.3875671040114497 
4.360000000003177, 0.14215865640688982 
4.370000000003154, -1.2815738792673212 
4.380000000003131, -2.5154773766967415 
4.390000000003107, -2.6603940877763597 
4.400000000003084, -2.6870902587792544 
4.410000000003061, -2.694617672702189 
4.4200000000030375, -2.6966610495464907 
4.430000000003014, -2.696272094794757 
4.440000000002991, -2.693959539983344 
4.450000000002968, -2.6881669224758826 
4.460000000002944, -2.672526717774529 
4.470000000002921, -2.6480088087236924 
4.480000000002898, -2.648841412068076 
4.490000000002874, -2.6537629526968907 
4.500000000002851, -2.6541477209709177 
4.510000000002828, -2.652046883198189 
4.520000000002804, -2.6523030525731803 
4.530000000002781, -2.658562927013809 
4.540000000002758, -2.662894987294492 
4.5500000000027345, -2.6644650665003446 
4.560000000002711, -2.664678520363426 
4.570000000002688, -2.6632400821023823 
4.580000000002665, -2.657575509808508 
4.590000000002641, -2.6355768620304483 
4.600000000002618, -2.511109672726926 
4.610000000002595, -1.3331783553990093 
4.620000000002571, 0.415080872950231 
4.630000000002548, 0.631999125259364 
4.640000000002525, 0.6679391612171522 
4.6500000000025015, 0.6778499663890962 
4.660000000002478, 0.6812835310997108 
4.670000000002455, 0.6824913185910562 
4.6800000000024315, 0.6827923047267591 
4.690000000002408, 0.682762991190683 
4.700000000002385, 0.6828120112926053 
4.710000000002362, 0.6834033864307365 
4.720000000002338, 0.6851403523662867 
4.730000000002315, 0.6886080731619109 
4.740000000002292, 0.6938348104769553 
4.750000000002268, 0.6998294693313608 
4.760000000002245, 0.7051208372539362 
4.770000000002222, 0.7088260792555412 
4.7800000000021985, 0.7108726381334258 
4.790000000002175, 0.7114810562949521 
4.800000000002152, 0.7106441911375934 
4.810000000002129, 0.7075771467387584 
4.820000000002105, 0.6990621221780998 
4.830000000002082, 0.6711604968283598 
4.840000000002059, 0.5430853019847662 
4.850000000002035, -0.07155038598696778 
4.860000000002012, -0.8046905384001736 
4.870000000001989, -1.0312507454167492 
4.880000000001965, -1.0928522391444848 
4.890000000001942, -1.1125594757123647 
4.900000000001919, -1.1196185440140316 
4.9100000000018955, -1.1220032346002962 
4.920000000001872, -1.1220777910500335 
4.930000000001849, -1.1202749660131428 
4.940000000001826, -1.1159177215321356 
