t, s[1].omega / s[0].omega 
0, -1.2399876047814733 
0.009999999999999995, -1.2385743447651758 
0.019999999999999934, -1.2368116537740856 
0.029999999999999874, -1.2346747753834857 
0.04000000000000012, -1.2321386648986048 
0.050000000000000405, -1.229191963208205 
0.06000000000000069, -1.2258276608364258 
0.07000000000000098, -1.2220529172182863 
0.08000000000000126, -1.2179959937653737 
0.09000000000000155, -1.214085813975178 
0.10000000000000184, -1.2110319533748062 
0.11000000000000212, -1.2093374755194382 
0.12000000000000241, -1.2087961946723007 
0.130000000000002, -1.208692945032339 
0.1400000000000009, -1.2083131210414686 
0.1499999999999998, -1.2070593275430754 
0.1599999999999987, -1.2042420141415398 
0.1699999999999976, -1.1988822916284092 
0.1799999999999965, -1.1898035537796132 
0.1899999999999954, -1.176176126472184 
0.1999999999999943, -1.158127548695004 
0.2099999999999932, -1.1366075651414458 
0.2199999999999921, -1.1125853716298422 
0.229999999999991, -1.0865148293168168 
0.2399999999999899, -1.0584609009446921 
0.2499999999999888, -1.0286965292239834 
0.2599999999999877, -0.998547454313466 
0.2699999999999866, -0.9709530333747367 
0.2799999999999855, -0.9496045773344857 
0.2899999999999844, -0.9365105486403256 
0.2999999999999833, -0.930548985388165 
0.3099999999999822, -0.9288321662974692 
0.3199999999999811, -0.9288219095531088 
0.32999999999998, -0.9290697693427875 
0.3399999999999789, -0.9288891753295087 
0.3499999999999778, -0.9278639014631793 
0.35999999999997667, -0.9255224505277532 
0.36999999999997557, -0.9212013338976147 
0.37999999999997447, -0.9141735409228076 
0.38999999999997337, -0.9041405028573376 
0.39999999999997227, -0.8917553413912882 
0.40999999999997117, -0.8784294246672613 
0.41999999999997006, -0.8654820326307993 
0.42999999999996896, -0.853593793960731 
0.43999999999996786, -0.8428887501304034 
0.44999999999996676, -0.8332349536036098 
0.45999999999996566, -0.8244631477541547 
0.46999999999996456, -0.8164714300530658 
0.47999999999996346, -0.8092628425910563 
0.48999999999996235, -0.8029451955241889 
0.49999999999996125, -0.7976945330349338 
0.5099999999999602, -0.7936763100983045 
0.519999999999959, -0.7909440225063826 
0.529999999999958, -0.7893727170305387 
0.5399999999999568, -0.7886784049651238 
0.5499999999999557, -0.7885087527757406 
0.5599999999999546, -0.7885378999431925 
0.5699999999999535, -0.78851787476683 
0.5799999999999524, -0.7882922112451871 
0.5899999999999513, -0.7877997835277548 
0.5999999999999502, -0.7870770505027582 
0.6099999999999491, -0.7862393533740704 
0.619999999999948, -0.7854289693431932 
0.6299999999999469, -0.7847534577371931 
0.6399999999999458, -0.7842479863462789 
0.6499999999999447, -0.7838711248988497 
0.6599999999999436, -0.7835280779727897 
0.6699999999999425, -0.7831148452032071 
0.6799999999999414, -0.7825683937095267 
0.6899999999999403, -0.7819006300263875 
0.6999999999999392, -0.7812075424094556 
0.7099999999999381, -0.7806607815479418 
0.719999999999937, -0.7804844488566844 
0.7299999999999359, -0.7809107431669893 
0.7399999999999348, -0.7821193483180073 
0.7499999999999337, -0.7841893561565978 
0.7599999999999326, -0.7870946895365266 
0.7699999999999315, -0.7907435397829774 
0.7799999999999304, -0.7950333215219626 
0.7899999999999293, -0.7998944212576837 
0.7999999999999282, -0.8053157644775333 
0.8099999999999271, -0.8113562280562275 
0.819999999999926, -0.8181406846329862 
0.8299999999999249, -0.8258254034987811 
0.8399999999999238, -0.8345016757587193 
0.8499999999999227, -0.8440090199259958 
0.8599999999999216, -0.8537205032869114 
0.8699999999999205, -0.8625668520253713 
0.8799999999999194, -0.8695279071691905 
0.8899999999999183, -0.8742083753977605 
0.8999999999999172, -0.876870978316241 
0.9099999999999161, -0.8780396580125298 
0.919999999999915, -0.8781857202624902 
0.9299999999999139, -0.8776765426709158 
0.9399999999999128, -0.876931892196561 
0.9499999999999117, -0.8767736689465476 
0.9599999999999106, -0.8789591256942799 
0.9699999999999095, -0.8865450659062939 
0.9799999999999084, -0.9031237493650298 
0.9899999999999073, -0.9304517973069742 
0.9999999999999062, -0.9665205066237169 
1.0099999999999052, -1.006771707565918 
1.019999999999904, -1.0471116321255154 
1.029999999999903, -1.0853871232007892 
1.039999999999902, -1.1208441373220404 
1.0499999999999008, -1.1529629825505732 
1.0599999999998997, -1.1806651491481843 
1.0699999999998986, -1.2024539353006214 
1.0799999999998975, -1.2175189640291253 
1.0899999999998964, -1.2265689887614966 
1.0999999999998953, -1.2313067970210367 
1.1099999999998942, -1.2333824520636427 
1.119999999999893, -1.233927706846274 
1.129999999999892, -1.233674282862147 
1.1399999999998909, -1.2332825721950849 
1.1499999999998898, -1.2335667731685307 
1.1599999999998887, -1.2352439349404942 
1.1699999999998876, -1.2383220194275926 
1.1799999999998865, -1.242086341454665 
1.1899999999998854, -1.2457922924517004 
1.1999999999998843, -1.2490838156248514 
1.2099999999998832, -1.2518950526486547 
1.219999999999882, -1.25424487193781 
1.229999999999881, -1.2561521402514697 
1.2399999999998799, -1.2576390130662651 
1.2499999999998788, -1.2587363758154013 
1.2599999999998777, -1.2594651530803769 
1.2699999999998766, -1.2598149203344096 
1.2799999999998755, -1.2597462515104905 
1.2899999999998744, -1.2592222961442259 
1.2999999999998733, -1.2582495404951906 
1.3099999999998722, -1.2568989009305709 
1.319999999999871, -1.255286117605358 
1.32999999999987, -1.253512184460249 
1.3399999999998689, -1.2516252250945592 
1.3499999999998678, -1.2496927142812109 
1.3599999999998666, -1.24793384600084 
1.3699999999998655, -1.246687305908135 
1.3799999999998644, -1.246115988974109 
1.3899999999998633, -1.2459844043145907 
1.3999999999998622, -1.24580927846384 
1.4099999999998611, -1.24509551272776 
1.41999999999986, -1.2433670306669775 
1.429999999999859, -1.240110716353074 
1.4399999999998578, -1.2348397552954704 
1.4499999999998567, -1.227301361716641 
1.4599999999998556, -1.217604740602419 
1.4699999999998545, -1.2060576895567514 
1.4799999999998534, -1.1928550991585425 
1.4899999999998523, -1.1779014137757122 
1.4999999999998512, -1.1608561032255582 
1.5099999999998501, -1.1414251971896001 
1.519999999999849, -1.1200336888999152 
1.529999999999848, -1.0987891491596256 
1.5399999999998468, -1.0814966003803244 
1.5499999999998457, -1.0711329692191698 
1.5599999999998446, -1.0671427220256515 
1.5699999999998435, -1.0666089654327784 
1.5799999999998424, -1.0670392007636587 
1.5899999999998413, -1.067179353023437 
1.5999999999998402, -1.0664262562273596 
1.6099999999998391, -1.0641514680756237 
1.619999999999838, -1.0591680899281808 
1.629999999999837, -1.0492554521197157 
1.6399999999998358, -1.0311643245132252 
1.6499999999998347, -1.0023158739588935 
1.6599999999998336, -0.9639706169888997 
1.6699999999998325, -0.9215331328571136 
1.6799999999998314, -0.8805014769381007 
1.6899999999998303, -0.8436227226136592 
1.6999999999998292, -0.8114308249011455 
1.709999999999828, -0.7836511347305037 
1.719999999999827, -0.7600000521530179 
1.729999999999826, -0.7404028182144481 
1.7399999999998248, -0.7249018157769422 
1.7499999999998237, -0.7134422906431785 
1.7599999999998226, -0.7056883101039694 
1.7699999999998215, -0.7009888342076634 
1.7799999999998204, -0.698509613259032 
1.7899999999998193, -0.6974305213171189 
1.7999999999998182, -0.6970874728427794 
1.809999999999817, -0.6970128964044895 
1.819999999999816, -0.6969061877504387 
1.8299999999998149, -0.6965889617366068 
1.8399999999998138, -0.6959816566956987 
1.8499999999998127, -0.6951042853348248 
1.8599999999998116, -0.6940720333931371 
1.8699999999998105, -0.693054320503553 
1.8799999999998094, -0.6922069193355948 
1.8899999999998083, -0.6916185189832379 
1.8999999999998072, -0.6912923875648849 
1.909999999999806, -0.6911541279736761 
1.919999999999805, -0.6910785468567092 
1.9299999999998039, -0.6909359846703504 
1.9399999999998028, -0.6906442571551354 
1.9499999999998017, -0.69020180720166 
1.9599999999998006, -0.68969698774924 
1.9699999999997995, -0.6893107018325547 
1.9799999999997984, -0.6893242033599856 
1.9899999999997973, -0.690121543508709 
1.9999999999997962, -0.6921625337838829 
2.0099999999998173, -0.6959132233130433 
2.0199999999998384, -0.7017554899408629 
2.0299999999998595, -0.7099276996255575 
2.0399999999998806, -0.7205396604657339 
2.0499999999999017, -0.7336605787842807 
2.059999999999923, -0.7494402386255453 
2.069999999999944, -0.768215453382633 
2.079999999999965, -0.7905499191940705 
2.089999999999986, -0.8170999062596318 
2.100000000000007, -0.8480642698809866 
2.1100000000000283, -0.882001692929667 
2.1200000000000494, -0.9148124147566039 
2.1300000000000705, -0.9412674506407186 
2.1400000000000916, -0.9588321602652407 
2.1500000000001127, -0.9687694232641508 
2.160000000000134, -0.9737459109349775 
2.170000000000155, -0.9758707051547908 
2.180000000000176, -0.9763444639223199 
2.190000000000197, -0.9757649675868686 
2.2000000000002182, -0.9745389421471662 
2.2100000000002393, -0.9734817986936054 
2.2200000000002604, -0.974921670535063 
2.2300000000002815, -0.9839856674300881 
2.2400000000003026, -1.0074576509316833 
2.2500000000003237, -1.0475906547788616 
2.260000000000345, -1.0975119416625543 
2.270000000000366, -1.1470410399278457 
2.280000000000387, -1.1904125218156962 
2.290000000000408, -1.2266446809512128 
2.3000000000004293, -1.2565604150543304 
2.3100000000004504, -1.280857767767974 
2.3200000000004715, -1.2996557459615308 
2.3300000000004926, -1.3129589784106608 
2.3400000000005137, -1.3213187284853456 
2.3500000000005348, -1.3259016812131987 
2.360000000000556, -1.3279887983862066 
2.370000000000577, -1.328576105943022 
2.380000000000598, -1.3283669673404792 
2.390000000000619, -1.327975190036316 
2.4000000000006403, -1.3280140671316263 
2.4100000000006614, -1.328830399236938 
2.4200000000006825, -1.3302361847280098 
2.4300000000007036, -1.3317830375334014 
2.4400000000007247, -1.333194801306765 
2.450000000000746, -1.3344152498956343 
2.460000000000767, -1.3354158907409908 
2.470000000000788, -1.3360918091276277 
2.480000000000809, -1.3363080286721085 
2.49000000000083, -1.335971285041062 
2.5000000000008513, -1.3350549608943623 
2.5100000000008724, -1.3335816252280535 
2.5200000000008935, -1.331581647648505 
2.5300000000009146, -1.3290546580002724 
2.5400000000009357, -1.3259555531625258 
2.550000000000957, -1.3221983121447383 
2.560000000000978, -1.3176533819058156 
2.570000000000999, -1.312152250208267 
2.58000000000102, -1.3056139778211304 
2.5900000000010412, -1.2984408296692833 
2.6000000000010624, -1.2919476304245419 
2.6100000000010835, -1.2877948304935478 
2.6200000000011046, -1.286317376365224 
2.6300000000011257, -1.2862713828541712 
2.6400000000011468, -1.2862796850703848 
2.650000000001168, -1.285449292237475 
2.660000000001189, -1.282871155844623 
2.67000000000121, -1.2767095399093338 
2.680000000001231, -1.262793951376625 
2.6900000000012523, -1.23280319550142 
2.7000000000012734, -1.1750653408668221 
2.7100000000012945, -1.0840827891363025 
2.7200000000013156, -0.9719688442256235 
2.7300000000013367, -0.8607455853197099 
2.740000000001358, -0.7655000496089739 
2.750000000001379, -0.6908013886509964 
2.7600000000014, -0.6353724404207047 
2.770000000001421, -0.5959116262612172 
2.780000000001442, -0.568834465864229 
2.7900000000014633, -0.5509277632437162 
2.8000000000014844, -0.5395517860077357 
2.8100000000015055, -0.5326556162681704 
2.8200000000015266, -0.5287156378200237 
2.8300000000015477, -0.5266456092627296 
2.840000000001569, -0.5257011290163934 
2.85000000000159, -0.5253911060397166 
2.860000000001611, -0.5254045038676906 
2.870000000001632, -0.5255575284176304 
2.8800000000016532, -0.5257625968463178 
2.8900000000016743, -0.5260144416042939 
2.9000000000016954, -0.526381541004838 
2.9100000000017165, -0.5269897992271172 
2.9200000000017377, -0.5279956824811866 
2.9300000000017588, -0.5295557695379756 
2.94000000000178, -0.5317905005618837 
2.950000000001801, -0.5347226066839894 
2.960000000001822, -0.5381874114316267 
2.970000000001843, -0.5417870812202037 
2.9800000000018643, -0.5450033482558163 
2.9900000000018854, -0.5474348324841721 
3.0000000000019065, -0.5489395107909557 
3.0100000000019276, -0.5495760969016749 
3.0200000000019487, -0.5494632702022477 
3.03000000000197, -0.5486835938887875 
3.040000000001991, -0.5472606210769755 
3.050000000002012, -0.5452172219327674 
3.060000000002033, -0.5428305722610535 
3.070000000002054, -0.5416254587782616 
3.0800000000020753, -0.5485797465524448 
3.0900000000020964, -0.5974217750977124 
3.1000000000021175, -0.8997252411922332 
3.1100000000021386, -2.3212585118319184 
3.1200000000021597, -2.8522554649642844 
3.130000000002181, -2.905474789489345 
3.140000000002202, -2.9164358530705092 
3.150000000002223, -2.9193120876688328 
3.160000000002244, -2.919207193518131 
3.1700000000022652, -2.916756466359058 
3.1800000000022863, -2.9095355732203516 
3.1900000000023074, -2.882912511333889 
3.2000000000023285, -2.805643680574959 
3.2100000000023496, -2.8076881532390363 
3.2200000000023707, -2.8211740230199984 
3.230000000002392, -2.823222849066622 
3.240000000002413, -2.8223886508001548 
3.250000000002434, -2.8224739828542047 
3.260000000002455, -2.824424608326491 
3.2700000000024763, -2.82532099205648 
3.2800000000024974, -2.82535941472494 
3.2900000000025185, -2.824799731600534 
3.3000000000025396, -2.821500970276874 
3.3100000000025607, -2.8030041199025524 
3.3200000000025818, -2.576633942873311 
3.330000000002603, 0.960889668148924 
3.340000000002624, 1.6168733823157766 
3.350000000002645, 1.6456018291236312 
3.360000000002666, 1.6498408336753645 
3.3700000000026873, 1.6497457618879732 
3.3800000000027084, 1.646204293206677 
3.3900000000027295, 1.631830590229896 
3.4000000000027506, 1.5676848237350076 
3.4100000000027717, 1.4686100901003558 
3.420000000002793, 1.4854300234071212 
3.430000000002814, 1.4997772854446325 
3.440000000002835, 1.5038930300695759 
3.450000000002856, 1.5043797346930723 
3.460000000002877, 1.5028748206324283 
3.4700000000028983, 1.499925180007627 
3.4800000000029194, 1.499948293715594 
3.4900000000029405, 1.5126910856775362 
3.5000000000029616, 1.5292896377809968 
3.5100000000029827, 1.5380145747462115 
3.520000000003004, 1.5411582460879114 
3.530000000003025, 1.5415874019842992 
3.540000000003046, 1.5396699834937073 
3.550000000003067, 1.5308896937832412 
3.5600000000030882, 1.461643785392239 
3.5700000000031094, -1.2944674682981074 
3.5800000000031305, -3.3482880603069027 
3.5900000000031516, -3.39811804140369 
3.6000000000031727, -3.4032760783842746 
3.6100000000031938, -3.403151836617419 
3.620000000003215, -3.400924492583819 
3.630000000003236, -3.393794165053447 
3.640000000003257, -3.38141077681099 
3.650000000003278, -3.3842001403751767 
3.6600000000032993, -3.385708800231812 
3.6700000000033204, -3.383897581302892 
3.6800000000033415, -3.384700455482244 
3.6900000000033626, -3.388317532376776 
3.7000000000033837, -3.389281711006202 
3.710000000003405, -3.3890231694995707 
3.720000000003426, -3.38626093298519 
3.730000000003447, -3.3645768875509368 
3.740000000003468, -2.6356945974910326 
3.750000000003489, 2.481449929143525 
3.7600000000035103, 2.5731333130870597 
3.7700000000035314, 2.5777951443568266 
3.7800000000035525, 2.576411554520574 
3.7900000000035736, 2.5618237160624746 
3.8000000000035947, 1.989772622622502 
3.810000000003616, 0.45161442546278685 
3.820000000003637, 0.857163021067827 
3.830000000003658, 0.9334349123872492 
3.840000000003679, 0.9501734122853698 
3.8500000000037002, 0.9550301843426541 
3.8600000000037213, 0.9562739859806632 
3.8700000000037424, 0.9558049903731698 
3.8800000000037635, 0.9539918925427576 
3.8900000000037847, 0.9509410483437861 
3.9000000000038058, 0.9488790482241376 
3.910000000003827, 0.9589792790532444 
3.920000000003848, 0.9926210090223785 
3.930000000003869, 1.0262405201011011 
3.94000000000389, 1.0431598564031548 
3.9500000000039113, 1.049793025456988 
3.9600000000039324, 1.051963441310418 
3.9700000000039535, 1.0517691548467192 
3.9800000000039746, 1.0489771780661372 
3.9900000000039957, 1.039400981706551 
4.000000000004016, 0.9975272030415647 
4.010000000003993, 0.7022759299897217 
4.02000000000397, -0.27452968200792804 
4.030000000003946, -0.6769923144166803 
4.040000000003923, -0.7780103702307449 
4.0500000000039, -0.8117835335270683 
4.0600000000038765, -0.8252681673844512 
4.070000000003853, -0.8311076032020523 
4.08000000000383, -0.8335134080275237 
4.090000000003807, -0.8339709910533344 
4.100000000003783, -0.8327814760121303 
4.11000000000376, -0.829327647898061 
4.120000000003737, -0.8215190324193073 
4.130000000003713, -0.8039373482449925 
4.14000000000369, -0.7638964616505484 
4.150000000003667, -0.6801267098374516 
4.1600000000036434, -0.548564163420237 
4.17000000000362, -0.4180811373307847 
4.180000000003597, -0.3314581734502235 
4.1900000000035735, -0.2835139274077537 
4.20000000000355, -0.25742341975081484 
4.210000000003527, -0.24254771792810356 
4.220000000003504, -0.23356187001567852 
4.23000000000348, -0.22785044596641443 
4.240000000003457, -0.22407799027009917 
4.250000000003434, -0.22153446115219402 
4.26000000000341, -0.21984136025301443 
4.270000000003387, -0.21881878342514427 
4.280000000003364, -0.2184299035561295 
4.2900000000033405, -0.21877326117011425 
4.300000000003317, -0.22012176664534433 
4.310000000003294, -0.22303337804584783 
4.320000000003271, -0.2286049901935953 
4.330000000003247, -0.2390535583430437 
4.340000000003224, -0.25910637547469184 
4.350000000003201, -0.29946345995697543 
4.360000000003177, -0.3850989052408688 
4.370000000003154, -0.5679962819363183 
4.380000000003131, -0.8980910433597679 
4.390000000003107, -1.2784612999756542 
4.400000000003084, -1.5380190296287268 
4.410000000003061, -1.6678302476181917 
4.4200000000030375, -1.7252998948732325 
4.430000000003014, -1.7493681388767865 
4.440000000002991, -1.7590344728264284 
4.450000000002968, -1.7626125538607038 
4.460000000002944, -1.763540402098655 
4.470000000002921, -1.7633103184642256 
4.480000000002898, -1.7627943896450877 
4.490000000002874, -1.7624772596361171 
4.500000000002851, -1.7622216689723824 
4.510000000002828, -1.7617398612417905 
4.520000000002804, -1.7612294708301495 
4.530000000002781, -1.7610214313683201 
4.540000000002758, -1.7608354940106712 
4.5500000000027345, -1.7598726025485505 
4.560000000002711, -1.756904694183591 
4.570000000002688, -1.7492392780657375 
4.580000000002665, -1.7299485750985375 
4.590000000002641, -1.6816305323117589 
4.600000000002618, -1.5652042214173336 
4.610000000002595, -1.3177157086990399 
4.620000000002571, -0.9342121362422049 
4.630000000002548, -0.5834122247863485 
4.640000000002525, -0.3823278751696612 
4.6500000000025015, -0.28676240269706144 
4.660000000002478, -0.24121486415293408 
4.670000000002455, -0.2181667288072172 
4.6800000000024315, -0.20577100663697423 
4.690000000002408, -0.19880084098031986 
4.700000000002385, -0.19480956301051386 
4.710000000002362, -0.19258829421103457 
4.720000000002338, -0.191523452442333 
4.730000000002315, -0.19131727024859574 
4.740000000002292, -0.19186701260476693 
4.750000000002268, -0.19322466404661082 
4.760000000002245, -0.19561209803257826 
4.770000000002222, -0.1994988402726531 
4.7800000000021985, -0.20578910997434924 
4.790000000002175, -0.2162490365593806 
4.800000000002152, -0.23451837355984634 
4.810000000002129, -0.2685835635889153 
4.820000000002105, -0.33643087132800664 
4.830000000002082, -0.47274602545308236 
4.840000000002059, -0.6984053859855853 
4.850000000002035, -0.9235845619305303 
4.860000000002012, -1.0493086543661636 
4.870000000001989, -1.1002396332828455 
4.880000000001965, -1.1194780748025717 
4.890000000001942, -1.1268416939593116 
4.900000000001919, -1.129482606709733 
4.9100000000018955, -1.1298852827624923 
4.920000000001872, -1.1288604483119424 
4.930000000001849, -1.1267330141776493 
4.940000000001826, -1.1245748272281042 
