t, s[1].omega / s[0].omega 
0, -0.7597129843801174 
0.009999999999999995, -0.7337606346120157 
0.019999999999999934, -0.7127924659560076 
0.029999999999999874, -0.695837806462509 
0.04000000000000012, -0.6820130904098927 
0.050000000000000405, -0.6706945565394842 
0.06000000000000069, -0.6614899840863268 
0.07000000000000098, -0.6541612999560635 
0.08000000000000126, -0.6485442155045227 
0.09000000000000155, -0.6444806502682676 
0.10000000000000184, -0.6417753985215343 
0.11000000000000212, -0.64018505265015 
0.12000000000000241, -0.6394367823744009 
0.130000000000002, -0.639262687168376 
0.1400000000000009, -0.6394322906126393 
0.1499999999999998, -0.6397736812809891 
0.1599999999999987, -0.6401844098094398 
0.1699999999999976, -0.6406364329550691 
0.1799999999999965, -0.6411735410475009 
0.1899999999999954, -0.6418945553897755 
0.1999999999999943, -0.6429211415159621 
0.2099999999999932, -0.6443574017832314 
0.2199999999999921, -0.6462443058507354 
0.229999999999991, -0.6485076406924943 
0.2399999999999899, -0.6509229665059685 
0.2499999999999888, -0.6531561781427292 
0.2599999999999877, -0.6548963497222046 
0.2699999999999866, -0.6559825826978373 
0.2799999999999855, -0.6564213109297936 
0.2899999999999844, -0.6563232317912673 
0.2999999999999833, -0.6558592445457034 
0.3099999999999822, -0.655302258780576 
0.3199999999999811, -0.6552027149705604 
0.32999999999998, -0.6567868335834616 
0.3399999999999789, -0.6627318064311761 
0.3499999999999778, -0.6784408220934003 
0.35999999999997667, -0.71341329461114 
0.36999999999997557, -0.7803420217301473 
0.37999999999997447, -0.8867131299388022 
0.38999999999997337, -1.0206453498585777 
0.39999999999997227, -1.153779915564491 
0.40999999999997117, -1.2647434860404387 
0.41999999999997006, -1.3479535526410138 
0.42999999999996896, -1.4056197957542622 
0.43999999999996786, -1.4420538633639857 
0.44999999999996676, -1.4626658123338756 
0.45999999999996566, -1.473108754606154 
0.46999999999996456, -1.4778440728097157 
0.47999999999996346, -1.4796117450870492 
0.48999999999996235, -1.4798761001234102 
0.49999999999996125, -1.4795086649763072 
0.5099999999999602, -1.479253423791326 
0.519999999999959, -1.4796476739077284 
0.529999999999958, -1.480615580923926 
0.5399999999999568, -1.4816761013483135 
0.5499999999999557, -1.4825507943639369 
0.5599999999999546, -1.4832554971418506 
0.5699999999999535, -1.4837891783935953 
0.5799999999999524, -1.4839669127980137 
0.5899999999999513, -1.483507637706431 
0.5999999999999502, -1.4821333285908134 
0.6099999999999491, -1.4796013243374169 
0.619999999999948, -1.4757205185899123 
0.6299999999999469, -1.470326961179944 
0.6399999999999458, -1.4631773910393933 
0.6499999999999447, -1.4537764486548552 
0.6599999999999436, -1.4411665585460738 
0.6699999999999425, -1.4237889866638314 
0.6799999999999414, -1.4000722279645166 
0.6899999999999403, -1.3714907661085565 
0.6999999999999392, -1.346860632265423 
0.7099999999999381, -1.3354442843995558 
0.719999999999937, -1.3343466761012333 
0.7299999999999359, -1.3360296694491642 
0.7399999999999348, -1.3370829010978909 
0.7499999999999337, -1.3367016786413553 
0.7599999999999326, -1.3341177588282511 
0.7699999999999315, -1.3266490528739863 
0.7799999999999304, -1.3045201431204725 
0.7899999999999293, -1.2272442113915494 
0.7999999999999282, -0.9109556186686596 
0.8099999999999271, -0.051719156704632264 
0.819999999999926, 0.4348056094387137 
0.8299999999999249, 0.5344209041901444 
0.8399999999999238, 0.5589547150837166 
0.8499999999999227, 0.5669115985013798 
0.8599999999999216, 0.5697702417005241 
0.8699999999999205, 0.5705168074552396 
0.8799999999999194, 0.5700773316599022 
0.8899999999999183, 0.568772868051714 
0.8999999999999172, 0.5667867218605921 
0.9099999999999161, 0.5643738011610642 
0.919999999999915, 0.5619135192398418 
0.9299999999999139, 0.5598071891788332 
0.9399999999999128, 0.5583203431464524 
0.9499999999999117, 0.5575110384911189 
0.9599999999999106, 0.557266721319505 
0.9699999999999095, 0.5573781161825789 
0.9799999999999084, 0.5575983194168816 
0.9899999999999073, 0.5576735476611924 
0.9999999999999062, 0.5573310460299745 
1.0099999999999052, 0.5561820138388132 
1.019999999999904, 0.5534135712968988 
1.029999999999903, 0.5467596441117816 
1.039999999999902, 0.5280933039930652 
1.0499999999999008, 0.45643754823281835 
1.0599999999998997, 0.017172084568287317 
1.0699999999998986, -1.4892401799471173 
1.0799999999998975, -2.0066425231515135 
1.0899999999998964, -2.0812016487824367 
1.0999999999998953, -2.096206772690471 
1.1099999999998942, -2.0997812713343653 
1.119999999999893, -2.1002232285549156 
1.129999999999892, -2.099784523067034 
1.1399999999998909, -2.099578711366827 
1.1499999999998898, -2.0995824242546535 
1.1599999999998887, -2.0991941209157625 
1.1699999999998876, -2.098648713890731 
1.1799999999998865, -2.098421700999247 
1.1899999999998854, -2.097913879940226 
1.1999999999998843, -2.095620873694517 
1.2099999999998832, -2.0875645688953943 
1.219999999999882, -2.0554119900837837 
1.229999999999881, -1.8784479495223512 
1.2399999999998799, -0.853023200813501 
1.2499999999998788, 0.21302842017646623 
1.2599999999998777, 0.41195769650893943 
1.2699999999998766, 0.4540403461683641 
1.2799999999998755, 0.4669842405825844 
1.2899999999998744, 0.4718785250748977 
1.2999999999998733, 0.47383216688181207 
1.3099999999998722, 0.4744861582442157 
1.319999999999871, 0.47451094643239233 
1.32999999999987, 0.47427086481023945 
1.3399999999998689, 0.4740426005539127 
1.3499999999998678, 0.4741032719682202 
1.3599999999998666, 0.4747761410701477 
1.3699999999998655, 0.4764392264689369 
1.3799999999998644, 0.47943394455699073 
1.3899999999998633, 0.4838012223897537 
1.3999999999998622, 0.4889894159124095 
1.4099999999998611, 0.4939782157321284 
1.41999999999986, 0.4978846792428608 
1.429999999999859, 0.5003714309485203 
1.4399999999998578, 0.5014924195039488 
1.4499999999998567, 0.5013145218074346 
1.4599999999998556, 0.49955948047094323 
1.4699999999998545, 0.4950486472642159 
1.4799999999998534, 0.4840669475417636 
1.4899999999998523, 0.4546628681294669 
1.4999999999998512, 0.37071013480116216 
1.5099999999998501, 0.18937707155950517 
1.519999999999849, 0.019987532397982108 
1.529999999999848, -0.04836049479199077 
1.5399999999998468, -0.06869116484026258 
1.5499999999998457, -0.07508217518349133 
1.5599999999998446, -0.07742711035089327 
1.5699999999998435, -0.07840396216859742 
1.5799999999998424, -0.0788102324554038 
1.5899999999998413, -0.07892074073644531 
1.5999999999998402, -0.07885680766842437 
1.6099999999998391, -0.07870612366525512 
1.619999999999838, -0.07857360195007902 
1.629999999999837, -0.07860761553246905 
1.6399999999998358, -0.0790154559322311 
1.6499999999998347, -0.08008642764522303 
1.6599999999998336, -0.08225677566353802 
1.6699999999998325, -0.08626585071176135 
1.6799999999998314, -0.09346782953806382 
1.6899999999998303, -0.1063245616519852 
1.6999999999998292, -0.1286580635629772 
1.709999999999828, -0.16362626890432827 
1.719999999999827, -0.20724753883650288 
1.729999999999826, -0.24664768314819555 
1.7399999999998248, -0.27295703466732785 
1.7499999999998237, -0.2875433258376909 
1.7599999999998226, -0.29503075444691756 
1.7699999999998215, -0.29871670581069937 
1.7799999999998204, -0.30030201666253264 
1.7899999999998193, -0.3005373381642709 
1.7999999999998182, -0.29966363817763664 
1.809999999999817, -0.297636159476795 
1.819999999999816, -0.2942828766310684 
1.8299999999998149, -0.2895258238534323 
1.8399999999998138, -0.2836656892284527 
1.8499999999998127, -0.2774750934434655 
1.8599999999998116, -0.2718613796866585 
1.8699999999998105, -0.26739812698837 
1.8799999999998094, -0.2642038572304818 
1.8899999999998083, -0.26213016569351355 
1.8999999999998072, -0.26095816479446915 
1.909999999999806, -0.26047865586767216 
1.919999999999805, -0.2604907826790215 
1.9299999999998039, -0.2607840333473035 
1.9399999999998028, -0.2611460996331046 
1.9499999999998017, -0.2613970350199733 
1.9599999999998006, -0.26141634092440974 
1.9699999999997995, -0.26113767908804647 
1.9799999999997984, -0.26051655634965554 
1.9899999999997973, -0.25948463506871405 
1.9999999999997962, -0.25787901800626933 
2.0099999999998173, -0.2552585784964176 
2.0199999999998384, -0.2502017458237388 
2.0299999999998595, -0.23691153662443348 
2.0399999999998806, -0.18590875924051325 
2.0499999999999017, 0.04664153526604575 
2.059999999999923, 0.539886148735847 
2.069999999999944, 0.751522388693073 
2.079999999999965, 0.7973319437434274 
2.089999999999986, 0.8093927333050811 
2.100000000000007, 0.8131189560573049 
2.1100000000000283, 0.8138466725430048 
2.1200000000000494, 0.8127140872804166 
2.1300000000000705, 0.8093858917980876 
2.1400000000000916, 0.8024350043504167 
2.1500000000001127, 0.7898346502151127 
2.160000000000134, 0.7720088844946684 
2.170000000000155, 0.7554565639604298 
2.180000000000176, 0.746268622945137 
2.190000000000197, 0.7432248725167779 
2.2000000000002182, 0.742785123187608 
2.2100000000002393, 0.74293157036365 
2.2200000000002604, 0.7428518969207849 
2.2300000000002815, 0.7420870505434063 
2.2400000000003026, 0.7399170999265258 
2.2500000000003237, 0.7342982458387246 
2.260000000000345, 0.7173566254597714 
2.270000000000366, 0.6428941847356324 
2.280000000000387, -0.01141711668388715 
2.290000000000408, -2.3359338484618797 
2.3000000000004293, -2.716547265797628 
2.3100000000004504, -2.7635852042127227 
2.3200000000004715, -2.774388391512772 
2.3300000000004926, -2.7771374047280104 
2.3400000000005137, -2.7769916407466497 
2.3500000000005348, -2.7749624728763367 
2.360000000000556, -2.7697779266870155 
2.370000000000577, -2.756068915412847 
2.380000000000598, -2.7387014116489827 
2.390000000000619, -2.7414779218797998 
2.4000000000006403, -2.7446599971728363 
2.4100000000006614, -2.744057697010927 
2.4200000000006825, -2.7415772921103647 
2.4300000000007036, -2.7443827771255007 
2.4400000000007247, -2.751072950854887 
2.450000000000746, -2.754237967082419 
2.460000000000767, -2.755172131610507 
2.470000000000788, -2.754756446144307 
2.480000000000809, -2.7517779487757763 
2.49000000000083, -2.740125157790895 
2.5000000000008513, -2.680066964178507 
2.5100000000008724, -2.0729012613170656 
2.5200000000008935, 0.32035018411383687 
2.5300000000009146, 0.7162848963605676 
2.5400000000009357, 0.7645954424757698 
2.550000000000957, 0.7760657936286443 
2.560000000000978, 0.7797224566642298 
2.570000000000999, 0.7809189146548097 
2.58000000000102, 0.7811533153082645 
2.5900000000010412, 0.7810238407950616 
2.6000000000010624, 0.7808978864578834 
2.6100000000010835, 0.781095405760329 
2.6200000000011046, 0.781894600551168 
2.6300000000011257, 0.7834221454405801 
2.6400000000011468, 0.7855181146770741 
2.650000000001168, 0.7877512544526796 
2.660000000001189, 0.7896415309989218 
2.67000000000121, 0.7908731182754789 
2.680000000001231, 0.7912895940475904 
2.6900000000012523, 0.7906889219985576 
2.7000000000012734, 0.7884010197022022 
2.7100000000012945, 0.7819844495457714 
2.7200000000013156, 0.7605588375444281 
2.7300000000013367, 0.6471703925475258 
2.740000000001358, -0.4457553985250312 
2.750000000001379, -2.0936263132443242 
2.7600000000014, -2.290188673041409 
2.770000000001421, -2.317144267003834 
2.780000000001442, -2.3226230746914682 
2.7900000000014633, -2.3234668993999787 
2.8000000000014844, -2.323026700000946 
2.8100000000015055, -2.3225036776519596 
2.8200000000015266, -2.321789538942865 
2.8300000000015477, -2.320455193862032 
2.840000000001569, -2.3194066139338827 
2.85000000000159, -2.3191721618346106 
2.860000000001611, -2.318229638977649 
2.870000000001632, -2.3135610599695164 
2.8800000000016532, -2.2906184922582913 
2.8900000000016743, -2.1062317896277722 
2.9000000000016954, -0.26387315131246797 
2.9100000000017165, 2.3423679087681464 
2.9200000000017377, 2.39611238446184 
2.9300000000017588, 2.4000594518859737 
2.94000000000178, 2.398669340145248 
2.950000000001801, 2.38571104513539 
2.960000000001822, 2.0212843869740102 
2.970000000001843, -0.8238938397953597 
2.9800000000018643, -1.3768712289924072 
2.9900000000018854, -1.518243801324831 
3.0000000000019065, -1.5531341766707942 
3.0100000000019276, -1.562845583469778 
3.0200000000019487, -1.5655206155471384 
3.03000000000197, -1.5654806594289874 
3.040000000001991, -1.5638648438245997 
3.050000000002012, -1.5620176471925795 
3.060000000002033, -1.5645734729031295 
3.070000000002054, -1.5763830570475377 
3.0800000000020753, -1.5925940715687883 
3.0900000000020964, -1.6059232028719435 
3.1000000000021175, -1.6149624797579005 
3.1100000000021386, -1.6209141530263935 
3.1200000000021597, -1.6248875688975457 
3.130000000002181, -1.6275050362407764 
3.140000000002202, -1.6290833741212425 
3.150000000002223, -1.6297809090560769 
3.160000000002244, -1.6296673066893637 
3.1700000000022652, -1.6287646174831996 
3.1800000000022863, -1.6270713616091226 
3.1900000000023074, -1.624542552197178 
3.2000000000023285, -1.620994231848113 
3.2100000000023496, -1.6160676402246128 
3.2200000000023707, -1.6097251436600974 
3.230000000002392, -1.60347798763507 
3.240000000002413, -1.6000354394618213 
3.250000000002434, -1.5996221097850847 
3.260000000002455, -1.5999822017928544 
3.2700000000024763, -1.5994329697266814 
3.2800000000024974, -1.5966015887891944 
3.2900000000025185, -1.5876552503840116 
3.3000000000025396, -1.556595132694345 
3.3100000000025607, -1.4193754975607522 
3.3200000000025818, -0.7353517018520989 
3.330000000002603, 0.34733639282866335 
3.340000000002624, 0.6013007414487391 
3.350000000002645, 0.6470290072025925 
3.360000000002666, 0.6592841096665263 
3.3700000000026873, 0.6633549166892168 
3.3800000000027084, 0.6645466615849531 
3.3900000000027295, 0.6642899018742685 
3.4000000000027506, 0.6629855183481214 
3.4100000000027717, 0.6607507861201735 
3.420000000002793, 0.6577550243402119 
3.430000000002814, 0.6544029181194284 
3.440000000002835, 0.6512777535631633 
3.450000000002856, 0.6488599738587021 
3.460000000002877, 0.6473070380401242 
3.4700000000028983, 0.6464826859656828 
3.4800000000029194, 0.6461127759096711 
3.4900000000029405, 0.6458992217638739 
3.5000000000029616, 0.6455456349099893 
3.5100000000029827, 0.6446957996976392 
3.520000000003004, 0.6427233019106464 
3.530000000003025, 0.6380467517268403 
3.540000000003046, 0.6253002312386021 
3.550000000003067, 0.5785080292838908 
3.5600000000030882, 0.2809133773629375 
3.5700000000031094, -1.571255069298564 
3.5800000000031305, -2.4139192330453634 
3.5900000000031516, -2.504365319409257 
3.6000000000031727, -2.5200559721257516 
3.6100000000031938, -2.523428867113319 
3.620000000003215, -2.5236139920851497 
3.630000000003236, -2.5227168959919557 
3.640000000003257, -2.521092046136319 
3.650000000003278, -2.5180393902022455 
3.6600000000032993, -2.5146883805702576 
3.6700000000033204, -2.5141490001727442 
3.6800000000033415, -2.514278792123485 
3.6900000000033626, -2.511869545919361 
3.7000000000033837, -2.500520599013884 
3.710000000003405, -2.473860102815641 
3.720000000003426, -2.561992585731269 
3.730000000003447, -2.6374872387784376 
3.740000000003468, -2.6571956556955065 
3.750000000003489, -2.663165156189001 
3.7600000000035103, -2.6649968399358768 
3.7700000000035314, -2.6646803257003304 
3.7800000000035525, -2.6622294397800927 
3.7900000000035736, -2.6558337307835997 
3.8000000000035947, -2.6370562118586767 
3.810000000003616, -2.5582415161804852 
3.820000000003637, -2.3217896251156356 
3.830000000003658, -2.3221228181371227 
3.840000000003679, -2.354199147539938 
3.8500000000037002, -2.3609762275891812 
3.8600000000037213, -2.3617249882396547 
3.8700000000037424, -2.3607877356293523 
3.8800000000037635, -2.3610711332536507 
3.8900000000037847, -2.3636718528556493 
3.9000000000038058, -2.3657899538910567 
3.910000000003827, -2.366666525974528 
3.920000000003848, -2.3668788587693883 
3.930000000003869, -2.366152236680623 
3.94000000000389, -2.362997058320803 
3.9500000000039113, -2.352402989928331 
3.9600000000039324, -2.3116089719891706 
3.9700000000039535, -2.098354498708704 
3.9800000000039746, -0.958290460209815 
3.9900000000039957, 0.13233114962591316 
4.000000000004016, 0.3416003284615173 
4.010000000003993, 0.3882078685739636 
4.02000000000397, 0.4030702575021592 
4.030000000003946, 0.40889768907372276 
4.040000000003923, 0.4113754175308345 
4.0500000000039, 0.41235569812515516 
4.0600000000038765, 0.4125655112576222 
4.070000000003853, 0.41234250110909476 
4.08000000000383, 0.411910056684943 
4.090000000003807, 0.4116024822595298 
4.100000000003783, 0.4123521699777779 
4.11000000000376, 0.41700494178294073 
4.120000000003737, 0.4325371270058331 
4.130000000003713, 0.4666328350036422 
4.14000000000369, 0.5098863145540987 
4.150000000003667, 0.5415449818861913 
4.1600000000036434, 0.5579690870163981 
4.17000000000362, 0.5654045813779461 
4.180000000003597, 0.5684683872892277 
4.1900000000035735, 0.569216242799316 
4.20000000000355, 0.5682449585074232 
4.210000000003527, 0.5651741890835209 
4.220000000003504, 0.5584843084391143 
4.23000000000348, 0.5450838878390762 
4.240000000003457, 0.5215990981114527 
4.250000000003434, 0.49115805699496173 
4.26000000000341, 0.4661236604626094 
4.270000000003387, 0.4529912811724587 
4.280000000003364, 0.4479686890628304 
4.2900000000033405, 0.44640547453636675 
4.300000000003317, 0.44598792491885203 
4.310000000003294, 0.44581103618097834 
4.320000000003271, 0.44549190497524627 
4.330000000003247, 0.444757974773719 
4.340000000003224, 0.44321389776716547 
4.350000000003201, 0.44001539516401167 
4.360000000003177, 0.4329449249095769 
4.370000000003154, 0.4147932538611393 
4.380000000003131, 0.3540298934063385 
4.390000000003107, 0.045525321266199494 
4.400000000003084, -1.3612333083835022 
4.410000000003061, -2.22224654888264 
4.4200000000030375, -2.3578548807533055 
4.430000000003014, -2.384790926574831 
4.440000000002991, -2.3915404183959597 
4.450000000002968, -2.392984790620159 
4.460000000002944, -2.3925955795387632 
4.470000000002921, -2.391441983699999 
4.480000000002898, -2.38942335631377 
4.490000000002874, -2.3860201110832646 
4.500000000002851, -2.383108153634166 
4.510000000002828, -2.3829052971987172 
4.520000000002804, -2.3828565238492456 
4.530000000002781, -2.3801111734373404 
4.540000000002758, -2.3675943198580565 
4.5500000000027345, -2.326351373000689 
4.560000000002711, -2.4305700922516715 
4.570000000002688, -2.580826285927179 
4.580000000002665, -2.617722280726143 
4.590000000002641, -2.6279166809797303 
4.600000000002618, -2.6313336199696455 
4.610000000002595, -2.632003634601079 
4.620000000002571, -2.6307413519766483 
4.630000000002548, -2.6269523429882957 
4.640000000002525, -2.6172046968717804 
4.6500000000025015, -2.5852762200283195 
4.660000000002478, -2.479245536519337 
4.670000000002455, -2.4310824319320075 
4.6800000000024315, -2.4569615450869677 
4.690000000002408, -2.4641026297366446 
4.700000000002385, -2.464875517371034 
4.710000000002362, -2.46377339832436 
4.720000000002338, -2.464114249322749 
4.730000000002315, -2.4671518822313505 
4.740000000002292, -2.46943403638029 
4.750000000002268, -2.470304000595179 
4.760000000002245, -2.4704257907370026 
4.770000000002222, -2.4693689776692045 
4.7800000000021985, -2.4650787245054184 
4.790000000002175, -2.4492834869397795 
4.800000000002152, -2.3739039403248547 
4.810000000002129, -1.8205689988318874 
4.820000000002105, -0.056663373000528816 
4.830000000002082, 0.42630711628603446 
4.840000000002059, 0.5021155673313176 
4.850000000002035, 0.5215998612021713 
4.860000000002012, 0.52834387791647 
4.870000000001989, 0.5309925180107923 
4.880000000001965, 0.5319965703726084 
4.890000000001942, 0.5322616298452745 
4.900000000001919, 0.5322346374893157 
4.9100000000018955, 0.5322570617179061 
4.920000000001872, 0.5327582204515586 
4.930000000001849, 0.5344386860752544 
4.940000000001826, 0.5383772458221647 
4.950000000001802, 0.5456234460112199 
4.960000000001779, 0.5558470934011187 
