t, s[1].omega / s[0].omega 
0, -0.9390975723556428 
0.009999999999999995, -0.8531742915733975 
0.019999999999999934, -0.7795680631660817 
0.029999999999999874, -0.7201118663978827 
0.04000000000000012, -0.6741025759806851 
0.050000000000000405, -0.639945606099437 
0.06000000000000069, -0.6157184461782891 
0.07000000000000098, -0.5993955239075645 
0.08000000000000126, -0.5890198431229045 
0.09000000000000155, -0.5828542830439205 
0.10000000000000184, -0.5794816901586941 
0.11000000000000212, -0.577835394095059 
0.12000000000000241, -0.5771689645990173 
0.130000000000002, -0.5769914367070426 
0.1400000000000009, -0.5769966287965574 
0.1499999999999998, -0.5770074173033974 
0.1599999999999987, -0.5769441652350951 
0.1699999999999976, -0.5768129236018613 
0.1799999999999965, -0.576696034170769 
0.1899999999999954, -0.5767268740962963 
0.1999999999999943, -0.5770489432451009 
0.2099999999999932, -0.5777756804731162 
0.2199999999999921, -0.5789575308735527 
0.229999999999991, -0.5805474940664178 
0.2399999999999899, -0.5823724852534531 
0.2499999999999888, -0.5841538036442216 
0.2599999999999877, -0.5856043524185164 
0.2699999999999866, -0.5865421242647338 
0.2799999999999855, -0.5869278823351844 
0.2899999999999844, -0.5868257411165729 
0.2999999999999833, -0.5863613043516508 
0.3099999999999822, -0.5857432134197567 
0.3199999999999811, -0.5854033524264741 
0.32999999999998, -0.5863739183401114 
0.3399999999999789, -0.5912093541899719 
0.3499999999999778, -0.60618755703631 
0.35999999999997667, -0.6461919075676444 
0.36999999999997557, -0.742190183647605 
0.37999999999997447, -0.9322825241047626 
0.38999999999997337, -1.1883505769012594 
0.39999999999997227, -1.4012362422795064 
0.40999999999997117, -1.5310835034457466 
0.41999999999997006, -1.6036318158587382 
0.42999999999996896, -1.6437521889335542 
0.43999999999996786, -1.6653702349862218 
0.44999999999996676, -1.67634670850329 
0.45999999999996566, -1.6814205602072518 
0.46999999999996456, -1.6833562386474157 
0.47999999999996346, -1.6836579982930726 
0.48999999999996235, -1.683195526792479 
0.49999999999996125, -1.6825754392138967 
0.5099999999999602, -1.6820528929407559 
0.519999999999959, -1.6814518692751803 
0.529999999999958, -1.680665942540471 
0.5399999999999568, -1.6800238422333749 
0.5499999999999557, -1.6797928215564268 
0.5599999999999546, -1.6795920074031436 
0.5699999999999535, -1.6786241250639313 
0.5799999999999524, -1.6757504038138156 
0.5899999999999513, -1.6686336519345386 
0.5999999999999502, -1.6518004742993238 
0.6099999999999491, -1.613213874885981 
0.619999999999948, -1.5299614341524783 
0.6299999999999469, -1.3683960601298293 
0.6399999999999458, -1.1086124902557697 
0.6499999999999447, -0.8074709044640518 
0.6599999999999436, -0.5750200813085545 
0.6699999999999425, -0.4416414036772349 
0.6799999999999414, -0.37335676350678315 
0.6899999999999403, -0.3385998061575507 
0.6999999999999392, -0.32038901579130596 
0.7099999999999381, -0.3105580434619693 
0.719999999999937, -0.3051611788907703 
0.7299999999999359, -0.30222152702282673 
0.7399999999999348, -0.30070972542465 
0.7499999999999337, -0.30007594456987924 
0.7599999999999326, -0.30002972592060806 
0.7699999999999315, -0.3004362162019525 
0.7799999999999304, -0.30127169210379023 
0.7899999999999293, -0.30261320081380577 
0.7999999999999282, -0.30465259913717413 
0.8099999999999271, -0.3077374362318793 
0.819999999999926, -0.31245669343077165 
0.8299999999999249, -0.3198054476586391 
0.8399999999999238, -0.331449901236038 
0.8499999999999227, -0.34994693521176856 
0.8599999999999216, -0.378113417968584 
0.8699999999999205, -0.4158526695196919 
0.8799999999999194, -0.4559550956420928 
0.8899999999999183, -0.48801637610547755 
0.8999999999999172, -0.508173110441807 
0.9099999999999161, -0.5191468520260141 
0.919999999999915, -0.5246814617701355 
0.9299999999999139, -0.5271949057279828 
0.9399999999999128, -0.52786859051873 
0.9499999999999117, -0.5270807830705502 
0.9599999999999106, -0.524580359091704 
0.9699999999999095, -0.519312668932182 
0.9799999999999084, -0.5088036740720155 
0.9899999999999073, -0.48821460450064375 
0.9999999999999062, -0.45102263922042923 
1.0099999999999052, -0.3965137620527228 
1.019999999999904, -0.3386250998495842 
1.029999999999903, -0.2937471119612397 
1.039999999999902, -0.2650944798572999 
1.0499999999999008, -0.24798753265612614 
1.0599999999998997, -0.23771456155257295 
1.0699999999998986, -0.23134130909914613 
1.0799999999998975, -0.2272396760064598 
1.0899999999998964, -0.22450958207664015 
1.0999999999998953, -0.22263870767130384 
1.1099999999998942, -0.22133367782649352 
1.119999999999893, -0.22044232967668909 
1.129999999999892, -0.2199223066952253 
1.1399999999998909, -0.2198408446370604 
1.1499999999998898, -0.22041319193997427 
1.1599999999998887, -0.22211401958578816 
1.1699999999998876, -0.2259561163156052 
1.1799999999998865, -0.23420501307547759 
1.1899999999998854, -0.252366223251518 
1.1999999999998843, -0.2952935531527849 
1.2099999999998832, -0.40710659370407054 
1.219999999999882, -0.7082201956181254 
1.229999999999881, -1.270049538794593 
1.2399999999998799, -1.6910007786789465 
1.2499999999998788, -1.8581528092395279 
1.2599999999998777, -1.922144899427466 
1.2699999999998766, -1.9492109731446188 
1.2799999999998755, -1.9611538212245925 
1.2899999999998744, -1.966214193717875 
1.2999999999998733, -1.967947521055999 
1.3099999999998722, -1.9679834398818161 
1.319999999999871, -1.967138776844268 
1.32999999999987, -1.9657905041473025 
1.3399999999998689, -1.9637967094312487 
1.3499999999998678, -1.9609767185598865 
1.3599999999998666, -1.9583580424721425 
1.3699999999998655, -1.9574488520691347 
1.3799999999998644, -1.9574639274511 
1.3899999999998633, -1.9565537056093862 
1.3999999999998622, -1.952416857534076 
1.4099999999998611, -1.9363425294074479 
1.41999999999986, -1.852658547972812 
1.429999999999859, -1.1965859272234567 
1.4399999999998578, 1.177146976802843 
1.4499999999998567, 1.513383612779199 
1.4599999999998556, 1.5379201200435209 
1.4699999999998545, 1.542064898349182 
1.4799999999998534, 1.5420319263750577 
1.4899999999998523, 1.5386371591334138 
1.4999999999998512, 1.524913235607329 
1.5099999999998501, 1.457986735466482 
1.519999999999849, 1.2947730778863018 
1.529999999999848, 1.2989693273678027 
1.5399999999998468, 1.322545760622584 
1.5499999999998457, 1.329945090267382 
1.5599999999998446, 1.3318328861993136 
1.5699999999998435, 1.3313669701407311 
1.5799999999998424, 1.3290486051753647 
1.5899999999998413, 1.3253013231717152 
1.5999999999998402, 1.3266320578537882 
1.6099999999998391, 1.3465037661963333 
1.619999999999838, 1.370274743315686 
1.629999999999837, 1.38212532305467 
1.6399999999998358, 1.3864121613913667 
1.6499999999998347, 1.3873575414773196 
1.6599999999998336, 1.385996462127314 
1.6699999999998325, 1.379785575722813 
1.6799999999998314, 1.3458234480707456 
1.6899999999998303, 0.7454601326509767 
1.6999999999998292, -2.6885117623865336 
1.709999999999828, -2.9189897256301713 
1.719999999999827, -2.9369301341405665 
1.729999999999826, -2.9394340359695494 
1.7399999999998248, -2.9390619076200535 
1.7499999999998237, -2.937725935433379 
1.7599999999998226, -2.9347452220505703 
1.7699999999998215, -2.9303410485236405 
1.7799999999998204, -2.929744293869344 
1.7899999999998193, -2.9301069590459448 
1.7999999999998182, -2.9271855827091153 
1.809999999999817, -2.918198536005862 
1.819999999999816, -2.9325197700511665 
1.8299999999998149, -2.9555130656226876 
1.8399999999998138, -2.962632644121271 
1.8499999999998127, -2.964479289223577 
1.8599999999998116, -2.9640704670785505 
1.8699999999998105, -2.9607237564156046 
1.8799999999998094, -2.94873823261888 
1.8899999999998083, -2.889161362274308 
1.8999999999998072, -2.1428462041270526 
1.909999999999806, 0.5869140948694856 
1.919999999999805, 0.882849985890293 
1.9299999999998039, 0.9178542683929678 
1.9399999999998028, 0.9260930604578649 
1.9499999999998017, 0.92855522420661 
1.9599999999998006, 0.9291735170884525 
1.9699999999997995, 0.9291288382874765 
1.9799999999997984, 0.9290670290265586 
1.9899999999997973, 0.929684531666083 
1.9999999999997962, 0.9318055426227737 
2.0099999999998173, 0.9358370269914806 
2.0199999999998384, 0.9409884351081864 
2.0299999999998595, 0.9456923215608081 
2.0399999999998806, 0.9489492997430273 
2.0499999999999017, 0.9506612064546586 
2.059999999999923, 0.9510257260393186 
2.069999999999944, 0.9499217203718388 
2.079999999999965, 0.9460574241348049 
2.089999999999986, 0.9332098432579702 
2.100000000000007, 0.8689940858719668 
2.1100000000000283, 0.1354335370110969 
2.1200000000000494, -2.152071334082346 
2.1300000000000705, -2.4358687778639636 
2.1400000000000916, -2.466606557850161 
2.1500000000001127, -2.4722101608395586 
2.160000000000134, -2.4729600873293642 
2.170000000000155, -2.472431237809894 
2.180000000000176, -2.471687529445054 
2.190000000000197, -2.470366721663985 
2.2000000000002182, -2.4683833465457163 
2.2100000000002393, -2.4674266208042708 
2.2200000000002604, -2.467292111895799 
2.2300000000002815, -2.4654942877046726 
2.2400000000003026, -2.4563382908778526 
2.2500000000003237, -2.402584341717115 
2.260000000000345, -2.3250519871123325 
2.270000000000366, -2.9163499949243796 
2.280000000000387, -3.0249218347345783 
2.290000000000408, -3.04105408055742 
2.3000000000004293, -3.0449247163642825 
2.3100000000004504, -3.045226568617485 
2.3200000000004715, -3.043014187538847 
2.3300000000004926, -3.0358356620570466 
2.3400000000005137, -3.005755819569621 
2.3500000000005348, -2.8252426458919415 
2.360000000000556, -2.752326202054212 
2.370000000000577, -2.798224530645611 
2.380000000000598, -2.805195315557415 
2.390000000000619, -2.80559613050789 
2.4000000000006403, -2.8050121940938313 
2.4100000000006614, -2.8056144699868355 
2.4200000000006825, -2.806042899678079 
2.4300000000007036, -2.805707066344149 
2.4400000000007247, -2.8054039431718967 
2.450000000000746, -2.803907612757452 
2.460000000000767, -2.795675539458041 
2.470000000000788, -2.725862279626696 
2.480000000000809, -1.450812218717656 
2.49000000000083, 2.893922944710827 
2.5000000000008513, 2.9778740787021496 
2.5100000000008724, 2.9810609279815945 
2.5200000000008935, 2.978014158828217 
2.5300000000009146, 2.9236915117037414 
2.5400000000009357, -3.4824259565043176 
2.550000000000957, -4.031521355572685 
2.560000000000978, -4.041400902875229 
2.570000000000999, -4.041285297350059 
2.58000000000102, -4.038779280615957 
2.5900000000010412, -4.029707300119743 
2.6000000000010624, -4.026865593541612 
2.6100000000010835, -4.029314586816662 
2.6200000000011046, -4.027786770078267 
2.6300000000011257, -4.028765398951874 
2.6400000000011468, -4.030151694392971 
2.650000000001168, -4.029856099158718 
2.660000000001189, -4.028076273660568 
2.67000000000121, -4.008305335287714 
2.680000000001231, -3.9349997577132023 
2.6900000000012523, -4.220177304464966 
2.7000000000012734, -4.234204719368991 
2.7100000000012945, -4.235071847770254 
2.7200000000013156, -4.2312891018676435 
2.7300000000013367, -4.19799571266638 
2.740000000001358, -0.4282204196492744 
2.750000000001379, 2.1431308653643395 
2.7600000000014, 2.17069150556152 
2.770000000001421, 2.1735092464616916 
2.780000000001442, 2.1733594776572014 
2.7900000000014633, 2.1715373776342446 
2.8000000000014844, 2.1668925474206953 
2.8100000000015055, 2.160042448024291 
2.8200000000015266, 2.157636847243531 
2.8300000000015477, 2.158678168715643 
2.840000000001569, 2.1585634335381827 
2.85000000000159, 2.155111324617671 
2.860000000001611, 2.143392947583897 
2.870000000001632, 2.153638410010331 
2.8800000000016532, 2.194630130776097 
2.8900000000016743, 2.2061875023705406 
2.9000000000016954, 2.208238778503552 
2.9100000000017165, 2.206990780006121 
2.9200000000017377, 2.1975811353285746 
2.9300000000017588, 1.9964299197406923 
2.94000000000178, -4.015766777234887 
2.950000000001801, -4.166091489289141 
2.960000000001822, -4.172538084872561 
2.970000000001843, -4.171829721112859 
2.9800000000018643, -4.166131726453456 
2.9900000000018854, -4.1267821176214525 
3.0000000000019065, -4.122704095252359 
3.0100000000019276, -4.13161927108227 
3.0200000000019487, -4.1313479500214845 
3.03000000000197, -4.130979574785366 
3.040000000001991, -4.129855564705065 
3.050000000002012, -4.128891800125118 
3.060000000002033, -4.127574835022069 
3.070000000002054, -4.116750218032116 
3.0800000000020753, -4.131526999528961 
3.0900000000020964, -4.147145497195785 
3.1000000000021175, -4.148894535213861 
3.1100000000021386, -4.147143494971003 
3.1200000000021597, -4.13105861396243 
3.130000000002181, -3.083299362670633 
3.140000000002202, 2.2393042284746563 
3.150000000002223, 2.2863480625043766 
3.160000000002244, 2.28996929156509 
3.1700000000022652, 2.2889341728410284 
3.1800000000022863, 2.281305275832206 
3.1900000000023074, 2.230665426235169 
3.2000000000023285, 2.140694972623736 
3.2100000000023496, 2.1764040932358055 
3.2200000000023707, 2.1848052739004067 
3.230000000002392, 2.1857673916287035 
3.240000000002413, 2.185070078611363 
3.250000000002434, 2.1853517972750014 
3.260000000002455, 2.187784151482703 
3.2700000000024763, 2.189893314548559 
3.2800000000024974, 2.190556836304625 
3.2900000000025185, 2.1902316402868824 
3.3000000000025396, 2.1884348819062214 
3.3100000000025607, 2.178296139539331 
3.3200000000025818, 1.9757179102506264 
3.330000000002603, -4.361004511056141 
3.340000000002624, -4.581758884577566 
3.350000000002645, -4.588061733288149 
3.360000000002666, -4.586861345251558 
3.3700000000026873, -4.575006881740669 
3.3800000000027084, -3.9682225997335863 
3.3900000000027295, -2.6993112691684975 
3.4000000000027506, -3.0300464489334535 
3.4100000000027717, -3.049406921730501 
3.420000000002793, -3.051395176788066 
3.430000000002814, -3.050938942395659 
3.440000000002835, -3.0502716292887095 
3.450000000002856, -3.048719123695717 
3.460000000002877, -3.046835724540381 
3.4700000000028983, -3.0466523338226112 
3.4800000000029194, -3.045307914993165 
3.4900000000029405, -3.0362560700266945 
3.5000000000029616, -3.013863311940527 
3.5100000000029827, -3.087342856425053 
3.520000000003004, -3.119469005075425 
3.530000000003025, -3.126140255200809 
3.540000000003046, -3.127495343976752 
3.550000000003067, -3.1262926272849043 
3.5600000000030882, -3.1210095851832924 
3.5700000000031094, -3.0999833771935648 
3.5800000000031305, -2.927342666928592 
3.5900000000031516, -0.4969999360851184 
3.6000000000031727, 0.7170225656310547 
3.6100000000031938, 0.8276120666168258 
3.620000000003215, 0.8482385776117745 
3.630000000003236, 0.8540900682610035 
3.640000000003257, 0.8558498683326515 
3.650000000003278, 0.8559691873947319 
3.6600000000032993, 0.8551973787852155 
3.6700000000033204, 0.8540001835165387 
3.6800000000033415, 0.8535860152357826 
3.6900000000033626, 0.8576464608617107 
3.7000000000033837, 0.8717299114939401 
3.710000000003405, 0.893123500497517 
3.720000000003426, 0.9104122691390575 
3.730000000003447, 0.9198275798641667 
3.740000000003468, 0.9240068112912587 
3.750000000003489, 0.9253393062432927 
3.7600000000035103, 0.9247089087212824 
3.7700000000035314, 0.9214257567285781 
3.7800000000035525, 0.9109846708861674 
3.7900000000035736, 0.8688770459460949 
3.8000000000035947, 0.6156248571994882 
3.810000000003616, -0.2237477706860807 
3.820000000003637, -0.6453500693342358 
3.830000000003658, -0.7550492532151255 
3.840000000003679, -0.790919412905646 
3.8500000000037002, -0.8050265940713913 
3.8600000000037213, -0.8111068132804787 
3.8700000000037424, -0.8136367234196358 
3.8800000000037635, -0.8141883394674648 
3.8900000000037847, -0.8131169876820591 
3.9000000000038058, -0.809890659981477 
3.910000000003827, -0.8026387424595596 
3.920000000003848, -0.7866001533223653 
3.930000000003869, -0.7509974520423575 
3.94000000000389, -0.6784205044189535 
3.9500000000039113, -0.5651402298458333 
3.9600000000039324, -0.4492927773651184 
3.9700000000039535, -0.3682348379490821 
3.9800000000039746, -0.321179244343212 
3.9900000000039957, -0.2946734117190857 
4.000000000004016, -0.27918442730158827 
4.010000000003993, -0.2696502742115499 
4.02000000000397, -0.26349453905271736 
4.030000000003946, -0.25937089441508887 
4.040000000003923, -0.2565514745019198 
4.0500000000039, -0.25464151886394376 
4.0600000000038765, -0.2534456426967223 
4.070000000003853, -0.2529078530780588 
4.08000000000383, -0.25309494947640676 
4.090000000003807, -0.25421687777417606 
4.100000000003783, -0.25669510773539517 
4.11000000000376, -0.26131457899907473 
4.120000000003737, -0.26954506063244593 
4.130000000003713, -0.28423428676438733 
4.14000000000369, -0.311146570401876 
4.150000000003667, -0.3623533101984585 
4.1600000000036434, -0.46259119417698785 
4.17000000000362, -0.6525097289285282 
4.180000000003597, -0.950854014617553 
4.1900000000035735, -1.2694414898445854 
4.20000000000355, -1.4880349770860435 
4.210000000003527, -1.5972703363267056 
4.220000000003504, -1.6435003522290201 
4.23000000000348, -1.6617059965058911 
4.240000000003457, -1.6685938000202227 
4.250000000003434, -1.6709087595678973 
4.26000000000341, -1.6712692549364543 
4.270000000003387, -1.6708887883241061 
4.280000000003364, -1.6706423914295343 
4.2900000000033405, -1.6709687727280513 
4.300000000003317, -1.6715455741966028 
4.310000000003294, -1.6719323070408714 
4.320000000003271, -1.6721461527492019 
4.330000000003247, -1.67233453891781 
4.340000000003224, -1.672298352664176 
4.350000000003201, -1.6715270063174557 
4.360000000003177, -1.669307819098543 
4.370000000003154, -1.6645362963716555 
4.380000000003131, -1.6554337419740357 
4.390000000003107, -1.6392921758024037 
4.400000000003084, -1.6118728049715263 
4.410000000003061, -1.5654741750206806 
4.4200000000030375, -1.484834557533652 
4.430000000003014, -1.346309952852417 
4.440000000002991, -1.1521647097206336 
4.450000000002968, -0.9835601621799107 
4.460000000002944, -0.8998276399640067 
4.470000000002921, -0.8737741334490527 
4.480000000002898, -0.8696440008910592 
4.490000000002874, -0.8710688119818659 
4.500000000002851, -0.8729247372413649 
4.510000000002828, -0.8740095970044528 
4.520000000002804, -0.8740980849592097 
4.530000000002781, -0.8729858840755271 
4.540000000002758, -0.8701177624981152 
4.5500000000027345, -0.8642979311179539 
4.560000000002711, -0.8535020752546755 
4.570000000002688, -0.8354348413602324 
4.580000000002665, -0.8096346361173987 
4.590000000002641, -0.7794210222248104 
4.600000000002618, -0.7499949038258102 
4.610000000002595, -0.7246982702415843 
4.620000000002571, -0.7041951139000928 
4.630000000002548, -0.6878053994335522 
4.640000000002525, -0.6746100638309226 
4.6500000000025015, -0.6638653526669075 
4.660000000002478, -0.6550648400288568 
4.670000000002455, -0.6478932454205071 
4.6800000000024315, -0.6421610568333573 
4.690000000002408, -0.6377434143125594 
4.700000000002385, -0.6345297271689059 
4.710000000002362, -0.6323890944489592 
4.720000000002338, -0.6311564004332899 
4.730000000002315, -0.6306395965532227 
4.740000000002292, -0.6306416101975082 
4.750000000002268, -0.6309863291856621 
4.760000000002245, -0.6315406105778347 
4.770000000002222, -0.6322298572044927 
4.7800000000021985, -0.6330468317717868 
4.790000000002175, -0.6340505064549143 
4.800000000002152, -0.6353504751473876 
4.810000000002129, -0.6370772337565523 
4.820000000002105, -0.6393403901556618 
4.830000000002082, -0.6421691290154519 
4.840000000002059, -0.6454349896634214 
4.850000000002035, -0.6488066814682335 
4.860000000002012, -0.6518302279977866 
4.870000000001989, -0.6541305238096664 
4.880000000001965, -0.6555605413354288 
4.890000000001942, -0.6561771080605099 
4.900000000001919, -0.6561284221659422 
4.9100000000018955, -0.6555868343363274 
4.920000000001872, -0.6547885270457707 
4.930000000001849, -0.6542329467825582 
4.940000000001826, -0.6552029220650232 
4.950000000001802, -0.6610101407622272 
4.960000000001779, -0.6797496567185048 
4.970000000001756, -0.7291746180584715 
