t, s[1].omega / s[0].omega 
0, -1.180282203355223 
0.009999999999999995, -1.2061552782207001 
0.019999999999999934, -1.226696590208239 
0.029999999999999874, -1.2412514876390564 
0.04000000000000012, -1.2502692145246768 
0.050000000000000405, -1.2551330218941934 
0.06000000000000069, -1.2573342533293181 
0.07000000000000098, -1.2579703557293043 
0.08000000000000126, -1.2577740848174122 
0.09000000000000155, -1.2573849089122762 
0.10000000000000184, -1.257539430478199 
0.11000000000000212, -1.2588412875846506 
0.12000000000000241, -1.261261936199446 
0.130000000000002, -1.2641932919468188 
0.1400000000000009, -1.2670464433334818 
0.1499999999999998, -1.2695631174467463 
0.1599999999999987, -1.2716983860562718 
0.1699999999999976, -1.273443442285234 
0.1799999999999965, -1.2747753017801773 
0.1899999999999954, -1.2756838726527022 
0.1999999999999943, -1.2761875556249784 
0.2099999999999932, -1.2763149346519762 
0.2199999999999921, -1.2760759622200575 
0.229999999999991, -1.2754510613272712 
0.2399999999999899, -1.2744091578959602 
0.2499999999999888, -1.272941364206685 
0.2599999999999877, -1.2710816311261053 
0.2699999999999866, -1.26888948385943 
0.2799999999999855, -1.2664069036827255 
0.2899999999999844, -1.2636693244589414 
0.2999999999999833, -1.2608400176176224 
0.3099999999999822, -1.2583448048637789 
0.3199999999999811, -1.2566981323304636 
0.32999999999998, -1.256019885425617 
0.3399999999999789, -1.2558686721425172 
0.3499999999999778, -1.2555972069044292 
0.35999999999997667, -1.2546128362204738 
0.36999999999997557, -1.2522870864653861 
0.37999999999997447, -1.247779381353302 
0.38999999999997337, -1.240068447778659 
0.39999999999997227, -1.2283421569940827 
0.40999999999997117, -1.2124712691350266 
0.41999999999997006, -1.1929524085052197 
0.42999999999996896, -1.1703069378593398 
0.43999999999996786, -1.144617939239081 
0.44999999999996676, -1.1156172412120708 
0.45999999999996566, -1.0833624464709777 
0.46999999999996456, -1.049477407985279 
0.47999999999996346, -1.0181676096309793 
0.48999999999996235, -0.9947943327240042 
0.49999999999996125, -0.9817772981306405 
0.5099999999999602, -0.9768749120257331 
0.519999999999959, -0.976078768752323 
0.529999999999958, -0.9765136117124333 
0.5399999999999568, -0.976819740280783 
0.5499999999999557, -0.9764125966156696 
0.5599999999999546, -0.9748338433612063 
0.5699999999999535, -0.971350303449744 
0.5799999999999524, -0.9647195334040349 
0.5899999999999513, -0.953320098425882 
0.5999999999999502, -0.9361069589714159 
0.6099999999999491, -0.9140160061550692 
0.619999999999948, -0.8898906283121908 
0.6299999999999469, -0.8665448087788823 
0.6399999999999458, -0.8454024089952586 
0.6499999999999447, -0.8267001109091702 
0.6599999999999436, -0.8101835915328455 
0.6699999999999425, -0.795565053045297 
0.6799999999999414, -0.7827079960731627 
0.6899999999999403, -0.7716577841387412 
0.6999999999999392, -0.762579533456109 
0.7099999999999381, -0.7556288404838354 
0.719999999999937, -0.7508035086423765 
0.7299999999999359, -0.7478599684015169 
0.7399999999999348, -0.7463525755263611 
0.7499999999999337, -0.7457632183761549 
0.7599999999999326, -0.7456277362838455 
0.7699999999999315, -0.7455965818454275 
0.7799999999999304, -0.7454367682207301 
0.7899999999999293, -0.745016876906329 
0.7999999999999282, -0.7443040537359547 
0.8099999999999271, -0.74336577688105 
0.819999999999926, -0.7423454694062672 
0.8299999999999249, -0.7414022886801975 
0.8399999999999238, -0.7406477005275529 
0.8499999999999227, -0.7401129187842671 
0.8599999999999216, -0.739749758116083 
0.8699999999999205, -0.7394551895478634 
0.8799999999999194, -0.7391148574836532 
0.8899999999999183, -0.7386533944445968 
0.8999999999999172, -0.7380697596822571 
0.9099999999999161, -0.7374486879350284 
0.919999999999915, -0.7369578850585488 
0.9299999999999139, -0.7368372904352231 
0.9399999999999128, -0.7373714070651928 
0.9499999999999117, -0.7388356616790446 
0.9599999999999106, -0.7414305938159915 
0.9699999999999095, -0.7452401136816554 
0.9799999999999084, -0.750241694277671 
0.9899999999999073, -0.7563616566951407 
0.9999999999999062, -0.7635444304842711 
1.0099999999999052, -0.7718095481129323 
1.019999999999904, -0.781286615661562 
1.029999999999903, -0.7922223182157968 
1.039999999999902, -0.8049335590728808 
1.0499999999999008, -0.8196371475885995 
1.0599999999998997, -0.8360657726485435 
1.0699999999998986, -0.8529778335560112 
1.0799999999998975, -0.868209256651798 
1.0899999999998964, -0.8798334715594327 
1.0999999999998953, -0.8873652700028908 
1.1099999999998942, -0.8915768005898315 
1.119999999999893, -0.893542132466983 
1.129999999999892, -0.8940684740001051 
1.1399999999998909, -0.8936394157632808 
1.1499999999998898, -0.8926048208216703 
1.1599999999998887, -0.891571815829327 
1.1699999999998876, -0.8921975711253847 
1.1799999999998865, -0.8984848544002599 
1.1899999999998854, -0.9174792706068015 
1.1999999999998843, -0.9561891069098115 
1.2099999999998832, -1.0141280545441873 
1.219999999999882, -1.0808527302275968 
1.229999999999881, -1.144528839742871 
1.2399999999998799, -1.1993988172481562 
1.2499999999998788, -1.2447440122085793 
1.2599999999998777, -1.2812906556187826 
1.2699999999998766, -1.309419045307261 
1.2799999999998755, -1.3293083232461955 
1.2899999999998744, -1.3418345741012678 
1.2999999999998733, -1.3487815916873356 
1.3099999999998722, -1.3521194672491426 
1.319999999999871, -1.3533474969184855 
1.32999999999987, -1.3534219583441327 
1.3399999999998689, -1.3530325284507847 
1.3499999999998678, -1.3528593268847395 
1.3599999999998666, -1.3534567903515706 
1.3699999999998655, -1.3548419147788064 
1.3799999999998644, -1.3565442593638737 
1.3899999999998633, -1.3581437884838725 
1.3999999999998622, -1.3595105017483289 
1.4099999999998611, -1.3606353805500082 
1.41999999999986, -1.3614495209816515 
1.429999999999859, -1.3618227211633973 
1.4399999999998578, -1.3616420846932513 
1.4499999999998567, -1.3608555640463842 
1.4599999999998556, -1.3594671932721134 
1.4699999999998545, -1.3575015799352206 
1.4799999999998534, -1.3549609306483523 
1.4899999999998523, -1.3517999758710633 
1.4999999999998512, -1.3479207405072344 
1.5099999999998501, -1.3431649305550497 
1.519999999999849, -1.3373101248313977 
1.529999999999848, -1.3301871325875507 
1.5399999999998468, -1.3221215326867513 
1.5499999999998457, -1.3145453557256028 
1.5599999999998446, -1.3095349296051673 
1.5699999999998435, -1.3077165409448965 
1.5799999999998424, -1.3076850740772723 
1.5899999999998413, -1.307809933496414 
1.5999999999998402, -1.307101493361013 
1.6099999999998391, -1.3046311354337916 
1.619999999999838, -1.2984324289457005 
1.629999999999837, -1.2835341955588189 
1.6399999999998358, -1.2482314340316563 
1.6499999999998347, -1.1715311262045365 
1.6599999999998336, -1.0379892688228545 
1.6699999999998325, -0.871864724759068 
1.6799999999998314, -0.722918720212862 
1.6899999999998303, -0.6146361007050996 
1.6999999999998292, -0.5427559848219717 
1.709999999999828, -0.4961736760826995 
1.719999999999827, -0.4659153905185736 
1.729999999999826, -0.4460944755323154 
1.7399999999998248, -0.4330385682570033 
1.7499999999998237, -0.4244545782043271 
1.7599999999998226, -0.4188839940586798 
1.7699999999998215, -0.4153781940188924 
1.7799999999998204, -0.4133083847707956 
1.7899999999998193, -0.4122537386198662 
1.7999999999998182, -0.4119350645698551 
1.809999999999817, -0.41217616659455364 
1.819999999999816, -0.41288367953537064 
1.8299999999998149, -0.4140408868065009 
1.8399999999998138, -0.415713189342949 
1.8499999999998127, -0.418064156445989 
1.8599999999998116, -0.421383980919222 
1.8699999999998105, -0.4261369051045212 
1.8799999999998094, -0.4330302192219535 
1.8899999999998083, -0.44306145202875485 
1.8999999999998072, -0.45734931562757347 
1.909999999999806, -0.4763268768759694 
1.919999999999805, -0.49825622254124513 
1.9299999999998039, -0.518961799296006 
1.9399999999998028, -0.5346823172726395 
1.9499999999998017, -0.5446577516182519 
1.9599999999998006, -0.5502322168536473 
1.9699999999997995, -0.5529713579094304 
1.9799999999997984, -0.553887117027858 
1.9899999999997973, -0.5533992128068688 
1.9999999999997962, -0.5513799736428439 
2.0099999999998173, -0.5469593488648583 
2.0199999999998384, -0.5377271292166077 
2.0299999999998595, -0.51738271262558 
2.0399999999998806, -0.470085006370849 
2.0499999999999017, -0.36706231190403554 
2.059999999999923, -0.2086727864827313 
2.069999999999944, -0.07412409566876024 
2.079999999999965, -0.0028798857506046973 
2.089999999999986, 0.029036360705825347 
2.100000000000007, 0.04372114917127297 
2.1100000000000283, 0.05091321589603102 
2.1200000000000494, 0.0545767940450587 
2.1300000000000705, 0.05641871893023377 
2.1400000000000916, 0.05725216979833843 
2.1500000000001127, 0.057519759016445904 
2.160000000000134, 0.05749879865127887 
2.170000000000155, 0.05738325806925406 
2.180000000000176, 0.05732518502935283 
2.190000000000197, 0.05747911899724728 
2.2000000000002182, 0.05808696289980521 
2.2100000000002393, 0.05968168700340685 
2.2200000000002604, 0.06363673454456277 
2.2300000000002815, 0.07363359895664538 
2.2400000000003026, 0.09846958303653566 
2.2500000000003237, 0.15019272348673837 
2.260000000000345, 0.220753000211603 
2.270000000000366, 0.2766452250160954 
2.280000000000387, 0.3066269628151565 
2.290000000000408, 0.32049821401477313 
2.3000000000004293, 0.3267596286555184 
2.3100000000004504, 0.32944461083443466 
2.3200000000004715, 0.33021243714047643 
2.3300000000004926, 0.3296833980013497 
2.3400000000005137, 0.32802991713341 
2.3500000000005348, 0.32528846892692764 
2.360000000000556, 0.3216108494867635 
2.370000000000577, 0.317435667514243 
2.380000000000598, 0.3134176759736768 
2.390000000000619, 0.310128563621226 
2.4000000000006403, 0.3078326455512911 
2.4100000000006614, 0.3065151640067826 
2.4200000000006825, 0.30602658027547625 
2.4300000000007036, 0.3061780342967776 
2.4400000000007247, 0.3067602309514371 
2.450000000000746, 0.30753371766979826 
2.460000000000767, 0.30823542043227736 
2.470000000000788, 0.3086033438561381 
2.480000000000809, 0.3083769932298493 
2.49000000000083, 0.3072176304446311 
2.5000000000008513, 0.30447545540658993 
2.5100000000008724, 0.2985819869870361 
2.5200000000008935, 0.2852304744513619 
2.5300000000009146, 0.2512334121630105 
2.5400000000009357, 0.15595247921613087 
2.550000000000957, -0.06763186139543945 
2.560000000000978, -0.3215491360209105 
2.570000000000999, -0.4500443156506392 
2.58000000000102, -0.49811075036330144 
2.5900000000010412, -0.5169007269772045 
2.6000000000010624, -0.5250688518419284 
2.6100000000010835, -0.5288242241645849 
2.6200000000011046, -0.5303892421482195 
2.6300000000011257, -0.530566912681772 
2.6400000000011468, -0.5295265408298946 
2.650000000001168, -0.5270385414171412 
2.660000000001189, -0.5225618094140498 
2.67000000000121, -0.5154487481314084 
2.680000000001231, -0.5055056465115005 
2.6900000000012523, -0.49367086378274755 
2.7000000000012734, -0.4818363754929479 
2.7100000000012945, -0.4716493209340795 
2.7200000000013156, -0.46371919784051113 
2.7300000000013367, -0.45785375228117875 
2.740000000001358, -0.4535837151061122 
2.750000000001379, -0.450457193979803 
2.7600000000014, -0.4481221501625129 
2.770000000001421, -0.4463283121517927 
2.780000000001442, -0.4449165886988299 
2.7900000000014633, -0.4438117226448018 
2.8000000000014844, -0.4430175645072185 
2.8100000000015055, -0.44261627423307265 
2.8200000000015266, -0.4427762360538354 
2.8300000000015477, -0.44377363442835066 
2.840000000001569, -0.44603236234190574 
2.85000000000159, -0.4501891323643056 
2.860000000001611, -0.45719634714674007 
2.870000000001632, -0.4684847631312651 
2.8800000000016532, -0.4862204244618898 
2.8900000000016743, -0.5136980004684606 
2.9000000000016954, -0.5558785793437664 
2.9100000000017165, -0.6198648830656769 
2.9200000000017377, -0.714294421679381 
2.9300000000017588, -0.8445958835679367 
2.94000000000178, -1.0003323623610254 
2.950000000001801, -1.1458227809634098 
2.960000000001822, -1.245459868136766 
2.970000000001843, -1.2974367773463549 
2.9800000000018643, -1.3204640896476685 
2.9900000000018854, -1.3299503592161672 
3.0000000000019065, -1.3335991138743604 
3.0100000000019276, -1.3346335979108754 
3.0200000000019487, -1.334402605257109 
3.03000000000197, -1.33377364922002 
3.040000000001991, -1.333940821221293 
3.050000000002012, -1.3363201944441223 
3.060000000002033, -1.341150128769906 
3.070000000002054, -1.3470299566873172 
3.0800000000020753, -1.3524976375662274 
3.0900000000020964, -1.3569981816483099 
3.1000000000021175, -1.360563964071437 
3.1100000000021386, -1.3633529157134654 
3.1200000000021597, -1.3654825522877863 
3.130000000002181, -1.3670311399594985 
3.140000000002202, -1.3680528460238772 
3.150000000002223, -1.3685714640795485 
3.160000000002244, -1.3685775526995487 
3.1700000000022652, -1.3680482685917736 
3.1800000000022863, -1.3669820384582982 
3.1900000000023074, -1.3654218291851363 
3.2000000000023285, -1.36343867943922 
3.2100000000023496, -1.3610727273980363 
3.2200000000023707, -1.3583184604849685 
3.230000000002392, -1.3552871915211113 
3.240000000002413, -1.3524559747688487 
3.250000000002434, -1.3505370834520851 
3.260000000002455, -1.3497777600185423 
3.2700000000024763, -1.34963671535561 
3.2800000000024974, -1.3493014450032585 
3.2900000000025185, -1.3480267730202113 
3.3000000000025396, -1.3448691961368335 
3.3100000000025607, -1.33816061840191 
3.3200000000025818, -1.3250797353823667 
3.330000000002603, -1.301966891985234 
3.340000000002624, -1.265932250403466 
3.350000000002645, -1.2164535130297431 
3.360000000002666, -1.1549195662759313 
3.3700000000026873, -1.0833358125189982 
3.3800000000027084, -1.004890976648251 
3.3900000000027295, -0.9261383161922874 
3.4000000000027506, -0.8570768641733386 
3.4100000000027717, -0.8062131872107742 
3.420000000002793, -0.7752117461507944 
3.430000000002814, -0.7595781971594048 
3.440000000002835, -0.7531565522840185 
3.450000000002856, -0.7512105334163568 
3.460000000002877, -0.7509981078673087 
3.4700000000028983, -0.7511849456287406 
3.4800000000029194, -0.751167280068942 
3.4900000000029405, -0.7506330899513538 
3.5000000000029616, -0.7493457229350461 
3.5100000000029827, -0.7470890763146342 
3.520000000003004, -0.7437466304050389 
3.530000000003025, -0.7394508527907997 
3.540000000003046, -0.7346298146465268 
3.550000000003067, -0.7298270762724146 
3.5600000000030882, -0.7254465831658494 
3.5700000000031094, -0.721651056087446 
3.5800000000031305, -0.7184203736237753 
3.5900000000031516, -0.7156508354602376 
3.6000000000031727, -0.7132293296510361 
3.6100000000031938, -0.7110767045761832 
3.620000000003215, -0.7091669621595666 
3.630000000003236, -0.7075260366410664 
3.640000000003257, -0.7062153249210557 
3.650000000003278, -0.7053080885618833 
3.6600000000032993, -0.7048674127461922 
3.6700000000033204, -0.7049321603353775 
3.6800000000033415, -0.7055128263961772 
3.6900000000033626, -0.7065949671677157 
3.7000000000033837, -0.7081471718079712 
3.710000000003405, -0.71013291685778 
3.720000000003426, -0.7125271747541644 
3.730000000003447, -0.7153366841329694 
3.740000000003468, -0.7186185827353558 
3.750000000003489, -0.7224887601597489 
3.7600000000035103, -0.7271093040157947 
3.7700000000035314, -0.732638751471449 
3.7800000000035525, -0.739119083361738 
3.7900000000035736, -0.7462959796291223 
3.8000000000035947, -0.7534929508982795 
3.810000000003616, -0.7597891666246152 
3.820000000003637, -0.7645007468257858 
3.830000000003658, -0.7674909211701071 
3.840000000003679, -0.7690278052850946 
3.8500000000037002, -0.7694782555176659 
3.8600000000037213, -0.769143607722566 
3.8700000000037424, -0.7682822924719148 
3.8800000000037635, -0.7673112971148307 
3.8900000000037847, -0.7673100043645424 
3.9000000000038058, -0.7711269093998717 
3.910000000003827, -0.7853333684644852 
3.920000000003848, -0.8219983142634577 
3.930000000003869, -0.8952527264002266 
3.94000000000389, -1.0060970356401535 
3.9500000000039113, -1.130531470446549 
3.9600000000039324, -1.2398607090969223 
3.9700000000039535, -1.3234870275269313 
3.9800000000039746, -1.383720816271777 
3.9900000000039957, -1.4252264383505542 
4.000000000004016, -1.4519219009473878 
4.010000000003993, -1.467502015487851 
4.02000000000397, -1.4756497327796865 
4.030000000003946, -1.4793991120583991 
4.040000000003923, -1.4807387366860363 
4.0500000000039, -1.4808201590805357 
4.0600000000038765, -1.4804077543352494 
4.070000000003853, -1.4801653773284298 
4.08000000000383, -1.4804787775269672 
4.090000000003807, -1.4811790170117443 
4.100000000003783, -1.48187590892408 
4.11000000000376, -1.4824327757538327 
4.120000000003737, -1.4829140245348067 
4.130000000003713, -1.4832682312733014 
4.14000000000369, -1.4832380766368336 
4.150000000003667, -1.4824856701775635 
4.1600000000036434, -1.480670499603753 
4.17000000000362, -1.4774699146258556 
4.180000000003597, -1.4726090890511343 
4.1900000000035735, -1.4658435781585315 
4.20000000000355, -1.4568223545964414 
4.210000000003527, -1.4448476302508777 
4.220000000003504, -1.428588510771979 
4.23000000000348, -1.4059621584392499 
4.240000000003457, -1.3752579128282454 
4.250000000003434, -1.339798482495524 
4.26000000000341, -1.3120456462485106 
4.270000000003387, -1.301039473859031 
4.280000000003364, -1.3007051622562944 
4.2900000000033405, -1.302650575575216 
4.300000000003317, -1.303752621425415 
4.310000000003294, -1.3033753161890622 
4.320000000003271, -1.3008126330453476 
4.330000000003247, -1.2935030486157468 
4.340000000003224, -1.272284020717573 
4.350000000003201, -1.2004401998643224 
4.360000000003177, -0.9182790113875672 
4.370000000003154, -0.1427718039946993 
4.380000000003131, 0.3583820503718596 
4.390000000003107, 0.47144560883420467 
4.400000000003084, 0.49992061800311854 
4.410000000003061, 0.5092738459721387 
4.4200000000030375, 0.512766174058652 
4.430000000003014, 0.5138994293883006 
4.440000000002991, 0.5138007578291595 
4.450000000002968, 0.5128991134308574 
4.460000000002944, 0.5114354817335519 
4.470000000002921, 0.509659885050256 
4.480000000002898, 0.507880775610098 
4.490000000002874, 0.5064097417171226 
4.500000000002851, 0.5054718283559725 
4.510000000002828, 0.5051543772953637 
4.520000000002804, 0.5054062301573874 
4.530000000002781, 0.506060883032463 
4.540000000002758, 0.5068733556419567 
4.5500000000027345, 0.507571664582329 
4.560000000002711, 0.507898097664286 
4.570000000002688, 0.5075905218537493 
4.580000000002665, 0.5062465464657013 
4.590000000002641, 0.502931223590673 
4.600000000002618, 0.49491159664239837 
4.610000000002595, 0.47232019473371495 
4.620000000002571, 0.3876031269099288 
4.630000000002548, -0.03654495014661052 
4.640000000002525, -1.0335333382850564 
4.6500000000025015, -1.4447358970843216 
4.660000000002478, -1.5325081931892202 
4.670000000002455, -1.5543647864519594 
4.6800000000024315, -1.5607282411426482 
4.690000000002408, -1.562370384518585 
4.700000000002385, -1.5621107080343613 
4.710000000002362, -1.5611756072827325 
4.720000000002338, -1.561346624421804 
4.730000000002315, -1.5647400861601262 
4.740000000002292, -1.570776728916892 
4.750000000002268, -1.5767616831896074 
4.760000000002245, -1.5813140019201768 
4.770000000002222, -1.5844897263876114 
4.7800000000021985, -1.586636603569977 
4.790000000002175, -1.5879488068339689 
4.800000000002152, -1.588496678525763 
4.810000000002129, -1.588309991463714 
4.820000000002105, -1.5873956997436258 
4.830000000002082, -1.585720753893483 
4.840000000002059, -1.5831903236067195 
4.850000000002035, -1.5796171892059552 
4.860000000002012, -1.574644342842249 
4.870000000001989, -1.5676313335994734 
4.880000000001965, -1.557830543476366 
4.890000000001942, -1.5457496290312416 
4.900000000001919, -1.5353803220096927 
4.9100000000018955, -1.5311428177839626 
4.920000000001872, -1.5313753364192075 
4.930000000001849, -1.5322267132265872 
4.940000000001826, -1.5319456821585131 
