t, s[1].omega / s[0].omega 
0, -0.7403815693575788 
0.009999999999999995, -0.782681390731225 
0.019999999999999934, -0.8304935540614373 
0.029999999999999874, -0.8757135684965316 
0.04000000000000012, -0.9096635176189862 
0.050000000000000405, -0.9302435295050469 
0.06000000000000069, -0.9410022929670457 
0.07000000000000098, -0.9460969481164602 
0.08000000000000126, -0.9481660405181287 
0.09000000000000155, -0.9485136845315756 
0.10000000000000184, -0.9476839389093914 
0.11000000000000212, -0.9459238521723734 
0.12000000000000241, -0.943812739110441 
0.130000000000002, -0.9438617341157739 
0.1400000000000009, -0.9541749431970536 
0.1499999999999998, -0.9920476999754779 
0.1599999999999987, -1.0740495767830525 
0.1699999999999976, -1.1868074086791505 
0.1799999999999965, -1.2918931374432912 
0.1899999999999954, -1.369692818938969 
0.1999999999999943, -1.4230764435602696 
0.2099999999999932, -1.459444971451842 
0.2199999999999921, -1.4839520834808644 
0.229999999999991, -1.4997054801532674 
0.2399999999999899, -1.5090074058995937 
0.2499999999999888, -1.5138955424210012 
0.2599999999999877, -1.516032781003222 
0.2699999999999866, -1.5165711733920113 
0.2799999999999855, -1.5162770878024072 
0.2899999999999844, -1.5157559266782432 
0.2999999999999833, -1.5154513534647598 
0.3099999999999822, -1.5154116908233717 
0.3199999999999811, -1.5153922419323669 
0.32999999999998, -1.515299576899984 
0.3399999999999789, -1.5152843840056485 
0.3499999999999778, -1.5153843603616324 
0.35999999999997667, -1.5153029823904403 
0.36999999999997557, -1.5145566334449383 
0.37999999999997447, -1.5125729194793125 
0.38999999999997337, -1.5086161918557794 
0.39999999999997227, -1.501763360127351 
0.40999999999997117, -1.4910033576637551 
0.41999999999997006, -1.475230419227588 
0.42999999999996896, -1.4528286181533137 
0.43999999999996786, -1.4208375673008444 
0.44999999999996676, -1.3742416301964995 
0.45999999999996566, -1.3079528002539238 
0.46999999999996456, -1.2277607324960385 
0.47999999999996346, -1.1612276127837693 
0.48999999999996235, -1.1299878836211468 
0.49999999999996125, -1.123855936344294 
0.5099999999999602, -1.125718869334636 
0.519999999999959, -1.1280404382473854 
0.529999999999958, -1.1291583163457353 
0.5399999999999568, -1.1288510592727077 
0.5499999999999557, -1.1266424801506836 
0.5599999999999546, -1.1207870817845422 
0.5699999999999535, -1.1059622169298897 
0.5799999999999524, -1.0660500915575049 
0.5899999999999513, -0.95603388520957 
0.5999999999999502, -0.7086294705341011 
0.6099999999999491, -0.405227577643925 
0.619999999999948, -0.2210747297059587 
0.6299999999999469, -0.13989292439915452 
0.6399999999999458, -0.10391679585515438 
0.6499999999999447, -0.0863611588821395 
0.6599999999999436, -0.07693982564117327 
0.6699999999999425, -0.07149222611841208 
0.6799999999999414, -0.06817182240855699 
0.6899999999999403, -0.06608884911411086 
0.6999999999999392, -0.064797337075365 
0.7099999999999381, -0.0640913734637786 
0.719999999999937, -0.06393050673586398 
0.7299999999999359, -0.0644404596101261 
0.7399999999999348, -0.06599953279646939 
0.7499999999999337, -0.06950182293377685 
0.7599999999999326, -0.07710954618211481 
0.7699999999999315, -0.09462759441766178 
0.7799999999999304, -0.14033581892498312 
0.7899999999999293, -0.28544234956835535 
0.7999999999999282, -0.8562096961706505 
0.8099999999999271, -2.058825963121262 
0.819999999999926, -2.422307124709831 
0.8299999999999249, -2.4855749691783986 
0.8399999999999238, -2.5028513292633643 
0.8499999999999227, -2.5087781832106697 
0.8599999999999216, -2.5105531198535194 
0.8699999999999205, -2.5102066577864615 
0.8799999999999194, -2.508182916875087 
0.8899999999999183, -2.5035999796973125 
0.8999999999999172, -2.492815962157936 
0.9099999999999161, -2.4734977763023336 
0.919999999999915, -2.4669008277829296 
0.9299999999999139, -2.4712948922018674 
0.9399999999999128, -2.4727119407371685 
0.9499999999999117, -2.471068293026167 
0.9599999999999106, -2.4676539109742173 
0.9699999999999095, -2.4724211902719517 
0.9799999999999084, -2.4842285637839425 
0.9899999999999073, -2.4907715806881714 
0.9999999999999062, -2.4933409438247494 
1.0099999999999052, -2.4940593693534385 
1.019999999999904, -2.4932061280622304 
1.029999999999903, -2.4898305856551444 
1.039999999999902, -2.480649709114713 
1.0499999999999008, -2.453462590495711 
1.0599999999998997, -2.343048692557392 
1.0699999999998986, -1.6457518974982879 
1.0799999999998975, -0.15953529755951187 
1.0899999999998964, 0.24288266409016188 
1.0999999999998953, 0.325044805845266 
1.1099999999998942, 0.3493388965775897 
1.119999999999893, 0.35851792395154936 
1.129999999999892, 0.36236960136898816 
1.1399999999998909, 0.36381293256020675 
1.1499999999998898, 0.3637965285527986 
1.1599999999998887, 0.3624475401020641 
1.1699999999998876, 0.35920845313894806 
1.1799999999998865, 0.3522396716081829 
1.1899999999998854, 0.33591414731395036 
1.1999999999998843, 0.2899002687273547 
1.2099999999998832, 0.12106239021324312 
1.219999999999882, -0.6944116667674053 
1.229999999999881, -3.1824209053093004 
1.2399999999998799, -3.427300313147593 
1.2499999999998788, -3.4456969883516444 
1.2599999999998777, -3.4488406222919563 
1.2699999999998766, -3.448214569526069 
1.2799999999998755, -3.443826257194292 
1.2899999999998744, -3.4230683707839176 
1.2999999999998733, -3.2297553781288015 
1.3099999999998722, -3.1486149782273234 
1.319999999999871, -3.198395296634263 
1.32999999999987, -3.2032943779806518 
1.3399999999998689, -3.2031340549387686 
1.3499999999998678, -3.2027577480731244 
1.3599999999998666, -3.202322317978075 
1.3699999999998655, -3.2010265301430225 
1.3799999999998644, -3.200567661209063 
1.3899999999998633, -3.1992633775894017 
1.3999999999998622, -3.1897403439049743 
1.4099999999998611, -3.1456825662301053 
1.41999999999986, -3.2642511215984014 
1.429999999999859, -3.310160699768935 
1.4399999999998578, -3.3176221356236892 
1.4499999999998567, -3.318872871376827 
1.4599999999998556, -3.317277089543995 
1.4699999999998545, -3.3103500765849865 
1.4799999999998534, -3.274650197165876 
1.4899999999998523, -2.6651771900644783 
1.4999999999998512, 0.5623222935437966 
1.5099999999998501, 0.9497110834093894 
1.519999999999849, 0.9913652051652004 
1.529999999999848, 1.0005336538615361 
1.5399999999998468, 1.0031042803579833 
1.5499999999998457, 1.0035643402594927 
1.5599999999998446, 1.0031575218632025 
1.5699999999998435, 1.0026222777875542 
1.5799999999998424, 1.003193625978891 
1.5899999999998413, 1.0069959303271632 
1.5999999999998402, 1.0151411801993881 
1.6099999999998391, 1.0247916114316484 
1.619999999999838, 1.0321057355067613 
1.629999999999837, 1.0362072824002941 
1.6399999999998358, 1.0379247484923657 
1.6499999999998347, 1.0379170007201735 
1.6599999999998336, 1.0359083498839383 
1.6699999999998325, 1.0290889332800663 
1.6799999999998314, 1.0007647331079867 
1.6899999999998303, 0.7654956877627437 
1.6999999999998292, -1.4727761102736383 
1.709999999999828, -2.322032731701165 
1.719999999999827, -2.392169243115971 
1.729999999999826, -2.403203725741366 
1.7399999999998248, -2.40523992426644 
1.7499999999998237, -2.405062012832459 
1.7599999999998226, -2.404516427151674 
1.7699999999998215, -2.4039379794024183 
1.7799999999998204, -2.402714962956593 
1.7899999999998193, -2.4014303608008136 
1.7999999999998182, -2.4010922105491863 
1.809999999999817, -2.4004357395150553 
1.819999999999816, -2.3966603205668444 
1.8299999999998149, -2.377747046973262 
1.8399999999998138, -2.231430880324434 
1.8499999999998127, -1.6006359565697665 
1.8599999999998116, -4.378888205115434 
1.8699999999998105, -4.46919866285469 
1.8799999999998094, -4.473508322343953 
1.8899999999998083, -4.471875309214081 
1.8999999999998072, -4.457938532526109 
1.909999999999806, -3.6498294017083723 
1.919999999999805, 1.6692394732874276 
1.9299999999998039, 1.8367584297793875 
1.9399999999998028, 1.8485092147140623 
1.9499999999998017, 1.8503259173243027 
1.9599999999998006, 1.8504127426752657 
1.9699999999997995, 1.8501627686116624 
1.9799999999997984, 1.8497294564609295 
1.9899999999997973, 1.848899609091017 
1.9999999999997962, 1.8478836482869574 
2.0099999999998173, 1.8471976204231484 
2.0199999999998384, 1.8466616415821968 
2.0299999999998595, 1.845016711447747 
2.0399999999998806, 1.8374572505371838 
2.0499999999999017, 1.7742888696952206 
2.059999999999923, 0.9181956994028413 
2.069999999999944, 3.0438375944479787 
2.079999999999965, 3.0850141304012544 
2.089999999999986, 3.086620475639339 
2.100000000000007, 3.081355925330008 
2.1100000000000283, 2.8809284600291023 
2.1200000000000494, -4.421290704156473 
2.1300000000000705, -4.490623104817147 
2.1400000000000916, -4.492681555750586 
2.1500000000001127, -4.4905871219652855 
2.160000000000134, -4.4790833082334744 
2.170000000000155, -4.468789838743381 
2.180000000000176, -4.474918641062429 
2.190000000000197, -4.474204682206563 
2.2000000000002182, -4.4742352845030595 
2.2100000000002393, -4.473475520251547 
2.2200000000002604, -4.472752627226697 
2.2300000000002815, -4.469118689100506 
2.2400000000003026, -4.452958720508791 
2.2500000000003237, -4.489199613660942 
2.260000000000345, -4.49495422166818 
2.270000000000366, -4.494443708761805 
2.280000000000387, -4.485627567344041 
2.290000000000408, -4.030132113534036 
2.3000000000004293, 2.620580740527615 
2.3100000000004504, 2.6679469267893996 
2.3200000000004715, 2.670542120007532 
2.3300000000004926, 2.668149082330852 
2.3400000000005137, 2.647085845593887 
2.3500000000005348, 2.3954616454452897 
2.360000000000556, 2.468914628986426 
2.370000000000577, 2.4897711115346524 
2.380000000000598, 2.4918429803678714 
2.390000000000619, 2.4916967717391216 
2.4000000000006403, 2.4917633179526355 
2.4100000000006614, 2.491842400391539 
2.4200000000006825, 2.491204428677256 
2.4300000000007036, 2.4905059077687817 
2.4400000000007247, 2.489770846082638 
2.450000000000746, 2.4861499776792018 
2.460000000000767, 2.4549737053342926 
2.470000000000788, 2.4145384434049975 
2.480000000000809, 2.686352554577377 
2.49000000000083, 2.7018618656704545 
2.5000000000008513, 2.702769548973147 
2.5100000000008724, 2.6980015647324374 
2.5200000000008935, 2.6043290303193016 
2.5300000000009146, -4.305105579552459 
2.5400000000009357, -4.471537843943482 
2.550000000000957, -4.475969238078675 
2.560000000000978, -4.474453591184415 
2.570000000000999, -4.464946001292919 
2.58000000000102, -4.434295248529059 
2.5900000000010412, -4.448421404362065 
2.6000000000010624, -4.449277478209785 
2.6100000000010835, -4.448659197105236 
2.6200000000011046, -4.447871436531443 
2.6300000000011257, -4.44667228482762 
2.6400000000011468, -4.445451825447437 
2.650000000001168, -4.435351902235664 
2.660000000001189, -4.450638022837389 
2.67000000000121, -4.459675295273599 
2.680000000001231, -4.460064547066351 
2.6900000000012523, -4.455785011775755 
2.7000000000012734, -4.3626067683505045 
2.7100000000012945, 2.726168366723397 
2.7200000000013156, 2.8807394819809136 
2.7300000000013367, 2.885247685724585 
2.740000000001358, 2.88329260456013 
2.750000000001379, 2.859507652221434 
2.7600000000014, 2.0060673826114583 
2.770000000001421, 2.3403807109606856 
2.780000000001442, 2.373914943253361 
2.7900000000014633, 2.3769827192649666 
2.8000000000014844, 2.377088380841104 
2.8100000000015055, 2.376821182907992 
2.8200000000015266, 2.3761242244014413 
2.8300000000015477, 2.374673020711785 
2.840000000001569, 2.373533225553767 
2.85000000000159, 2.373102068628362 
2.860000000001611, 2.371401484754554 
2.870000000001632, 2.3607571777551133 
2.8800000000016532, 2.287739878535411 
2.8900000000016743, 2.4647780266936623 
2.9000000000016954, 2.516050629344965 
2.9100000000017165, 2.5209450912197844 
2.9200000000017377, 2.520154852378826 
2.9300000000017588, 2.5101795526537805 
2.94000000000178, 2.1065000790776294 
2.950000000001801, -4.275683900668076 
2.960000000001822, -4.335467603719878 
2.970000000001843, -4.338046358588629 
2.9800000000018643, -4.336109568825608 
2.9900000000018854, -4.324881086818976 
3.0000000000019065, -4.296906548155906 
3.0100000000019276, -4.310133850633159 
3.0200000000019487, -4.310880452040768 
3.03000000000197, -4.310292119010368 
3.040000000001991, -4.309810767985102 
3.050000000002012, -4.30863387137404 
3.060000000002033, -4.307650910531445 
3.070000000002054, -4.298118333184978 
3.0800000000020753, -4.308159406791566 
3.0900000000020964, -4.326282261025863 
3.1000000000021175, -4.328076485239949 
3.1100000000021386, -4.326084358093867 
3.1200000000021597, -4.304638944215943 
3.130000000002181, -0.9598724226654436 
3.140000000002202, 2.4948812458745695 
3.150000000002223, 2.5166052166544866 
3.160000000002244, 2.5180549335746862 
3.1700000000022652, 2.514958649831597 
3.1800000000022863, 2.4907283167214813 
3.1900000000023074, 2.2808933664805338 
3.2000000000023285, 2.3363346235695657 
3.2100000000023496, 2.3566065833958296 
3.2200000000023707, 2.3589449926884014 
3.230000000002392, 2.3587657325873717 
3.240000000002413, 2.358851405815769 
3.250000000002434, 2.359621409169704 
3.260000000002455, 2.3598648542695897 
3.2700000000024763, 2.3594825269953787 
3.2800000000024974, 2.3588833909600337 
3.2900000000025185, 2.3568369826017217 
3.3000000000025396, 2.3433686576029054 
3.3100000000025607, 2.09391235589053 
3.3200000000025818, 2.791509119696601 
3.330000000002603, 2.8833399169798706 
3.340000000002624, 2.887494576972514 
3.350000000002645, 2.885418519555131 
3.360000000002666, 2.8558861219038145 
3.3700000000026873, -3.414781703023535 
3.3800000000027084, -4.430866303364266 
3.3900000000027295, -4.440463916790536 
3.4000000000027506, -4.439876547935842 
3.4100000000027717, -4.434905976824217 
3.420000000002793, -4.412482528828645 
3.430000000002814, -4.41896275971271 
3.440000000002835, -4.420810321822167 
3.450000000002856, -4.419984836592343 
3.460000000002877, -4.420013765273747 
3.4700000000028983, -4.418909105570008 
3.4800000000029194, -4.418033560127295 
3.4900000000029405, -4.4093567679578625 
3.5000000000029616, -4.414608717197635 
3.5100000000029827, -4.438536699542926 
3.520000000003004, -4.440775620102526 
3.530000000003025, -4.438878945610632 
3.540000000003046, -4.417202236187849 
3.550000000003067, -0.3076802158764623 
3.5600000000030882, 2.5894739654645926 
3.5700000000031094, 2.6073139779558714 
3.5800000000031305, 2.6082650952539823 
3.5900000000031516, 2.604252582753985 
3.6000000000031727, 2.567834700864436 
3.6100000000031938, 2.344086310780264 
3.620000000003215, 2.432134638712978 
3.630000000003236, 2.444837291851294 
3.640000000003257, 2.4460958284054626 
3.650000000003278, 2.445858599602837 
3.6600000000032993, 2.4461136981947877 
3.6700000000033204, 2.446434411767865 
3.6800000000033415, 2.4460255079502016 
3.6900000000033626, 2.445436362781217 
3.7000000000033837, 2.444572982372629 
3.710000000003405, 2.4402702605476003 
3.720000000003426, 2.399136031610176 
3.730000000003447, 2.3672046425026747 
3.740000000003468, 2.731657550741423 
3.750000000003489, 2.746406829935224 
3.7600000000035103, 2.747045114618726 
3.7700000000035314, 2.741295151821757 
3.7800000000035525, 2.592915778448853 
3.7900000000035736, -4.319145067723946 
3.8000000000035947, -4.423686618097348 
3.810000000003616, -4.427013784113504 
3.820000000003637, -4.425308210635454 
3.830000000003658, -4.415474399437402 
3.840000000003679, -4.392992081975621 
3.8500000000037002, -4.403793192791546 
3.8600000000037213, -4.404084616321654 
3.8700000000037424, -4.403614001454853 
3.8800000000037635, -4.4030590258411575 
3.8900000000037847, -4.402049107356717 
3.9000000000038058, -4.400532447486091 
3.910000000003827, -4.38764119285054 
3.920000000003848, -4.40835527616599 
3.930000000003869, -4.420183011501296 
3.94000000000389, -4.420916436320131 
3.9500000000039113, -4.41724711628794 
3.9600000000039324, -4.358193982171445 
3.9700000000039535, 2.2873500903711568 
3.9800000000039746, 2.63604858150718 
3.9900000000039957, 2.643892191298299 
4.000000000004016, 2.643442823599888 
4.010000000003993, 2.635330403979632 
4.02000000000397, 2.524961536033956 
4.030000000003946, 2.3635023890571802 
4.040000000003923, 2.4325418598117916 
4.0500000000039, 2.438834272770299 
4.0600000000038765, 2.4392690573179285 
4.070000000003853, 2.4391123463053423 
4.08000000000383, 2.4393083287253705 
4.090000000003807, 2.4390549874310063 
4.100000000003783, 2.438284584961293 
4.11000000000376, 2.4377034118812078 
4.120000000003737, 2.4364044187133307 
4.130000000003713, 2.4286260493536918 
4.14000000000369, 2.341791365605236 
4.150000000003667, 2.5591782366361757 
4.1600000000036434, 2.6718560164414162 
4.17000000000362, 2.6786341445068222 
4.180000000003597, 2.6780428609752134 
4.1900000000035735, 2.667753396025047 
4.20000000000355, 2.0622335440143056 
4.210000000003527, -4.361160427677369 
4.220000000003504, -4.402846066428603 
4.23000000000348, -4.404438414126373 
4.240000000003457, -4.401999719762139 
4.250000000003434, -4.38747273166724 
4.26000000000341, -4.371317680233875 
4.270000000003387, -4.3804796451330485 
4.280000000003364, -4.380214313118585 
4.2900000000033405, -4.379933648597673 
4.300000000003317, -4.3790862340749 
4.310000000003294, -4.378235540476985 
4.320000000003271, -4.376116227778065 
4.330000000003247, -4.361841263051504 
4.340000000003224, -4.38787500954587 
4.350000000003201, -4.396614526831348 
4.360000000003177, -4.3969031959862495 
4.370000000003154, -4.392161215926326 
4.380000000003131, -4.298386618237273 
4.390000000003107, 2.419402369177422 
4.400000000003084, 2.6110803032760237 
4.410000000003061, 2.6172622209774206 
4.4200000000030375, 2.616470303543678 
4.430000000003014, 2.607047063806702 
4.440000000002991, 2.4785999090051645 
4.450000000002968, 2.356708183635617 
4.460000000002944, 2.414641439992157 
4.470000000002921, 2.4202055107220386 
4.480000000002898, 2.420540526502114 
4.490000000002874, 2.420396236837762 
4.500000000002851, 2.4206810530729914 
4.510000000002828, 2.4205446535920405 
4.520000000002804, 2.4198636024556155 
4.530000000002781, 2.4192885702375415 
4.540000000002758, 2.4179462530106703 
4.5500000000027345, 2.4099795856470316 
4.560000000002711, 2.3155803097020575 
4.570000000002688, 2.5625490651793537 
4.580000000002665, 2.6906673184368106 
4.590000000002641, 2.697663595900598 
4.600000000002618, 2.697064488459792 
4.610000000002595, 2.6865036728656855 
4.620000000002571, 2.01329475457101 
4.630000000002548, -4.342119380417865 
4.640000000002525, -4.381970682778096 
4.6500000000025015, -4.3834898949397445 
4.660000000002478, -4.381087482281514 
4.670000000002455, -4.367289837582166 
4.6800000000024315, -4.352628859990264 
4.690000000002408, -4.3610363249793735 
4.700000000002385, -4.360701406565005 
4.710000000002362, -4.360482989803933 
4.720000000002338, -4.359779620236796 
4.730000000002315, -4.358945913650636 
4.740000000002292, -4.356814733704926 
4.750000000002268, -4.341045294593 
4.760000000002245, -4.369570101900823 
4.770000000002222, -4.38003798947269 
4.7800000000021985, -4.380575291165864 
4.790000000002175, -4.3764421398706235 
4.800000000002152, -4.309399173515321 
4.810000000002129, 2.2025405826317463 
4.820000000002105, 2.5315214987745702 
4.830000000002082, 2.5398367517866993 
4.840000000002059, 2.539680224014988 
4.850000000002035, 2.5334793262490582 
4.860000000002012, 2.4747072565156203 
4.870000000001989, 2.3195533293831767 
4.880000000001965, 2.3847699337934367 
4.890000000001942, 2.393176748579479 
4.900000000001919, 2.393908594157243 
4.9100000000018955, 2.393620495647477 
4.920000000001872, 2.3941133640405305 
4.930000000001849, 2.3947687470945453 
4.940000000001826, 2.394638872298985 
4.950000000001802, 2.394150695557843 
4.960000000001779, 2.3931885934932495 
4.970000000001756, 2.3884377224972986 
4.980000000001732, 2.3392247711541008 
4.990000000001709, 2.246535059706608 
5.000000000001686, 2.850131346459471 
5.0100000000016625, 2.8653138383117094 
5.020000000001639, 2.8657098498185496 
