t, s[1].omega / s[0].omega 
0, -0.6199835797601005 
0.009999999999999995, -0.6185575317303295 
0.019999999999999934, -0.6175122084612619 
0.029999999999999874, -0.6167384377469156 
0.04000000000000012, -0.6161062951342681 
0.050000000000000405, -0.6155060080404555 
0.06000000000000069, -0.6148837858788087 
0.07000000000000098, -0.6142617377863003 
0.08000000000000126, -0.6137445641563065 
0.09000000000000155, -0.6135251123226709 
0.10000000000000184, -0.6138939962787061 
0.11000000000000212, -0.6152458418614202 
0.12000000000000241, -0.6180691014332587 
0.130000000000002, -0.6229130736937839 
0.1400000000000009, -0.6303426519575112 
0.1499999999999998, -0.6409080191163594 
0.1599999999999987, -0.6551598250465153 
0.1699999999999976, -0.6737263829445037 
0.1799999999999965, -0.697445002135129 
0.1899999999999954, -0.7275020964821882 
0.1999999999999943, -0.7654373568155439 
0.2099999999999932, -0.8125899660221503 
0.2199999999999921, -0.8681761133800949 
0.229999999999991, -0.9261641746049468 
0.2399999999999899, -0.975705493933353 
0.2499999999999888, -1.0092429255944002 
0.2599999999999877, -1.0279291127257242 
0.2699999999999866, -1.0371141072152295 
0.2799999999999855, -1.0412192869815589 
0.2899999999999844, -1.0426951098480015 
0.2999999999999833, -1.042684169281616 
0.3099999999999822, -1.0417250351156984 
0.3199999999999811, -1.0403774514515194 
0.32999999999998, -1.0401636744406182 
0.3399999999999789, -1.0448847122374505 
0.3499999999999778, -1.0603383869662832 
0.35999999999997667, -1.0893640796201807 
0.36999999999997557, -1.1270608705956 
0.37999999999997447, -1.1650926414806435 
0.38999999999997337, -1.1985239020525325 
0.39999999999997227, -1.226467511628925 
0.40999999999997117, -1.249682225452157 
0.41999999999997006, -1.2689426168820965 
0.42999999999996896, -1.2845214646269345 
0.43999999999996786, -1.2963324740534363 
0.44999999999996676, -1.304409243569414 
0.45999999999996566, -1.3092505861584782 
0.46999999999996456, -1.3116925455833166 
0.47999999999996346, -1.3125603973730038 
0.48999999999996235, -1.3125069410173649 
0.49999999999996125, -1.312090952800838 
0.5099999999999602, -1.3118752653011678 
0.519999999999959, -1.3122770425549946 
0.529999999999958, -1.313284691103724 
0.5399999999999568, -1.314549028996546 
0.5499999999999557, -1.3157754037958038 
0.5599999999999546, -1.3168769978342474 
0.5699999999999535, -1.317832485548722 
0.5799999999999524, -1.3185471941883429 
0.5899999999999513, -1.3188688714211871 
0.5999999999999502, -1.318668420789129 
0.6099999999999491, -1.3178850070570471 
0.619999999999948, -1.316524799445177 
0.6299999999999469, -1.314626715394177 
0.6399999999999458, -1.3122158555026027 
0.6499999999999447, -1.309274217876668 
0.6599999999999436, -1.3057385515594158 
0.6699999999999425, -1.3015056575418251 
0.6799999999999414, -1.2964310901120522 
0.6899999999999403, -1.2903778821940342 
0.6999999999999392, -1.2834577112758532 
0.7099999999999381, -1.2764836385493008 
0.719999999999937, -1.2710316742471848 
0.7299999999999359, -1.2682416147367936 
0.7399999999999348, -1.2675983821075654 
0.7499999999999337, -1.2676912996519083 
0.7599999999999326, -1.2674168857839219 
0.7699999999999315, -1.2659959381667378 
0.7799999999999304, -1.2623200542351363 
0.7899999999999293, -1.254023701416968 
0.7999999999999282, -1.2362313363150486 
0.8099999999999271, -1.201003665939217 
0.819999999999926, -1.1410206206540745 
0.8299999999999249, -1.0579932028612673 
0.8399999999999238, -0.9643962553488189 
0.8499999999999227, -0.8739552662841292 
0.8599999999999216, -0.7947983673571762 
0.8699999999999205, -0.7300266101499737 
0.8799999999999194, -0.6799520203901452 
0.8899999999999183, -0.6433563710708297 
0.8999999999999172, -0.618130759899482 
0.9099999999999161, -0.6017800653433865 
0.919999999999915, -0.5918597363631167 
0.9299999999999139, -0.586273942196162 
0.9399999999999128, -0.5834064281212225 
0.9499999999999117, -0.5821155074819153 
0.9599999999999106, -0.5816507187602256 
0.9699999999999095, -0.5815453799401186 
0.9799999999999084, -0.5815219063738273 
0.9899999999999073, -0.5814279993748458 
0.9999999999999062, -0.5812063685144124 
1.0099999999999052, -0.5808860086368598 
1.019999999999904, -0.5805710566663544 
1.029999999999903, -0.5804084179426574 
1.039999999999902, -0.5805409348611376 
1.0499999999999008, -0.5810673908757947 
1.0599999999998997, -0.5820143829582676 
1.0699999999998986, -0.5833107198940359 
1.0799999999998975, -0.5847744776939703 
1.0899999999998964, -0.5861494665516703 
1.0999999999998953, -0.5871986610726726 
1.1099999999998942, -0.5877907841301235 
1.119999999999893, -0.5879171111229347 
1.129999999999892, -0.5876584228906911 
1.1399999999998909, -0.5871689957995798 
1.1499999999998898, -0.5867332544640046 
1.1599999999998887, -0.5869537833030937 
1.1699999999998876, -0.5891933209518772 
1.1799999999998865, -0.5965380507869584 
1.1899999999998854, -0.6157641967163092 
1.1999999999998843, -0.6606771714338773 
1.2099999999998832, -0.7541821879292679 
1.219999999999882, -0.9145993465462917 
1.229999999999881, -1.115755997884326 
1.2399999999998799, -1.2938246967069995 
1.2499999999998788, -1.4184538482332196 
1.2599999999998777, -1.4971749481726397 
1.2699999999998766, -1.5442568942478765 
1.2799999999998755, -1.5706301975413954 
1.2899999999998744, -1.5842183834573134 
1.2999999999998733, -1.590581412761496 
1.3099999999998722, -1.5931510871368988 
1.319999999999871, -1.5937876495803964 
1.32999999999987, -1.5935105551506177 
1.3399999999998689, -1.5930469428653864 
1.3499999999998678, -1.5928878319105102 
1.3599999999998666, -1.5930055770814113 
1.3699999999998655, -1.5930746461666783 
1.3799999999998644, -1.5930284399302443 
1.3899999999998633, -1.5930529288705972 
1.3999999999998622, -1.5931202835289457 
1.4099999999998611, -1.5928299228863667 
1.41999999999986, -1.5915952067538668 
1.429999999999859, -1.5886312526318869 
1.4399999999998578, -1.5827478368522097 
1.4499999999998567, -1.572224508938396 
1.4599999999998556, -1.5547921100675073 
1.4699999999998545, -1.527289319178598 
1.4799999999998534, -1.4843596757817772 
1.4899999999998523, -1.4163045587120398 
1.4999999999998512, -1.3103288739473715 
1.5099999999998501, -1.170664366442597 
1.519999999999849, -1.0465497725146813 
1.529999999999848, -0.9811274757518179 
1.5399999999998468, -0.9610515701496734 
1.5499999999998457, -0.9590155570045727 
1.5599999999998446, -0.961073259400606 
1.5699999999998435, -0.9629580054111919 
1.5799999999998424, -0.9638113494066947 
1.5899999999998413, -0.9634702676364496 
1.5999999999998402, -0.9615634602667011 
1.6099999999998391, -0.9570010065873336 
1.619999999999838, -0.9472225989133607 
1.629999999999837, -0.9271462414624025 
1.6399999999998358, -0.8895646147875731 
1.6499999999998347, -0.8314553804992488 
1.6599999999998336, -0.7627210653564185 
1.6699999999998325, -0.6996309497923849 
1.6799999999998314, -0.6503712316069948 
1.6899999999998303, -0.6143794071226806 
1.6999999999998292, -0.5883325946017267 
1.709999999999828, -0.5692479418976268 
1.719999999999827, -0.5550524174312206 
1.729999999999826, -0.5443994796697504 
1.7399999999998248, -0.5364157572317164 
1.7499999999998237, -0.5305154560488385 
1.7599999999998226, -0.5262816113085873 
1.7699999999998215, -0.5233947098766708 
1.7799999999998204, -0.5215931997008687 
1.7899999999998193, -0.5206550921323062 
1.7999999999998182, -0.5203927465985034 
1.809999999999817, -0.5206550663034915 
1.819999999999816, -0.5213335712600367 
1.8299999999998149, -0.5223708959902026 
1.8399999999998138, -0.523771101127348 
1.8499999999998127, -0.52561029771986 
1.8599999999998116, -0.5280451426868266 
1.8699999999998105, -0.5313175233934453 
1.8799999999998094, -0.5357505720389678 
1.8899999999998083, -0.5417089564553536 
1.8999999999998072, -0.549451308415666 
1.909999999999806, -0.558803392753059 
1.919999999999805, -0.5688147202789294 
1.9299999999998039, -0.5779477630091889 
1.9399999999998028, -0.5849623859319835 
1.9499999999998017, -0.5895532784514942 
1.9599999999998006, -0.5921074894975644 
1.9699999999997995, -0.593150096620345 
1.9799999999997984, -0.5930256483718586 
1.9899999999997973, -0.5917971523483012 
1.9999999999997962, -0.5891686115161123 
2.0099999999998173, -0.5842426205329211 
2.0199999999998384, -0.5747319140359968 
2.0299999999998595, -0.5540595012786814 
2.0399999999998806, -0.4971887363409933 
2.0499999999999017, -0.268046587448564 
2.059999999999923, 0.5347677475658905 
2.069999999999944, 0.9628967086705499 
2.079999999999965, 1.0257652135091644 
2.089999999999986, 1.0385483511873272 
2.100000000000007, 1.041891092701458 
2.1100000000000283, 1.0421470791800664 
2.1200000000000494, 1.0401758517563915 
2.1300000000000705, 1.0345057490968301 
2.1400000000000916, 1.0202094383021625 
2.1500000000001127, 0.9888199267849144 
2.160000000000134, 0.9484053623627096 
2.170000000000155, 0.9301109099787448 
2.180000000000176, 0.9300257546699043 
2.190000000000197, 0.9329255788051984 
2.2000000000002182, 0.9347435448013665 
2.2100000000002393, 0.9352039318849679 
2.2200000000002604, 0.9341808279968566 
2.2300000000002815, 0.9305701572198822 
2.2400000000003026, 0.9197208284323702 
2.2500000000003237, 0.8782204463706835 
2.260000000000345, 0.6454140158518158 
2.270000000000366, 0.30150837987955703 
2.280000000000387, 2.8050551526349112 
2.290000000000408, 2.852698000813717 
2.3000000000004293, 2.855106508888574 
2.3100000000004504, 2.851703734263109 
2.3200000000004715, 2.794987244757009 
2.3300000000004926, -3.3852497274068476 
2.3400000000005137, -3.9666371245205534 
2.3500000000005348, -3.97744459838155 
2.360000000000556, -3.9774985321730467 
2.370000000000577, -3.9752341592034477 
2.380000000000598, -3.9670325578865557 
2.390000000000619, -3.9625492260803035 
2.4000000000006403, -3.965416962255901 
2.4100000000006614, -3.9640788190144027 
2.4200000000006825, -3.964465880580916 
2.4300000000007036, -3.9664567780970557 
2.4400000000007247, -3.9663721679397312 
2.450000000000746, -3.9651861481340225 
2.460000000000767, -3.953979103528797 
2.470000000000788, -3.7548639390672123 
2.480000000000809, -4.204603421033817 
2.49000000000083, -4.238020785403335 
2.5000000000008513, -4.240610915774308 
2.5100000000008724, -4.238565831101999 
2.5200000000008935, -4.223426463058154 
2.5300000000009146, -3.58066914717151 
2.5400000000009357, 2.0462542783570568 
2.550000000000957, 2.126033814289329 
2.560000000000978, 2.131848872218476 
2.570000000000999, 2.1324314490763996 
2.58000000000102, 2.131551541877333 
2.5900000000010412, 2.1289670717818625 
2.6000000000010624, 2.1241174129314198 
2.6100000000010835, 2.1200479154151455 
2.6200000000011046, 2.1197862574432156 
2.6300000000011257, 2.1201430311205396 
2.6400000000011468, 2.1184388006883235 
2.650000000001168, 2.109975044260811 
2.660000000001189, 2.0892153914355003 
2.67000000000121, 2.149235329004934 
2.680000000001231, 2.1854296021307777 
2.6900000000012523, 2.1918938164476813 
2.7000000000012734, 2.1923891370315842 
2.7100000000012945, 2.188927492133728 
2.7200000000013156, 2.1586872870831835 
2.7300000000013367, -0.9729103486054071 
2.740000000001358, -4.066125863740928 
2.750000000001379, -4.093418623655748 
2.7600000000014, -4.095072218648323 
2.770000000001421, -4.092966537904923 
2.780000000001442, -4.082057280932428 
2.7900000000014633, -4.050854343931567 
2.8000000000014844, -4.063965890259146 
2.8100000000015055, -4.065714378946629 
2.8200000000015266, -4.064940339302573 
2.8300000000015477, -4.0650917448474715 
2.840000000001569, -4.064080863913284 
2.85000000000159, -4.0634980449027385 
2.860000000001611, -4.05943484035483 
2.870000000001632, -4.036431623851425 
2.8800000000016532, -4.086315569686517 
2.8900000000016743, -4.099096746494532 
2.9000000000016954, -4.10024813471223 
2.9100000000017165, -4.0975448019586445 
2.9200000000017377, -4.07454356454325 
2.9300000000017588, -2.391308831013521 
2.94000000000178, 2.0705143943225943 
2.950000000001801, 2.1141817228189757 
2.960000000001822, 2.118142627111045 
2.970000000001843, 2.1177838774312634 
2.9800000000018643, 2.113992810837612 
2.9900000000018854, 2.0997390576902797 
3.0000000000019065, 2.068228920504952 
3.0100000000019276, 2.0656705200785455 
3.0200000000019487, 2.072583202494987 
3.03000000000197, 2.0743174269578573 
3.040000000001991, 2.0732165134609457 
3.050000000002012, 2.070505692904162 
3.060000000002033, 2.072589889656372 
3.070000000002054, 2.082633627134636 
3.0800000000020753, 2.0890647521830528 
3.0900000000020964, 2.0910599671409047 
3.1000000000021175, 2.090815024415749 
3.1100000000021386, 2.0876628070294165 
3.1200000000021597, 2.0649531612316627 
3.130000000002181, 0.6837977046097272 
3.140000000002202, -4.0398557749168225 
3.150000000002223, -4.089442943987877 
3.160000000002244, -4.093280794306774 
3.1700000000022652, -4.091977962137461 
3.1800000000022863, -4.083667224309392 
3.1900000000023074, -3.999126385201012 
3.2000000000023285, -3.9770595639160646 
3.2100000000023496, -3.996985407419472 
3.2200000000023707, -3.997710751517517 
3.230000000002392, -3.9970128899598705 
3.240000000002413, -3.995584814643587 
3.250000000002434, -3.9936719185805587 
3.260000000002455, -3.99348561793591 
3.2700000000024763, -3.989129658433856 
3.2800000000024974, -3.986474279707857 
3.2900000000025185, -4.003419372784633 
3.3000000000025396, -4.006873365327567 
3.3100000000025607, -4.006533793109665 
3.3200000000025818, -4.0009099825715 
3.330000000002603, -3.912994992037189 
3.340000000002624, 1.877242068679914 
3.350000000002645, 2.2814151761374317 
3.360000000002666, 2.2927889558947956 
3.3700000000026873, 2.2934782941178806 
3.3800000000027084, 2.2898233433591857 
3.3900000000027295, 2.265216311490771 
3.4000000000027506, 2.0822563463488146 
3.4100000000027717, 2.1019661554492926 
3.420000000002793, 2.12828698445044 
3.430000000002814, 2.1320942388379565 
3.440000000002835, 2.1321495373874204 
3.450000000002856, 2.1317875815730885 
3.460000000002877, 2.1328275355808244 
3.4700000000028983, 2.1346455054254734 
3.4800000000029194, 2.135592907010344 
3.4900000000029405, 2.13561266296412 
3.5000000000029616, 2.134916533313261 
3.5100000000029827, 2.1320105275520636 
3.520000000003004, 2.1123128917344682 
3.530000000003025, 1.3991556941981516 
3.540000000003046, -4.649048342076148 
3.550000000003067, -4.7242145060698 
3.5600000000030882, -4.727193646936547 
3.5700000000031094, -4.724358659381776 
3.5800000000031305, -4.692198611232612 
3.5900000000031516, -0.7518648747148481 
3.6000000000031727, 1.7210498414984812 
3.6100000000031938, 1.7943780713583117 
3.620000000003215, 1.8019510040326516 
3.630000000003236, 1.803160179660265 
3.640000000003257, 1.8031437397534558 
3.650000000003278, 1.803032180082551 
3.6600000000032993, 1.8029565319732062 
3.6700000000033204, 1.8026219039608802 
3.6800000000033415, 1.8020466663293715 
3.6900000000033626, 1.801539288464756 
3.7000000000033837, 1.8009456719640298 
3.710000000003405, 1.7990996784792848 
3.720000000003426, 1.7907394610724974 
3.730000000003447, 1.7146538579007082 
3.740000000003468, -0.7171223096243323 
3.750000000003489, -4.75452835773118 
3.7600000000035103, -4.784835772193913 
3.7700000000035314, -4.785931291094085 
3.7800000000035525, -4.780936000034223 
3.7900000000035736, -4.680575410573558 
3.8000000000035947, 1.8798484083546978 
3.810000000003616, 2.2722522824804 
3.820000000003637, 2.284369353924471 
3.830000000003658, 2.2856884007353813 
3.840000000003679, 2.285343005876455 
3.8500000000037002, 2.2839106084514773 
3.8600000000037213, 2.2808323433465683 
3.8700000000037424, 2.2775201527910176 
3.8800000000037635, 2.276797100387072 
3.8900000000037847, 2.276861615755819 
3.9000000000038058, 2.2747866761478277 
3.910000000003827, 2.2637555878556053 
3.920000000003848, 2.2434303851839763 
3.930000000003869, 2.321391197520507 
3.94000000000389, 2.345934963006478 
3.9500000000039113, 2.3496133741118745 
3.9600000000039324, 2.348887734318653 
3.9700000000039535, 2.3409937438608663 
3.9800000000039746, 2.171518180047085 
3.9900000000039957, -4.134101200801172 
4.000000000004016, -4.276378262013486 
4.010000000003993, -4.281815080995943 
4.02000000000397, -4.280740980461365 
4.030000000003946, -4.273577832658311 
4.040000000003923, -4.229463746841064 
4.0500000000039, -4.240915026660952 
4.0600000000038765, -4.245543589853317 
4.070000000003853, -4.244861028655579 
4.08000000000383, -4.24451459569498 
4.090000000003807, -4.242976394725428 
4.100000000003783, -4.242430629536036 
4.11000000000376, -4.239229907395068 
4.120000000003737, -4.228893375399481 
4.130000000003713, -4.253253608074572 
4.14000000000369, -4.258675985422221 
4.150000000003667, -4.258526158223555 
4.1600000000036434, -4.252751093429208 
4.17000000000362, -4.130941516139212 
4.180000000003597, 2.3286194151552797 
4.1900000000035735, 2.503398279589973 
4.20000000000355, 2.5098857400377765 
4.210000000003527, 2.5093312172178694 
4.220000000003504, 2.5015823322090487 
4.23000000000348, 2.4153290881157043 
4.240000000003457, 2.2336746093575637 
4.250000000003434, 2.3098663178487255 
4.26000000000341, 2.318297354933028 
4.270000000003387, 2.3191027778105955 
4.280000000003364, 2.3188584137758723 
4.2900000000033405, 2.3192447087869765 
4.300000000003317, 2.3198014692735582 
4.310000000003294, 2.319656844275543 
4.320000000003271, 2.319171756198233 
4.330000000003247, 2.3183783054079674 
4.340000000003224, 2.3149203423050158 
4.350000000003201, 2.2866578348524453 
4.360000000003177, 1.8727224222618204 
4.370000000003154, 2.8217412624235707 
4.380000000003131, 2.8549759849647836 
4.390000000003107, 2.8568215754977446 
4.400000000003084, 2.8528583500171925 
4.410000000003061, 2.775248500422292 
4.4200000000030375, -4.173282268248082 
4.430000000003014, -4.38207880727622 
4.440000000002991, -4.387016613120325 
4.450000000002968, -4.385812792501683 
4.460000000002944, -4.379104778743008 
4.470000000002921, -4.35885491590187 
4.480000000002898, -4.367159956401926 
4.490000000002874, -4.367830350790297 
4.500000000002851, -4.367210652504426 
4.510000000002828, -4.367245691142282 
4.520000000002804, -4.366282031050448 
4.530000000002781, -4.36511152461352 
4.540000000002758, -4.353314784282015 
4.5500000000027345, -4.366762173250583 
4.560000000002711, -4.3913025282568245 
4.570000000002688, -4.393477692268421 
4.580000000002665, -4.39147940878317 
4.590000000002641, -4.3700880391346235 
4.600000000002618, -1.0003617027604157 
4.610000000002595, 2.46402769701991 
4.620000000002571, 2.485949901880372 
4.630000000002548, 2.4874995566271787 
4.640000000002525, 2.4848278066692195 
4.6500000000025015, 2.4667515520451904 
4.660000000002478, 2.3467459525162595 
4.670000000002455, 2.361956913709602 
4.6800000000024315, 2.380094252543095 
4.690000000002408, 2.3823961611329523 
4.700000000002385, 2.3820519328616614 
4.710000000002362, 2.382112160302167 
4.720000000002338, 2.383475709930587 
4.730000000002315, 2.384394618783801 
4.740000000002292, 2.3843423697276793 
4.750000000002268, 2.383762545205442 
4.760000000002245, 2.3815550844338333 
4.770000000002222, 2.3662100830263197 
4.7800000000021985, 1.953125514363072 
4.790000000002175, 3.189047366577549 
4.800000000002152, 3.273081923214119 
4.810000000002129, 3.275575708935487 
4.820000000002105, 3.2710157578590064 
4.830000000002082, 3.0699266891458064 
4.840000000002059, -4.814606715015935 
4.850000000002035, -4.858813788716676 
4.860000000002012, -4.859519542219854 
4.870000000001989, -4.855458929366635 
4.880000000001965, -4.825649880296522 
4.890000000001942, -4.8333644803967655 
4.900000000001919, -4.835961119296871 
4.9100000000018955, -4.835147164119152 
4.920000000001872, -4.833940617192015 
4.930000000001849, -4.832557824711947 
4.940000000001826, -4.831121757778487 
4.950000000001802, -4.824826712713291 
4.960000000001779, -4.83623598849452 
4.970000000001756, -4.838195284976936 
4.980000000001732, -4.8365550301433435 
4.990000000001709, -4.807262734590908 
5.000000000001686, -3.1935899565534833 
