t, s[1].omega / s[0].omega 
0, -1.1299974791553646 
0.009999999999999995, -1.1296411954055297 
0.019999999999999934, -1.1290583556162836 
0.029999999999999874, -1.128205475609359 
0.04000000000000012, -1.1270551410887315 
0.050000000000000405, -1.1256312525856689 
0.06000000000000069, -1.124015164551642 
0.07000000000000098, -1.122314102409897 
0.08000000000000126, -1.1206154211938686 
0.09000000000000155, -1.118981735476012 
0.10000000000000184, -1.1175071416775764 
0.11000000000000212, -1.1163561999275693 
0.12000000000000241, -1.115684398114343 
0.130000000000002, -1.1154820211353464 
0.1400000000000009, -1.115523761499001 
0.1499999999999998, -1.115479787017739 
0.1599999999999987, -1.1150418839910328 
0.1699999999999976, -1.1139750394096941 
0.1799999999999965, -1.1121431679811395 
0.1899999999999954, -1.1095455336609485 
0.1999999999999943, -1.1063169467844456 
0.2099999999999932, -1.1026513170299053 
0.2199999999999921, -1.0987012323467316 
0.229999999999991, -1.0945309841213615 
0.2399999999999899, -1.0901327906241494 
0.2499999999999888, -1.0854678465772927 
0.2599999999999877, -1.080502847733472 
0.2699999999999866, -1.0752485409809225 
0.2799999999999855, -1.0698326783583663 
0.2899999999999844, -1.0646046636109916 
0.2999999999999833, -1.0601525721437277 
0.3099999999999822, -1.0570539178142653 
0.3199999999999811, -1.055453311462896 
0.32999999999998, -1.0549321653182042 
0.3399999999999789, -1.054824918799345 
0.3499999999999778, -1.054549347083574 
0.35999999999997667, -1.0536619072884337 
0.36999999999997557, -1.0517640408081577 
0.37999999999997447, -1.0484659398921372 
0.38999999999997337, -1.0435097046313913 
0.39999999999997227, -1.0369749229224987 
0.40999999999997117, -1.0293112657793406 
0.41999999999997006, -1.0210888194405234 
0.42999999999996896, -1.0127151243524228 
0.43999999999996786, -1.004352463723606 
0.44999999999996676, -0.9959954417154708 
0.45999999999996566, -0.9875850327013094 
0.46999999999996456, -0.9791111485517486 
0.47999999999996346, -0.970713717319461 
0.48999999999996235, -0.9627759674700271 
0.49999999999996125, -0.9559238915627695 
0.5099999999999602, -0.950803397331827 
0.519999999999959, -0.9476869614094457 
0.529999999999958, -0.9462637073840842 
0.5399999999999568, -0.9458497055753915 
0.5499999999999557, -0.9457591312764615 
0.5599999999999546, -0.945485235075366 
0.5699999999999535, -0.9446702467291319 
0.5799999999999524, -0.943028694329044 
0.5899999999999513, -0.9403490163938437 
0.5999999999999502, -0.9365935843433804 
0.6099999999999491, -0.9319871467398508 
0.619999999999948, -0.9269424179505406 
0.6299999999999469, -0.9218541521052721 
0.6399999999999458, -0.9169533210964206 
0.6499999999999447, -0.9123047616927866 
0.6599999999999436, -0.9078806528706769 
0.6699999999999425, -0.9036333547285367 
0.6799999999999414, -0.8995396106051509 
0.6899999999999403, -0.8956184105881725 
0.6999999999999392, -0.8919364321813555 
0.7099999999999381, -0.8886115226391367 
0.719999999999937, -0.8858056778709112 
0.7299999999999359, -0.8836834782933419 
0.7399999999999348, -0.8823319707909809 
0.7499999999999337, -0.8816899771955041 
0.7599999999999326, -0.8815509070441175 
0.7699999999999315, -0.881639790443233 
0.7799999999999304, -0.8817006186315274 
0.7899999999999293, -0.8815473441742144 
0.7999999999999282, -0.8810850721220266 
0.8099999999999271, -0.8803190539146144 
0.819999999999926, -0.8793426569396743 
0.8299999999999249, -0.878289805261009 
0.8399999999999238, -0.8772707581574419 
0.8499999999999227, -0.8763296939087514 
0.8599999999999216, -0.87544115431321 
0.8699999999999205, -0.8745382489566496 
0.8799999999999194, -0.8735577653935997 
0.8899999999999183, -0.8724828115820445 
0.8999999999999172, -0.8713645596321662 
0.9099999999999161, -0.8703159810232227 
0.919999999999915, -0.869480584059762 
0.9299999999999139, -0.8689865306808103 
0.9399999999999128, -0.868907901060543 
0.9499999999999117, -0.8692556565047183 
0.9599999999999106, -0.8699971928286008 
0.9699999999999095, -0.8710798182474869 
0.9799999999999084, -0.8724398850983521 
0.9899999999999073, -0.8740038395056431 
0.9999999999999062, -0.8756976192995621 
1.0099999999999052, -0.8774679771113929 
1.019999999999904, -0.8793024226863881 
1.029999999999903, -0.8812308965671025 
1.039999999999902, -0.8833014928078329 
1.0499999999999008, -0.8855348700166591 
1.0599999999998997, -0.8878718886135989 
1.0699999999998986, -0.8901426555984312 
1.0799999999998975, -0.8920980030553605 
1.0899999999998964, -0.8935121878704185 
1.0999999999998953, -0.8942859339443976 
1.1099999999998942, -0.894470666493276 
1.119999999999893, -0.8942330566844886 
1.129999999999892, -0.8938344972267203 
1.1399999999998909, -0.8936493482064318 
1.1499999999998898, -0.8941655709333162 
1.1599999999998887, -0.8958808026813811 
1.1699999999998876, -0.8990948091438098 
1.1799999999998865, -0.9037593542014859 
1.1899999999998854, -0.9095405615911594 
1.1999999999998843, -0.9160296262716393 
1.2099999999998832, -0.9229174537220699 
1.219999999999882, -0.9300510462879699 
1.229999999999881, -0.9374091299863417 
1.2399999999998799, -0.9450483147445077 
1.2499999999998788, -0.9530300040254402 
1.2599999999998777, -0.9613111017987365 
1.2699999999998766, -0.9696046897152331 
1.2799999999998755, -0.9773112729302044 
1.2899999999998744, -0.9836952423928844 
1.2999999999998733, -0.9882769828281068 
1.3099999999998722, -0.9910636818528296 
1.319999999999871, -0.9924065881455792 
1.32999999999987, -0.9927381263261307 
1.3399999999998689, -0.9924632596953462 
1.3499999999998678, -0.9920383090141414 
1.3599999999998666, -0.9921371900582159 
1.3699999999998655, -0.9936982821102476 
1.3799999999998644, -0.9975882706194762 
1.3899999999998633, -1.0040021745678718 
1.3999999999998622, -1.0122802561462527 
1.4099999999998611, -1.0214120240623932 
1.41999999999986, -1.0306192637085432 
1.429999999999859, -1.039536386523411 
1.4399999999998578, -1.0480965443868 
1.4499999999998567, -1.0563636966602472 
1.4599999999998556, -1.0643979067516673 
1.4699999999998545, -1.0721416074179568 
1.4799999999998534, -1.0793313338295416 
1.4899999999998523, -1.0855151706883777 
1.4999999999998512, -1.0902529410885147 
1.5099999999998501, -1.0933770426451603 
1.519999999999849, -1.0950566461251474 
1.529999999999848, -1.0956452492718363 
1.5399999999998468, -1.095533832280272 
1.5499999999998457, -1.0951423285576316 
1.5599999999998446, -1.0949848375116291 
1.5699999999998435, -1.0956227583127542 
1.5799999999998424, -1.0973951326737605 
1.5899999999998413, -1.1001763767885808 
1.5999999999998402, -1.1035087881239265 
1.6099999999998391, -1.1069491695743778 
1.619999999999838, -1.1102472354741044 
1.629999999999837, -1.1133084432862683 
1.6399999999998358, -1.1161063980458463 
1.6499999999998347, -1.1186412843096418 
1.6599999999998336, -1.1209316746471902 
1.6699999999998325, -1.1229996320809206 
1.6799999999998314, -1.1248390287740855 
1.6899999999998303, -1.1263882630465438 
1.6999999999998292, -1.1275373782898162 
1.709999999999828, -1.1281797149265964 
1.719999999999827, -1.1282771644547067 
1.729999999999826, -1.1278942100301812 
1.7399999999998248, -1.1271932694093416 
1.7499999999998237, -1.1264046310855091 
1.7599999999998226, -1.125758816128441 
1.7699999999998215, -1.125389047160041 
1.7799999999998204, -1.1252921509471472 
1.7899999999998193, -1.1254037333095894 
1.7999999999998182, -1.1256916064606854 
1.809999999999817, -1.1261509215917305 
1.819999999999816, -1.1267260609883514 
1.8299999999998149, -1.1272753014466699 
1.8399999999998138, -1.1276208834311434 
1.8499999999998127, -1.1276223225244757 
1.8599999999998116, -1.1272184203032078 
1.8699999999998105, -1.1264306344840282 
1.8799999999998094, -1.125331607742756 
1.8899999999998083, -1.1239937993290523 
1.8999999999998072, -1.122450578311679 
1.909999999999806, -1.1206928787168544 
1.919999999999805, -1.1186967867896231 
1.9299999999998039, -1.1164579331926991 
1.9399999999998028, -1.114006359952652 
1.9499999999998017, -1.1113940831913565 
1.9599999999998006, -1.108683300899988 
1.9699999999997995, -1.1059794124867321 
1.9799999999997984, -1.1034971523706363 
1.9899999999997973, -1.1015511551412283 
1.9999999999997962, -1.1003780717732239 
2.0099999999998173, -1.0999204398265383 
2.0199999999998384, -1.099830733495188 
2.0299999999998595, -1.0996713122285606 
2.0399999999998806, -1.0990580341861258 
2.0499999999999017, -1.097675873006136 
2.059999999999923, -1.0952824786276585 
2.069999999999944, -1.091778308614314 
2.079999999999965, -1.0872796911507634 
2.089999999999986, -1.0820704239684416 
2.100000000000007, -1.0764424284239043 
2.1100000000000283, -1.0705703510286477 
2.1200000000000494, -1.0644957832919721 
2.1300000000000705, -1.0581790240479974 
2.1400000000000916, -1.0515634023884073 
2.1500000000001127, -1.0446444763346932 
2.160000000000134, -1.0375691482623628 
2.170000000000155, -1.0307560712208748 
2.180000000000176, -1.0249097481378624 
2.190000000000197, -1.0207358674722484 
2.2000000000002182, -1.018452385037007 
2.2100000000002393, -1.0176126928781426 
2.2200000000002604, -1.0174535456457054 
2.2300000000002815, -1.0173026776215066 
2.2400000000003026, -1.0166788636599242 
2.2500000000003237, -1.015188703964726 
2.260000000000345, -1.0124427739682982 
2.270000000000366, -1.0081208127358217 
2.280000000000387, -1.0021774902902894 
2.290000000000408, -0.9949751714124 
2.3000000000004293, -0.9871196091791926 
2.3100000000004504, -0.9791349900522357 
2.3200000000004715, -0.9712915030499424 
2.3300000000004926, -0.9636433646546149 
2.3400000000005137, -0.9561436400768917 
2.3500000000005348, -0.9487439165364455 
2.360000000000556, -0.9414683492791666 
2.370000000000577, -0.9344771179810107 
2.380000000000598, -0.9281064259900388 
2.390000000000619, -0.9228204696113785 
2.4000000000006403, -0.9190179262817073 
2.4100000000006614, -0.9167806147989819 
2.4200000000006825, -0.9157925106787725 
2.4300000000007036, -0.9155147913889505 
2.4400000000007247, -0.9154254222722529 
2.450000000000746, -0.9151295789673662 
2.460000000000767, -0.9143480962498014 
2.470000000000788, -0.9128911125281348 
2.480000000000809, -0.9106844058700542 
2.49000000000083, -0.9078224473579795 
2.5000000000008513, -0.9045552281495386 
2.5100000000008724, -0.9011738456592301 
2.5200000000008935, -0.8978860320142946 
2.5300000000009146, -0.8947740983770063 
2.5400000000009357, -0.8918285543059141 
2.550000000000957, -0.8890060419111487 
2.560000000000978, -0.8862771572053921 
2.570000000000999, -0.8836502449702403 
2.58000000000102, -0.881170367470515 
2.5900000000010412, -0.8789047060939339 
2.6000000000010624, -0.8769304444406606 
2.6100000000010835, -0.8753305126961528 
2.6200000000011046, -0.874184412049253 
2.6300000000011257, -0.8735391701413302 
2.6400000000011468, -0.8733700324037835 
2.650000000001168, -0.8735649215251428 
2.660000000001189, -0.8739534490865607 
2.67000000000121, -0.874362461431714 
2.680000000001231, -0.874665535523404 
2.6900000000012523, -0.8748106726986237 
2.7000000000012734, -0.8748231092001173 
2.7100000000012945, -0.8747803080674588 
2.7200000000013156, -0.8747653121255041 
2.7300000000013367, -0.8748199374856263 
2.740000000001358, -0.8749189911632455 
2.750000000001379, -0.8749759764893257 
2.7600000000014, -0.8748815145684581 
2.770000000001421, -0.8745592821600223 
2.780000000001442, -0.8740095087697309 
2.7900000000014633, -0.8733229277997584 
2.8000000000014844, -0.8726710858186204 
2.8100000000015055, -0.8722767453500622 
2.8200000000015266, -0.872357358722061 
2.8300000000015477, -0.8730532827950567 
2.840000000001569, -0.8743849265029306 
2.85000000000159, -0.8762714905731237 
2.860000000001611, -0.8785894301402075 
2.870000000001632, -0.8812225282342545 
2.8800000000016532, -0.8840828261132062 
2.8900000000016743, -0.8871152329914305 
2.9000000000016954, -0.8903017819553201 
2.9100000000017165, -0.8936641855240671 
2.9200000000017377, -0.8972509970396464 
2.9300000000017588, -0.9010977548053258 
2.94000000000178, -0.9051599492477594 
2.950000000001801, -0.9092427373176332 
2.960000000001822, -0.9129930190763764 
2.970000000001843, -0.9160199781598409 
2.9800000000018643, -0.9180849674980331 
2.9900000000018854, -0.919189153119844 
3.0000000000019065, -0.9195088183759774 
3.0100000000019276, -0.9193042320560518 
3.0200000000019487, -0.9189120733819884 
3.03000000000197, -0.9188166842266436 
3.040000000001991, -0.9196959952871462 
3.050000000002012, -0.9222846480133295 
3.060000000002033, -0.9270248832973402 
3.070000000002054, -0.9337897159689732 
3.0800000000020753, -0.9419925640040955 
3.0900000000020964, -0.9509645051966118 
3.1000000000021175, -0.9602407265818906 
3.1100000000021386, -0.9696204193559806 
3.1200000000021597, -0.9790916436661357 
3.130000000002181, -0.9887189047651666 
3.140000000002202, -0.998513756700486 
3.150000000002223, -1.0082794605835153 
3.160000000002244, -1.0174876032410531 
3.1700000000022652, -1.0253630495470878 
3.1800000000022863, -1.0312674154063854 
3.1900000000023074, -1.035066401659609 
3.2000000000023285, -1.0370939389810407 
3.2100000000023496, -1.0378491073306568 
3.2200000000023707, -1.0377950793366204 
3.230000000002392, -1.037379022152437 
3.240000000002413, -1.0371853523723884 
3.250000000002434, -1.038029005187723 
3.260000000002455, -1.0407170918085416 
3.2700000000024763, -1.0455034120423714 
3.2800000000024974, -1.0518551923754174 
3.2900000000025185, -1.0588839987522425 
3.3000000000025396, -1.0658964138399303 
3.3100000000025607, -1.0725673130351694 
3.3200000000025818, -1.078832259769869 
3.330000000002603, -1.0847415840171182 
3.340000000002624, -1.090362994295084 
3.350000000002645, -1.0957127987254696 
3.360000000002666, -1.100695456246059 
3.3700000000026873, -1.1050805068224498 
3.3800000000027084, -1.108574775224464 
3.3900000000027295, -1.1109793061530553 
3.4000000000027506, -1.1123013852465529 
3.4100000000027717, -1.1127295973713938 
3.420000000002793, -1.112549423082479 
3.430000000002814, -1.1121100764588894 
3.440000000002835, -1.111826377185197 
3.450000000002856, -1.1120959109791724 
3.460000000002877, -1.1131033061230249 
3.4700000000028983, -1.1147198291052527 
3.4800000000029194, -1.1166525401843093 
3.4900000000029405, -1.1186585761046426 
3.5000000000029616, -1.1206100839171678 
3.5100000000029827, -1.1224374262816779 
3.520000000003004, -1.1240779040130224 
3.530000000003025, -1.1254798061344933 
3.540000000003046, -1.1266260424598442 
3.550000000003067, -1.1275349710664944 
3.5600000000030882, -1.1282324248435007 
3.5700000000031094, -1.1287163429198297 
3.5800000000031305, -1.128941286253238 
3.5900000000031516, -1.1288381493570498 
3.6000000000031727, -1.1283601307280338 
3.6100000000031938, -1.1275256731731385 
3.620000000003215, -1.126432971125464 
3.630000000003236, -1.125236152176393 
3.640000000003257, -1.1240847575341724 
3.650000000003278, -1.1230633515407682 
3.6600000000032993, -1.1221979269209128 
3.6700000000033204, -1.121527022540168 
3.6800000000033415, -1.1211340556360931 
3.6900000000033626, -1.12107088824284 
3.7000000000033837, -1.1212533185264424 
3.710000000003405, -1.1214618860795735 
3.720000000003426, -1.1214391183817867 
3.730000000003447, -1.120976208564002 
3.740000000003468, -1.119954516177839 
3.750000000003489, -1.1183645099604118 
3.7600000000035103, -1.1162948570487061 
3.7700000000035314, -1.113875977959173 
3.7800000000035525, -1.1112099823040935 
3.7900000000035736, -1.1083368426366602 
3.8000000000035947, -1.10524755458475 
3.810000000003616, -1.1019186171245274 
3.820000000003637, -1.0983384427605813 
3.830000000003658, -1.0945184885875066 
3.840000000003679, -1.0905159734045302 
3.8500000000037002, -1.0865006942466053 
3.8600000000037213, -1.0828283642569465 
3.8700000000037424, -1.0799775332587467 
3.8800000000037635, -1.0782637301114963 
3.8900000000037847, -1.077566870328178 
3.9000000000038058, -1.077405898134871 
3.910000000003827, -1.07723543040501 
3.920000000003848, -1.0766071610543206 
3.930000000003869, -1.075145142605134 
3.94000000000389, -1.0725067527525423 
3.9500000000039113, -1.068456419455789 
3.9600000000039324, -1.0630187438647727 
3.9700000000039535, -1.0565202580347393 
3.9800000000039746, -1.0494110105756373 
3.9900000000039957, -1.0420328556559386 
4.000000000004016, -1.0345308517458778 
4.010000000003993, -1.0269018106858907 
4.02000000000397, -1.0190857378914826 
4.030000000003946, -1.0110571229667216 
4.040000000003923, -1.0029278618769424 
4.0500000000039, -0.995063543467438 
4.0600000000038765, -0.9881238915402774 
4.070000000003853, -0.9828556209421556 
4.08000000000383, -0.9796394721610658 
4.090000000003807, -0.9781973760838282 
4.100000000003783, -0.9778042202778716 
4.11000000000376, -0.9777213743061111 
4.120000000003737, -0.9774075427182046 
4.130000000003713, -0.9764739460285226 
4.14000000000369, -0.9745834235765909 
4.150000000003667, -0.9714447694846093 
4.1600000000036434, -0.966942466623542 
4.17000000000362, -0.9612846360728324 
4.180000000003597, -0.9549550486304875 
4.1900000000035735, -0.9484599304513563 
4.20000000000355, -0.942117642626178 
4.210000000003527, -0.9360345996733921 
4.220000000003504, -0.9301913439413418 
4.23000000000348, -0.9245338628608291 
4.240000000003457, -0.9190332680545497 
4.250000000003434, -0.9137209307714114 
4.26000000000341, -0.9087142234274799 
4.270000000003387, -0.9042292549206973 
4.280000000003364, -0.9005468533499495 
4.2900000000033405, -0.897901617793902 
4.300000000003317, -0.8963382303860703 
4.310000000003294, -0.8956540851397069 
4.320000000003271, -0.8954865503457057 
4.330000000003247, -0.8954579046355777 
4.340000000003224, -0.895265083953149 
4.350000000003201, -0.8947005720911484 
4.360000000003177, -0.8936571131179507 
4.370000000003154, -0.8921450501496618 
4.380000000003131, -0.8902928068227093 
4.390000000003107, -0.8882917190479647 
4.400000000003084, -0.8863083020980307 
4.410000000003061, -0.884427005094276 
4.4200000000030375, -0.8826490817942252 
4.430000000003014, -0.880928489456178 
4.440000000002991, -0.8792187218859004 
4.450000000002968, -0.8775108139047226 
4.460000000002944, -0.875848403089473 
4.470000000002921, -0.8743158707636451 
4.480000000002898, -0.8730085940979778 
4.490000000002874, -0.8720039943966738 
4.500000000002851, -0.8713500682357533 
4.510000000002828, -0.8710703524508571 
4.520000000002804, -0.8711673789629468 
4.530000000002781, -0.8716129014698378 
4.540000000002758, -0.8723362201164386 
4.5500000000027345, -0.8732315714713621 
4.560000000002711, -0.8741889049444638 
4.570000000002688, -0.8751313178159281 
4.580000000002665, -0.8760385848273786 
4.590000000002641, -0.8769447525872502 
4.600000000002618, -0.8779090899684793 
4.610000000002595, -0.8789715239508619 
4.620000000002571, -0.8801104253032215 
4.630000000002548, -0.8812224890213292 
4.640000000002525, -0.8821452937550148 
4.6500000000025015, -0.8827246773160036 
4.660000000002478, -0.8828872843864296 
4.670000000002455, -0.8826716791564768 
4.6800000000024315, -0.8822216745587502 
4.690000000002408, -0.8817755155137303 
4.700000000002385, -0.881652568464552 
4.710000000002362, -0.8821992846802134 
4.720000000002338, -0.8836770132051426 
4.730000000002315, -0.886154864820948 
4.740000000002292, -0.8895025410209012 
4.750000000002268, -0.8934884504061135 
4.760000000002245, -0.8978941574689248 
4.770000000002222, -0.9025750020512613 
4.7800000000021985, -0.9074682660806888 
4.790000000002175, -0.9125794454020981 
4.800000000002152, -0.9179600880921062 
4.810000000002129, -0.9236673612844234 
4.820000000002105, -0.9296894667593094 
4.830000000002082, -0.9358415882299888 
4.840000000002059, -0.9416987875946061 
4.850000000002035, -0.9466920027247168 
4.860000000002012, -0.9503826184043056 
4.870000000001989, -0.9526767381405306 
4.880000000001965, -0.9537784405305573 
4.890000000001942, -0.9540098302344073 
4.900000000001919, -0.9537164491513241 
4.9100000000018955, -0.9533197352909673 
4.920000000001872, -0.9534474984701827 
4.930000000001849, -0.9549713072021417 
