t, s[1].omega / s[0].omega 
0, -1.020016549361516 
0.009999999999999995, -1.0216123820459406 
0.019999999999999934, -1.0230104710883796 
0.029999999999999874, -1.0240631386151333 
0.04000000000000012, -1.0246465802992166 
0.050000000000000405, -1.0247274534102395 
0.06000000000000069, -1.0243853145517712 
0.07000000000000098, -1.0238002383567315 
0.08000000000000126, -1.023227650578916 
0.09000000000000155, -1.0229425850220895 
0.10000000000000184, -1.0231380112862807 
0.11000000000000212, -1.0238428052466824 
0.12000000000000241, -1.0249475499309715 
0.130000000000002, -1.026307715250294 
0.1400000000000009, -1.0278130425986822 
0.1499999999999998, -1.0293827301504124 
0.1599999999999987, -1.0309371245562322 
0.1699999999999976, -1.0323978078563327 
0.1799999999999965, -1.0337134465955908 
0.1899999999999954, -1.0348777361934707 
0.1999999999999943, -1.0359181688666819 
0.2099999999999932, -1.0368602458115181 
0.2199999999999921, -1.0376888576198227 
0.229999999999991, -1.038332342804472 
0.2399999999999899, -1.038685914563214 
0.2499999999999888, -1.0386668596559572 
0.2599999999999877, -1.038267044126899 
0.2699999999999866, -1.0375737740113 
0.2799999999999855, -1.0367585883402484 
0.2899999999999844, -1.0360361478402027 
0.2999999999999833, -1.0355894782299522 
0.3099999999999822, -1.0354974769752812 
0.3199999999999811, -1.0357324167566457 
0.32999999999998, -1.0362273934225517 
0.3399999999999789, -1.0369306008979158 
0.3499999999999778, -1.0377943766075663 
0.35999999999997667, -1.0387371285493627 
0.36999999999997557, -1.0396410023420288 
0.37999999999997447, -1.0403927495581056 
0.38999999999997337, -1.0409280074077916 
0.39999999999997227, -1.0412468138978217 
0.40999999999997117, -1.0413940361063616 
0.41999999999997006, -1.0414174498525097 
0.42999999999996896, -1.041328444262947 
0.43999999999996786, -1.0410888159296428 
0.44999999999996676, -1.0406324485608969 
0.45999999999996566, -1.039910646111672 
0.46999999999996456, -1.0389343931068706 
0.47999999999996346, -1.037789833670523 
0.48999999999996235, -1.0366180986983133 
0.49999999999996125, -1.0355636732258429 
0.5099999999999602, -1.0347197585797994 
0.519999999999959, -1.0341181661946093 
0.529999999999958, -1.03377034833228 
0.5399999999999568, -1.033699405030009 
0.5499999999999557, -1.0339121132559608 
0.5599999999999546, -1.034342572986964 
0.5699999999999535, -1.034842207506106 
0.5799999999999524, -1.0352331805275479 
0.5899999999999513, -1.0353752047216884 
0.5999999999999502, -1.0352053041269524 
0.6099999999999491, -1.0347432786200634 
0.619999999999948, -1.0340635684603625 
0.6299999999999469, -1.033244685909613 
0.6399999999999458, -1.032325358486322 
0.6499999999999447, -1.0312925794498482 
0.6599999999999436, -1.0301044559835157 
0.6699999999999425, -1.0287317609083082 
0.6799999999999414, -1.027193105957555 
0.6899999999999403, -1.0255625021228982 
0.6999999999999392, -1.0239440305590128 
0.7099999999999381, -1.022432156649396 
0.719999999999937, -1.0210947977792189 
0.7299999999999359, -1.0199960246953959 
0.7399999999999348, -1.0192195810277276 
0.7499999999999337, -1.0188375241289622 
0.7599999999999326, -1.0188341714904796 
0.7699999999999315, -1.0190681658169178 
0.7799999999999304, -1.0193204419727375 
0.7899999999999293, -1.0193790454320761 
0.7999999999999282, -1.0190991337077555 
0.8099999999999271, -1.01843004765781 
0.819999999999926, -1.0174159451620468 
0.8299999999999249, -1.0161618956851146 
0.8399999999999238, -1.0147739029047769 
0.8499999999999227, -1.0133098462998869 
0.8599999999999216, -1.0117693425643648 
0.8699999999999205, -1.0101198967343938 
0.8799999999999194, -1.0083383874830452 
0.8899999999999183, -1.0064429172651184 
0.8999999999999172, -1.0044970267033377 
0.9099999999999161, -1.0025866946685598 
0.919999999999915, -1.000793657176056 
0.9299999999999139, -0.9991946948347538 
0.9399999999999128, -0.9978838982396034 
0.9499999999999117, -0.9969712935692066 
0.9599999999999106, -0.9965231793978013 
0.9699999999999095, -0.9964860368499038 
0.9799999999999084, -0.9966779065483251 
0.9899999999999073, -0.9968602576756437 
0.9999999999999062, -0.9968220859472489 
1.0099999999999052, -0.9964295276028631 
1.019999999999904, -0.9956470495803371 
1.029999999999903, -0.9945346680180795 
1.039999999999902, -0.9932092145458584 
1.0499999999999008, -0.9917811626008797 
1.0599999999998997, -0.9903069322048509 
1.0699999999998986, -0.9887823343637103 
1.0799999999998975, -0.9871713554048801 
1.0899999999998964, -0.9854487062100838 
1.0999999999998953, -0.9836320517979196 
1.1099999999998942, -0.9817867514896506 
1.119999999999893, -0.9800028675212845 
1.129999999999892, -0.9783652168606618 
1.1399999999998909, -0.9769450677413951 
1.1499999999998898, -0.9758166659769636 
1.1599999999998887, -0.9750622270763 
1.1699999999998876, -0.9747316661239657 
1.1799999999998865, -0.9747817938940404 
1.1899999999998854, -0.9750613364503999 
1.1999999999998843, -0.9753639626320249 
1.2099999999998832, -0.9755025451334705 
1.219999999999882, -0.9753597202157283 
1.229999999999881, -0.9749088076893864 
1.2399999999998799, -0.9742064030031402 
1.2499999999998788, -0.9733526542818435 
1.2599999999998777, -0.9724346360390671 
1.2699999999998766, -0.9714861149933174 
1.2799999999998755, -0.9704836959835534 
1.2899999999998744, -0.9693758145389489 
1.2999999999998733, -0.9681269445464741 
1.3099999999998722, -0.966753468544141 
1.319999999999871, -0.9653325129449613 
1.32999999999987, -0.9639790306188527 
1.3399999999998689, -0.9628034858867588 
1.3499999999998678, -0.9618791572622678 
1.3599999999998666, -0.9612437164593082 
1.3699999999998655, -0.9609223372140082 
1.3799999999998644, -0.9609317725885319 
1.3899999999998633, -0.9612504048787354 
1.3999999999998622, -0.9617892199559573 
1.4099999999998611, -0.9624048719025631 
1.41999999999986, -0.9629501131256374 
1.429999999999859, -0.9633247292001144 
1.4399999999998578, -0.9635014299293478 
1.4499999999998567, -0.9635195725912775 
1.4599999999998556, -0.9634495460337467 
1.4699999999998545, -0.9633446851320799 
1.4799999999998534, -0.9632063790142145 
1.4899999999998523, -0.9629801397828583 
1.4999999999998512, -0.9625854625717942 
1.5099999999998501, -0.9619654003405864 
1.519999999999849, -0.9611288154464843 
1.529999999999848, -0.9601649689645078 
1.5399999999998468, -0.9592266604540681 
1.5499999999998457, -0.9584842709490766 
1.5599999999998446, -0.9580646568050726 
1.5699999999998435, -0.9580131025416463 
1.5799999999998424, -0.9583077436312125 
1.5899999999998413, -0.9589026211413654 
1.5999999999998402, -0.9597494668396587 
1.6099999999998391, -0.9607857241182653 
1.619999999999838, -0.9619214892919097 
1.629999999999837, -0.9630547416899278 
1.6399999999998358, -0.9641070583581925 
1.6499999999998347, -0.9650512249034826 
1.6599999999998336, -0.9659109056360453 
1.6699999999998325, -0.966731249070682 
1.6799999999998314, -0.9675353715678814 
1.6899999999998303, -0.9682894317052562 
1.6999999999998292, -0.9688977033747742 
1.709999999999828, -0.9692387296885636 
1.719999999999827, -0.9692274111949388 
1.729999999999826, -0.9688642913520551 
1.7399999999998248, -0.9682493085638837 
1.7499999999998237, -0.9675689361365137 
1.7599999999998226, -0.9670608830608476 
1.7699999999998215, -0.9669442765087567 
1.7799999999998204, -0.9673350737780833 
1.7899999999998193, -0.9682131983272286 
1.7999999999998182, -0.9694720259970495 
1.809999999999817, -0.9709936006431137 
1.819999999999816, -0.9726826840117122 
1.8299999999998149, -0.974458636912835 
1.8399999999998138, -0.9762461584602518 
1.8499999999998127, -0.9779873782999845 
1.8599999999998116, -0.9796611942697007 
1.8699999999998105, -0.9812849927533964 
1.8799999999998094, -0.9828890918069328 
1.8899999999998083, -0.9844740999004994 
1.8999999999998072, -0.9859739244270364 
1.909999999999806, -0.9872524007470836 
1.919999999999805, -0.9881513849088226 
1.9299999999998039, -0.9885683920615396 
1.9399999999998028, -0.9885090438721196 
1.9499999999998017, -0.9880912429826744 
1.9599999999998006, -0.9875277838170919 
1.9699999999997995, -0.9871004895499731 
1.9799999999997984, -0.9870955933854706 
1.9899999999997973, -0.9876935579885423 
1.9999999999997962, -0.9888934424429404 
2.0099999999998173, -0.9905523469076728 
2.0199999999998384, -0.9924947204279789 
2.0299999999998595, -0.9945845337803666 
2.0399999999998806, -0.9967287406753054 
2.0499999999999017, -0.9988573095826772 
2.059999999999923, -1.0009207929355222 
2.069999999999944, -1.0029021924199006 
2.079999999999965, -1.0048174994920516 
2.089999999999986, -1.0066908575755673 
2.100000000000007, -1.0085124710911728 
2.1100000000000283, -1.0102031193027985 
2.1200000000000494, -1.011615791701351 
2.1300000000000705, -1.0125911588307455 
2.1400000000000916, -1.0130379149177147 
2.1500000000001127, -1.0129798277824895 
2.160000000000134, -1.0125531564443195 
2.170000000000155, -1.0119865143194944 
2.180000000000176, -1.0115711825964881 
2.190000000000197, -1.0115863775930265 
2.2000000000002182, -1.0121837216345297 
2.2100000000002393, -1.0133277763307516 
2.2200000000002604, -1.0148610502849897 
2.2300000000002815, -1.01661855829253 
2.2400000000003026, -1.0184829125779888 
2.2500000000003237, -1.0203707584359598 
2.260000000000345, -1.0222100944606276 
2.270000000000366, -1.0239451340936059 
2.280000000000387, -1.0255546113944993 
2.290000000000408, -1.0270536735036715 
2.3000000000004293, -1.028468293879796 
2.3100000000004504, -1.0297946938186513 
2.3200000000004715, -1.0309689255262868 
2.3300000000004926, -1.0318724463293856 
2.3400000000005137, -1.0323823529884322 
2.3500000000005348, -1.0324381642384612 
2.360000000000556, -1.0320806822767212 
2.370000000000577, -1.0314521761660236 
2.380000000000598, -1.030774053805636 
2.390000000000619, -1.0302963174454267 
2.4000000000006403, -1.0302078646233181 
2.4100000000006614, -1.0305591428405152 
2.4200000000006825, -1.0312763393795021 
2.4300000000007036, -1.0322490923157808 
2.4400000000007247, -1.0333920403622974 
2.450000000000746, -1.0346363350994892 
2.460000000000767, -1.0358982519185116 
2.470000000000788, -1.03708060843243 
2.480000000000809, -1.0381065564906709 
2.49000000000083, -1.0389489157657221 
2.5000000000008513, -1.039629254984674 
2.5100000000008724, -1.0401870338452492 
2.5200000000008935, -1.0406380394294155 
2.5300000000009146, -1.0409476950362788 
2.5400000000009357, -1.0410380005593662 
2.550000000000957, -1.0408288313138387 
2.560000000000978, -1.0402902901950077 
2.570000000000999, -1.0394750667889703 
2.58000000000102, -1.0385175935420268 
2.5900000000010412, -1.0375993581607743 
2.6000000000010624, -1.0368835749536771 
2.6100000000010835, -1.0364529912682445 
2.6200000000011046, -1.0363069764866304 
2.6300000000011257, -1.036416774151699 
2.6400000000011468, -1.036765785641272 
2.650000000001168, -1.037327730561874 
2.660000000001189, -1.0380219373008945 
2.67000000000121, -1.0387121777138941 
2.680000000001231, -1.0392558257231292 
2.6900000000012523, -1.0395582062655118 
2.7000000000012734, -1.0395981993162975 
2.7100000000012945, -1.0394177684802952 
2.7200000000013156, -1.0390825743909216 
2.7300000000013367, -1.0386355692379563 
2.740000000001358, -1.038070935232119 
2.750000000001379, -1.0373424493050527 
2.7600000000014, -1.0364004613482856 
2.770000000001421, -1.03523559042835 
2.780000000001442, -1.0339033482873807 
2.7900000000014633, -1.0325147390103564 
2.8000000000014844, -1.0311950402826895 
2.8100000000015055, -1.0300370372517937 
2.8200000000015266, -1.0290906754090061 
2.8300000000015477, -1.0283964757089175 
2.840000000001569, -1.0280094014988823 
2.85000000000159, -1.027963034346774 
2.860000000001611, -1.0282035581896285 
2.870000000001632, -1.0285741633329226 
2.8800000000016532, -1.028872572612452 
2.8900000000016743, -1.028926265646914 
2.9000000000016954, -1.028639656244825 
2.9100000000017165, -1.0280091352157292 
2.9200000000017377, -1.0271060472120734 
2.9300000000017588, -1.026028558134999 
2.94000000000178, -1.0248472351165963 
2.950000000001801, -1.0235777389517273 
2.960000000001822, -1.02219199148978 
2.970000000001843, -1.0206553582371922 
2.9800000000018643, -1.018966098928345 
2.9900000000018854, -1.0171736418352308 
3.0000000000019065, -1.0153650503224807 
3.0100000000019276, -1.0136317814828217 
3.0200000000019487, -1.0120494114270175 
3.03000000000197, -1.010692496546199 
3.040000000001991, -1.0096577855456568 
3.050000000002012, -1.0090402661862892 
3.060000000002033, -1.0088560553357433 
3.070000000002054, -1.0089875253884921 
3.0800000000020753, -1.0092164835542707 
3.0900000000020964, -1.0093113035450094 
3.1000000000021175, -1.0090966323970303 
3.1100000000021386, -1.0084875758507281 
3.1200000000021597, -1.0074998525925265 
3.130000000002181, -1.0062291000586867 
3.140000000002202, -1.0047953200526987 
3.150000000002223, -1.00328305946381 
3.160000000002244, -1.0017149770752802 
3.1700000000022652, -1.0000667381324457 
3.1800000000022863, -0.9983061515156683 
3.1900000000023074, -0.9964318176200588 
3.2000000000023285, -0.9944896872683898 
3.2100000000023496, -0.9925598448393128 
3.2200000000023707, -0.9907278332363182 
3.230000000002392, -0.9890703134290988 
3.240000000002413, -0.9876691857261759 
3.250000000002434, -0.9866248303592539 
3.260000000002455, -0.9860230459396778 
3.2700000000024763, -0.9858621571046399 
3.2800000000024974, -0.986012435622769 
3.2900000000025185, -0.9862570686839188 
3.3000000000025396, -0.9863753498256072 
3.3100000000025607, -0.9862062514445469 
3.3200000000025818, -0.9856791952598856 
3.330000000002603, -0.9848203618997537 
3.340000000002624, -0.9837274423246687 
3.350000000002645, -0.9825134645848429 
3.360000000002666, -0.9812512211064961 
3.3700000000026873, -0.9799513777248043 
3.3800000000027084, -0.9785795167010137 
3.3900000000027295, -0.9770963353591611 
3.4000000000027506, -0.9754978437389072 
3.4100000000027717, -0.973834074350292 
3.420000000002793, -0.9721967267401828 
3.430000000002814, -0.9706850793082296 
3.440000000002835, -0.969377290910705 
3.450000000002856, -0.9683311054874826 
3.460000000002877, -0.9676027552977844 
3.4700000000028983, -0.9672434794406437 
3.4800000000029194, -0.9672571421407309 
3.4900000000029405, -0.9675589299226101 
3.5000000000029616, -0.9679862773136995 
3.5100000000029827, -0.9683577989568699 
3.520000000003004, -0.9685345521847589 
3.530000000003025, -0.9684552206668229 
3.540000000003046, -0.9681411076577836 
3.550000000003067, -0.9676695790903012 
3.5600000000030882, -0.9671241743113319 
3.5700000000031094, -0.9665479866341358 
3.5800000000031305, -0.9659254511631634 
3.5900000000031516, -0.9651991326047824 
3.6000000000031727, -0.9643114231633158 
3.6100000000031938, -0.9632491675623065 
3.620000000003215, -0.9620678777202809 
3.630000000003236, -0.9608841708001398 
3.640000000003257, -0.9598382680452351 
3.650000000003278, -0.9590432049610664 
3.6600000000032993, -0.9585542090876465 
3.6700000000033204, -0.9583800059012544 
3.6800000000033415, -0.9585131746201915 
3.6900000000033626, -0.958936990213331 
3.7000000000033837, -0.9596022555383774 
3.710000000003405, -0.96041082348518 
3.720000000003426, -0.9612359696588134 
3.730000000003447, -0.9619677450067619 
3.740000000003468, -0.962550926504624 
3.750000000003489, -0.9629948822382307 
3.7600000000035103, -0.9633515797466503 
3.7700000000035314, -0.963672633865466 
3.7800000000035525, -0.9639676785434537 
3.7900000000035736, -0.9641860503837231 
3.8000000000035947, -0.964234111895462 
3.810000000003616, -0.964023640674562 
3.820000000003637, -0.9635248810679166 
3.830000000003658, -0.9627952150347427 
3.840000000003679, -0.9619765695455655 
3.8500000000037002, -0.9612652134812872 
3.8600000000037213, -0.9608523892167142 
3.8700000000037424, -0.9608538610281799 
3.8800000000037635, -0.9612787134944938 
3.8900000000037847, -0.9620629795254473 
3.9000000000038058, -0.9631261673582934 
3.910000000003827, -0.9643955932580999 
3.920000000003848, -0.9657959927962174 
3.930000000003869, -0.9672416009464767 
3.94000000000389, -0.9686531943752634 
3.9500000000039113, -0.9699863663892148 
3.9600000000039324, -0.9712443214023416 
3.9700000000039535, -0.9724617424191623 
3.9800000000039746, -0.9736660134917543 
3.9900000000039957, -0.9748354759126908 
4.000000000004016, -0.9758791890786407 
4.010000000003993, -0.9766591862665488 
4.02000000000397, -0.9770532372228367 
4.030000000003946, -0.9770192105167723 
4.040000000003923, -0.9766216832645375 
4.0500000000039, -0.9760247145284614 
4.0600000000038765, -0.9754697483031951 
4.070000000003853, -0.9752262702502564 
4.08000000000383, -0.975500222519336 
4.090000000003807, -0.9763491005432842 
4.100000000003783, -0.9776843682570602 
4.11000000000376, -0.9793562593837946 
4.120000000003737, -0.9812319818016982 
4.130000000003713, -0.9832143346073993 
4.14000000000369, -0.9852263760670569 
4.150000000003667, -0.9872061315266342 
4.1600000000036434, -0.9891197777539871 
4.17000000000362, -0.9909710740147311 
4.180000000003597, -0.9927871022650594 
4.1900000000035735, -0.994580725433632 
4.20000000000355, -0.9963079560079106 
4.210000000003527, -0.9978485288132944 
4.220000000003504, -0.9990365193995668 
4.23000000000348, -0.999736331084599 
4.240000000003457, -0.9999121458645097 
4.250000000003434, -0.9996467348610782 
4.26000000000341, -0.999125611846855 
4.270000000003387, -0.9986160472708606 
4.280000000003364, -0.9984220261733554 
4.2900000000033405, -0.9987835810809189 
4.300000000003317, -0.9997698404361429 
4.310000000003294, -1.0012729422805697 
4.320000000003271, -1.0031104223131897 
4.330000000003247, -1.0051254192747678 
4.340000000003224, -1.0072118220034436 
4.350000000003201, -1.009292942717631 
4.360000000003177, -1.011309033652813 
4.370000000003154, -1.0132273306922444 
4.380000000003131, -1.0150510223248763 
4.390000000003107, -1.016805032685288 
4.400000000003084, -1.0184990784981307 
4.410000000003061, -1.02008761123032 
4.4200000000030375, -1.0214552962512524 
4.430000000003014, -1.0224513416485066 
4.440000000002991, -1.0229624181148205 
4.450000000002968, -1.0229738001390614 
4.460000000002944, -1.0225836538916133 
4.470000000002921, -1.0219875092095234 
4.480000000002898, -1.0214507467081135 
4.490000000002874, -1.0212454862868647 
4.500000000002851, -1.0215446842224372 
4.510000000002828, -1.022351330408333 
4.520000000002804, -1.0235413214311806 
4.530000000002781, -1.0249694285886028 
4.540000000002758, -1.0265287461713428 
4.5500000000027345, -1.028139085329441 
4.560000000002711, -1.0297209447099798 
4.570000000002688, -1.0312001966420339 
4.580000000002665, -1.032533868519463 
4.590000000002641, -1.0337234654125924 
4.600000000002618, -1.03479858136594 
4.610000000002595, -1.0357788825461136 
4.620000000002571, -1.0366376094765553 
4.630000000002548, -1.0372917464668487 
4.640000000002525, -1.0376329647736042 
4.6500000000025015, -1.0375862447662692 
4.660000000002478, -1.037158726278156 
4.670000000002455, -1.0364543227767702 
4.6800000000024315, -1.035657908941739 
4.690000000002408, -1.0349893653860154 
4.700000000002385, -1.034624583655196 
4.710000000002362, -1.034626740801538 
4.720000000002338, -1.0349547779028798 
4.730000000002315, -1.0355361626640334 
4.740000000002292, -1.036316296674955 
4.750000000002268, -1.0372424504254867 
4.760000000002245, -1.0382281516133696 
4.770000000002222, -1.0391566452148793 
4.7800000000021985, -1.0399231412363443 
4.790000000002175, -1.0404751496380458 
4.800000000002152, -1.0408221033413672 
4.810000000002129, -1.041010998445667 
4.820000000002105, -1.0410834052677806 
4.830000000002082, -1.0410395673660413 
4.840000000002059, -1.0408312622990992 
4.850000000002035, -1.0403893229923746 
4.860000000002012, -1.03967119569459 
4.870000000001989, -1.0387003714118865 
4.880000000001965, -1.0375763467991086 
4.890000000001942, -1.0364488122302111 
4.900000000001919, -1.0354620258498042 
4.9100000000018955, -1.0347014657949776 
4.920000000001872, -1.03419042046901 
4.930000000001849, -1.0339351306774416 
