t, s[1].omega / s[0].omega 
0, -0.8200221694594401 
0.009999999999999995, -0.8223483161399108 
0.019999999999999934, -0.8247820708187454 
0.029999999999999874, -0.8270746306056495 
0.04000000000000012, -0.8289390817844552 
0.050000000000000405, -0.8301793692691708 
0.06000000000000069, -0.830762225186995 
0.07000000000000098, -0.8307946448751362 
0.08000000000000126, -0.8304792348287663 
0.09000000000000155, -0.8301209301420981 
0.10000000000000184, -0.8301876701880356 
0.11000000000000212, -0.8313553350445428 
0.12000000000000241, -0.8344213274580385 
0.130000000000002, -0.8400325187670002 
0.1400000000000009, -0.8483815899731223 
0.1499999999999998, -0.8591462527865827 
0.1599999999999987, -0.8717342135427891 
0.1699999999999976, -0.8856094519687483 
0.1799999999999965, -0.9004789549527299 
0.1899999999999954, -0.9163005842415662 
0.1999999999999943, -0.9331597418246025 
0.2099999999999932, -0.9510239553371154 
0.2199999999999921, -0.9693645556727957 
0.229999999999991, -0.9868334673532113 
0.2399999999999899, -1.001550292883985 
0.2499999999999888, -1.0121940478660574 
0.2599999999999877, -1.0187934817882929 
0.2699999999999866, -1.022315726463484 
0.2799999999999855, -1.0238264391795844 
0.2899999999999844, -1.0240948095630187 
0.2999999999999833, -1.0236470895377336 
0.3099999999999822, -1.023042924659024 
0.3199999999999811, -1.0232601203053304 
0.32999999999998, -1.0259099511386212 
0.3399999999999789, -1.0326479069647871 
0.3499999999999778, -1.0438032491228821 
0.35999999999997667, -1.0578892024708348 
0.36999999999997557, -1.0728187313711341 
0.37999999999997447, -1.0871915573312794 
0.38999999999997337, -1.100509763502437 
0.39999999999997227, -1.1127944409244857 
0.40999999999997117, -1.124200318907678 
0.41999999999997006, -1.134769391966588 
0.42999999999996896, -1.1442942688245696 
0.43999999999996786, -1.1523307213018008 
0.44999999999996676, -1.158431532918803 
0.45999999999996566, -1.1624637106842954 
0.46999999999996456, -1.1646914625998606 
0.47999999999996346, -1.1655821400219792 
0.48999999999996235, -1.165610614384653 
0.49999999999996125, -1.165235698064622 
0.5099999999999602, -1.1649773597016362 
0.519999999999959, -1.165381570344271 
0.529999999999958, -1.1667484000422848 
0.5399999999999568, -1.1689130065150597 
0.5499999999999557, -1.1714338259444264 
0.5599999999999546, -1.1739442857983646 
0.5699999999999535, -1.1762740836056806 
0.5799999999999524, -1.178363667628253 
0.5899999999999513, -1.1801738424349018 
0.5999999999999502, -1.1816720235389213 
0.6099999999999491, -1.182852415305974 
0.619999999999948, -1.1837365311492292 
0.6299999999999469, -1.184346467324927 
0.6399999999999458, -1.1846747248257319 
0.6499999999999447, -1.1846774173731904 
0.6599999999999436, -1.184300805825738 
0.6699999999999425, -1.183525674204877 
0.6799999999999414, -1.1824000584645717 
0.6899999999999403, -1.18103797788132 
0.6999999999999392, -1.179575900963323 
0.7099999999999381, -1.1781101744228821 
0.719999999999937, -1.1766869515723024 
0.7299999999999359, -1.1753795605252422 
0.7399999999999348, -1.1743522677649412 
0.7499999999999337, -1.1737731159017026 
0.7599999999999326, -1.1736266054244406 
0.7699999999999315, -1.1736585054988942 
0.7799999999999304, -1.1735088694354987 
0.7899999999999293, -1.1728424370255925 
0.7999999999999282, -1.1713884658756426 
0.8099999999999271, -1.168968488621951 
0.819999999999926, -1.1655525409542404 
0.8299999999999249, -1.1612727486723737 
0.8399999999999238, -1.1563355362980565 
0.8499999999999227, -1.1508981855493858 
0.8599999999999216, -1.1450074069184182 
0.8699999999999205, -1.1386115747834964 
0.8799999999999194, -1.1316072501106116 
0.8899999999999183, -1.123911970464458 
0.8999999999999172, -1.1156094038526772 
0.9099999999999161, -1.1071908260937777 
0.919999999999915, -1.099703588140106 
0.9299999999999139, -1.094358187938031 
0.9399999999999128, -1.0916072779285304 
0.9499999999999117, -1.0907734986047959 
0.9599999999999106, -1.09072770321472 
0.9699999999999095, -1.0905825820676585 
0.9799999999999084, -1.0897482184568226 
0.9899999999999073, -1.087659148209628 
0.9999999999999062, -1.0835269611234581 
1.0099999999999052, -1.0763187177399653 
1.019999999999904, -1.0651714999748958 
1.029999999999903, -1.0501251618061405 
1.039999999999902, -1.03233945878612 
1.0499999999999008, -1.0133364919722418 
1.0599999999998997, -0.9941554408401482 
1.0699999999998986, -0.9751919038739446 
1.0799999999998975, -0.9564992124408083 
1.0899999999998964, -0.9381565448935714 
1.0999999999998953, -0.9205683315059222 
1.1099999999998942, -0.9046210198435375 
1.119999999999893, -0.891521374783896 
1.129999999999892, -0.8822178226305402 
1.1399999999998909, -0.8767685230149164 
1.1499999999998898, -0.8742906834222017 
1.1599999999998887, -0.8735315054270008 
1.1699999999998876, -0.8734399411144083 
1.1799999999998865, -0.8733400806080812 
1.1899999999998854, -0.8728211244461054 
1.1999999999998843, -0.8715832659389162 
1.2099999999998832, -0.8693705000430091 
1.219999999999882, -0.8660313060702212 
1.229999999999881, -0.8616566722334588 
1.2399999999998799, -0.8566255403504319 
1.2499999999998788, -0.851438603798089 
1.2599999999998777, -0.8464815225823934 
1.2699999999998766, -0.8419264399056597 
1.2799999999998755, -0.8377810121961108 
1.2899999999998744, -0.8339803404748241 
1.2999999999998733, -0.8304575120319031 
1.3099999999998722, -0.8271802020453229 
1.319999999999871, -0.8241590286298743 
1.32999999999987, -0.8214389822778034 
1.3399999999998689, -0.819086447717288 
1.3499999999998678, -0.8171774882970915 
1.3599999999998666, -0.8157822344732113 
1.3699999999998655, -0.8149385920914209 
1.3799999999998644, -0.8146223383131836 
1.3899999999998633, -0.8147352675485127 
1.3999999999998622, -0.8151261820755028 
1.4099999999998611, -0.8156350251001451 
1.41999999999986, -0.8161370626591274 
1.429999999999859, -0.816571759234991 
1.4399999999998578, -0.8169506897933315 
1.4499999999998567, -0.8173406873450336 
1.4599999999998556, -0.817824675412051 
1.4699999999998545, -0.8184547749584539 
1.4799999999998534, -0.8192151317045553 
1.4899999999998523, -0.8200082787923242 
1.4999999999998512, -0.8206794340080881 
1.5099999999998501, -0.8210796069826337 
1.519999999999849, -0.8211331469561045 
1.529999999999848, -0.8208689476605622 
1.5399999999998468, -0.8204179353560125 
1.5499999999998457, -0.8200074163088203 
1.5599999999998446, -0.819957850213924 
1.5699999999998435, -0.82064961135811 
1.5799999999998424, -0.8224302775829079 
1.5899999999998413, -0.8254936152098769 
1.5999999999998402, -0.8298182967978665 
1.6099999999998391, -0.8352185902752607 
1.619999999999838, -0.8414621759630091 
1.629999999999837, -0.8483726112972617 
1.6399999999998358, -0.8558778079036374 
1.6499999999998347, -0.8640132527241493 
1.6599999999998336, -0.8728935906945475 
1.6699999999998325, -0.8826422336671517 
1.6799999999998314, -0.8932457491720488 
1.6899999999998303, -0.9043261962135295 
1.6999999999998292, -0.9149800535296853 
1.709999999999828, -0.9240148007895035 
1.719999999999827, -0.9306066045844281 
1.729999999999826, -0.9347186620549868 
1.7399999999998248, -0.9368620191858212 
1.7499999999998237, -0.9376394366222554 
1.7599999999998226, -0.9375295063221684 
1.7699999999998215, -0.9369431393266634 
1.7799999999998204, -0.9364662370132593 
1.7899999999998193, -0.9372229028975735 
1.7999999999998182, -0.9410940566440973 
1.809999999999817, -0.9501771382556953 
1.819999999999816, -0.9653452299577887 
1.8299999999998149, -0.9853345859171394 
1.8399999999998138, -1.0076613723376693 
1.8499999999998127, -1.0302318605849936 
1.8599999999998116, -1.0520144355740997 
1.8699999999998105, -1.0727652259978246 
1.8799999999998094, -1.092484230906235 
1.8899999999998083, -1.1109432343724603 
1.8999999999998072, -1.127413817159153 
1.909999999999806, -1.1408291297118012 
1.919999999999805, -1.1504537717892844 
1.9299999999998039, -1.1564387820463944 
1.9399999999998028, -1.1596227845619373 
1.9499999999998017, -1.160949432045471 
1.9599999999998006, -1.1611500741507053 
1.9699999999997995, -1.160792008427824 
1.9799999999997984, -1.1604946759617567 
1.9899999999997973, -1.1610423151277127 
1.9999999999997962, -1.163082936826816 
2.0099999999998173, -1.1665934366562307 
2.0199999999998384, -1.1708959167345678 
2.0299999999998595, -1.1752567093795308 
2.0399999999998806, -1.1792769479830436 
2.0499999999999017, -1.1828473510130277 
2.059999999999923, -1.185977460836464 
2.069999999999944, -1.1887022092023904 
2.079999999999965, -1.1910604111348988 
2.089999999999986, -1.193082984509609 
2.100000000000007, -1.1947685363987965 
2.1100000000000283, -1.1960658320414042 
2.1200000000000494, -1.19689008282035 
2.1300000000000705, -1.1971744545916823 
2.1400000000000916, -1.196923399712411 
2.1500000000001127, -1.1962347435399105 
2.160000000000134, -1.1952869029125786 
2.170000000000155, -1.1942885815675777 
2.180000000000176, -1.1933908398279909 
2.190000000000197, -1.192632675440089 
2.2000000000002182, -1.1920035129265047 
2.2100000000002393, -1.1915503774196163 
2.2200000000002604, -1.1913679823897592 
2.2300000000002815, -1.1914600267180189 
2.2400000000003026, -1.1916518929637494 
2.2500000000003237, -1.191661591131306 
2.260000000000345, -1.1912165198079605 
2.270000000000366, -1.1901145781790348 
2.280000000000387, -1.1882550597243178 
2.290000000000408, -1.1856593010271337 
2.3000000000004293, -1.1824440280317305 
2.3100000000004504, -1.1787416308950847 
2.3200000000004715, -1.1746272135834082 
2.3300000000004926, -1.1700985122146395 
2.3400000000005137, -1.1650965379950633 
2.3500000000005348, -1.1595368050272783 
2.360000000000556, -1.1533560533422391 
2.370000000000577, -1.1466290293978008 
2.380000000000598, -1.1397845672272642 
2.390000000000619, -1.1337401158034386 
2.4000000000006403, -1.1295333596231982 
2.4100000000006614, -1.1274925817533543 
2.4200000000006825, -1.126958088456028 
2.4300000000007036, -1.126924495540847 
2.4400000000007247, -1.1266101703170037 
2.450000000000746, -1.1254405152032052 
2.460000000000767, -1.1227690409217552 
2.470000000000788, -1.1176596978380835 
2.480000000000809, -1.1089593621016216 
2.49000000000083, -1.095865351511856 
2.5000000000008513, -1.0786641973445614 
2.5100000000008724, -1.0586865283551679 
2.5200000000008935, -1.037380419400867 
2.5300000000009146, -1.0155988152975488 
2.5400000000009357, -0.9936173550052864 
2.550000000000957, -0.9715314049558568 
2.560000000000978, -0.9497040588658777 
2.570000000000999, -0.9291193823858863 
2.58000000000102, -0.911393934537936 
2.5900000000010412, -0.8981432427679386 
2.6000000000010624, -0.8899619656347151 
2.6100000000010835, -0.8860134203364535 
2.6200000000011046, -0.8846846961546836 
2.6300000000011257, -0.884504215095974 
2.6400000000011468, -0.8845230813444903 
2.650000000001168, -0.8842069941582874 
2.660000000001189, -0.8832022468584213 
2.67000000000121, -0.8811814635939788 
2.680000000001231, -0.8778379365572546 
2.6900000000012523, -0.8730417733159868 
2.7000000000012734, -0.8670364963882771 
2.7100000000012945, -0.8604136536399476 
2.7200000000013156, -0.8538099169667162 
2.7300000000013367, -0.8476289566983697 
2.740000000001358, -0.8420006747081844 
2.750000000001379, -0.8368889111962213 
2.7600000000014, -0.8322051357480003 
2.770000000001421, -0.8278772486747255 
2.780000000001442, -0.8238778694632364 
2.7900000000014633, -0.8202278967897358 
2.8000000000014844, -0.8169893136502603 
2.8100000000015055, -0.8142531472664608 
2.8200000000015266, -0.81211759227401 
2.8300000000015477, -0.8106500636626037 
2.840000000001569, -0.8098432777975628 
2.85000000000159, -0.8095937694886791 
2.860000000001611, -0.8097232967100256 
2.870000000001632, -0.8100311949020517 
2.8800000000016532, -0.8103469375340315 
2.8900000000016743, -0.810564558790586 
2.9000000000016954, -0.8106578732296349 
2.9100000000017165, -0.8106752106724638 
2.9200000000017377, -0.8107089230190067 
2.9300000000017588, -0.8108472033204872 
2.94000000000178, -0.8111290780224639 
2.950000000001801, -0.8115191571812446 
2.960000000001822, -0.8119110980926505 
2.970000000001843, -0.8121660010061426 
2.9800000000018643, -0.8121744666857686 
2.9900000000018854, -0.8119076110876827 
3.0000000000019065, -0.8114344591737499 
3.0100000000019276, -0.8109183432541135 
3.0200000000019487, -0.8106091129584938 
3.03000000000197, -0.8108200569536084 
3.040000000001991, -0.8118650020501648 
3.050000000002012, -0.8139630019621563 
3.060000000002033, -0.81716794644811 
3.070000000002054, -0.8213783113735383 
3.0800000000020753, -0.8264167615316363 
3.0900000000020964, -0.8321200437257532 
3.1000000000021175, -0.8383954437941747 
3.1100000000021386, -0.8452401541859921 
3.1200000000021597, -0.8527351974122549 
3.130000000002181, -0.8610127838592107 
3.140000000002202, -0.8701738565623997 
3.150000000002223, -0.8801236831391828 
3.160000000002244, -0.8903528401445919 
3.1700000000022652, -0.8998745986365677 
3.1800000000022863, -0.9076051971061189 
3.1900000000023074, -0.91298520718397 
3.2000000000023285, -0.9161716926868388 
3.2100000000023496, -0.9176926901002742 
3.2200000000023707, -0.9180741927766876 
3.230000000002392, -0.9177300970505904 
3.240000000002413, -0.9170820254191824 
3.250000000002434, -0.9168500838566255 
3.260000000002455, -0.9184396633964612 
3.2700000000024763, -0.9240603187612108 
3.2800000000024974, -0.9359094581161154 
3.2900000000025185, -0.9545479736516986 
3.3000000000025396, -0.9782147422577298 
3.3100000000025607, -1.0041052825025574 
3.3200000000025818, -1.0300547046804829 
3.330000000002603, -1.0550690821137452 
3.340000000002624, -1.0789120373818755 
3.350000000002645, -1.101464953017168 
3.360000000002666, -1.1222049579838147 
3.3700000000026873, -1.1400325177992605 
3.3800000000027084, -1.1537512644034038 
3.3900000000027295, -1.1629497817691656 
3.4000000000027506, -1.168289029073191 
3.4100000000027717, -1.1709215946817513 
3.420000000002793, -1.1718642440112699 
3.430000000002814, -1.1718316314493444 
3.440000000002835, -1.171406478561764 
3.450000000002856, -1.1712924797761766 
3.460000000002877, -1.1723332849080406 
3.4700000000028983, -1.1750370004491433 
3.4800000000029194, -1.1790932745141 
3.4900000000029405, -1.1836722223173064 
3.5000000000029616, -1.1880937936901763 
3.5100000000029827, -1.1920675139122756 
3.520000000003004, -1.1955492229578786 
3.530000000003025, -1.198572305442591 
3.540000000003046, -1.2011806286472402 
3.550000000003067, -1.203415818559816 
3.5600000000030882, -1.2053016527361908 
3.5700000000031094, -1.206820288000986 
3.5800000000031305, -1.207906647217484 
3.5900000000031516, -1.2084806930159628 
3.6000000000031727, -1.2085036723542906 
3.6100000000031938, -1.2080200890426236 
3.620000000003215, -1.2071646200504416 
3.630000000003236, -1.2061340485778005 
3.640000000003257, -1.205116585405503 
3.650000000003278, -1.2042075773782164 
3.6600000000032993, -1.2034109498202565 
3.6700000000033204, -1.2027468219693478 
3.6800000000033415, -1.2023165437080034 
3.6900000000033626, -1.202204855397112 
3.7000000000033837, -1.2023269749915122 
3.710000000003405, -1.2024230504070963 
3.720000000003426, -1.2021826380395033 
3.730000000003447, -1.2013396049571599 
3.740000000003468, -1.1997095598100669 
3.750000000003489, -1.1972237089280517 
3.7600000000035103, -1.1939450233320055 
3.7700000000035314, -1.1900165206538658 
3.7800000000035525, -1.185564968604911 
3.7900000000035736, -1.1806359415557155 
3.8000000000035947, -1.1751886277322654 
3.810000000003616, -1.1691238908203498 
3.820000000003637, -1.1623296878832445 
3.830000000003658, -1.1547848221861625 
3.840000000003679, -1.146786034410304 
3.8500000000037002, -1.1392109227187723 
3.8600000000037213, -1.133367085349999 
3.8700000000037424, -1.1300866959890077 
3.8800000000037635, -1.1289729298925109 
3.8900000000037847, -1.128881784822689 
3.9000000000038058, -1.1288044813211529 
3.910000000003827, -1.128074738185868 
3.920000000003848, -1.1260816034403744 
3.930000000003869, -1.121927457961005 
3.94000000000389, -1.1142590604948928 
3.9500000000039113, -1.1015813911876071 
3.9600000000039324, -1.0832455880660077 
3.9700000000039535, -1.060261101923312 
3.9800000000039746, -1.034683801468389 
3.9900000000039957, -1.0082516135663984 
4.000000000004016, -0.9818174748977866 
4.010000000003993, -0.9556758779937192 
4.02000000000397, -0.930136579443845 
4.030000000003946, -0.9059901679152146 
4.040000000003923, -0.8846621830588333 
4.0500000000039, -0.8678044094156745 
4.0600000000038765, -0.8563853979673329 
4.070000000003853, -0.8500244534609083 
4.08000000000383, -0.8472708976982786 
4.090000000003807, -0.8464782550297066 
4.100000000003783, -0.8464184410917026 
4.11000000000376, -0.8463630374649032 
4.120000000003737, -0.8458952592903668 
4.130000000003713, -0.8447192065449155 
4.14000000000369, -0.8425757582784312 
4.150000000003667, -0.8392939766428341 
4.1600000000036434, -0.834936128805265 
4.17000000000362, -0.8298710466590495 
4.180000000003597, -0.8246255256922261 
4.1900000000035735, -0.8196286514982674 
4.20000000000355, -0.8150845958961274 
4.210000000003527, -0.8110120128774401 
4.220000000003504, -0.807340763888196 
4.23000000000348, -0.8039897882752527 
4.240000000003457, -0.8009100885665374 
4.250000000003434, -0.7980977704415018 
4.26000000000341, -0.7955864349971219 
4.270000000003387, -0.793430878932244 
4.280000000003364, -0.791691930929684 
4.2900000000033405, -0.7904240370527771 
4.300000000003317, -0.7896604471949665 
4.310000000003294, -0.7893943185949113 
4.320000000003271, -0.7895651983613998 
4.330000000003247, -0.7900646291026665 
4.340000000003224, -0.7907636616053463 
4.350000000003201, -0.7915502348321534 
4.360000000003177, -0.7923606355025992 
4.370000000003154, -0.7931941894063811 
4.380000000003131, -0.7941050134549578 
4.390000000003107, -0.7951709202549926 
4.400000000003084, -0.7964485560904949 
4.410000000003061, -0.797927542641654 
4.4200000000030375, -0.7994987796538283 
4.430000000003014, -0.8009633020024316 
4.440000000002991, -0.8021017607506868 
4.450000000002968, -0.8027705028052002 
4.460000000002944, -0.8029531466462657 
4.470000000002921, -0.8027508994913266 
4.480000000002898, -0.8023637113483231 
4.490000000002874, -0.8021060369464215 
4.500000000002851, -0.8024438611851631 
4.510000000002828, -0.8039873393141737 
4.520000000002804, -0.8073675981554469 
4.530000000002781, -0.8130149520995656 
4.540000000002758, -0.8209899296219803 
4.5500000000027345, -0.8310164499309026 
4.560000000002711, -0.8426877331549314 
4.570000000002688, -0.8556832299036546 
4.580000000002665, -0.869881579899 
4.590000000002641, -0.8853557630191995 
4.600000000002618, -0.9022604124983046 
4.610000000002595, -0.9205758827539577 
4.620000000002571, -0.9396790386343106 
4.630000000002548, -0.957983455403637 
4.640000000002525, -0.9733344604319918 
4.6500000000025015, -0.9843090403467857 
4.660000000002478, -0.9910263367650263 
4.670000000002455, -0.9945744101254415 
4.6800000000024315, -0.9960802645427578 
4.690000000002408, -0.9963242384224685 
4.700000000002385, -0.9958165229078562 
4.710000000002362, -0.9950911245458837 
4.720000000002338, -0.9951546181098365 
4.730000000002315, -0.9978994510216852 
4.740000000002292, -1.005729243994269 
4.750000000002268, -1.019844163584847 
4.760000000002245, -1.0388479383512226 
4.770000000002222, -1.0598095423061271 
4.7800000000021985, -1.0803609853792475 
4.790000000002175, -1.0994730664690207 
4.800000000002152, -1.117025661070009 
4.810000000002129, -1.1331799269792946 
4.820000000002105, -1.1479465602650563 
4.830000000002082, -1.160972912571224 
4.840000000002059, -1.171621921033607 
4.850000000002035, -1.1793886732220995 
4.860000000002012, -1.1843165378346225 
4.870000000001989, -1.186960491256808 
4.880000000001965, -1.1880234903051041 
4.890000000001942, -1.1881100573848624 
4.900000000001919, -1.1877431996049093 
4.9100000000018955, -1.1875024693917946 
4.920000000001872, -1.1880181988872 
4.930000000001849, -1.1896481926332845 
