t, s[1].omega / s[0].omega 
0, -1.2001002099920985 
0.009999999999999995, -1.2093658072151636 
0.019999999999999934, -1.216923334250026 
0.029999999999999874, -1.222498054899124 
0.04000000000000012, -1.2260791296748421 
0.050000000000000405, -1.227972312410579 
0.06000000000000069, -1.2286340403369322 
0.07000000000000098, -1.2285229151981931 
0.08000000000000126, -1.2280956113884152 
0.09000000000000155, -1.2278436197031688 
0.10000000000000184, -1.2281722548797798 
0.11000000000000212, -1.2291559040547237 
0.12000000000000241, -1.2305322665835623 
0.130000000000002, -1.2319934085391586 
0.1400000000000009, -1.2333851845776518 
0.1499999999999998, -1.2346568771964004 
0.1599999999999987, -1.235742475208096 
0.1699999999999976, -1.2365360569035682 
0.1799999999999965, -1.236944278787809 
0.1899999999999954, -1.2369300160563892 
0.1999999999999943, -1.2365126638778403 
0.2099999999999932, -1.2357355980811724 
0.2199999999999921, -1.2346270144203964 
0.229999999999991, -1.2331816715483137 
0.2399999999999899, -1.2313736297041669 
0.2499999999999888, -1.2291850295009734 
0.2599999999999877, -1.2266220669589571 
0.2699999999999866, -1.2237018019934287 
0.2799999999999855, -1.2204422947351121 
0.2899999999999844, -1.2169328796756493 
0.2999999999999833, -1.2134901720431643 
0.3099999999999822, -1.2106938609684972 
0.3199999999999811, -1.2090353873970097 
0.32999999999998, -1.2084392268374038 
0.3399999999999789, -1.2083150652792445 
0.3499999999999778, -1.207994355352811 
0.35999999999997667, -1.20690617463478 
0.36999999999997557, -1.2044385291706161 
0.37999999999997447, -1.1997871742114723 
0.38999999999997337, -1.1920472511557434 
0.39999999999997227, -1.180640352372519 
0.40999999999997117, -1.1657271392599244 
0.41999999999997006, -1.1480376689621132 
0.42999999999996896, -1.128256397227942 
0.43999999999996786, -1.1066351502935299 
0.44999999999996676, -1.0830860783931509 
0.45999999999996566, -1.0576409389275898 
0.46999999999996456, -1.0311952351609768 
0.47999999999996346, -1.00620569700919 
0.48999999999996235, -0.9862478639212531 
0.49999999999996125, -0.9737476734718863 
0.5099999999999602, -0.9680748987082758 
0.519999999999959, -0.9665390321554586 
0.529999999999958, -0.966620983055382 
0.5399999999999568, -0.9668745756593629 
0.5499999999999557, -0.9666158986179656 
0.5599999999999546, -0.9653994783948073 
0.5699999999999535, -0.9626561265553158 
0.5799999999999524, -0.9575155433573018 
0.5899999999999513, -0.9489336194736205 
0.5999999999999502, -0.9363356019915597 
0.6099999999999491, -0.9204227735555625 
0.619999999999948, -0.9030338276555596 
0.6299999999999469, -0.8859746771005117 
0.6399999999999458, -0.8702026970124213 
0.6499999999999447, -0.855916933378505 
0.6599999999999436, -0.8429741896060727 
0.6699999999999425, -0.8311930889810354 
0.6799999999999414, -0.8205004048767369 
0.6899999999999403, -0.8109802906788397 
0.6999999999999392, -0.8028542374991817 
0.7099999999999381, -0.7963876277290298 
0.719999999999937, -0.7917384580866675 
0.7299999999999359, -0.7888252122630061 
0.7399999999999348, -0.7873115087830607 
0.7499999999999337, -0.7867205137572423 
0.7599999999999326, -0.786584961456335 
0.7699999999999315, -0.7865369106454514 
0.7799999999999304, -0.7863237630922899 
0.7899999999999293, -0.7857955805851625 
0.7999999999999282, -0.7849036490408181 
0.8099999999999271, -0.7837081535550813 
0.819999999999926, -0.782358799056239 
0.8299999999999249, -0.7810309873902143 
0.8399999999999238, -0.7798530764491716 
0.8499999999999227, -0.7788691906207109 
0.8599999999999216, -0.7780437212477243 
0.8699999999999205, -0.7772919609795471 
0.8799999999999194, -0.7765246692174733 
0.8899999999999183, -0.7756931135088315 
0.8999999999999172, -0.774817837600478 
0.9099999999999161, -0.7739941791394582 
0.919999999999915, -0.7733783502027893 
0.9299999999999139, -0.7731567936497893 
0.9399999999999128, -0.7735012247572076 
0.9499999999999117, -0.7745234473755812 
0.9599999999999106, -0.7762532700246376 
0.9699999999999095, -0.77865096675608 
0.9799999999999084, -0.7816422679920129 
0.9899999999999073, -0.7851546780821692 
0.9999999999999062, -0.7891440818700899 
1.0099999999999052, -0.7936126988716234 
1.019999999999904, -0.7986203372207227 
1.029999999999903, -0.8042829370814231 
1.039999999999902, -0.8107424811390137 
1.0499999999999008, -0.8180826295970138 
1.0599999999998997, -0.8261690472480667 
1.0699999999998986, -0.8344697674989104 
1.0799999999998975, -0.8420755233369921 
1.0899999999998964, -0.8481047787925583 
1.0999999999998953, -0.8521860183849947 
1.1099999999998942, -0.8545052062377738 
1.119999999999893, -0.8554896093276664 
1.129999999999892, -0.8555438540009155 
1.1399999999998909, -0.8550060362246107 
1.1499999999998898, -0.8542964545684246 
1.1599999999998887, -0.8542572097885781 
1.1699999999998876, -0.856675326696657 
1.1799999999998865, -0.8646658752335737 
1.1899999999998854, -0.8820097726166504 
1.1999999999998843, -0.9108638905570267 
1.2099999999998832, -0.9495873853218397 
1.219999999999882, -0.9935520370102822 
1.229999999999881, -1.0381976701354267 
1.2399999999998799, -1.0808817071645973 
1.2499999999998788, -1.120511830049899 
1.2599999999998777, -1.1563031794604919 
1.2699999999998766, -1.1868976068414474 
1.2799999999998755, -1.2105970324593414 
1.2899999999998744, -1.2266627177964704 
1.2999999999998733, -1.23611958929139 
1.3099999999998722, -1.2409850456615839 
1.319999999999871, -1.2430869865661227 
1.32999999999987, -1.2436273964562883 
1.3399999999998689, -1.2433624327786545 
1.3499999999998678, -1.242970714861984 
1.3599999999998666, -1.2432919771719235 
1.3699999999998655, -1.2450524354064192 
1.3799999999998644, -1.2482247073704886 
1.3899999999998633, -1.2520488436051296 
1.3999999999998622, -1.255769542718903 
1.4099999999998611, -1.2590444622661816 
1.41999999999986, -1.2618210061625925 
1.429999999999859, -1.2641237379811598 
1.4399999999998578, -1.2659734333559762 
1.4499999999998567, -1.2673934687639226 
1.4599999999998556, -1.268415381157125 
1.4699999999998545, -1.2690599786080476 
1.4799999999998534, -1.269316972826953 
1.4899999999998523, -1.2691488561303017 
1.4999999999998512, -1.2685228454131903 
1.5099999999998501, -1.2674500329468283 
1.519999999999849, -1.2660030013456118 
1.529999999999848, -1.2642911255967548 
1.5399999999998468, -1.262400417326826 
1.5499999999998457, -1.2603712397937792 
1.5599999999998446, -1.2582954955285275 
1.5699999999998435, -1.2564475415233516 
1.5799999999998424, -1.2551989939529666 
1.5899999999998413, -1.2546708193521126 
1.5999999999998402, -1.25454966843309 
1.6099999999998391, -1.2543071367698344 
1.619999999999838, -1.2534265551379706 
1.629999999999837, -1.2513889222086914 
1.6399999999998358, -1.2475982641520196 
1.6499999999998347, -1.2414664111696612 
1.6599999999998336, -1.2326726181827563 
1.6699999999998325, -1.2213233441666902 
1.6799999999998314, -1.2077547869957492 
1.6899999999998303, -1.1921597473880912 
1.6999999999998292, -1.174386997738846 
1.709999999999828, -1.15403139221882 
1.719999999999827, -1.1308697847254772 
1.729999999999826, -1.1057901506941783 
1.7399999999998248, -1.0818550482673188 
1.7499999999998237, -1.0636311566377274 
1.7599999999998226, -1.0536645312996575 
1.7699999999998215, -1.050304445717782 
1.7799999999998204, -1.0501021370519523 
1.7899999999998193, -1.050606907872744 
1.7999999999998182, -1.0506983035723612 
1.809999999999817, -1.0498270287510287 
1.819999999999816, -1.0473474456927785 
1.8299999999998149, -1.0420063724743422 
1.8399999999998138, -1.0315019313615603 
1.8499999999998127, -1.012620267094366 
1.8599999999998116, -0.9831588721656042 
1.8699999999998105, -0.9449897787741565 
1.8799999999998094, -0.9037501121332593 
1.8899999999998083, -0.8646156374867269 
1.8999999999998072, -0.8299047929283662 
1.909999999999806, -0.7998849712661892 
1.919999999999805, -0.7741459202183789 
1.9299999999998039, -0.752316533994252 
1.9399999999998028, -0.7342453398509293 
1.9499999999998017, -0.7199148984472556 
1.9599999999998006, -0.7092531191071816 
1.9699999999997995, -0.7019653440319266 
1.9799999999997984, -0.6974879898386788 
1.9899999999997973, -0.6950862551109397 
1.9999999999997962, -0.69402019944196 
2.0099999999998173, -0.6936751072158218 
2.0199999999998384, -0.6936076116407162 
2.0299999999998595, -0.693527614126151 
2.0399999999998806, -0.6932625762442333 
2.0499999999999017, -0.6927378975400776 
2.059999999999923, -0.6919764364477234 
2.069999999999944, -0.69109079001982 
2.079999999999965, -0.6902418148648399 
2.089999999999986, -0.6895746168891754 
2.100000000000007, -0.6891691111250922 
2.1100000000000283, -0.6890218308834017 
2.1200000000000494, -0.6890513509183875 
2.1300000000000705, -0.6891243191427445 
2.1400000000000916, -0.6891039929995255 
2.1500000000001127, -0.6889047897500136 
2.160000000000134, -0.6885254657982091 
2.170000000000155, -0.6880569429164234 
2.180000000000176, -0.6876857688891788 
2.190000000000197, -0.6877077061331374 
2.2000000000002182, -0.6885406596995952 
2.2100000000002393, -0.6907079687842904 
2.2200000000002604, -0.6947695653445726 
2.2300000000002815, -0.7012151194006822 
2.2400000000003026, -0.7103763863883098 
2.2500000000003237, -0.722420176457449 
2.260000000000345, -0.7374358828337225 
2.270000000000366, -0.7555758487385387 
2.280000000000387, -0.7771841619451063 
2.290000000000408, -0.8028396378814191 
2.3000000000004293, -0.83317393137566 
2.3100000000004504, -0.8681813176019032 
2.3200000000004715, -0.9058455423699281 
2.3300000000004926, -0.9412427112298932 
2.3400000000005137, -0.9687947074248123 
2.3500000000005348, -0.9864588415216939 
2.360000000000556, -0.9961658063532353 
2.370000000000577, -1.0009091695291423 
2.380000000000598, -1.0028660610165938 
2.390000000000619, -1.0032257480225617 
2.4000000000006403, -1.0025812805457224 
2.4100000000006614, -1.0013928580728437 
2.4200000000006825, -1.0006545713462232 
2.4300000000007036, -1.002969776589407 
2.4400000000007247, -1.0132233701005016 
2.450000000000746, -1.0361778929535255 
2.460000000000767, -1.0710890349351083 
2.470000000000788, -1.111059259506687 
2.480000000000809, -1.1491875944541632 
2.49000000000083, -1.1824737794712337 
2.5000000000008513, -1.210766237977929 
2.5100000000008724, -1.234713524663355 
2.5200000000008935, -1.2546698780115473 
2.5300000000009146, -1.270492002386782 
2.5400000000009357, -1.2819486337675865 
2.550000000000957, -1.2892960753708889 
2.560000000000978, -1.2933833599594566 
2.570000000000999, -1.2952454943236766 
2.58000000000102, -1.295737406120491 
2.5900000000010412, -1.2954985593656236 
2.6000000000010624, -1.2951161372218813 
2.6100000000010835, -1.2951899825775102 
2.6200000000011046, -1.2960710354822225 
2.6300000000011257, -1.2975916250414508 
2.6400000000011468, -1.299304661534789 
2.650000000001168, -1.3009054711946357 
2.660000000001189, -1.302309861468804 
2.67000000000121, -1.3034876575514844 
2.680000000001231, -1.3043546428620947 
2.6900000000012523, -1.3048015650699776 
2.7000000000012734, -1.3047574554906345 
2.7100000000012945, -1.3042121591670488 
2.7200000000013156, -1.3031966358464566 
2.7300000000013367, -1.3017434928206697 
2.740000000001358, -1.2998562459450644 
2.750000000001379, -1.2975059879719721 
2.7600000000014, -1.2946475353853257 
2.770000000001421, -1.2912276936757225 
2.780000000001442, -1.287175722099764 
2.7900000000014633, -1.2824371246994481 
2.8000000000014844, -1.2771665497069207 
2.8100000000015055, -1.272040811613277 
2.8200000000015266, -1.2681950223423573 
2.8300000000015477, -1.266311222800035 
2.840000000001569, -1.265892615252847 
2.85000000000159, -1.2658663586222392 
2.860000000001611, -1.2653521598812287 
2.870000000001632, -1.2636060986067168 
2.8800000000016532, -1.2595038646643115 
2.8900000000016743, -1.2509092557002515 
2.9000000000016954, -1.2342494870988072 
2.9100000000017165, -1.2053290390502602 
2.9200000000017377, -1.1621325732229313 
2.9300000000017588, -1.1069741305117347 
2.94000000000178, -1.0447344353639458 
2.950000000001801, -0.979905464093237 
2.960000000001822, -0.9160644620633216 
2.970000000001843, -0.8568667078378951 
2.9800000000018643, -0.8063191341999737 
2.9900000000018854, -0.7675799108987659 
3.0000000000019065, -0.7414240164619775 
3.0100000000019276, -0.7260314039661685 
3.0200000000019487, -0.7182222240318362 
3.03000000000197, -0.7149070590931638 
3.040000000001991, -0.7138391880577896 
3.050000000002012, -0.7136635737652475 
3.060000000002033, -0.7136511529380858 
3.070000000002054, -0.7134167558765616 
3.0800000000020753, -0.7127329162715953 
3.0900000000020964, -0.7114524739448731 
3.1000000000021175, -0.7095228769456927 
3.1100000000021386, -0.7070435097347476 
3.1200000000021597, -0.7042736302410069 
3.130000000002181, -0.7015336134148722 
3.140000000002202, -0.6990691113347419 
3.150000000002223, -0.696986387117508 
3.160000000002244, -0.6952710562662087 
3.1700000000022652, -0.6938385775716414 
3.1800000000022863, -0.6925840114998655 
3.1900000000023074, -0.6914248502974261 
3.2000000000023285, -0.6903323143138833 
3.2100000000023496, -0.6893448925822636 
3.2200000000023707, -0.6885644925107445 
3.230000000002392, -0.6881398028539564 
3.240000000002413, -0.6882397831936183 
3.250000000002434, -0.6890210795539762 
3.260000000002455, -0.6905990661062427 
3.2700000000024763, -0.6930349519881355 
3.2800000000024974, -0.6963449005766313 
3.2900000000025185, -0.7005266224455184 
3.3000000000025396, -0.7055939285263911 
3.3100000000025607, -0.7116121348997405 
3.3200000000025818, -0.7187308602955436 
3.330000000002603, -0.7272091102276214 
3.340000000002624, -0.7374151896963084 
3.350000000002645, -0.7497509110342869 
3.360000000002666, -0.764395177070463 
3.3700000000026873, -0.7807893531305619 
3.3800000000027084, -0.7971879967807581 
3.3900000000027295, -0.8111765303106561 
3.4000000000027506, -0.8212001216445619 
3.4100000000027717, -0.8273363374193197 
3.420000000002793, -0.8305813487996513 
3.430000000002814, -0.8319279310252267 
3.440000000002835, -0.832018573882427 
3.450000000002856, -0.8311889966600307 
3.460000000002877, -0.8296706813332039 
3.4700000000028983, -0.8280352544968723 
3.4800000000029194, -0.8283830159618548 
3.4900000000029405, -0.8373282677455205 
3.5000000000029616, -0.8713340475018123 
3.5100000000029827, -0.957449457524578 
3.520000000003004, -1.1051252446607875 
3.530000000003025, -1.267083488815698 
3.540000000003046, -1.3906523252692111 
3.550000000003067, -1.4705551644555386 
3.5600000000030882, -1.520641791370139 
3.5700000000031094, -1.5518885688643407 
3.5800000000031305, -1.5707326220608668 
3.5900000000031516, -1.5813119714018122 
3.6000000000031727, -1.5866632275985189 
3.6100000000031938, -1.5889392974005014 
3.620000000003215, -1.589497508372134 
3.630000000003236, -1.5891795789795318 
3.640000000003257, -1.5886102105388091 
3.650000000003278, -1.5881959040615832 
3.6600000000032993, -1.5879167010708948 
3.6700000000033204, -1.5875456506474173 
3.6800000000033415, -1.587124719540592 
3.6900000000033626, -1.5869140985682504 
3.7000000000033837, -1.5868794426043002 
3.710000000003405, -1.5865478015916572 
3.720000000003426, -1.5852451782045909 
3.730000000003447, -1.5820315699472307 
3.740000000003468, -1.5753201151139025 
3.750000000003489, -1.5625227132125592 
3.7600000000035103, -1.5399348239837256 
3.7700000000035314, -1.5025446071241029 
3.7800000000035525, -1.4428384699430392 
3.7900000000035736, -1.3489471865840104 
3.8000000000035947, -1.2090621172810847 
3.810000000003616, -1.0374199737834486 
3.820000000003637, -0.8908088962625627 
3.830000000003658, -0.8065589933834231 
3.840000000003679, -0.7710139078807734 
3.8500000000037002, -0.7594818264965687 
3.8600000000037213, -0.7571110957305998 
3.8700000000037424, -0.7574779628962126 
3.8800000000037635, -0.7582422245185396 
3.8900000000037847, -0.7586325467457512 
3.9000000000038058, -0.7583567474126058 
3.910000000003827, -0.7571759967752992 
3.920000000003848, -0.754752265696566 
3.930000000003869, -0.7506655295230675 
3.94000000000389, -0.744639506715725 
3.9500000000039113, -0.7369097382120848 
3.9600000000039324, -0.7283373868104138 
3.9700000000039535, -0.7199773222225041 
3.9800000000039746, -0.7125312372158518 
3.9900000000039957, -0.7062110962234278 
4.000000000004016, -0.700922824699784 
4.010000000003993, -0.6964698369994853 
4.02000000000397, -0.6926668270212256 
4.030000000003946, -0.6893841489384047 
4.040000000003923, -0.6865556456947243 
4.0500000000039, -0.6841675975904052 
4.0600000000038765, -0.6822389936413169 
4.070000000003853, -0.680800885370242 
4.08000000000383, -0.6798796554198887 
4.090000000003807, -0.6794856221206653 
4.100000000003783, -0.6796066274367754 
4.11000000000376, -0.6802069178298413 
4.120000000003737, -0.6812329952160333 
4.130000000003713, -0.6826276331362637 
4.14000000000369, -0.6843504073439421 
4.150000000003667, -0.686399632891308 
4.1600000000036434, -0.6888283407898625 
4.17000000000362, -0.69174679591732 
4.180000000003597, -0.6953050691137068 
4.1900000000035735, -0.6996458245446759 
4.20000000000355, -0.7048089176922858 
4.210000000003527, -0.7105870580976397 
4.220000000003504, -0.7164290775887655 
4.23000000000348, -0.721582100831325 
4.240000000003457, -0.7254687303483162 
4.250000000003434, -0.7279391341254874 
4.26000000000341, -0.7291763449505333 
4.270000000003387, -0.7294616546820473 
4.280000000003364, -0.7290413304339685 
4.2900000000033405, -0.7281486794752446 
4.300000000003317, -0.7271971757936184 
4.310000000003294, -0.727288342871016 
4.320000000003271, -0.7314104680302418 
4.330000000003247, -0.7468945732323571 
4.340000000003224, -0.7888635164213912 
4.350000000003201, -0.8789773434737962 
4.360000000003177, -1.0238747277972018 
4.370000000003154, -1.1866833383955249 
4.380000000003131, -1.3202881443396026 
4.390000000003107, -1.412860053283911 
4.400000000003084, -1.4733947834757761 
4.410000000003061, -1.511699551237457 
4.4200000000030375, -1.5346005030998269 
4.430000000003014, -1.5471784942912108 
4.440000000002991, -1.5534072500627594 
4.450000000002968, -1.556057676362797 
4.460000000002944, -1.5567888915204107 
4.470000000002921, -1.556564950279231 
4.480000000002898, -1.5560843130916446 
4.490000000002874, -1.5558629061301434 
4.500000000002851, -1.5559629131459745 
4.510000000002828, -1.556086003264296 
4.520000000002804, -1.5560966176012312 
4.530000000002781, -1.5561415109612038 
4.540000000002758, -1.556258823074451 
4.5500000000027345, -1.5561396302829325 
4.560000000002711, -1.5552775684952977 
4.570000000002688, -1.5530468754756257 
4.580000000002665, -1.548593330645468 
4.590000000002641, -1.5407775932713146 
4.600000000002618, -1.5282352632711116 
4.610000000002595, -1.5092753727952104 
4.620000000002571, -1.4812209039813546 
4.630000000002548, -1.4391249314507002 
4.640000000002525, -1.3749450479800855 
4.6500000000025015, -1.2830486571436608 
4.660000000002478, -1.1810448924707293 
4.670000000002455, -1.1110295578887452 
4.6800000000024315, -1.0853975053412186 
4.690000000002408, -1.0825256024807244 
4.700000000002385, -1.0851026765413967 
4.710000000002362, -1.0873682640116986 
4.720000000002338, -1.08831821157516 
4.730000000002315, -1.087832888214106 
4.740000000002292, -1.0853928933981187 
4.750000000002268, -1.0791711734694558 
4.760000000002245, -1.0638512520446022 
4.770000000002222, -1.0244758938928245 
4.7800000000021985, -0.9248046466280275 
4.790000000002175, -0.7245844713556794 
4.800000000002152, -0.48895708922203074 
4.810000000002129, -0.33257437355791464 
4.820000000002105, -0.2540065867612262 
4.830000000002082, -0.21540713673874143 
4.840000000002059, -0.19513598261943946 
4.850000000002035, -0.18364517060118823 
4.860000000002012, -0.17670058501818536 
4.870000000001989, -0.1723025243682918 
4.880000000001965, -0.16944677254434842 
4.890000000001942, -0.1676151863696389 
4.900000000001919, -0.16655800268556722 
4.9100000000018955, -0.16620402873232695 
4.920000000001872, -0.1666412116415639 
4.930000000001849, -0.1681589748970359 
