t, s[1].omega / s[0].omega 
0, -1.419830609660999 
0.009999999999999995, -1.4000565446696844 
0.019999999999999934, -1.3733358818862196 
0.029999999999999874, -1.3366971807335588 
0.04000000000000012, -1.286844007049108 
0.050000000000000405, -1.2255196757660578 
0.06000000000000069, -1.1679008495206726 
0.07000000000000098, -1.1335291138539594 
0.08000000000000126, -1.1227471155638313 
0.09000000000000155, -1.122682503793007 
0.10000000000000184, -1.1246614982268066 
0.11000000000000212, -1.1259353471290416 
0.12000000000000241, -1.1259634861730714 
0.130000000000002, -1.1243568371390826 
0.1400000000000009, -1.1198614386638224 
0.1499999999999998, -1.1087641574290266 
0.1599999999999987, -1.0804770093635248 
0.1699999999999976, -1.0071437278330142 
0.1799999999999965, -0.8418067675392342 
0.1899999999999954, -0.6007271336279502 
0.1999999999999943, -0.4074918908579835 
0.2099999999999932, -0.30266849015295094 
0.2199999999999921, -0.25082780265071214 
0.229999999999991, -0.22399308623799458 
0.2399999999999899, -0.2090321569919184 
0.2499999999999888, -0.20011114496733295 
0.2599999999999877, -0.19450984214432757 
0.2699999999999866, -0.19087772085573967 
0.2799999999999855, -0.1885151900931851 
0.2899999999999844, -0.18706524847424008 
0.2999999999999833, -0.1863789449984648 
0.3099999999999822, -0.18646579522067175 
0.3199999999999811, -0.1875012489768592 
0.32999999999998, -0.18989762164432403 
0.3399999999999789, -0.1944840606887887 
0.3499999999999778, -0.20292201586937497 
0.35999999999997667, -0.21869137042583361 
0.36999999999997557, -0.2495533322229227 
0.37999999999997447, -0.3138146218825707 
0.38999999999997337, -0.4537940468201522 
0.39999999999997227, -0.7379896757599748 
0.40999999999997117, -1.1458618491482886 
0.41999999999997006, -1.4782160865071243 
0.42999999999996896, -1.6525126059326225 
0.43999999999996786, -1.72779707568927 
0.44999999999996676, -1.7581113508398765 
0.45999999999996566, -1.7699144685897263 
0.46999999999996456, -1.7742557773543406 
0.47999999999996346, -1.7754813571121972 
0.48999999999996235, -1.7753623427108927 
0.49999999999996125, -1.7748602682874566 
0.5099999999999602, -1.774553867297642 
0.519999999999959, -1.7743761861774883 
0.529999999999958, -1.7739868078161785 
0.5399999999999568, -1.7735030117314046 
0.5499999999999557, -1.773281029236509 
0.5599999999999546, -1.7731267337723704 
0.5699999999999535, -1.7722814232775566 
0.5799999999999524, -1.7695767332687429 
0.5899999999999513, -1.7625175876529031 
0.5999999999999502, -1.7446655409446397 
0.6099999999999491, -1.6995703322726352 
0.619999999999948, -1.5890278863462166 
0.6299999999999469, -1.346817728999754 
0.6399999999999458, -0.9557625811201781 
0.6499999999999447, -0.5873282283122003 
0.6599999999999436, -0.3758192978036304 
0.6699999999999425, -0.2766048398809608 
0.6799999999999414, -0.22992183923061432 
0.6899999999999403, -0.20650789163992855 
0.6999999999999392, -0.1939804946446783 
0.7099999999999381, -0.18695264924112417 
0.719999999999937, -0.1829295174153871 
0.7299999999999359, -0.18068905482231526 
0.7399999999999348, -0.1796166283391887 
0.7499999999999337, -0.17941896868372315 
0.7599999999999326, -0.18000250455578293 
0.7699999999999315, -0.1814352612987306 
0.7799999999999304, -0.1839680237061494 
0.7899999999999293, -0.18812575968127138 
0.7999999999999282, -0.194926670434058 
0.8099999999999271, -0.20638931392317636 
0.819999999999926, -0.22675900826513878 
0.8299999999999249, -0.2655888804816057 
0.8399999999999238, -0.34498638317238794 
0.8499999999999227, -0.5078500386338927 
0.8599999999999216, -0.7729192946157264 
0.8699999999999205, -1.017919382402655 
0.8799999999999194, -1.1427684630541508 
0.8899999999999183, -1.1903790804943768 
0.8999999999999172, -1.2077421409928264 
0.9099999999999161, -1.2141853237750067 
0.919999999999915, -1.2163490094693732 
0.9299999999999139, -1.216488982088992 
0.9399999999999128, -1.2154132589324287 
0.9499999999999117, -1.2138183767357353 
0.9599999999999106, -1.2137801725914987 
0.9699999999999095, -1.2200733554091008 
0.9799999999999084, -1.2370267430608457 
0.9899999999999073, -1.2617546638973969 
0.9999999999999062, -1.2867194297140307 
1.0099999999999052, -1.3075654232973561 
1.019999999999904, -1.3238963461550566 
1.029999999999903, -1.3366941219405606 
1.039999999999902, -1.3468919130707955 
1.0499999999999008, -1.3550420653736914 
1.0599999999998997, -1.3613682258443591 
1.0699999999998986, -1.3659340918773575 
1.0799999999998975, -1.3688371694894548 
1.0899999999998964, -1.3703128537782774 
1.0999999999998953, -1.3707009419968537 
1.1099999999998942, -1.3703750103627745 
1.119999999999893, -1.3697208988985743 
1.129999999999892, -1.369090048864113 
1.1399999999998909, -1.3686506266561587 
1.1499999999998898, -1.368333355609878 
1.1599999999998887, -1.3680413071747712 
1.1699999999998876, -1.3678419161032391 
1.1799999999998865, -1.3678505398442409 
1.1899999999998854, -1.367977016076829 
1.1999999999998843, -1.367900497996495 
1.2099999999998832, -1.3672272369898708 
1.219999999999882, -1.365569286637145 
1.229999999999881, -1.3625564837709827 
1.2399999999998799, -1.357897344573407 
1.2499999999998788, -1.3514485852260016 
1.2599999999998777, -1.3431628661332442 
1.2699999999998766, -1.3329066525089162 
1.2799999999998755, -1.3202680679269665 
1.2899999999998744, -1.3044558195774274 
1.2999999999998733, -1.2844567305689136 
1.3099999999998722, -1.2599888256150806 
1.319999999999871, -1.2338005113039643 
1.32999999999987, -1.2127939665893492 
1.3399999999998689, -1.2022962658966987 
1.3499999999998678, -1.2000749786440053 
1.3599999999998666, -1.200890189847441 
1.3699999999998655, -1.2017457763753918 
1.3799999999998644, -1.2016324558661478 
1.3899999999998633, -1.199938796426459 
1.3999999999998622, -1.1952524477917492 
1.4099999999998611, -1.1835476396066118 
1.41999999999986, -1.1534584705294217 
1.429999999999859, -1.076078381041748 
1.4399999999998578, -0.9072055836059862 
1.4499999999998567, -0.669343499580749 
1.4599999999998556, -0.47750674798986353 
1.4699999999998545, -0.3687312259597502 
1.4799999999998534, -0.31221245178217955 
1.4899999999998523, -0.2817667570416199 
1.4999999999998512, -0.2642815355691631 
1.5099999999998501, -0.2536263023416542 
1.519999999999849, -0.24683000329512428 
1.529999999999848, -0.24237271298169313 
1.5399999999998468, -0.23944405068499597 
1.5499999999998457, -0.23760988498956043 
1.5599999999998446, -0.23665762933208484 
1.5699999999998435, -0.23652737023336096 
1.5799999999998424, -0.23729262046099148 
1.5899999999998413, -0.2391812992027519 
1.5999999999998402, -0.24264678575423843 
1.6099999999998391, -0.24852471645659482 
1.619999999999838, -0.25836307739521763 
1.629999999999837, -0.27513388829821295 
1.6399999999998358, -0.3048223777349095 
1.6499999999998347, -0.3599861686886633 
1.6599999999998336, -0.46666547589588897 
1.6699999999998325, -0.6682996326546786 
1.6799999999998314, -0.9803915723317269 
1.6899999999998303, -1.2879017217808295 
1.6999999999998292, -1.4665376342673624 
1.709999999999828, -1.5403625223525732 
1.719999999999827, -1.567384138158345 
1.729999999999826, -1.5770933224536137 
1.7399999999998248, -1.5804176916986774 
1.7499999999998237, -1.5811732227112272 
1.7599999999998226, -1.5808711949362722 
1.7699999999998215, -1.580554675885171 
1.7799999999998204, -1.581168072341205 
1.7899999999998193, -1.5827975036311202 
1.7999999999998182, -1.5846373978094899 
1.809999999999817, -1.5861030508484721 
1.819999999999816, -1.587159394872073 
1.8299999999998149, -1.5878704992953065 
1.8399999999998138, -1.5881080283024915 
1.8499999999998127, -1.5876131793584818 
1.8599999999998116, -1.5861002781611595 
1.8699999999998105, -1.5832806565830237 
1.8799999999998094, -1.5788562382771023 
1.8899999999998083, -1.5724550203266756 
1.8999999999998072, -1.563444798042964 
1.909999999999806, -1.5505807384077144 
1.919999999999805, -1.5314700192224509 
1.9299999999998039, -1.5023691303013285 
1.9399999999998028, -1.461497060733219 
1.9499999999998017, -1.4202000007750843 
1.9599999999998006, -1.3993935028294453 
1.9699999999997995, -1.3975999587261418 
1.9799999999997984, -1.4005896549954795 
1.9899999999997973, -1.4025272054307751 
1.9999999999997962, -1.4026811981003768 
2.0099999999998173, -1.400674195498521 
2.0199999999998384, -1.3943981845381417 
2.0299999999998595, -1.3758173375129632 
2.0399999999998806, -1.3132834860266014 
2.0499999999999017, -1.0753336074392938 
2.059999999999923, 0.11435234051313001 
2.069999999999944, 1.8012393167816825 
2.079999999999965, 1.8810545840560438 
2.089999999999986, 1.8888507877933005 
2.100000000000007, 1.8894574417671808 
2.1100000000000283, 1.886151088132625 
2.1200000000000494, 1.8667982897243582 
2.1300000000000705, 1.631234722812339 
2.1400000000000916, 1.0520942686766206 
2.1500000000001127, 1.2208780675248634 
2.160000000000134, 1.2589050475096353 
2.170000000000155, 1.2672512349043585 
2.180000000000176, 1.26924477244068 
2.190000000000197, 1.269067152762074 
2.2000000000002182, 1.2677927075742423 
2.2100000000002393, 1.2666233669606484 
2.2200000000002604, 1.2691549860475928 
2.2300000000002815, 1.2790428993474385 
2.2400000000003026, 1.2911356754844026 
2.2500000000003237, 1.298923779446589 
2.260000000000345, 1.3024692538542548 
2.270000000000366, 1.3034860896970886 
2.280000000000387, 1.3026161471552828 
2.290000000000408, 1.2984248342963969 
2.3000000000004293, 1.2799722154163284 
2.3100000000004504, 1.0994654765987761 
2.3200000000004715, -2.198569540578139 
2.3300000000004926, -3.00260055224365 
2.3400000000005137, -3.0408962416660037 
2.3500000000005348, -3.045931060478883 
2.360000000000556, -3.0461002904644725 
2.370000000000577, -3.0447735038896213 
2.380000000000598, -3.0415437008225923 
2.390000000000619, -3.0351213266865704 
2.4000000000006403, -3.0329964946066443 
2.4100000000006614, -3.0343605602806187 
2.4200000000006825, -3.032957027508042 
2.4300000000007036, -3.027919408503427 
2.4400000000007247, -3.034209957990949 
2.450000000000746, -3.0463597017476043 
2.460000000000767, -3.050469498317343 
2.470000000000788, -3.051349002303761 
2.480000000000809, -3.0502471797859476 
2.49000000000083, -3.04467959988403 
2.5000000000008513, -3.0174788745621415 
2.5100000000008724, -2.7384002362066484 
2.5200000000008935, 0.3466186026423749 
2.5300000000009146, 1.0020343310859152 
2.5400000000009357, 1.0499277152710496 
2.550000000000957, 1.059167535894458 
2.560000000000978, 1.0616660544260408 
2.570000000000999, 1.0621959725473675 
2.58000000000102, 1.0619257030434184 
2.5900000000010412, 1.0612524240191532 
2.6000000000010624, 1.0603792789946804 
2.6100000000010835, 1.059477632623946 
2.6200000000011046, 1.0587144743184331 
2.6300000000011257, 1.0581990471605385 
2.6400000000011468, 1.0579146718106425 
2.650000000001168, 1.0577062340114318 
2.660000000001189, 1.0572975925895656 
2.67000000000121, 1.0562029209855057 
2.680000000001231, 1.0531920967255424 
2.6900000000012523, 1.0435069055002795 
2.7000000000012734, 0.9960637596244905 
2.7100000000012945, 0.37579013029398955 
2.7200000000013156, -2.7142174191179502 
2.7300000000013367, -3.0140591604961346 
2.740000000001358, -3.043124630962891 
2.750000000001379, -3.0485946033232603 
2.7600000000014, -3.0491003507851655 
2.770000000001421, -3.047428749729857 
2.780000000001442, -3.042538832729197 
2.7900000000014633, -3.0279863386286463 
2.8000000000014844, -3.013352486576321 
2.8100000000015055, -3.0187737078980814 
2.8200000000015266, -3.020688582115211 
2.8300000000015477, -3.0192287095007226 
2.840000000001569, -3.0188094390622497 
2.85000000000159, -3.0230525527190117 
2.860000000001611, -3.0254694056706746 
2.870000000001632, -3.025976552214135 
2.8800000000016532, -3.0253382144553322 
2.8900000000016743, -3.0212673912066186 
2.9000000000016954, -2.9965090168483934 
2.9100000000017165, -2.590196501855967 
2.9200000000017377, 1.1064824607719026 
2.9300000000017588, 1.40778537473095 
2.94000000000178, 1.4294587781029684 
2.950000000001801, 1.433366010286052 
2.960000000001822, 1.4335462137080204 
2.970000000001843, 1.4313322452535924 
2.9800000000018643, 1.4247271618205146 
2.9900000000018854, 1.4078190091747467 
3.0000000000019065, 1.3795084336727395 
3.0100000000019276, 1.365334281487833 
3.0200000000019487, 1.3676766285963438 
3.03000000000197, 1.3709349567561089 
3.040000000001991, 1.372084383417334 
3.050000000002012, 1.3712237925267394 
3.060000000002033, 1.367246450938399 
3.070000000002054, 1.3552550591387549 
3.0800000000020753, 1.332675187002499 
3.0900000000020964, 1.4029616167163423 
3.1000000000021175, 1.5008899082621538 
3.1100000000021386, 1.526120428383415 
3.1200000000021597, 1.531910011690386 
3.130000000002181, 1.53277238093616 
3.140000000002202, 1.5306542524529168 
3.150000000002223, 1.5205058762645531 
3.160000000002244, 1.441967480072981 
3.1700000000022652, -0.23462612410843803 
3.1800000000022863, -2.1287475620535234 
3.1900000000023074, -2.2824050822929243 
3.2000000000023285, -2.3019275141801883 
3.2100000000023496, -2.305571713522765 
3.2200000000023707, -2.305797949071841 
3.230000000002392, -2.305343677254087 
3.240000000002413, -2.3054238221019285 
3.250000000002434, -2.3055410673953984 
3.260000000002455, -2.3051089933399114 
3.2700000000024763, -2.3047265676745505 
3.2800000000024974, -2.304429479883808 
3.2900000000025185, -2.3028417943379473 
3.3000000000025396, -2.2963307987612582 
3.3100000000025607, -2.265318223832862 
3.3200000000025818, -2.011367006775399 
3.330000000002603, 0.07620003082404325 
3.340000000002624, 0.9409002564285756 
3.350000000002645, 1.011288384711491 
3.360000000002666, 1.023953204832433 
3.3700000000026873, 1.0272140973555057 
3.3800000000027084, 1.0276042589383505 
3.3900000000027295, 1.0262548074156421 
3.4000000000027506, 1.0228401393641309 
3.4100000000027717, 1.0163468805072091 
3.420000000002793, 1.0063249938689482 
3.430000000002814, 0.9954112199577265 
3.440000000002835, 0.9882139900183461 
3.450000000002856, 0.9856274472855382 
3.460000000002877, 0.9853471363659173 
3.4700000000028983, 0.9854967588675105 
3.4800000000029194, 0.9851674522900062 
3.4900000000029405, 0.9835943541222086 
3.5000000000029616, 0.978848310833837 
3.5100000000029827, 0.9626894663310732 
3.520000000003004, 0.8760493793243734 
3.530000000003025, -0.2073524577564047 
3.540000000003046, -3.0909927450414143 
3.550000000003067, -3.268840876787686 
3.5600000000030882, -3.2865112758513026 
3.5700000000031094, -3.2899124775774737 
3.5800000000031305, -3.2895745687107736 
3.5900000000031516, -3.2861707222742615 
3.6000000000031727, -3.2729740918478356 
3.6100000000031938, -3.196074352281069 
3.620000000003215, -3.134582464927724 
3.630000000003236, -3.1666137313085727 
3.640000000003257, -3.1710070745518775 
3.650000000003278, -3.1706836614494427 
3.6600000000032993, -3.1704878053984515 
3.6700000000033204, -3.1708483914729504 
3.6800000000033415, -3.170244310821789 
3.6900000000033626, -3.1698046315881894 
3.7000000000033837, -3.1684696689826812 
3.710000000003405, -3.1591543854055457 
3.720000000003426, -3.0706944965784926 
3.730000000003447, -3.29254415389621 
3.740000000003468, -3.459743776225868 
3.750000000003489, -3.4755021188391098 
3.7600000000035103, -3.478142739318449 
3.7700000000035314, -3.4772900941612788 
3.7800000000035525, -3.472098382317264 
3.7900000000035736, -3.4453908334237062 
3.8000000000035947, -2.999868560310367 
3.810000000003616, -1.158914093295179 
3.820000000003637, -1.1352177554819367 
3.830000000003658, -1.218067608883635 
3.840000000003679, -1.2535366454180272 
3.8500000000037002, -1.2666137358123382 
3.8600000000037213, -1.2713431756917593 
3.8700000000037424, -1.2725825169386027 
3.8800000000037635, -1.2716959505486132 
3.8900000000037847, -1.2684149874654014 
3.9000000000038058, -1.261172636352548 
3.910000000003827, -1.2490030283188487 
3.920000000003848, -1.2500790338232703 
3.930000000003869, -1.3607019528905675 
3.94000000000389, -1.631993818576002 
3.9500000000039113, -1.8253869564594178 
3.9600000000039324, -1.9042990009214673 
3.9700000000039535, -1.9373060131893276 
3.9800000000039746, -1.9530401789740484 
3.9900000000039957, -1.9610570268717589 
4.000000000004016, -1.9649997655511982 
4.010000000003993, -1.9665369326809337 
4.02000000000397, -1.9665404959164778 
4.030000000003946, -1.96548810897588 
4.040000000003923, -1.9635647467075539 
4.0500000000039, -1.9605073392842314 
4.0600000000038765, -1.955814956097408 
4.070000000003853, -1.9504760392094653 
4.08000000000383, -1.9478058854687572 
4.090000000003807, -1.9480062111062544 
4.100000000003783, -1.9481451316512064 
4.11000000000376, -1.946283775852082 
4.120000000003737, -1.9387785276783265 
4.130000000003713, -1.9082205424034808 
4.14000000000369, -1.7827133749412396 
4.150000000003667, -1.999086403551067 
4.1600000000036434, -2.9593409180916614 
4.17000000000362, -3.064984393227495 
4.180000000003597, -3.080217498293709 
4.1900000000035735, -3.0837775279106188 
4.20000000000355, -3.083849549519801 
4.210000000003527, -3.08131620995383 
4.220000000003504, -3.0730011703861058 
4.23000000000348, -3.034836944073908 
4.240000000003457, -2.867067753318316 
4.250000000003434, -2.8827228842949353 
4.26000000000341, -2.9051252012943727 
4.270000000003387, -2.90808828963165 
4.280000000003364, -2.9076307822840337 
4.2900000000033405, -2.9075347368913853 
4.300000000003317, -2.9082934173867714 
4.310000000003294, -2.9081599758886254 
4.320000000003271, -2.907801621846153 
4.330000000003247, -2.9070674693756575 
4.340000000003224, -2.9026316965323007 
4.350000000003201, -2.870557834969692 
4.360000000003177, -2.386437961872026 
4.370000000003154, -4.157756196229478 
4.380000000003131, -4.523033635982041 
4.390000000003107, -4.531563042356966 
4.400000000003084, -4.531009103415629 
4.410000000003061, -4.522609385083369 
4.4200000000030375, -4.2823509330465805 
4.430000000003014, 1.7990058055093663 
4.440000000002991, 2.043916342356964 
4.450000000002968, 2.055723581799117 
4.460000000002944, 2.057282240912756 
4.470000000002921, 2.0571842013621136 
4.480000000002898, 2.0564416769218687 
4.490000000002874, 2.0548288957003775 
4.500000000002851, 2.052506420410797 
4.510000000002828, 2.050941612716409 
4.520000000002804, 2.050586317330853 
4.530000000002781, 2.0498330460365155 
4.540000000002758, 2.045570797783656 
4.5500000000027345, 2.0196465778308377 
4.560000000002711, 1.944459135630422 
4.570000000002688, 2.223172220725133 
4.580000000002665, 2.2610287651112246 
4.590000000002641, 2.2653244372455643 
4.600000000002618, 2.26455340186964 
4.610000000002595, 2.2560589653695025 
4.620000000002571, 2.0925111708763984 
4.630000000002548, -3.5792998436638777 
4.640000000002525, -3.8087814413241645 
4.6500000000025015, -3.8173503882440785 
4.660000000002478, -3.8173501424757355 
4.670000000002455, -3.8149480711319277 
4.6800000000024315, -3.8060572738557084 
4.690000000002408, -3.798121483077481 
4.700000000002385, -3.8023088378507075 
4.710000000002362, -3.801803738444975 
4.720000000002338, -3.80103586596447 
4.730000000002315, -3.8033380316862297 
4.740000000002292, -3.8036811524102716 
4.750000000002268, -3.803151473660961 
4.760000000002245, -3.799103589670581 
4.770000000002222, -3.742752670838173 
4.7800000000021985, -3.881788121797508 
4.790000000002175, -4.153877760770511 
4.800000000002152, -4.16527139252555 
4.810000000002129, -4.165866590344266 
4.820000000002105, -4.161814315758959 
4.830000000002082, -4.127891552794852 
4.840000000002059, -1.0417493995344274 
4.850000000002035, 1.9113223414425586 
4.860000000002012, 1.9546066623452667 
4.870000000001989, 1.9591890790042794 
4.880000000001965, 1.9597430155647189 
4.890000000001942, 1.9592626742427157 
4.900000000001919, 1.9579465338247641 
4.9100000000018955, 1.9555525223357695 
4.920000000001872, 1.9529178123922306 
4.930000000001849, 1.951711709913441 
4.940000000001826, 1.9515206095493958 
4.950000000001802, 1.9504745408067923 
4.960000000001779, 1.9449854439755143 
