t, s[1].omega / s[0].omega 
0, -1.3600450727476168 
0.009999999999999995, -1.3639984350999135 
0.019999999999999934, -1.3668553411775481 
0.029999999999999874, -1.3686264463675806 
0.04000000000000012, -1.3693975854418057 
0.050000000000000405, -1.3693483479051947 
0.06000000000000069, -1.3687284513374653 
0.07000000000000098, -1.367824145771003 
0.08000000000000126, -1.366874634028283 
0.09000000000000155, -1.3659571906146288 
0.10000000000000184, -1.3650280823290941 
0.11000000000000212, -1.3641387740496698 
0.12000000000000241, -1.3635120654169388 
0.130000000000002, -1.363287346295167 
0.1400000000000009, -1.3632608942970572 
0.1499999999999998, -1.3629840893560736 
0.1599999999999987, -1.3619612401850514 
0.1699999999999976, -1.3596588521012318 
0.1799999999999965, -1.3554619268690389 
0.1899999999999954, -1.3487701977075734 
0.1999999999999943, -1.339191082375569 
0.2099999999999932, -1.3265654118486814 
0.2199999999999921, -1.3106964451997556 
0.229999999999991, -1.2909905185241168 
0.2399999999999899, -1.2662977358501926 
0.2499999999999888, -1.2353235346435931 
0.2599999999999877, -1.1984424647561407 
0.2699999999999866, -1.1610399892979117 
0.2799999999999855, -1.1331310486542565 
0.2899999999999844, -1.11995958401573 
0.2999999999999833, -1.1170805862231536 
0.3099999999999822, -1.1178922656922055 
0.3199999999999811, -1.1189527905669439 
0.32999999999998, -1.1191679073048404 
0.3399999999999789, -1.1180612662072364 
0.3499999999999778, -1.1147362371942278 
0.35999999999997667, -1.1068196303185405 
0.36999999999997557, -1.0883297340132279 
0.37999999999997447, -1.046004870753157 
0.38999999999997337, -0.9602181782719548 
0.39999999999997227, -0.8291893636106767 
0.40999999999997117, -0.6926849173574007 
0.41999999999997006, -0.5887333995264765 
0.42999999999996896, -0.5207854785952174 
0.43999999999996786, -0.477857741379749 
0.44999999999996676, -0.4502774385228979 
0.45999999999996566, -0.4320302001797396 
0.46999999999996456, -0.41963550320591725 
0.47999999999996346, -0.4110676168916821 
0.48999999999996235, -0.40511279361106095 
0.49999999999996125, -0.40101881791015836 
0.5099999999999602, -0.3983048172285847 
0.519999999999959, -0.3966564845950615 
0.529999999999958, -0.3958679799453821 
0.5399999999999568, -0.39581073585094695 
0.5499999999999557, -0.39641929233090833 
0.5599999999999546, -0.3976898699355874 
0.5699999999999535, -0.39969103730728217 
0.5799999999999524, -0.40258892376428895 
0.5899999999999513, -0.4066935407725724 
0.5999999999999502, -0.41254047599201893 
0.6099999999999491, -0.4210354225664351 
0.619999999999948, -0.4336982486772724 
0.6299999999999469, -0.45298507528001863 
0.6399999999999458, -0.48229417637725797 
0.6499999999999447, -0.5241533375828833 
0.6599999999999436, -0.5749316312261634 
0.6699999999999425, -0.6222357670412499 
0.6799999999999414, -0.6553451985939435 
0.6899999999999403, -0.6741104460140661 
0.6999999999999392, -0.6836149316042084 
0.7099999999999381, -0.6881051592103568 
0.719999999999937, -0.6898922271076862 
0.7299999999999359, -0.6899727824552772 
0.7399999999999348, -0.6885234576627867 
0.7499999999999337, -0.6849536877632456 
0.7599999999999326, -0.6773161557255939 
0.7699999999999315, -0.6600821908759306 
0.7799999999999304, -0.6162536953411009 
0.7899999999999293, -0.49121908837267547 
0.7999999999999282, -0.18043775645664425 
0.8099999999999271, 0.16575693288124954 
0.819999999999926, 0.310735513500738 
0.8299999999999249, 0.3556315467875854 
0.8399999999999238, 0.3711872865075617 
0.8499999999999227, 0.3773344316641192 
0.8599999999999216, 0.3798228751840909 
0.8699999999999205, 0.38056593080307083 
0.8799999999999194, 0.3802913308557866 
0.8899999999999183, 0.3793402437630408 
0.8999999999999172, 0.3779626348381856 
0.9099999999999161, 0.376427589091141 
0.919999999999915, 0.37502689662877964 
0.9299999999999139, 0.37402571992440664 
0.9399999999999128, 0.3736215522598152 
0.9499999999999117, 0.37393315520288845 
0.9599999999999106, 0.37499031245143033 
0.9699999999999095, 0.37669592342573216 
0.9799999999999084, 0.3787879546238383 
0.9899999999999073, 0.3808755494831889 
0.9999999999999062, 0.38256656811182055 
1.0099999999999052, 0.3835801212477944 
1.019999999999904, 0.383730486346504 
1.029999999999903, 0.38277190004753525 
1.039999999999902, 0.38009453392502524 
1.0499999999999008, 0.3740281345531865 
1.0599999999998997, 0.35976336195696595 
1.0699999999998986, 0.32254805651419916 
1.0799999999998975, 0.22184180143752735 
1.0899999999998964, 0.02443765399840595 
1.0999999999998953, -0.14916461598877143 
1.1099999999998942, -0.2247992938670298 
1.119999999999893, -0.2518014295250646 
1.129999999999892, -0.2623051410464878 
1.1399999999998909, -0.26696726049253794 
1.1499999999998898, -0.2692003182056348 
1.1599999999998887, -0.27020600917693965 
1.1699999999998876, -0.2704431962069369 
1.1799999999998865, -0.27008959301188057 
1.1899999999998854, -0.26922084450865913 
1.1999999999998843, -0.26791217400075296 
1.2099999999998832, -0.266309134065835 
1.219999999999882, -0.2646476609254842 
1.229999999999881, -0.263203964050989 
1.2399999999998799, -0.26221590236457776 
1.2499999999998788, -0.26184645105850246 
1.2599999999998777, -0.26220298672183706 
1.2699999999998766, -0.2633642254085279 
1.2799999999998755, -0.2653613660528499 
1.2899999999998744, -0.268096751833917 
1.2999999999998733, -0.2712580516124889 
1.3099999999998722, -0.2743547734826508 
1.319999999999871, -0.2769146246022996 
1.32999999999987, -0.2786665781668152 
1.3399999999998689, -0.279543760753588 
1.3499999999998678, -0.27955070554076256 
1.3599999999998666, -0.2786070384924645 
1.3699999999998655, -0.27637602309038795 
1.3799999999998644, -0.2719612843137965 
1.3899999999998633, -0.2632068248607551 
1.3999999999998622, -0.2452052886246306 
1.4099999999998611, -0.20877897386075764 
1.41999999999986, -0.1464599774932312 
1.429999999999859, -0.07249347564047938 
1.4399999999998578, -0.015551861031400913 
1.4499999999998567, 0.01685848540225304 
1.4599999999998556, 0.03332329767498142 
1.4699999999998545, 0.041668455980060255 
1.4799999999998534, 0.04594164283953843 
1.4899999999998523, 0.04805748230346637 
1.4999999999998512, 0.04894000093067782 
1.5099999999998501, 0.04908339892620983 
1.519999999999849, 0.04880443416833817 
1.529999999999848, 0.04834577820057715 
1.5399999999998468, 0.04790901134686689 
1.5499999999998457, 0.047669250102089264 
1.5599999999998446, 0.04780901878107042 
1.5699999999998435, 0.04859904076679122 
1.5799999999998424, 0.05056858516266059 
1.5899999999998413, 0.05485807542654948 
1.5999999999998402, 0.0638448749252949 
1.6099999999998391, 0.08152181867489569 
1.619999999999838, 0.11085291404904882 
1.629999999999837, 0.14660263874563448 
1.6399999999998358, 0.1767812162510282 
1.6499999999998347, 0.19587002495488487 
1.6599999999998336, 0.20622392198031014 
1.6699999999998325, 0.2114604021542256 
1.6799999999998314, 0.21387509774123997 
1.6899999999998303, 0.21460704862020913 
1.6999999999998292, 0.21414544772685318 
1.709999999999828, 0.2126681640671683 
1.719999999999827, 0.21027245632557082 
1.729999999999826, 0.20716282907348402 
1.7399999999998248, 0.20374577234736643 
1.7499999999998237, 0.20054032165019153 
1.7599999999998226, 0.19797127025995337 
1.7699999999998215, 0.1962503816619124 
1.7799999999998204, 0.19541973224034812 
1.7899999999998193, 0.19545192872986988 
1.7999999999998182, 0.19630046237508553 
1.809999999999817, 0.19787291311637487 
1.819999999999816, 0.19996230094038953 
1.8299999999998149, 0.20221832379694163 
1.8399999999998138, 0.2042264359875338 
1.8499999999998127, 0.2056442398788425 
1.8599999999998116, 0.20625906475066183 
1.8699999999998105, 0.20590957492794343 
1.8799999999998094, 0.2043121757969033 
1.8899999999998083, 0.200799398220398 
1.8999999999998072, 0.19386980236426787 
1.909999999999806, 0.1804494521859109 
1.919999999999805, 0.15558609762311854 
1.9299999999998039, 0.11633061469237008 
1.9399999999998028, 0.0713843894715897 
1.9499999999998017, 0.03678465249510292 
1.9599999999998006, 0.017133442772458932 
1.9699999999997995, 0.007374047429213526 
1.9799999999997984, 0.0025796052406132043 
1.9899999999997973, 0.0001445218405312435 
1.9999999999997962, -0.0007063469768146247 
2.0099999999998173, -0.000854289116417152 
2.0199999999998384, -0.0005953000773772853 
2.0299999999998595, -0.00009867244674088857 
2.0399999999998806, 0.00011284069742598054 
2.0499999999999017, 0.0001265850903678987 
2.059999999999923, -0.00002152943212320431 
2.069999999999944, -0.0005411684478392995 
2.079999999999965, -0.002060361629206441 
2.089999999999986, -0.005213145872658594 
2.100000000000007, -0.011192978976051824 
2.1100000000000283, -0.022260343201662036 
2.1200000000000494, -0.04216292749969887 
2.1300000000000705, -0.07462168062220836 
2.1400000000000916, -0.11698892037928735 
2.1500000000001127, -0.15672550736743796 
2.160000000000134, -0.18376542442796678 
2.170000000000155, -0.19879013888342772 
2.180000000000176, -0.20647801378829098 
2.190000000000197, -0.21028275751838527 
2.2000000000002182, -0.2119985699830908 
2.2100000000002393, -0.21244273351161 
2.2200000000002604, -0.21194304657195664 
2.2300000000002815, -0.2105970674745362 
2.2400000000003026, -0.2084384644436393 
2.2500000000003237, -0.2055852761005829 
2.260000000000345, -0.20234290529964066 
2.270000000000366, -0.1991666431868961 
2.280000000000387, -0.19648513589154765 
2.290000000000408, -0.1945525450279852 
2.3000000000004293, -0.19344952886781946 
2.3100000000004504, -0.19317196002890802 
2.3200000000004715, -0.1936977100498472 
2.3300000000004926, -0.1949836456828039 
2.3400000000005137, -0.19690298353007013 
2.3500000000005348, -0.199183391418014 
2.360000000000556, -0.20143599475832447 
2.370000000000577, -0.203289826492338 
2.380000000000598, -0.20451181880625618 
2.390000000000619, -0.20500406438655525 
2.4000000000006403, -0.20470153365014382 
2.4100000000006614, -0.20343292122522033 
2.4200000000006825, -0.2007333821645263 
2.4300000000007036, -0.19549837538060094 
2.4400000000007247, -0.18529375163562023 
2.450000000000746, -0.16544038567551245 
2.460000000000767, -0.1301871940364525 
2.470000000000788, -0.08114504388612034 
2.480000000000809, -0.03364234044433021 
2.49000000000083, -0.0006356139573699118 
2.5000000000008513, 0.017931720062321632 
2.5100000000008724, 0.027806183062318347 
2.5200000000008935, 0.032982471384458305 
2.5300000000009146, 0.03560973712909027 
2.5400000000009357, 0.03676646283785574 
2.550000000000957, 0.037016665431847 
2.560000000000978, 0.036704357306673804 
2.570000000000999, 0.0360920043106245 
2.58000000000102, 0.0354084223124477 
2.5900000000010412, 0.034853349473375976 
2.6000000000010624, 0.03460409362010985 
2.6100000000010835, 0.03485692801737357 
2.6200000000011046, 0.03592436111708702 
2.6300000000011257, 0.038424924739351926 
2.6400000000011468, 0.04362984799328281 
2.650000000001168, 0.05390774547487357 
2.660000000001189, 0.07237236949517165 
2.67000000000121, 0.09949119686388554 
2.680000000001231, 0.12877504445690113 
2.6900000000012523, 0.15169058046041 
2.7000000000012734, 0.16590265977847124 
2.7100000000012945, 0.17369468879632288 
2.7200000000013156, 0.17766265920996618 
2.7300000000013367, 0.1794082588292923 
2.740000000001358, 0.17972865177215863 
2.750000000001379, 0.17896513564667396 
2.7600000000014, 0.17725589405936865 
2.770000000001421, 0.17473228820276065 
2.780000000001442, 0.17166788103977812 
2.7900000000014633, 0.16850346211886777 
2.8000000000014844, 0.16570905655833515 
2.8100000000015055, 0.163613126093416 
2.8200000000015266, 0.1623594247229787 
2.8300000000015477, 0.16198347877731006 
2.840000000001569, 0.16249745813233898 
2.85000000000159, 0.1639078669383923 
2.860000000001611, 0.1661504759430907 
2.870000000001632, 0.1689855122588662 
2.8800000000016532, 0.17196782222101173 
2.8900000000016743, 0.17458307597206155 
2.9000000000016954, 0.17644980579282163 
2.9100000000017165, 0.17738640933856534 
2.9200000000017377, 0.17730354001872417 
2.9300000000017588, 0.1760221967081258 
2.94000000000178, 0.17306787821955533 
2.950000000001801, 0.1674078674252426 
2.960000000001822, 0.1571807814094905 
2.970000000001843, 0.14002819781239229 
2.9800000000018643, 0.11554740860835319 
2.9900000000018854, 0.0888006901405686 
3.0000000000019065, 0.06733254486286348 
3.0100000000019276, 0.053832246344135304 
3.0200000000019487, 0.046372366764833486 
3.03000000000197, 0.0424197352290995 
3.040000000001991, 0.04035928204506829 
3.050000000002012, 0.039355318846706386 
3.060000000002033, 0.03899119271209327 
3.070000000002054, 0.03903309713706382 
3.0800000000020753, 0.03930050916702972 
3.0900000000020964, 0.03960266141381909 
3.1000000000021175, 0.03972064591983928 
3.1100000000021386, 0.03941040221365039 
3.1200000000021597, 0.03838469619989878 
3.130000000002181, 0.036228432949393194 
3.140000000002202, 0.03220011161331317 
3.150000000002223, 0.02484288085408424 
3.160000000002244, 0.011339946884358808 
3.1700000000022652, -0.012691501792571041 
3.1800000000022863, -0.050960773862968434 
3.1900000000023074, -0.09813253998007114 
3.2000000000023285, -0.13861848620545272 
3.2100000000023496, -0.16398106522093628 
3.2200000000023707, -0.1773513103436951 
3.230000000002392, -0.18401480189052347 
3.240000000002413, -0.18725865931525482 
3.250000000002434, -0.18867474973955062 
3.260000000002455, -0.18896707376676086 
3.2700000000024763, -0.18842119735684607 
3.2800000000024974, -0.1871438149980692 
3.2900000000025185, -0.18521480840362428 
3.3000000000025396, -0.18280468465267047 
3.3100000000025607, -0.1802235555777785 
3.3200000000025818, -0.17785229007430148 
3.330000000002603, -0.1760084742496971 
3.340000000002624, -0.17487520055637568 
3.350000000002645, -0.17453490801500432 
3.360000000002666, -0.17503976002191676 
3.3700000000026873, -0.17644202456014524 
3.3800000000027084, -0.17874773743100833 
3.3900000000027295, -0.18180445226472017 
3.4000000000027506, -0.18521791700164134 
3.4100000000027717, -0.18843879416832277 
3.420000000002793, -0.19099892509975533 
3.430000000002814, -0.19266840602694976 
3.440000000002835, -0.19340622518014733 
3.450000000002856, -0.19320160471093933 
3.460000000002877, -0.1919128506699981 
3.4700000000028983, -0.1890965431019452 
3.4800000000029194, -0.1837571835231002 
3.4900000000029405, -0.17402763346454253 
3.5000000000029616, -0.157296223293148 
3.5100000000029827, -0.1322997434604907 
3.520000000003004, -0.10294591818178252 
3.530000000003025, -0.07697477119222981 
3.540000000003046, -0.05872367616701096 
3.550000000003067, -0.04745922742851466 
3.5600000000030882, -0.040845802442955374 
3.5700000000031094, -0.03703329429718828 
3.5800000000031305, -0.0349119887571082 
3.5900000000031516, -0.03385773866369534 
3.6000000000031727, -0.033493271575333126 
3.6100000000031938, -0.03354363585347544 
3.620000000003215, -0.03377257973338048 
3.630000000003236, -0.03397321698538888 
3.640000000003257, -0.033973977480257364 
3.650000000003278, -0.03362278310730449 
3.6600000000032993, -0.03272861645755278 
3.6700000000033204, -0.03093651314623777 
3.6800000000033415, -0.027459120734472542 
3.6900000000033626, -0.020475021429011187 
3.7000000000033837, -0.005994518826975071 
3.710000000003405, 0.02230989919363881 
3.720000000003426, 0.06774486102921087 
3.730000000003447, 0.11767949558014852 
3.740000000003468, 0.15426522099321038 
3.750000000003489, 0.17484710576148121 
3.7600000000035103, 0.18526769652092795 
3.7700000000035314, 0.19037060872743297 
3.7800000000035525, 0.19269737810180015 
3.7900000000035736, 0.1934207849462937 
3.8000000000035947, 0.19306091018860932 
3.810000000003616, 0.1918682197609277 
3.820000000003637, 0.1900415371959715 
3.830000000003658, 0.18784855302999334 
3.840000000003679, 0.1856367533949799 
3.8500000000037002, 0.18374942037335504 
3.8600000000037213, 0.18243991322403347 
3.8700000000037424, 0.1818639338745025 
3.8800000000037635, 0.1821328502097992 
3.8900000000037847, 0.18335747924261397 
3.9000000000038058, 0.18562094478476934 
3.910000000003827, 0.18885692898762585 
3.920000000003848, 0.19270546178239406 
3.930000000003869, 0.196535883002843 
3.94000000000389, 0.19971656972503504 
3.9500000000039113, 0.20188216766865738 
3.9600000000039324, 0.20293970057666763 
3.9700000000039535, 0.20287893186356604 
3.9800000000039746, 0.20155882571702627 
3.9900000000039957, 0.19850569545140026 
4.000000000004016, 0.19267319839738015 
4.010000000003993, 0.18225392043023378 
4.02000000000397, 0.16524469683170487 
4.030000000003946, 0.1420428241287574 
4.040000000003923, 0.11800971363778331 
4.0500000000039, 0.09952223385884243 
4.0600000000038765, 0.0881446175932947 
4.070000000003853, 0.08189465679933323 
4.08000000000383, 0.07858880739480525 
4.090000000003807, 0.07687993020935589 
4.100000000003783, 0.07606871796389256 
4.11000000000376, 0.07579384778365063 
4.120000000003737, 0.07583465347087456 
4.130000000003713, 0.07600507171801084 
4.14000000000369, 0.07610516579593385 
4.150000000003667, 0.07590653225527386 
4.1600000000036434, 0.07513853964548611 
4.17000000000362, 0.07342820209885881 
4.180000000003597, 0.07013344026689652 
4.1900000000035735, 0.06396113047110093 
4.20000000000355, 0.05213474289889003 
4.210000000003527, 0.028857929806830395 
4.220000000003504, -0.015257679479614797 
4.23000000000348, -0.08412141532645258 
4.240000000003457, -0.1571525589361072 
4.250000000003434, -0.20697653064458632 
4.26000000000341, -0.23261513762639976 
4.270000000003387, -0.24468020595840917 
4.280000000003364, -0.25039555093885996 
4.2900000000033405, -0.2531000175460426 
4.300000000003317, -0.25420247672361557 
4.310000000003294, -0.2542753985685038 
4.320000000003271, -0.2535233682450483 
4.330000000003247, -0.2520009512075801 
4.340000000003224, -0.24976039641615322 
4.350000000003201, -0.24697722893981697 
4.360000000003177, -0.24399885507087027 
4.370000000003154, -0.24125083058403218 
4.380000000003131, -0.23907142768366607 
4.390000000003107, -0.23763028922506724 
4.400000000003084, -0.2369685315785893 
4.410000000003061, -0.2370719663794357 
4.4200000000030375, -0.23789927991327353 
4.430000000003014, -0.23934992263290827 
4.440000000002991, -0.24121034778886247 
4.450000000002968, -0.24315395678496485 
4.460000000002944, -0.24483511283637252 
4.470000000002921, -0.2460054978619671 
4.480000000002898, -0.246544592337749 
4.490000000002874, -0.24639103636850418 
4.500000000002851, -0.24542655967860116 
4.510000000002828, -0.24331839201606473 
4.520000000002804, -0.2392169169055815 
4.530000000002781, -0.2310079438680035 
4.540000000002758, -0.21345569493030409 
4.5500000000027345, -0.17506118487620492 
4.560000000002711, -0.10192144333888101 
4.570000000002688, -0.007633147100083072 
4.580000000002665, 0.06470688977542752 
4.590000000002641, 0.10353129040699219 
4.600000000002618, 0.12196350710657577 
4.610000000002595, 0.13073378612638778 
4.620000000002571, 0.13497905446093242 
4.630000000002548, 0.13693281804987667 
4.640000000002525, 0.13759467315362434 
4.6500000000025015, 0.13746282865266143 
4.660000000002478, 0.136848846912827 
4.670000000002455, 0.13600852598507254 
4.6800000000024315, 0.13517917273808147 
4.690000000002408, 0.13457870615766226 
4.700000000002385, 0.13441545854041306 
4.710000000002362, 0.1349374177122455 
4.720000000002338, 0.1365247277962245 
4.730000000002315, 0.13980152201218105 
4.740000000002292, 0.1456514217519054 
4.750000000002268, 0.15481353094536382 
4.760000000002245, 0.1668241508080993 
4.770000000002222, 0.17937199874600232 
4.7800000000021985, 0.18975272494321488 
4.790000000002175, 0.19683552743020466 
4.800000000002152, 0.20100558135759533 
4.810000000002129, 0.20306823473027866 
4.820000000002105, 0.20361468485583017 
4.830000000002082, 0.20289135593579136 
4.840000000002059, 0.20084127549240724 
4.850000000002035, 0.19720434373688217 
4.860000000002012, 0.19174909711543714 
4.870000000001989, 0.18469642943518907 
4.880000000001965, 0.17702780182664987 
