t, s[1].omega / s[0].omega 
0, -1.4200114298742972 
0.009999999999999995, -1.4208477194827998 
0.019999999999999934, -1.4210728852600298 
0.029999999999999874, -1.4206799524247156 
0.04000000000000012, -1.4196894570416891 
0.050000000000000405, -1.4181662530591306 
0.06000000000000069, -1.416190072358582 
0.07000000000000098, -1.4137840647677822 
0.08000000000000126, -1.410920629696942 
0.09000000000000155, -1.4077565514039496 
0.10000000000000184, -1.4049184825014855 
0.11000000000000212, -1.4032028056961765 
0.12000000000000241, -1.4026783200117916 
0.130000000000002, -1.4025747534102264 
0.1400000000000009, -1.4019970353689057 
0.1499999999999998, -1.4000784201704033 
0.1599999999999987, -1.395406066842283 
0.1699999999999976, -1.3850267623386783 
0.1799999999999965, -1.3632670527095831 
0.1899999999999954, -1.3217588851589561 
0.1999999999999943, -1.2531909545850093 
0.2099999999999932, -1.1572504859387756 
0.2199999999999921, -1.0421422033024008 
0.229999999999991, -0.9214106982947964 
0.2399999999999899, -0.8102828975402057 
0.2499999999999888, -0.7208310089740242 
0.2599999999999877, -0.657409143293478 
0.2699999999999866, -0.6170155550224259 
0.2799999999999855, -0.5934219181304593 
0.2899999999999844, -0.5806307337566097 
0.2999999999999833, -0.5741991820093004 
0.3099999999999822, -0.5712530625260813 
0.3199999999999811, -0.5700799583776155 
0.32999999999998, -0.569712996671542 
0.3399999999999789, -0.569622624265876 
0.3499999999999778, -0.5695215150773206 
0.35999999999997667, -0.5692589294712539 
0.36999999999997557, -0.568778992995387 
0.37999999999997447, -0.568115067733296 
0.38999999999997337, -0.5673845176471428 
0.39999999999997227, -0.566755080337774 
0.40999999999997117, -0.5663890687664985 
0.41999999999997006, -0.5663973066120042 
0.42999999999996896, -0.5668162485266869 
0.43999999999996786, -0.5675950738502011 
0.44999999999996676, -0.5685891459055766 
0.45999999999996566, -0.5695841823660518 
0.46999999999996456, -0.5703661056009318 
0.47999999999996346, -0.5707981085839228 
0.48999999999996235, -0.570850480927849 
0.49999999999996125, -0.5705851614516669 
0.5099999999999602, -0.5701459597808143 
0.519999999999959, -0.5698062495792946 
0.529999999999958, -0.5701252979476121 
0.5399999999999568, -0.5723050370998674 
0.5499999999999557, -0.578935239453443 
0.5599999999999546, -0.5954523207919216 
0.5699999999999535, -0.6325771012717858 
0.5799999999999524, -0.708326422704863 
0.5899999999999513, -0.8411915323058053 
0.5999999999999502, -1.0226566185638941 
0.6099999999999491, -1.2042405757613692 
0.619999999999948, -1.3453197142176085 
0.6299999999999469, -1.440607346037244 
0.6399999999999458, -1.5000491615743148 
0.6499999999999447, -1.534321972042061 
0.6599999999999436, -1.5523523951754785 
0.6699999999999425, -1.5609812474922762 
0.6799999999999414, -1.5646609557875886 
0.6899999999999403, -1.5658458363927474 
0.6999999999999392, -1.565809449514411 
0.7099999999999381, -1.5653669527836769 
0.719999999999937, -1.5651692148685346 
0.7299999999999359, -1.5654362147577805 
0.7399999999999348, -1.5658572721579918 
0.7499999999999337, -1.566143677802885 
0.7599999999999326, -1.5663503913638395 
0.7699999999999315, -1.5665694065008806 
0.7799999999999304, -1.566595393255747 
0.7899999999999293, -1.5659924894374346 
0.7999999999999282, -1.5642210435841177 
0.8099999999999271, -1.5605892091507592 
0.819999999999926, -1.5542057075622604 
0.8299999999999249, -1.5440151630379806 
0.8399999999999238, -1.5287072999181588 
0.8499999999999227, -1.506188242302925 
0.8599999999999216, -1.4724920287541103 
0.8699999999999205, -1.4206578862499912 
0.8799999999999194, -1.3435685661988581 
0.8899999999999183, -1.2511678083142364 
0.8999999999999172, -1.1823725658599995 
0.9099999999999161, -1.156791466207061 
0.919999999999915, -1.1547899928538379 
0.9299999999999139, -1.1579249842229895 
0.9399999999999128, -1.1603205668724057 
0.9499999999999117, -1.1611748193164717 
0.9599999999999106, -1.1604190416650206 
0.9699999999999095, -1.1573297245415826 
0.9799999999999084, -1.1492228065745547 
0.9899999999999073, -1.127341463161188 
0.9999999999999062, -1.0615069668221346 
1.0099999999999052, -0.8540955732444248 
1.019999999999904, -0.39884873505037 
1.029999999999903, -0.027658380149386617 
1.039999999999902, 0.10808395258737089 
1.0499999999999008, 0.1530708622678865 
1.0599999999998997, 0.1703655247030859 
1.0699999999998986, 0.17797034873947318 
1.0799999999998975, 0.1815731282912359 
1.0899999999998964, 0.1832797870713835 
1.0999999999998953, 0.1840011485080774 
1.1099999999998942, 0.1842006730380618 
1.119999999999893, 0.1841589066799426 
1.129999999999892, 0.18408107323473072 
1.1399999999998909, 0.1841637732775963 
1.1499999999998898, 0.18468316240208055 
1.1599999999998887, 0.18617483930764933 
1.1699999999998876, 0.18983052494016286 
1.1799999999998865, 0.19822892154015045 
1.1899999999998854, 0.21570203862795284 
1.1999999999998843, 0.24485697044814106 
1.2099999999998832, 0.2788127489705448 
1.219999999999882, 0.3055472683756315 
1.229999999999881, 0.3214268496918553 
1.2399999999998799, 0.3296164029023286 
1.2499999999998788, 0.33350763573088815 
1.2599999999998777, 0.33501368285141714 
1.2699999999998766, 0.33496475419758215 
1.2799999999998755, 0.33356432244361184 
1.2899999999998744, 0.3306478939649288 
1.2999999999998733, 0.32591820796748316 
1.3099999999998722, 0.3193532557809394 
1.319999999999871, 0.31168564639736596 
1.32999999999987, 0.3043213947105052 
1.3399999999998689, 0.29846953416594035 
1.3499999999998678, 0.2944931148467858 
1.3599999999998666, 0.2921091770582045 
1.3699999999998655, 0.2908592489452722 
1.3799999999998644, 0.2903506938355199 
1.3899999999998633, 0.29028563830462256 
1.3999999999998622, 0.2904184847994713 
1.4099999999998611, 0.29051645357359523 
1.41999999999986, 0.2903348962663179 
1.429999999999859, 0.2895797086207486 
1.4399999999998578, 0.287797681760618 
1.4499999999998567, 0.2840692897777054 
1.4599999999998556, 0.2761125942193579 
1.4699999999998545, 0.25727214320628367 
1.4799999999998534, 0.20482362498669765 
1.4899999999998523, 0.03812793999284009 
1.4999999999998512, -0.3622948004081469 
1.5099999999998501, -0.7245111209353242 
1.519999999999849, -0.8673777039166302 
1.529999999999848, -0.9148266527298776 
1.5399999999998468, -0.931934990993183 
1.5499999999998457, -0.938613297425516 
1.5599999999998446, -0.941080463686528 
1.5699999999998435, -0.9413525614021605 
1.5799999999998424, -0.9398240643284034 
1.5899999999998413, -0.9357513435541278 
1.5999999999998402, -0.9265132059775194 
1.6099999999998391, -0.9044805387301798 
1.619999999999838, -0.8450242549352425 
1.629999999999837, -0.6440032488041411 
1.6399999999998358, 0.2542014277725647 
1.6499999999998347, 1.130223610561879 
1.6599999999998336, 1.229720973033645 
1.6699999999998325, 1.2447684533951429 
1.6799999999998314, 1.2481333470044196 
1.6899999999998303, 1.2481365079915439 
1.6999999999998292, 1.2454281570076673 
1.709999999999828, 1.2366725858722967 
1.719999999999827, 1.2080565915942967 
1.729999999999826, 1.1328799480242187 
1.7399999999998248, 1.0752404735313754 
1.7499999999998237, 1.0794918105467708 
1.7599999999998226, 1.0885754395282732 
1.7699999999998215, 1.0927377629008819 
1.7799999999998204, 1.0939889278974024 
1.7899999999998193, 1.0932887165792522 
1.7999999999998182, 1.0900951324677004 
1.809999999999817, 1.0813285010730387 
1.819999999999816, 1.0590123713458193 
1.8299999999998149, 1.0544322713011924 
1.8399999999998138, 1.2215482709523937 
1.8499999999998127, 1.3192405656978372 
1.8599999999998116, 1.3407890588396927 
1.8699999999998105, 1.3459797141680387 
1.8799999999998094, 1.3467473079059284 
1.8899999999998083, 1.3447158595938251 
1.8999999999998072, 1.3362234307707854 
1.909999999999806, 1.291846968103862 
1.919999999999805, 0.8967610526015554 
1.9299999999998039, 0.10448167862166839 
1.9399999999998028, 0.039770794951040564 
1.9499999999998017, 0.06530443784225304 
1.9599999999998006, 0.08048529050608691 
1.9699999999997995, 0.08775826674901528 
1.9799999999997984, 0.09124824324115972 
1.9899999999997973, 0.09289101881236575 
1.9999999999997962, 0.0935312360566542 
2.0099999999998173, 0.09352236075883473 
2.0199999999998384, 0.09296479518141769 
2.0299999999998595, 0.09177803283845817 
2.0399999999998806, 0.08967319403525462 
2.0499999999999017, 0.08600348693017047 
2.059999999999923, 0.07933954163031429 
2.069999999999944, 0.06623037146207404 
2.079999999999965, 0.03711140002068741 
2.089999999999986, -0.039201963882698226 
2.100000000000007, -0.27651636106271893 
2.1100000000000283, -0.894174436286792 
2.1200000000000494, -1.4687860807938347 
2.1300000000000705, -1.6568700380838581 
2.1400000000000916, -1.705318646758928 
2.1500000000001127, -1.7190647383710052 
2.160000000000134, -1.7231822045857146 
2.170000000000155, -1.7240621491711163 
2.180000000000176, -1.7237368969741624 
2.190000000000197, -1.7234496364564709 
2.2000000000002182, -1.724185228266777 
2.2100000000002393, -1.7257384148689787 
2.2200000000002604, -1.727168628631323 
2.2300000000002815, -1.7281188955797628 
2.2400000000003026, -1.7287279389407402 
2.2500000000003237, -1.7289793775338993 
2.260000000000345, -1.7285416701211496 
2.270000000000366, -1.7268994945896459 
2.280000000000387, -1.7233195719889796 
2.290000000000408, -1.7167100863330536 
2.3000000000004293, -1.7054221518840555 
2.3100000000004504, -1.686662120132643 
2.3200000000004715, -1.6547550991030657 
2.3300000000004926, -1.5971051994003047 
2.3400000000005137, -1.4902645122794942 
2.3500000000005348, -1.328045397015739 
2.360000000000556, -1.1923686735298946 
2.370000000000577, -1.144367844694186 
2.380000000000598, -1.1414760716457266 
2.390000000000619, -1.146727552999763 
2.4000000000006403, -1.150544733204136 
2.4100000000006614, -1.1522243476941023 
2.4200000000006825, -1.1521364184212837 
2.4300000000007036, -1.1500351245248264 
2.4400000000007247, -1.1441895213461524 
2.450000000000746, -1.1286955356405504 
2.460000000000767, -1.0826686690472256 
2.470000000000788, -0.9249228052399546 
2.480000000000809, -0.42831831130074305 
2.49000000000083, 0.1669952001093105 
2.5000000000008513, 0.3653642090750919 
2.5100000000008724, 0.415450282574954 
2.5200000000008935, 0.43120829343864153 
2.5300000000009146, 0.43713690210662204 
2.5400000000009357, 0.43945061303848865 
2.550000000000957, 0.44009475691072114 
2.560000000000978, 0.4397933557587564 
2.570000000000999, 0.43889090072917086 
2.58000000000102, 0.43764283425062017 
2.5900000000010412, 0.43631492129240784 
2.6000000000010624, 0.43518352098798696 
2.6100000000010835, 0.4344924461321347 
2.6200000000011046, 0.43441467179608484 
2.6300000000011257, 0.43502902576694213 
2.6400000000011468, 0.4362919382657573 
2.650000000001168, 0.4380070370224596 
2.660000000001189, 0.4398420343047899 
2.67000000000121, 0.44142516591806613 
2.680000000001231, 0.44245604604577765 
2.6900000000012523, 0.4427219178775531 
2.7000000000012734, 0.4419770725056359 
2.7100000000012945, 0.43966144137183943 
2.7200000000013156, 0.4342147734905481 
2.7300000000013367, 0.42084306303187546 
2.740000000001358, 0.3825821411699569 
2.750000000001379, 0.25487421307683433 
2.7600000000014, -0.08512547659234444 
2.770000000001421, -0.4232671268209101 
2.780000000001442, -0.5603253576669658 
2.7900000000014633, -0.6069836441122107 
2.8000000000014844, -0.6248695594477371 
2.8100000000015055, -0.6325860453902411 
2.8200000000015266, -0.6360469188526705 
2.8300000000015477, -0.6373411853986272 
2.840000000001569, -0.6371711644165982 
2.85000000000159, -0.635543467377943 
2.860000000001611, -0.6318792108937725 
2.870000000001632, -0.6248872016162873 
2.8800000000016532, -0.6125623123380454 
2.8900000000016743, -0.5931682568882434 
2.9000000000016954, -0.5676899567157546 
2.9100000000017165, -0.5408657564127417 
2.9200000000017377, -0.5177120091328355 
2.9300000000017588, -0.5001324670150857 
2.94000000000178, -0.48750879151018534 
2.950000000001801, -0.47851341046538637 
2.960000000001822, -0.4720019354834958 
2.970000000001843, -0.467176754133367 
2.9800000000018643, -0.46352287146388377 
2.9900000000018854, -0.4607237113313059 
3.0000000000019065, -0.45859987958752757 
3.0100000000019276, -0.45706830469319665 
3.0200000000019487, -0.4561148902586042 
3.03000000000197, -0.45577692107021006 
3.040000000001991, -0.4561335188920942 
3.050000000002012, -0.4573035962640155 
3.060000000002033, -0.45945209617051963 
3.070000000002054, -0.4628072378130583 
3.0800000000020753, -0.46769432239393993 
3.0900000000020964, -0.47459624962057456 
3.1000000000021175, -0.4842591126813864 
3.1100000000021386, -0.49787588545977474 
3.1200000000021597, -0.517401709301144 
3.130000000002181, -0.5460487335490071 
3.140000000002202, -0.5887876614536627 
3.150000000002223, -0.6515577797092702 
3.160000000002244, -0.7353111637787713 
3.1700000000022652, -0.8248400945927864 
3.1800000000022863, -0.8944855132422672 
3.1900000000023074, -0.9348628621214485 
3.2000000000023285, -0.9544525897652474 
3.2100000000023496, -0.9632509450372406 
3.2200000000023707, -0.9669510467244079 
3.230000000002392, -0.9681103050244226 
3.240000000002413, -0.9677231502841579 
3.250000000002434, -0.9660511311048632 
3.260000000002455, -0.9631308466936377 
3.2700000000024763, -0.9598082196503966 
3.2800000000024974, -0.961371201619724 
3.2900000000025185, -0.9873939491387953 
3.3000000000025396, -1.0802713180942756 
3.3100000000025607, -1.2567639085316042 
3.3200000000025818, -1.43331317856152 
3.330000000002603, -1.5459158400728448 
3.340000000002624, -1.6085495583578353 
3.350000000002645, -1.6441252265667756 
3.360000000002666, -1.6649750863000268 
3.3700000000026873, -1.6770475737674861 
3.3800000000027084, -1.6836021689458867 
3.3900000000027295, -1.6867231193971022 
3.4000000000027506, -1.687781874535652 
3.4100000000027717, -1.6876524476912806 
3.420000000002793, -1.6869344693107133 
3.430000000002814, -1.686028078021483 
3.440000000002835, -1.6849868220546511 
3.450000000002856, -1.6836585180311723 
3.460000000002877, -1.6822437832506636 
3.4700000000028983, -1.6813522228988038 
3.4800000000029194, -1.6811049990119789 
3.4900000000029405, -1.680778567693789 
3.5000000000029616, -1.6793503260431741 
3.5100000000029827, -1.675187646691779 
3.520000000003004, -1.664098396163514 
3.530000000003025, -1.6340115188918112 
3.540000000003046, -1.5519811153523908 
3.550000000003067, -1.3505819853338612 
3.5600000000030882, -0.9958759991076732 
3.5700000000031094, -0.6376628516476324 
3.5800000000031305, -0.417367274713864 
3.5900000000031516, -0.3079064312900674 
3.6000000000031727, -0.25412155158551647 
3.6100000000031938, -0.22617134739532924 
3.620000000003215, -0.21070851261472176 
3.630000000003236, -0.2017135880416955 
3.640000000003257, -0.1963217132752573 
3.650000000003278, -0.1930939278924709 
3.6600000000032993, -0.19128350890205242 
3.6700000000033204, -0.19051104144352268 
3.6800000000033415, -0.19061915850643127 
3.6900000000033626, -0.19161695526957445 
3.7000000000033837, -0.19368268402084504 
3.710000000003405, -0.1972261403531312 
3.720000000003426, -0.20304680592754415 
3.730000000003447, -0.2126911306114651 
3.740000000003468, -0.22928141582675615 
3.750000000003489, -0.25954334091722026 
3.7600000000035103, -0.3188740520191907 
3.7700000000035314, -0.44210304557662283 
3.7800000000035525, -0.6841285381625509 
3.7900000000035736, -1.0155878191311023 
3.8000000000035947, -1.2534475795709767 
3.810000000003616, -1.3546292816859702 
3.820000000003637, -1.3902677668900332 
3.830000000003658, -1.4027471935577855 
3.840000000003679, -1.4071107413639725 
3.8500000000037002, -1.4082912626231838 
3.8600000000037213, -1.408017112373907 
3.8700000000037424, -1.4072709239573453 
3.8800000000037635, -1.4074667821792641 
3.8900000000037847, -1.4103078156819817 
3.9000000000038058, -1.4158345037664577 
3.910000000003827, -1.4221232105758888 
3.920000000003848, -1.427579957270979 
3.930000000003869, -1.4318181260412406 
3.94000000000389, -1.435013689659171 
3.9500000000039113, -1.4373766608554088 
3.9600000000039324, -1.4390332278609215 
3.9700000000039535, -1.4400612309291216 
3.9800000000039746, -1.44051287849724 
3.9900000000039957, -1.4404101073847764 
4.000000000004016, -1.439744014148307 
4.010000000003993, -1.438492734648945 
4.02000000000397, -1.4366442840732923 
4.030000000003946, -1.4341923560857743 
4.040000000003923, -1.431086981476349 
4.0500000000039, -1.4272219537784978 
4.0600000000038765, -1.4226618357357597 
4.070000000003853, -1.4181186223870719 
4.08000000000383, -1.4149220293088764 
4.090000000003807, -1.4137076669399073 
4.100000000003783, -1.4136336546111656 
4.11000000000376, -1.4134580027407224 
4.120000000003737, -1.41221794732643 
4.130000000003713, -1.4086412898973273 
4.14000000000369, -1.3997087185442803 
4.150000000003667, -1.3776277408993256 
4.1600000000036434, -1.3243713045316625 
4.17000000000362, -1.2110038709001172 
4.180000000003597, -1.0273056984348563 
4.1900000000035735, -0.8217333145140658 
4.20000000000355, -0.6556514345494049 
4.210000000003527, -0.5447354781978183 
4.220000000003504, -0.47595981727773307 
4.23000000000348, -0.43386544252665793 
4.240000000003457, -0.4078385529369302 
4.250000000003434, -0.3915111763376324 
4.26000000000341, -0.38116477835958607 
4.270000000003387, -0.37460576736757595 
4.280000000003364, -0.37051142984188334 
4.2900000000033405, -0.3680662254705351 
4.300000000003317, -0.36675979402290676 
4.310000000003294, -0.3662738345420042 
4.320000000003271, -0.36641928693730724 
4.330000000003247, -0.3671040978312838 
4.340000000003224, -0.3683220276167541 
4.350000000003201, -0.3701585871551002 
4.360000000003177, -0.37281427481208684 
4.370000000003154, -0.3766511423960076 
4.380000000003131, -0.3822786945598765 
4.390000000003107, -0.3907031509805175 
4.400000000003084, -0.4035340312966683 
4.410000000003061, -0.42304603298536775 
4.4200000000030375, -0.4512956059567369 
4.430000000003014, -0.4871175884869746 
4.440000000002991, -0.5233610485231871 
4.450000000002968, -0.5514603645223219 
4.460000000002944, -0.5689278078905977 
4.470000000002921, -0.5784122476965453 
4.480000000002898, -0.5831487345939065 
4.490000000002874, -0.5851922413404071 
4.500000000002851, -0.5855218788444119 
4.510000000002828, -0.5843759562067803 
4.520000000002804, -0.5813159464144216 
4.530000000002781, -0.5748300508293153 
4.540000000002758, -0.5610032436870188 
4.5500000000027345, -0.5302374623284071 
4.560000000002711, -0.4632227607391731 
4.570000000002688, -0.34560896945619773 
4.580000000002665, -0.21583821045888688 
4.590000000002641, -0.12872319753886455 
4.600000000002618, -0.0839586179491627 
4.610000000002595, -0.06196192151127243 
4.620000000002571, -0.05061593756964715 
4.630000000002548, -0.044376034566512804 
4.640000000002525, -0.040760277295620435 
4.6500000000025015, -0.03858843638882449 
4.660000000002478, -0.03724720005657876 
4.670000000002455, -0.036389183125620575 
4.6800000000024315, -0.035809139837323395 
4.690000000002408, -0.03539150085882382 
4.700000000002385, -0.03508566310214645 
4.710000000002362, -0.034893177095978965 
4.720000000002338, -0.03485768646384583 
4.730000000002315, -0.03501800919814546 
4.740000000002292, -0.03507796530586556 
4.750000000002268, -0.032217438915483204 
4.760000000002245, -0.006761899005537521 
4.770000000002222, 0.14803072921183041 
4.7800000000021985, 0.5336760320893046 
4.790000000002175, 0.7377362616097951 
4.800000000002152, 0.786877069305967 
4.810000000002129, 0.8000879629723416 
4.820000000002105, 0.8042273569044504 
4.830000000002082, 0.8051528801167237 
4.840000000002059, 0.8041669753770385 
4.850000000002035, 0.8009866464743365 
4.860000000002012, 0.7941033621776923 
4.870000000001989, 0.7810043060582136 
4.880000000001965, 0.761161046191339 
4.890000000001942, 0.7414408053995816 
4.900000000001919, 0.730071503715034 
4.9100000000018955, 0.7263049416248282 
4.920000000001872, 0.7257979062608465 
4.930000000001849, 0.7260440430347535 
