t, s[1].omega / s[0].omega 
0, -0.9799918122644362 
0.009999999999999995, -0.9791543959484562 
0.019999999999999934, -0.9782644990133177 
0.029999999999999874, -0.9772735484398323 
0.04000000000000012, -0.9761349577804272 
0.050000000000000405, -0.9748456855860491 
0.06000000000000069, -0.973465607171424 
0.07000000000000098, -0.972104474380558 
0.08000000000000126, -0.9708823908271332 
0.09000000000000155, -0.9698883406139466 
0.10000000000000184, -0.9691687242392776 
0.11000000000000212, -0.9687489874508526 
0.12000000000000241, -0.968650462669632 
0.130000000000002, -0.9688703208946355 
0.1400000000000009, -0.9693445110181683 
0.1499999999999998, -0.9699428469307912 
0.1599999999999987, -0.9705107537291686 
0.1699999999999976, -0.970925267815501 
0.1799999999999965, -0.971131682155087 
0.1899999999999954, -0.9711487543039053 
0.1999999999999943, -0.9710420465602054 
0.2099999999999932, -0.9708770368547256 
0.2199999999999921, -0.9706769106205038 
0.229999999999991, -0.9704073085848253 
0.2399999999999899, -0.9699956488966848 
0.2499999999999888, -0.9693761297755575 
0.2599999999999877, -0.9685363257406949 
0.2699999999999866, -0.96754095763668 
0.2799999999999855, -0.966523733526407 
0.2899999999999844, -0.9656484447609823 
0.2999999999999833, -0.9650504723034542 
0.3099999999999822, -0.9647928162618955 
0.3199999999999811, -0.9648708703358887 
0.32999999999998, -0.9652520173849112 
0.3399999999999789, -0.9659000245738476 
0.3499999999999778, -0.9667628978165894 
0.35999999999997667, -0.9677539073604485 
0.36999999999997557, -0.9687619132603956 
0.37999999999997447, -0.9696891607417312 
0.38999999999997337, -0.9704868742588324 
0.39999999999997227, -0.9711647630463691 
0.40999999999997117, -0.9717690292148294 
0.41999999999997006, -0.9723403145734834 
0.42999999999996896, -0.9728737376717829 
0.43999999999996786, -0.9733031313204595 
0.44999999999996676, -0.9735229116849575 
0.45999999999996566, -0.9734414294764401 
0.46999999999996456, -0.9730349371298374 
0.47999999999996346, -0.9723727352211247 
0.48999999999996235, -0.9716113297566077 
0.49999999999996125, -0.9709629105850233 
0.5099999999999602, -0.970632689507225 
0.519999999999959, -0.9707417253375942 
0.529999999999958, -0.9712920639936625 
0.5399999999999568, -0.9722052396577118 
0.5499999999999557, -0.9733874403197221 
0.5599999999999546, -0.9747586420344815 
0.5699999999999535, -0.9762419822503521 
0.5799999999999524, -0.9777537260179873 
0.5899999999999513, -0.979218524522081 
0.5999999999999502, -0.9805961607414483 
0.6099999999999491, -0.9818924509317174 
0.619999999999948, -0.9831412101230569 
0.6299999999999469, -0.984364715811201 
0.6399999999999458, -0.9855334185950191 
0.6499999999999447, -0.9865499442847874 
0.6599999999999436, -0.9872769960029155 
0.6699999999999425, -0.9876024260725886 
0.6799999999999414, -0.9874996615889223 
0.6899999999999403, -0.9870487133096562 
0.6999999999999392, -0.9864261814295059 
0.7099999999999381, -0.9858793633660567 
0.719999999999937, -0.985668214313771 
0.7299999999999359, -0.9859697186910635 
0.7399999999999348, -0.9868074263037896 
0.7499999999999337, -0.9880768579823245 
0.7599999999999326, -0.9896360242457876 
0.7699999999999315, -0.9913688895915215 
0.7799999999999304, -0.9931883602952064 
0.7899999999999293, -0.9950179712040711 
0.7999999999999282, -0.9967929064269168 
0.8099999999999271, -0.998478691673624 
0.819999999999926, -1.00008078315015 
0.8299999999999249, -1.0016276210594701 
0.8399999999999238, -1.0031319067207463 
0.8499999999999227, -1.0045508548336608 
0.8599999999999216, -1.0057727137319683 
0.8699999999999205, -1.006650755601452 
0.8799999999999194, -1.0070740980779773 
0.8899999999999183, -1.0070273418791396 
0.8999999999999172, -1.0066057169244111 
0.9099999999999161, -1.0060010348370627 
0.919999999999915, -1.0054743300165065 
0.9299999999999139, -1.0052933587154569 
0.9399999999999128, -1.0056298433189237 
0.9499999999999117, -1.0064902377330678 
0.9599999999999106, -1.007754105609648 
0.9699999999999095, -1.0092748591349268 
0.9799999999999084, -1.0109404028530868 
0.9899999999999073, -1.0126672707435254 
0.9999999999999062, -1.014378134977963 
1.0099999999999052, -1.016005014709382 
1.019999999999904, -1.0175112690677905 
1.029999999999903, -1.018901952097663 
1.039999999999902, -1.0202059361536144 
1.0499999999999008, -1.0214372009574253 
1.0599999999998997, -1.0225578149104082 
1.0699999999998986, -1.023468692748888 
1.0799999999998975, -1.0240443614369503 
1.0899999999998964, -1.0241975581009402 
1.0999999999998953, -1.0239309621614696 
1.1099999999998942, -1.0233503233847085 
1.119999999999893, -1.0226495177613402 
1.129999999999892, -1.0220719025363716 
1.1399999999998909, -1.0218334226164631 
1.1499999999998898, -1.0220340705307966 
1.1599999999998887, -1.022637113868224 
1.1699999999998876, -1.023538194634582 
1.1799999999998865, -1.0246424791882176 
1.1899999999998854, -1.0258785533030548 
1.1999999999998843, -1.0271694753340845 
1.2099999999998832, -1.0284211719423806 
1.219999999999882, -1.0295478656037065 
1.229999999999881, -1.030505776468784 
1.2399999999998799, -1.0313029764612762 
1.2499999999998788, -1.0319770623222424 
1.2599999999998777, -1.0325543642944695 
1.2699999999998766, -1.0330153356420684 
1.2799999999998755, -1.033288683172341 
1.2899999999998744, -1.0332830831359128 
1.2999999999998733, -1.0329411001241304 
1.3099999999998722, -1.0322823686228726 
1.319999999999871, -1.0314152046792384 
1.32999999999987, -1.0305156818371133 
1.3399999999998689, -1.0297735526511649 
1.3499999999998678, -1.0293187921210505 
1.3599999999998666, -1.0291823531288116 
1.3699999999998655, -1.0293296459382604 
1.3799999999998644, -1.029721537470325 
1.3899999999998633, -1.0303288488279656 
1.3999999999998622, -1.0310961171872788 
1.4099999999998611, -1.0319160043341116 
1.41999999999986, -1.0326545200041797 
1.429999999999859, -1.0332034537983215 
1.4399999999998578, -1.0335176394539227 
1.4499999999998567, -1.03361776470444 
1.4599999999998556, -1.0335604464459842 
1.4699999999998545, -1.0333927140756356 
1.4799999999998534, -1.0331175243776738 
1.4899999999998523, -1.0326902284865431 
1.4999999999998512, -1.032048362593776 
1.5099999999998501, -1.0311581006371633 
1.519999999999849, -1.0300501911153679 
1.529999999999848, -1.0288255438837939 
1.5399999999998468, -1.0276252835126995 
1.5499999999998457, -1.0265764050306165 
1.5599999999998446, -1.0257501330374221 
1.5699999999998435, -1.0251712634619772 
1.5799999999998424, -1.024860376728058 
1.5899999999998413, -1.024844676018498 
1.5999999999998402, -1.0251129708792492 
1.6099999999998391, -1.0255692560757714 
1.619999999999838, -1.0260471486615041 
1.629999999999837, -1.0263739950061015 
1.6399999999998358, -1.0264309532859457 
1.6499999999998347, -1.026181789469536 
1.6599999999998336, -1.0256678574368885 
1.6699999999998325, -1.0249710670538918 
1.6799999999998314, -1.024161799878077 
1.6899999999998303, -1.0232625844698302 
1.6999999999998292, -1.0222468107003109 
1.709999999999828, -1.021069237871793 
1.719999999999827, -1.0197089595289632 
1.729999999999826, -1.0181995822343004 
1.7399999999998248, -1.01662864876121 
1.7499999999998237, -1.0151058164743387 
1.7599999999998226, -1.0137226790168292 
1.7699999999998215, -1.0125409891380204 
1.7799999999998204, -1.0116180884526842 
1.7899999999998193, -1.011025187534889 
1.7999999999998182, -1.010811317709695 
1.809999999999817, -1.0109357978470201 
1.819999999999816, -1.0112468387664804 
1.8299999999998149, -1.0115356486902978 
1.8399999999998138, -1.0116142573678246 
1.8499999999998127, -1.011367289292646 
1.8599999999998116, -1.0107723714434056 
1.8699999999998105, -1.0098908335358046 
1.8799999999998094, -1.0088250442402074 
1.8899999999998083, -1.007660762711217 
1.8999999999998072, -1.0064299573704667 
1.909999999999806, -1.0051123676119096 
1.919999999999805, -1.0036681207319293 
1.9299999999998039, -1.0020799459274419 
1.9399999999998028, -1.000380740496973 
1.9499999999998017, -0.9986508476705165 
1.9599999999998006, -0.9969881679127448 
1.9699999999997995, -0.9954763295219113 
1.9799999999997984, -0.9941814893017931 
1.9899999999997973, -0.993175025282607 
1.9999999999997962, -0.9925369756063587 
2.0099999999998173, -0.9923079418856968 
2.0199999999998384, -0.9924266396792767 
2.0299999999998595, -0.9927248682117297 
2.0399999999998806, -0.9929906150985616 
2.0499999999999017, -0.9930428080993003 
2.059999999999923, -0.9927772464083615 
2.069999999999944, -0.9921830811493841 
2.079999999999965, -0.9913298521266739 
2.089999999999986, -0.9903219676671607 
2.100000000000007, -0.9892415013510855 
2.1100000000000283, -0.9881139681351636 
2.1200000000000494, -0.9869126042434253 
2.1300000000000705, -0.9855925395941074 
2.1400000000000916, -0.9841339294344532 
2.1500000000001127, -0.9825703566575112 
2.160000000000134, -0.9809870579350768 
2.170000000000155, -0.9794904724302398 
2.180000000000176, -0.9781708758018105 
2.190000000000197, -0.9770893720693004 
2.2000000000002182, -0.9762958319451066 
2.2100000000002393, -0.9758423392772494 
2.2200000000002604, -0.9757560631894722 
2.2300000000002815, -0.9759894709520409 
2.2400000000003026, -0.9764060280297576 
2.2500000000003237, -0.976824518649526 
2.260000000000345, -0.9770849666076797 
2.270000000000366, -0.9770953612869071 
2.280000000000387, -0.9768480519506216 
2.290000000000408, -0.9764045489399169 
2.3000000000004293, -0.9758516672461435 
2.3100000000004504, -0.9752502952505774 
2.3200000000004715, -0.9746056891559439 
2.3300000000004926, -0.9738728793516481 
2.3400000000005137, -0.9729918705471997 
2.3500000000005348, -0.9719336098673936 
2.360000000000556, -0.970732090723228 
2.370000000000577, -0.9694864274075871 
2.380000000000598, -0.9683309056957207 
2.390000000000619, -0.9673858872817563 
2.4000000000006403, -0.9667208261481111 
2.4100000000006614, -0.96635744017927 
2.4200000000006825, -0.9662993040203233 
2.4300000000007036, -0.9665432987430526 
2.4400000000007247, -0.9670558106764752 
2.450000000000746, -0.9677474208940049 
2.460000000000767, -0.9684855453514907 
2.470000000000788, -0.9691408794770805 
2.480000000000809, -0.9696332011881494 
2.49000000000083, -0.9699513884670503 
2.5000000000008513, -0.9701405997521599 
2.5100000000008724, -0.9702630073367076 
2.5200000000008935, -0.9703522301649887 
2.5300000000009146, -0.9703857425599859 
2.5400000000009357, -0.9702903525122965 
2.550000000000957, -0.9699807596502893 
2.560000000000978, -0.9694117974080034 
2.570000000000999, -0.9686151327092644 
2.58000000000102, -0.9677052437515382 
2.5900000000010412, -0.9668548914985907 
2.6000000000010624, -0.966241765811613 
2.6100000000010835, -0.9659835534391279 
2.6200000000011046, -0.9661059326316768 
2.6300000000011257, -0.9665688080266923 
2.6400000000011468, -0.9673149480697413 
2.650000000001168, -0.9682887288155764 
2.660000000001189, -0.969421208725907 
2.67000000000121, -0.9706197584281553 
2.680000000001231, -0.9717874444739552 
2.6900000000012523, -0.9728582577422149 
2.7000000000012734, -0.9738189298402663 
2.7100000000012945, -0.9747008930194128 
2.7200000000013156, -0.9755456065701049 
2.7300000000013367, -0.9763613688694438 
2.740000000001358, -0.9770950802962964 
2.750000000001379, -0.9776389703206686 
2.7600000000014, -0.9778773404462549 
2.770000000001421, -0.9777487800801493 
2.780000000001442, -0.9772852452507372 
2.7900000000014633, -0.9766160321128595 
2.8000000000014844, -0.9759480963643217 
2.8100000000015055, -0.9755195085780068 
2.8200000000015266, -0.9755191559130545 
2.8300000000015477, -0.976013115961028 
2.840000000001569, -0.9769436437840389 
2.85000000000159, -0.9781978170998163 
2.860000000001611, -0.9796711521960896 
2.870000000001632, -0.9812797028040514 
2.8800000000016532, -0.9829441731569354 
2.8900000000016743, -0.9845881893405611 
2.9000000000016954, -0.9861585843874827 
2.9100000000017165, -0.9876439391046337 
2.9200000000017377, -0.9890688916544648 
2.9300000000017588, -0.9904619298035531 
2.94000000000178, -0.991812549193468 
2.950000000001801, -0.9930425999713697 
2.960000000001822, -0.994016893258102 
2.970000000001843, -0.9946000276238556 
2.9800000000018643, -0.9947267547028293 
2.9900000000018854, -0.9944388993975943 
3.0000000000019065, -0.9938824702352955 
3.0100000000019276, -0.9932878368252263 
3.0200000000019487, -0.9929283388329144 
3.03000000000197, -0.9930343323985571 
3.040000000001991, -0.993696548272788 
3.050000000002012, -0.9948477934033612 
3.060000000002033, -0.9963422467707048 
3.070000000002054, -0.9980444010111098 
3.0800000000020753, -0.9998558600192131 
3.0900000000020964, -1.0016973821650066 
3.1000000000021175, -1.0034980292299918 
3.1100000000021386, -1.0052088981139928 
3.1200000000021597, -1.0068196451985192 
3.130000000002181, -1.008352850055101 
3.140000000002202, -1.009832216585434 
3.150000000002223, -1.0112406653374462 
3.160000000002244, -1.0124942757759807 
3.1700000000022652, -1.0134573297623124 
3.1800000000022863, -1.0140022004828253 
3.1900000000023074, -1.0140775564631979 
3.2000000000023285, -1.0137401204940049 
3.2100000000023496, -1.0131486262314515 
3.2200000000023707, -1.012540954603773 
3.230000000002392, -1.012184375820198 
3.240000000002413, -1.0122821792113057 
3.250000000002434, -1.0128880251953654 
3.260000000002455, -1.0139143345072517 
3.2700000000024763, -1.015224006935202 
3.2800000000024974, -1.01670462589359 
3.2900000000025185, -1.0182732882399672 
3.3000000000025396, -1.019850710749735 
3.3100000000025607, -1.0213575667151402 
3.3200000000025818, -1.0227380344224533 
3.330000000002603, -1.023980036254656 
3.340000000002624, -1.0251082814911938 
3.350000000002645, -1.026150876744417 
3.360000000002666, -1.0270989251064986 
3.3700000000026873, -1.0278847258740584 
3.3800000000027084, -1.028398544719749 
3.3900000000027295, -1.028542213383908 
3.4000000000027506, -1.0282870409369127 
3.4100000000027717, -1.0277014988416222 
3.420000000002793, -1.0269455542608046 
3.430000000002814, -1.0262386084206268 
3.440000000002835, -1.025792850385473 
3.450000000002856, -1.0257288410202132 
3.460000000002877, -1.0260419554744455 
3.4700000000028983, -1.0266547195796902 
3.4800000000029194, -1.0274902395397607 
3.4900000000029405, -1.0284899645089094 
3.5000000000029616, -1.0295831766863028 
3.5100000000029827, -1.0306695020563332 
3.520000000003004, -1.031643858760631 
3.530000000003025, -1.0324379233640584 
3.540000000003046, -1.0330415332403484 
3.550000000003067, -1.033490000713948 
3.5600000000030882, -1.0338260092645943 
3.5700000000031094, -1.0340590047584226 
3.5800000000031305, -1.034146597500693 
3.5900000000031516, -1.0340114178011859 
3.6000000000031727, -1.033586944740117 
3.6100000000031938, -1.032865537002355 
3.620000000003215, -1.0319217512492973 
3.630000000003236, -1.030901715920911 
3.640000000003257, -1.029978395405958 
3.650000000003278, -1.029285229238535 
3.6600000000032993, -1.0288735802281528 
3.6700000000033204, -1.0287342537908393 
3.6800000000033415, -1.0288511628573487 
3.6900000000033626, -1.029215801341487 
3.7000000000033837, -1.029788252702357 
3.710000000003405, -1.030463592156975 
3.720000000003426, -1.0310932593851656 
3.730000000003447, -1.0315426019160916 
3.740000000003468, -1.0317380478338676 
3.750000000003489, -1.0316811748276573 
3.7600000000035103, -1.0314278634507033 
3.7700000000035314, -1.0310434848835417 
3.7800000000035525, -1.0305594470961659 
3.7900000000035736, -1.029956238806418 
3.8000000000035947, -1.0291812838602508 
3.810000000003616, -1.0281906430013747 
3.820000000003637, -1.0269901574473157 
3.830000000003658, -1.025652198176957 
3.840000000003679, -1.0242974106296394 
3.8500000000037002, -1.0230486348542487 
3.8600000000037213, -1.0219884002463568 
3.8700000000037424, -1.0211586904981673 
3.8800000000037635, -1.0205968370090823 
3.8900000000037847, -1.0203495483042972 
3.9000000000038058, -1.0204295975606688 
3.910000000003827, -1.020759310762719 
3.920000000003848, -1.0211724561978173 
3.930000000003869, -1.0214773906413628 
3.94000000000389, -1.021525255609965 
3.9500000000039113, -1.0212483808512267 
3.9600000000039324, -1.0206665209637842 
3.9700000000039535, -1.0198600372218238 
3.9800000000039746, -1.0189179088312683 
3.9900000000039957, -1.017890043528537 
4.000000000004016, -1.0167715376641886 
4.010000000003993, -1.015522994913141 
4.02000000000397, -1.0141114420301705 
4.030000000003946, -1.01254745312164 
4.040000000003923, -1.010896805236405 
4.0500000000039, -1.0092596194288597 
4.0600000000038765, -1.0077322353934048 
4.070000000003853, -1.006385888785521 
4.08000000000383, -1.0052824592642717 
4.090000000003807, -1.0044978746450999 
4.100000000003783, -1.004100727917742 
4.11000000000376, -1.0040854388695144 
4.120000000003737, -1.004329903798212 
4.130000000003713, -1.0046306690211793 
4.14000000000369, -1.0047818072612245 
4.150000000003667, -1.004637363143089 
4.1600000000036434, -1.0041412387998356 
4.17000000000362, -1.0033291863155658 
4.180000000003597, -1.0022977017323265 
4.1900000000035735, -1.0011472874607743 
4.20000000000355, -0.9999334551729431 
4.210000000003527, -0.9986533874538776 
4.220000000003504, -0.9972690006761699 
4.23000000000348, -0.9957486518996637 
4.240000000003457, -0.9941032989067035 
4.250000000003434, -0.9923969018164571 
4.26000000000341, -0.9907257772076109 
4.270000000003387, -0.9891830467268334 
4.280000000003364, -0.9878397961733562 
4.2900000000033405, -0.9867588296592068 
4.300000000003317, -0.9860124196124429 
4.310000000003294, -0.9856591215083512 
4.320000000003271, -0.985683590072796 
4.330000000003247, -0.985962649929979 
4.340000000003224, -0.9863011874074437 
4.350000000003201, -0.9865058033293999 
4.360000000003177, -0.9864432433338761 
4.370000000003154, -0.9860679779951453 
4.380000000003131, -0.9854208686995373 
4.390000000003107, -0.9845954152847582 
4.400000000003084, -0.9836824637491673 
4.410000000003061, -0.982725341796859 
4.4200000000030375, -0.9817095568326961 
4.430000000003014, -0.9805872409171877 
4.440000000002991, -0.9793201542503454 
4.450000000002968, -0.9779176614033638 
4.460000000002944, -0.9764492908476718 
4.470000000002921, -0.9750249906740382 
4.480000000002898, -0.9737541937779278 
4.490000000002874, -0.9727128423149137 
4.500000000002851, -0.9719446590065747 
4.510000000002828, -0.9714847918682341 
4.520000000002804, -0.9713628756430188 
4.530000000002781, -0.9715679013749702 
4.540000000002758, -0.9720127138685802 
4.5500000000027345, -0.9725454613825791 
4.560000000002711, -0.9730039690370287 
4.570000000002688, -0.973271682748298 
4.580000000002665, -0.9733079001982959 
4.590000000002641, -0.9731460491634399 
4.600000000002618, -0.9728609506466117 
4.610000000002595, -0.9725192589978635 
4.620000000002571, -0.9721401025165978 
4.630000000002548, -0.9716862854007694 
4.640000000002525, -0.9710893653380855 
4.6500000000025015, -0.9702957678201036 
4.660000000002478, -0.9693091274757062 
4.670000000002455, -0.9682071962798264 
4.6800000000024315, -0.9671261574194647 
4.690000000002408, -0.9662159959659498 
4.700000000002385, -0.9655860732570591 
4.710000000002362, -0.9652781654486888 
4.720000000002338, -0.96528593119161 
4.730000000002315, -0.9655896203378607 
4.740000000002292, -0.9661616793020688 
4.750000000002268, -0.9669432077329349 
4.760000000002245, -0.9678316191423904 
4.770000000002222, -0.9687052153136172 
4.7800000000021985, -0.9694677486509857 
4.790000000002175, -0.9700808280896936 
4.800000000002152, -0.9705661413637774 
4.810000000002129, -0.9709770295128631 
4.820000000002105, -0.9713540664729434 
4.830000000002082, -0.971688134125929 
4.840000000002059, -0.9719113753787394 
4.850000000002035, -0.9719250408662674 
4.860000000002012, -0.9716530920285738 
4.870000000001989, -0.9710905747787051 
4.880000000001965, -0.9703226272363239 
4.890000000001942, -0.9695132950337392 
4.900000000001919, -0.9688661302319433 
4.9100000000018955, -0.9685567161735762 
4.920000000001872, -0.9686676233384128 
4.930000000001849, -0.9691783749195201 
