t, s[1].omega / s[0].omega 
0, -1.5000357227497358 
0.009999999999999995, -1.5030033538058398 
0.019999999999999934, -1.504853915703118 
0.029999999999999874, -1.5056923829384845 
0.04000000000000012, -1.5056492902778849 
0.050000000000000405, -1.50489955764481 
0.06000000000000069, -1.503645889585111 
0.07000000000000098, -1.5020443324349562 
0.08000000000000126, -1.5001073006237422 
0.09000000000000155, -1.4978081768051217 
0.10000000000000184, -1.49544559528831 
0.11000000000000212, -1.493733058135861 
0.12000000000000241, -1.493064883331217 
0.130000000000002, -1.4929297974199236 
0.1400000000000009, -1.4924290232009079 
0.1499999999999998, -1.4906331867085816 
0.1599999999999987, -1.4860265440059628 
0.1699999999999976, -1.4751947103917211 
0.1799999999999965, -1.4506416454533964 
0.1899999999999954, -1.3987935313052937 
0.1999999999999943, -1.3031844375944686 
0.2099999999999932, -1.1576274993005653 
0.2199999999999921, -0.9797901294054043 
0.229999999999991, -0.8061757625964224 
0.2399999999999899, -0.6680257558691254 
0.2499999999999888, -0.57395713800715 
0.2599999999999877, -0.515759705570455 
0.2699999999999866, -0.48149842520931535 
0.2799999999999855, -0.4618298460312632 
0.2899999999999844, -0.45073771886362224 
0.2999999999999833, -0.44461875079189894 
0.3099999999999822, -0.44136560362942723 
0.3199999999999811, -0.4397521079844801 
0.32999999999998, -0.4390647252122826 
0.3399999999999789, -0.43888982699942 
0.3499999999999778, -0.4389942096368344 
0.35999999999997667, -0.43926207760402225 
0.36999999999997557, -0.4396663716042353 
0.37999999999997447, -0.44025789299790885 
0.38999999999997337, -0.4411583422186397 
0.39999999999997227, -0.4425505172736536 
0.40999999999997117, -0.44466830457325274 
0.41999999999997006, -0.4477847468137758 
0.42999999999996896, -0.4521677798437545 
0.43999999999996786, -0.4579406024627947 
0.44999999999996676, -0.46482825303799763 
0.45999999999996566, -0.47199451091318895 
0.46999999999996456, -0.4783301709756119 
0.47999999999996346, -0.4830732501659023 
0.48999999999996235, -0.4860914415554178 
0.49999999999996125, -0.48763887063249467 
0.5099999999999602, -0.4880037467784236 
0.519999999999959, -0.4873012899673127 
0.529999999999958, -0.48534668394662034 
0.5399999999999568, -0.48142100716466035 
0.5499999999999557, -0.4735682037304746 
0.5599999999999546, -0.45626804156662326 
0.5699999999999535, -0.41220612460340533 
0.5799999999999524, -0.28807208202047313 
0.5899999999999513, -0.014580986739511609 
0.5999999999999502, 0.240388272815109 
0.6099999999999491, 0.3432683998677151 
0.619999999999948, 0.37699080503361504 
0.6299999999999469, 0.3892385146153906 
0.6399999999999458, 0.3941529243890492 
0.6499999999999447, 0.39604739286547186 
0.6599999999999436, 0.39639564275331696 
0.6699999999999425, 0.3957513816184791 
0.6799999999999414, 0.39437317768407465 
0.6899999999999403, 0.3924852550378917 
0.6999999999999392, 0.3903836757786018 
0.7099999999999381, 0.38841782267493513 
0.719999999999937, 0.3868964593201847 
0.7299999999999359, 0.38601333692089407 
0.7399999999999348, 0.38583775820216487 
0.7499999999999337, 0.38633399924479617 
0.7599999999999326, 0.3873661283838227 
0.7699999999999315, 0.38869605589714823 
0.7799999999999304, 0.3900154796943903 
0.7899999999999293, 0.39101744254607834 
0.7999999999999282, 0.39144704151721094 
0.8099999999999271, 0.39106124876188 
0.819999999999926, 0.38945818769795976 
0.8299999999999249, 0.38566695051652644 
0.8399999999999238, 0.37698756141198014 
0.8499999999999227, 0.3549355584218933 
0.8599999999999216, 0.28956791217181344 
0.8699999999999205, 0.09144464979057833 
0.8799999999999194, -0.25054751389412433 
0.8899999999999183, -0.46566262082608195 
0.8999999999999172, -0.5441314598142253 
0.9099999999999161, -0.5726279237143314 
0.919999999999915, -0.5843471975585705 
0.9299999999999139, -0.5896161377352216 
0.9399999999999128, -0.5919367409950838 
0.9499999999999117, -0.5925770383107916 
0.9599999999999106, -0.5918989016889589 
0.9699999999999095, -0.5897311919030617 
0.9799999999999084, -0.5854181371399172 
0.9899999999999073, -0.5778377381997877 
0.9999999999999062, -0.5658183433234218 
1.0099999999999052, -0.549359392883144 
1.019999999999904, -0.5307189962816251 
1.029999999999903, -0.5132761702670503 
1.039999999999902, -0.4991482407577312 
1.0499999999999008, -0.48858675483600517 
1.0599999999998997, -0.4809095740645747 
1.0699999999998986, -0.4753117311006143 
1.0799999999998975, -0.47115596123391795 
1.0899999999998964, -0.46799999638759654 
1.0999999999998953, -0.4655587242547039 
1.1099999999998942, -0.4636671820925581 
1.119999999999893, -0.46225360838268037 
1.129999999999892, -0.461320046661606 
1.1399999999998909, -0.46092924632075016 
1.1499999999998898, -0.46119794268147407 
1.1599999999998887, -0.46229677843090533 
1.1699999999998876, -0.46445781828884536 
1.1799999999998865, -0.46799255931805916 
1.1899999999998854, -0.4733266418529431 
1.1999999999998843, -0.48106262890141577 
1.2099999999998832, -0.49209081442695346 
1.219999999999882, -0.5077826451558052 
1.229999999999881, -0.5303220052211621 
1.2399999999998799, -0.5632301753950572 
1.2499999999998788, -0.611957530057744 
1.2599999999998777, -0.6833985244991956 
1.2699999999998766, -0.7803544431163448 
1.2799999999998755, -0.888385473052975 
1.2899999999998744, -0.9765482861810701 
1.2999999999998733, -1.0289943698312598 
1.3099999999998722, -1.054331130057363 
1.319999999999871, -1.0654893810786639 
1.32999999999987, -1.0701425811222227 
1.3399999999998689, -1.0717451833155285 
1.3499999999998678, -1.0716886527207434 
1.3599999999998666, -1.0705139572306392 
1.3699999999998655, -1.0686985537649318 
1.3799999999998644, -1.0678659944011266 
1.3899999999998633, -1.0729530270535836 
1.3999999999998622, -1.0927459335612029 
1.4099999999998611, -1.1321943893584991 
1.41999999999986, -1.1830603574868956 
1.429999999999859, -1.2317399550654344 
1.4399999999998578, -1.271638589009401 
1.4499999999998567, -1.3027829078919466 
1.4599999999998556, -1.3270735121147719 
1.4699999999998545, -1.3460032170040621 
1.4799999999998534, -1.3603122560596028 
1.4899999999998523, -1.3703826757476558 
1.4999999999998512, -1.37674232666977 
1.5099999999998501, -1.3802213864752104 
1.519999999999849, -1.381725867904713 
1.529999999999848, -1.382006587062786 
1.5399999999998468, -1.3816552070356074 
1.5499999999998457, -1.3812149141755505 
1.5599999999998446, -1.381130055393895 
1.5699999999998435, -1.3814978455697253 
1.5799999999998424, -1.3820731987364967 
1.5899999999998413, -1.3826289486275969 
1.5999999999998402, -1.3831443320527814 
1.6099999999998391, -1.3836413880610967 
1.619999999999838, -1.3839923219246866 
1.629999999999837, -1.3839422985941965 
1.6399999999998358, -1.3832261722692174 
1.6499999999998347, -1.381630242299659 
1.6599999999998336, -1.37901947039853 
1.6699999999998325, -1.375344949504664 
1.6799999999998314, -1.3705963693208163 
1.6899999999998303, -1.364708376170989 
1.6999999999998292, -1.3574701745798408 
1.709999999999828, -1.348460219227313 
1.719999999999827, -1.3370436612304402 
1.729999999999826, -1.3226617819216795 
1.7399999999998248, -1.3059148423499263 
1.7499999999998237, -1.2901750107376908 
1.7599999999998226, -1.2802845350322696 
1.7699999999998215, -1.2771742096722873 
1.7799999999998204, -1.2774663350199327 
1.7899999999998193, -1.278167798894811 
1.7999999999998182, -1.2780166245421254 
1.809999999999817, -1.2762661797349382 
1.819999999999816, -1.2713177908071056 
1.8299999999998149, -1.2584461819659658 
1.8399999999998138, -1.2232478034272851 
1.8499999999998127, -1.1247788024552914 
1.8599999999998116, -0.8935075113732109 
1.8699999999998105, -0.5771827240876297 
1.8799999999998094, -0.3576592498729882 
1.8899999999998083, -0.2516775588679426 
1.8999999999998072, -0.2023578559190788 
1.909999999999806, -0.17759487428986565 
1.919999999999805, -0.1640390049706244 
1.9299999999998039, -0.1560698600507641 
1.9399999999998028, -0.15113864209039196 
1.9499999999998017, -0.1480044196099613 
1.9599999999998006, -0.14603966073354976 
1.9699999999997995, -0.14494162943111435 
1.9799999999997984, -0.14461373443588071 
1.9899999999997973, -0.1451346321470046 
1.9999999999997962, -0.14679794554980216 
2.0099999999998173, -0.1502528615935826 
2.0199999999998384, -0.15685466183788702 
2.0299999999998595, -0.16953830700409575 
2.0399999999998806, -0.19514041290583614 
2.0499999999999017, -0.25097191288002413 
2.059999999999923, -0.38256411778713234 
2.069999999999944, -0.6843136985678215 
2.079999999999965, -1.1623170647678154 
2.089999999999986, -1.5422063439970959 
2.100000000000007, -1.7256630126450148 
2.1100000000000283, -1.8022134583895517 
2.1200000000000494, -1.8334600145200919 
2.1300000000000705, -1.846003962728604 
2.1400000000000916, -1.8507743792682791 
2.1500000000001127, -1.8522066163578086 
2.160000000000134, -1.8521447294343942 
2.170000000000155, -1.851532803090301 
2.180000000000176, -1.850883054033557 
2.190000000000197, -1.8501200400331794 
2.2000000000002182, -1.8490155552204919 
2.2100000000002393, -1.847953349079921 
2.2200000000002604, -1.8475037329174895 
2.2300000000002815, -1.8472874987746117 
2.2400000000003026, -1.8462117709708934 
2.2500000000003237, -1.8425406576219199 
2.260000000000345, -1.8312857000338325 
2.270000000000366, -1.7932160555751604 
2.280000000000387, -1.645136172396305 
2.290000000000408, -1.1230521077337943 
2.3000000000004293, -0.38587412933574583 
2.3100000000004504, -0.06638332439052833 
2.3200000000004715, 0.032554945782281394 
2.3300000000004926, 0.06804123991647107 
2.3400000000005137, 0.08319718125453471 
2.3500000000005348, 0.09048840850113764 
2.360000000000556, 0.09423093407348572 
2.370000000000577, 0.09615344575300691 
2.380000000000598, 0.0970144572575356 
2.390000000000619, 0.09713931363752862 
2.4000000000006403, 0.09660279944777123 
2.4100000000006614, 0.09525438843799447 
2.4200000000006825, 0.092604718582426 
2.4300000000007036, 0.08744416058403505 
2.4400000000007247, 0.07671670226421526 
2.450000000000746, 0.05208850800089804 
2.460000000000767, -0.009032336474622201 
2.470000000000788, -0.11740298181368294 
2.480000000000809, 0.959697997913626 
2.49000000000083, 2.1024492072072296 
2.5000000000008513, 2.1394821727281634 
2.5100000000008724, 2.1432584471794347 
2.5200000000008935, 2.1422088626080518 
2.5300000000009146, 2.1331498907635065 
2.5400000000009357, 2.0125718441516836 
2.550000000000957, 0.0705955157952881 
2.560000000000978, -0.1710495558338504 
2.570000000000999, -0.0950503676776182 
2.58000000000102, -0.05937412649381681 
2.5900000000010412, -0.0444979973276403 
2.6000000000010624, -0.037839813527581465 
2.6100000000010835, -0.03462510883444271 
2.6200000000011046, -0.03299881681060346 
2.6300000000011257, -0.032191173614421364 
2.6400000000011468, -0.031876784917794825 
2.650000000001168, -0.0319430181789889 
2.660000000001189, -0.032410625957797104 
2.67000000000121, -0.0334239531415523 
2.680000000001231, -0.035293591037213946 
2.6900000000012523, -0.0386198562312255 
2.7000000000012734, -0.04460278207382175 
2.7100000000012945, -0.05584695126959317 
2.7200000000013156, -0.07857823116959294 
2.7300000000013367, -0.1288705250544428 
2.740000000001358, -0.24608147500089067 
2.750000000001379, -0.47818362635523187 
2.7600000000014, -0.7385098505604132 
2.770000000001421, -0.8848170722736584 
2.780000000001442, -0.9424450099150177 
2.7900000000014633, -0.964065148391725 
2.8000000000014844, -0.9725131476218717 
2.8100000000015055, -0.9757419516917855 
2.8200000000015266, -0.9764761216812372 
2.8300000000015477, -0.9755006769283616 
2.840000000001569, -0.9726037676505893 
2.85000000000159, -0.9666604141327324 
2.860000000001611, -0.9556181335080162 
2.870000000001632, -0.9395718683851054 
2.8800000000016532, -0.9487359597606371 
2.8900000000016743, -1.2282664824894538 
2.9000000000016954, -2.1691417005046683 
2.9100000000017165, -2.502952631500326 
2.9200000000017377, -2.559002040794174 
2.9300000000017588, -2.5738554518214065 
2.94000000000178, -2.578860855576152 
2.950000000001801, -2.5802144511233513 
2.960000000001822, -2.5795374732479397 
2.970000000001843, -2.5769359990479948 
2.9800000000018643, -2.570724317731537 
2.9900000000018854, -2.5543614329910644 
3.0000000000019065, -2.5235470322311393 
3.0100000000019276, -2.5180663404380863 
3.0200000000019487, -2.52491788679402 
3.03000000000197, -2.526621243753678 
3.040000000001991, -2.525256486640493 
3.050000000002012, -2.523410595094723 
3.060000000002033, -2.5278724613597863 
3.070000000002054, -2.534496209650497 
3.0800000000020753, -2.537750463760968 
3.0900000000020964, -2.5389084454842705 
3.1000000000021175, -2.538794674422879 
3.1100000000021386, -2.536765011864441 
3.1200000000021597, -2.5300685353868073 
3.130000000002181, -2.507709699005967 
3.140000000002202, -2.4091910778306835 
3.150000000002223, -1.7238727285423292 
3.160000000002244, 0.04525653323537217 
3.1700000000022652, 0.4502269178593128 
3.1800000000022863, 0.5163260313017448 
3.1900000000023074, 0.5339574585038809 
3.2000000000023285, 0.540156490841784 
3.2100000000023496, 0.5425448746028008 
3.2200000000023707, 0.5433098682497202 
3.230000000002392, 0.5432234393433799 
3.240000000002413, 0.5426125059054385 
3.250000000002434, 0.5417387130760197 
3.260000000002455, 0.5412734515825531 
3.2700000000024763, 0.5435791547133306 
3.2800000000024974, 0.5552733458201246 
3.2900000000025185, 0.5848643873766413 
3.3000000000025396, 0.6243360200568476 
3.3100000000025607, 0.6532480395176797 
3.3200000000025818, 0.6679646411314877 
3.330000000002603, 0.6744450001764265 
3.340000000002624, 0.676946835596223 
3.350000000002645, 0.6772562252992433 
3.360000000002666, 0.6756817673863107 
3.3700000000026873, 0.6712032011894034 
3.3800000000027084, 0.6602919301581917 
3.3900000000027295, 0.6337068319820822 
3.4000000000027506, 0.5775798621626806 
3.4100000000027717, 0.5070609140055149 
3.420000000002793, 0.46793039925057744 
3.430000000002814, 0.4580249531667088 
3.440000000002835, 0.4575266951258924 
3.450000000002856, 0.4585969870487374 
3.460000000002877, 0.45945011381135703 
3.4700000000028983, 0.4597820886523903 
3.4800000000029194, 0.45950107065115386 
3.4900000000029405, 0.4583866072204123 
3.5000000000029616, 0.4558316027588532 
3.5100000000029827, 0.4501786648640652 
3.520000000003004, 0.4362401607348988 
3.530000000003025, 0.3930283506168007 
3.540000000003046, 0.19539095848337762 
3.550000000003067, -0.9308211409521586 
3.5600000000030882, -2.160657154816545 
3.5700000000031094, -2.3832941432492545 
3.5800000000031305, -2.4270660281172667 
3.5900000000031516, -2.438632925871239 
3.6000000000031727, -2.441805302048552 
3.6100000000031938, -2.4420757022012443 
3.620000000003215, -2.441025450605065 
3.630000000003236, -2.4388945873385026 
3.640000000003257, -2.4347831039238783 
3.650000000003278, -2.429054470041593 
3.6600000000032993, -2.4269034614512317 
3.6700000000033204, -2.427782304295996 
3.6800000000033415, -2.427263017066748 
3.6900000000033626, -2.4226562103332165 
3.7000000000033837, -2.4084345071814233 
3.710000000003405, -2.421675145433712 
3.720000000003426, -2.4857710003342737 
3.730000000003447, -2.5136665681548056 
3.740000000003468, -2.522703924269597 
3.750000000003489, -2.525954951331488 
3.7600000000035103, -2.5267391864516715 
3.7700000000035314, -2.525725467569642 
3.7800000000035525, -2.5224535738226055 
3.7900000000035736, -2.514629547705387 
3.8000000000035947, -2.492785617187377 
3.810000000003616, -2.4096870274825624 
3.820000000003637, -2.181092870393196 
3.830000000003658, -2.1569875933344846 
3.840000000003679, -2.1907473635536787 
3.8500000000037002, -2.199457309455772 
3.8600000000037213, -2.2009445399401004 
3.8700000000037424, -2.2000772554566383 
3.8800000000037635, -2.1993247940358707 
3.8900000000037847, -2.2019177910006666 
3.9000000000038058, -2.206092877973504 
3.910000000003827, -2.2087517980225955 
3.920000000003848, -2.2099911894824382 
3.930000000003869, -2.2103529881120214 
3.94000000000389, -2.2096018742447656 
3.9500000000039113, -2.206751120365236 
3.9600000000039324, -2.199272279296192 
3.9700000000039535, -2.1799606492346624 
3.9800000000039746, -2.1245767575355967 
3.9900000000039957, -1.9285414697627103 
4.000000000004016, -1.1987187806082482 
4.010000000003993, -0.2724514127372387 
4.02000000000397, 0.03258188895326862 
4.030000000003946, 0.11537746050095751 
4.040000000003923, 0.1438276588267245 
4.0500000000039, 0.15563717361259083 
4.0600000000038765, 0.16108296871200473 
4.070000000003853, 0.16359306753464326 
4.08000000000383, 0.16445189221619708 
4.090000000003807, 0.16409533670666387 
4.100000000003783, 0.16246976374039013 
4.11000000000376, 0.15899056747508997 
4.120000000003737, 0.15204353989567493 
4.130000000003713, 0.1372514378290134 
4.14000000000369, 0.10095062659725947 
4.150000000003667, -0.009647131567026974 
4.1600000000036434, -0.4274852142093642 
4.17000000000362, -1.4415824815229754 
4.180000000003597, -2.0013523764843453 
4.1900000000035735, -2.1433258190365687 
4.20000000000355, -2.1853214907418947 
4.210000000003527, -2.2000785082124654 
4.220000000003504, -2.205447492217662 
4.23000000000348, -2.2070039235749466 
4.240000000003457, -2.2067646560274756 
4.250000000003434, -2.2055258793616823 
4.26000000000341, -2.2033520916717526 
4.270000000003387, -2.19960752796933 
4.280000000003364, -2.1946986779037294 
4.2900000000033405, -2.192194600543684 
4.300000000003317, -2.1925702801003903 
4.310000000003294, -2.1924458395425668 
4.320000000003271, -2.1894544216767806 
4.330000000003247, -2.1770990742755854 
4.340000000003224, -2.1359069304003566 
4.350000000003201, -2.209594900412064 
4.360000000003177, -2.4324865830266287 
4.370000000003154, -2.498283930017961 
4.380000000003131, -2.515769489605863 
4.390000000003107, -2.5218126345070675 
4.400000000003084, -2.5238861899115297 
4.410000000003061, -2.523850263703376 
4.4200000000030375, -2.521999509594251 
4.430000000003014, -2.5174432633025328 
4.440000000002991, -2.5060992494992207 
4.450000000002968, -2.47275198150025 
4.460000000002944, -2.4104506242059927 
4.470000000002921, -2.4077904811506454 
4.480000000002898, -2.419218910098251 
4.490000000002874, -2.422039145525658 
4.500000000002851, -2.4213933408313517 
4.510000000002828, -2.4198330090301092 
4.520000000002804, -2.422152384400784 
4.530000000002781, -2.427348104209078 
4.540000000002758, -2.43047994101315 
4.5500000000027345, -2.4317368460039592 
4.560000000002711, -2.431926029822552 
4.570000000002688, -2.430677462204717 
4.580000000002665, -2.4262310979588064 
4.590000000002641, -2.4125044992310127 
4.600000000002618, -2.363310790821685 
4.610000000002595, -2.1185018667206337 
4.620000000002571, -0.8570542234789846 
4.630000000002548, 0.1908176655414216 
4.640000000002525, 0.37681622413229615 
4.6500000000025015, 0.4185508084909554 
4.660000000002478, 0.4319775671759175 
4.670000000002455, 0.4372211058505345 
4.6800000000024315, 0.4393551920484846 
4.690000000002408, 0.4400108740518697 
4.700000000002385, 0.4397678201338898 
4.710000000002362, 0.4387872757241017 
4.720000000002338, 0.43702203137171497 
4.730000000002315, 0.4344504033583122 
4.740000000002292, 0.43224690393618104 
4.750000000002268, 0.43875311093793945 
4.760000000002245, 0.4849756888270996 
4.770000000002222, 0.5884052915060004 
4.7800000000021985, 0.6699201011531043 
4.790000000002175, 0.7036538798983853 
4.800000000002152, 0.7157709889412566 
4.810000000002129, 0.7201558968863264 
4.820000000002105, 0.7213586985052233 
4.830000000002082, 0.7206160831199883 
4.840000000002059, 0.7176625494142284 
4.850000000002035, 0.7107169141712568 
4.860000000002012, 0.6956117328763044 
4.870000000001989, 0.6670790392098933 
4.880000000001965, 0.6302452548647032 
4.890000000001942, 0.6044632871318031 
4.900000000001919, 0.5949706965324058 
4.9100000000018955, 0.5932746101073122 
4.920000000001872, 0.593633361386324 
4.930000000001849, 0.5941243055143723 
4.940000000001826, 0.5942129690791653 
