t, s[1].omega / s[0].omega 
0, -0.4191002983556215 
0.009999999999999995, -0.35245250238176073 
0.019999999999999934, -0.31614473070607907 
0.029999999999999874, -0.2952766319813157 
0.04000000000000012, -0.28257180326214043 
0.050000000000000405, -0.2744611013990296 
0.06000000000000069, -0.2691121120550191 
0.07000000000000098, -0.26554141375307677 
0.08000000000000126, -0.26320983765131445 
0.09000000000000155, -0.26183127621021385 
0.10000000000000184, -0.2612817871435322 
0.11000000000000212, -0.26156198977247175 
0.12000000000000241, -0.2627951927098434 
0.130000000000002, -0.2652601626296749 
0.1400000000000009, -0.269472838074277 
0.1499999999999998, -0.2763559217415766 
0.1599999999999987, -0.287586999529183 
0.1699999999999976, -0.3063349366910075 
0.1799999999999965, -0.33886590153648904 
0.1899999999999954, -0.3979941050513601 
0.1999999999999943, -0.5090906378898634 
0.2099999999999932, -0.7097649956366537 
0.2199999999999921, -0.9982362758117025 
0.229999999999991, -1.2572676383264314 
0.2399999999999899, -1.3971306321319072 
0.2499999999999888, -1.4531251462535892 
0.2599999999999877, -1.473599990567728 
0.2699999999999866, -1.4810098069230038 
0.2799999999999855, -1.48347793181811 
0.2899999999999844, -1.4838619889380031 
0.2999999999999833, -1.4833878029006777 
0.3099999999999822, -1.4831355411292964 
0.3199999999999811, -1.4843073200874266 
0.32999999999998, -1.487146840336071 
0.3399999999999789, -1.4905686755190142 
0.3499999999999778, -1.4935515927062952 
0.35999999999997667, -1.4958321161117274 
0.36999999999997557, -1.4974975555412589 
0.37999999999997447, -1.4985943625509697 
0.38999999999997337, -1.4990777007610165 
0.39999999999997227, -1.4988914480908468 
0.40999999999997117, -1.4980070114344655 
0.41999999999997006, -1.4964099731284715 
0.42999999999996896, -1.4940642574832101 
0.43999999999996786, -1.490875620292157 
0.44999999999996676, -1.486656581073246 
0.45999999999996566, -1.4810684828357836 
0.46999999999996456, -1.4735586174674455 
0.47999999999996346, -1.4635469511108963 
0.48999999999996235, -1.4514822821822753 
0.49999999999996125, -1.4405465138239044 
0.5099999999999602, -1.4348815470145446 
0.519999999999959, -1.4341324902570332 
0.529999999999958, -1.434886623810865 
0.5399999999999568, -1.4350418934328255 
0.5499999999999557, -1.433635640825608 
0.5599999999999546, -1.4289834429219312 
0.5699999999999535, -1.4153355766567417 
0.5799999999999524, -1.3699147142010006 
0.5899999999999513, -1.1900948849692679 
0.5999999999999502, -0.5604632630315052 
0.6099999999999491, 0.12496010665644877 
0.619999999999948, 0.32298601341214334 
0.6299999999999469, 0.372011934084466 
0.6399999999999458, 0.38772636376131914 
0.6499999999999447, 0.3937924521863928 
0.6599999999999436, 0.396275830048748 
0.6699999999999425, 0.3971330350201561 
0.6799999999999414, 0.3971351451353776 
0.6899999999999403, 0.39667259398140425 
0.6999999999999392, 0.39602003501310684 
0.7099999999999381, 0.3954260322873352 
0.719999999999937, 0.395138267246204 
0.7299999999999359, 0.39541150290546245 
0.7399999999999348, 0.39650662271034165 
0.7499999999999337, 0.3986456634157654 
0.7599999999999326, 0.40187421240257964 
0.7699999999999315, 0.40587740958352647 
0.7799999999999304, 0.4099737049218404 
0.7899999999999293, 0.41343035239934445 
0.7999999999999282, 0.41581439448506535 
0.8099999999999271, 0.41702284954786767 
0.819999999999926, 0.4170497867214591 
0.8299999999999249, 0.4156907983804943 
0.8399999999999238, 0.4121419997028456 
0.8499999999999227, 0.4040594948246786 
0.8599999999999216, 0.3848325679224943 
0.8699999999999205, 0.3370031794534361 
0.8799999999999194, 0.23419831120107712 
0.8899999999999183, 0.10617284845955643 
0.8999999999999172, 0.03035229669437984 
0.9099999999999161, 0.001995547036056843 
0.919999999999915, -0.007403549413187968 
0.9299999999999139, -0.010740097238584219 
0.9399999999999128, -0.012037670435721164 
0.9499999999999117, -0.012541316367641591 
0.9599999999999106, -0.012682855772695295 
0.9699999999999095, -0.012644418908291608 
0.9799999999999084, -0.012541114330031975 
0.9899999999999073, -0.012492825681901333 
0.9999999999999062, -0.012660314901573547 
1.0099999999999052, -0.013272671175032683 
1.019999999999904, -0.014673470262630934 
1.029999999999903, -0.01743485474476903 
1.039999999999902, -0.022634230395192127 
1.0499999999999008, -0.032492802264056805 
1.0599999999998997, -0.05173703476979204 
1.0699999999998986, -0.08956153527689763 
1.0799999999998975, -0.1570144685870011 
1.0899999999998964, -0.2465447053219585 
1.0999999999998953, -0.32226632584646997 
1.1099999999998942, -0.3658081418693382 
1.119999999999893, -0.38672117147229385 
1.129999999999892, -0.39648111591002644 
1.1399999999998909, -0.40108554801478336 
1.1499999999998898, -0.40312273571169605 
1.1599999999998887, -0.4036384694236393 
1.1699999999998876, -0.40296896229147994 
1.1799999999998865, -0.40106165750223866 
1.1899999999998854, -0.39762381559389925 
1.1999999999998843, -0.39231716219847196 
1.2099999999998832, -0.385136257290296 
1.219999999999882, -0.37679360776385623 
1.229999999999881, -0.3685649690565638 
1.2399999999998799, -0.3615515337578358 
1.2499999999998788, -0.35618282233084786 
1.2599999999998777, -0.3523460338673363 
1.2699999999998766, -0.3497223258959159 
1.2799999999998755, -0.34798717680101093 
1.2899999999998744, -0.3468653346476248 
1.2999999999998733, -0.346129316284134 
1.3099999999998722, -0.34559780939660495 
1.319999999999871, -0.34514556895205045 
1.32999999999987, -0.3447142218501412 
1.3399999999998689, -0.34431880302457285 
1.3499999999998678, -0.3440625615862805 
1.3599999999998666, -0.3441886477586624 
1.3699999999998655, -0.34522334132387045 
1.3799999999998644, -0.34834572735886504 
1.3899999999998633, -0.35637828423326245 
1.3999999999998622, -0.3766781055049635 
1.4099999999998611, -0.43041944223908607 
1.41999999999986, -0.5826124408828288 
1.429999999999859, -0.9822331791960348 
1.4399999999998578, -1.5349275465092516 
1.4499999999998567, -1.8225664738400351 
1.4599999999998556, -1.9256576927641595 
1.4699999999998545, -1.9662839111841248 
1.4799999999998534, -1.984148425519773 
1.4899999999998523, -1.9922007080914585 
1.4999999999998512, -1.9955318166298261 
1.5099999999998501, -1.9964302275500976 
1.519999999999849, -1.995995763311378 
1.529999999999848, -1.994790394431209 
1.5399999999998468, -1.9929221793872327 
1.5499999999998457, -1.990039408996695 
1.5599999999998446, -1.9863510275772627 
1.5699999999998435, -1.9838517490201664 
1.5799999999998424, -1.983565866609252 
1.5899999999998413, -1.983569717426695 
1.5999999999998402, -1.9818789443214413 
1.6099999999998391, -1.9749685399616106 
1.619999999999838, -1.9452742032563637 
1.629999999999837, -1.773980175056232 
1.6399999999998358, -0.9527858721481886 
1.6499999999998347, 2.896020312408041 
1.6599999999998336, 3.0735917474173498 
1.6699999999998325, 3.0781917008561686 
1.6799999999998314, 3.07581371657506 
1.6899999999998303, 3.0336583637326306 
1.6999999999998292, -3.7867598582308766 
1.709999999999828, -4.30884573840458 
1.719999999999827, -4.3165218387320055 
1.729999999999826, -4.315861085557487 
1.7399999999998248, -4.31162870475358 
1.7499999999998237, -4.296601938991683 
1.7599999999998226, -4.300298752771356 
1.7699999999998215, -4.301467181560115 
1.7799999999998204, -4.300480568903735 
1.7899999999998193, -4.301324952191193 
1.7999999999998182, -4.300731481034478 
1.809999999999817, -4.2998692697510865 
1.819999999999816, -4.2918536631923345 
1.8299999999998149, -4.269886054381675 
1.8399999999998138, -4.342601592002954 
1.8499999999998127, -4.349728677549282 
1.8599999999998116, -4.349484168594411 
1.8699999999998105, -4.342612781710036 
1.8799999999998094, -4.2045659621033815 
1.8899999999998083, 2.1814159996871356 
1.8999999999998072, 2.352757895532198 
1.909999999999806, 2.359882908952186 
1.919999999999805, 2.360000982808185 
1.9299999999998039, 2.3564266838480137 
1.9399999999998028, 2.3396325204773207 
1.9499999999998017, 2.2970294259742245 
1.9599999999998006, 2.3030500454559535 
1.9699999999997995, 2.3105922137074866 
1.9799999999997984, 2.3115862535865324 
1.9899999999997973, 2.3103277891897083 
1.9999999999997962, 2.3100368004963374 
2.0099999999998173, 2.3141310261728143 
2.0199999999998384, 2.3179390410515985 
2.0299999999998595, 2.3191963216781843 
2.0399999999998806, 2.318893447219269 
2.0499999999999017, 2.3164375431883757 
2.059999999999923, 2.298587197927257 
2.069999999999944, 1.21873941599954 
2.079999999999965, -4.486962152583246 
2.089999999999986, -4.529016204070613 
2.100000000000007, -4.531324749893022 
2.1100000000000283, -4.528426544319052 
2.1200000000000494, -4.500740180768852 
2.1300000000000705, -3.2892443290341697 
2.1400000000000916, -3.8227373690635646 
2.1500000000001127, -3.8471922522928685 
2.160000000000134, -3.848332415942921 
2.170000000000155, -3.8473263247467315 
2.180000000000176, -3.8445640737778994 
2.190000000000197, -3.8404834857403083 
2.2000000000002182, -3.84125889842736 
2.2100000000002393, -3.8397748107324015 
2.2200000000002604, -3.836580676497826 
2.2300000000002815, -3.84413805928491 
2.2400000000003026, -3.8471871777667657 
2.2500000000003237, -3.8472183997621707 
2.260000000000345, -3.8442589485132275 
2.270000000000366, -3.81261622832434 
2.280000000000387, -0.5134326075449148 
2.290000000000408, 2.7291417944296503 
2.3000000000004293, 2.750504247363042 
2.3100000000004504, 2.7514886918881896 
2.3200000000004715, 2.7463297356149043 
2.3300000000004926, 2.653686140757622 
2.3400000000005137, 0.5839675992659494 
2.3500000000005348, 1.2218449397727273 
2.360000000000556, 1.3163990966765258 
2.370000000000577, 1.3306458012950406 
2.380000000000598, 1.3338313840939766 
2.390000000000619, 1.3342375090221212 
2.4000000000006403, 1.33371332365008 
2.4100000000006614, 1.3334590510289646 
2.4200000000006825, 1.3352152686852299 
2.4300000000007036, 1.3398731184606463 
2.4400000000007247, 1.345377318475664 
2.450000000000746, 1.349307477909967 
2.460000000000767, 1.3512659846439747 
2.470000000000788, 1.3517041186914227 
2.480000000000809, 1.3506437867499586 
2.49000000000083, 1.346345808091876 
2.5000000000008513, 1.3267768354888365 
2.5100000000008724, 1.1059553018181378 
2.5200000000008935, -2.7064965968335275 
2.5300000000009146, -3.2711519796602935 
2.5400000000009357, -3.29976906975791 
2.550000000000957, -3.303608249666085 
2.560000000000978, -3.3032561158169544 
2.570000000000999, -3.300706675982876 
2.58000000000102, -3.2925407517135845 
2.5900000000010412, -3.2772166853379927 
2.6000000000010624, -3.2799633293844623 
2.6100000000010835, -3.2823111181132396 
2.6200000000011046, -3.280930737683679 
2.6300000000011257, -3.280731909117988 
2.6400000000011468, -3.2843603348415655 
2.650000000001168, -3.28577598687912 
2.660000000001189, -3.2857856669594896 
2.67000000000121, -3.2842157926769153 
2.680000000001231, -3.2740077325271693 
2.6900000000012523, -3.1230548349278227 
2.7000000000012734, 1.6694826835515013 
2.7100000000012945, 2.3035481211966826 
2.7200000000013156, 2.318648527414104 
2.7300000000013367, 2.3197827189353166 
2.740000000001358, 2.3162758947579745 
2.750000000001379, 2.286623041131349 
2.7600000000014, 1.6111583827209859 
2.770000000001421, 1.5896081161955613 
2.780000000001442, 1.6843189266087972 
2.7900000000014633, 1.6959413781959032 
2.8000000000014844, 1.6979726660259709 
2.8100000000015055, 1.6979361145052299 
2.8200000000015266, 1.6977288350883772 
2.8300000000015477, 1.6986319386258653 
2.840000000001569, 1.700694333972267 
2.85000000000159, 1.702597536098367 
2.860000000001611, 1.70357222575532 
2.870000000001632, 1.7036948921540431 
2.8800000000016532, 1.7029220770181954 
2.8900000000016743, 1.6998557714756686 
2.9000000000016954, 1.6842717368303037 
2.9100000000017165, 1.4382283887954581 
2.9200000000017377, -3.4289670093567004 
2.9300000000017588, -3.723922282441804 
2.94000000000178, -3.739358841989359 
2.950000000001801, -3.7411563584655907 
2.960000000001822, -3.7393251243470145 
2.970000000001843, -3.7304519896027393 
2.9800000000018643, -3.660333865182701 
2.9900000000018854, -3.599986658133581 
3.0000000000019065, -3.631641499266597 
3.0100000000019276, -3.63417162889064 
3.0200000000019487, -3.6335808365186013 
3.03000000000197, -3.633233610318939 
3.040000000001991, -3.6318353802142367 
3.050000000002012, -3.630987383346028 
3.060000000002033, -3.6300704565910067 
3.070000000002054, -3.6218540541478736 
3.0800000000020753, -3.613804830185748 
3.0900000000020964, -3.6592848507347213 
3.1000000000021175, -3.6689147533684965 
3.1100000000021386, -3.6702230014707524 
3.1200000000021597, -3.6684052445457405 
3.130000000002181, -3.657642592764256 
3.140000000002202, -3.533134966284641 
3.150000000002223, 0.9494452995339191 
3.160000000002244, 1.6417704266193023 
3.1700000000022652, 1.666856739731364 
3.1800000000022863, 1.6706120993359819 
3.1900000000023074, 1.6709483095213256 
3.2000000000023285, 1.6697405230533744 
3.2100000000023496, 1.6666461885162718 
3.2200000000023707, 1.6609524574480652 
3.230000000002392, 1.6544075028968226 
3.240000000002413, 1.6513857747527503 
3.250000000002434, 1.651544525957186 
3.260000000002455, 1.6518489250730535 
3.2700000000024763, 1.6506048881075657 
3.2800000000024974, 1.6448664740958665 
3.2900000000025185, 1.6193105511971104 
3.3000000000025396, 1.5671637893105237 
3.3100000000025607, 1.800648290943876 
3.3200000000025818, 1.8676205791487326 
3.330000000002603, 1.877057411950154 
3.340000000002624, 1.8783392572933828 
3.350000000002645, 1.876076066548928 
3.360000000002666, 1.8622376570405361 
3.3700000000026873, 1.6376785944316066 
3.3800000000027084, -2.4756422700005865 
3.3900000000027295, -2.9561700976012406 
3.4000000000027506, -2.980382034695954 
3.4100000000027717, -2.983336354204359 
3.420000000002793, -2.9830639931033196 
3.430000000002814, -2.9820252055608654 
3.440000000002835, -2.9797838144628233 
3.450000000002856, -2.976446122207585 
3.460000000002877, -2.975914824849873 
3.4700000000028983, -2.9758372152092467 
3.4800000000029194, -2.97193159372307 
3.4900000000029405, -2.959325291113279 
3.5000000000029616, -2.982951479393263 
3.5100000000029827, -3.0121217118156176 
3.520000000003004, -3.0199014501565866 
3.530000000003025, -3.0218075500417134 
3.540000000003046, -3.0212944304080223 
3.550000000003067, -3.0176627837840515 
3.5600000000030882, -3.0045717897502997 
3.5700000000031094, -2.933943437826099 
3.5800000000031305, -1.870788165820158 
3.5900000000031516, 0.6814395630360903 
3.6000000000031727, 0.9024734207357135 
3.6100000000031938, 0.931612558511922 
3.620000000003215, 0.938761207156783 
3.630000000003236, 0.9408748232716914 
3.640000000003257, 0.9413095278576881 
3.650000000003278, 0.9411256393282341 
3.6600000000032993, 0.9409976205665318 
3.6700000000033204, 0.9418231427464521 
3.6800000000033415, 0.9447848855914331 
3.6900000000033626, 0.9503724942441618 
3.7000000000033837, 0.9571397447111387 
3.710000000003405, 0.9628211274014854 
3.720000000003426, 0.9664162127860626 
3.730000000003447, 0.9681300724966893 
3.740000000003468, 0.9683336088003325 
3.750000000003489, 0.966857379284282 
3.7600000000035103, 0.9619052426029834 
3.7700000000035314, 0.9442465981943112 
3.7800000000035525, 0.8401890656228085 
3.7900000000035736, -0.4368415696033166 
3.8000000000035947, -2.1901251249340055 
3.810000000003616, -2.354824313087264 
3.820000000003637, -2.376398816612625 
3.830000000003658, -2.3805868894903894 
3.840000000003679, -2.3810093602701574 
3.8500000000037002, -2.3804883836197406 
3.8600000000037213, -2.3799891073824413 
3.8700000000037424, -2.3791073841451587 
3.8800000000037635, -2.3776894191317597 
3.8900000000037847, -2.3769331598739503 
3.9000000000038058, -2.376687359553004 
3.910000000003827, -2.3749254928013714 
3.920000000003848, -2.36662961825013 
3.930000000003869, -2.3171591155520073 
3.94000000000389, -1.863658332487271 
3.9500000000039113, -0.5292603534081831 
3.9600000000039324, 4.5638680605256265 
3.9700000000039535, 4.576624949700422 
3.9800000000039746, 4.5725195371793115 
3.9900000000039957, -0.21489446165252213 
4.000000000004016, -6.3824369555568525 
4.010000000003993, -6.384652100274026 
4.02000000000397, -6.374248707157245 
4.030000000003946, -6.299227016680322 
4.040000000003923, -6.326990384706318 
4.0500000000039, -6.32561792848671 
4.0600000000038765, -6.318367375049982 
4.070000000003853, -6.319696245377537 
4.08000000000383, -6.318392923965151 
4.090000000003807, -6.317813575097288 
4.100000000003783, -6.316442202419876 
4.11000000000376, -6.3108843508533266 
4.120000000003737, -6.316864335914933 
4.130000000003713, -6.318011859051877 
4.14000000000369, -6.312405947874454 
4.150000000003667, -6.2763782905446535 
4.1600000000036434, -6.431137607975302 
4.17000000000362, -6.431126680228283 
4.180000000003597, -6.397647918647349 
4.1900000000035735, 4.4334550387761515 
4.20000000000355, 4.466948220985291 
4.210000000003527, 4.4653142443518155 
4.220000000003504, 4.358304726817134 
4.23000000000348, 4.125369354900069 
4.240000000003457, 4.148447453194681 
4.250000000003434, 4.148455624142992 
4.26000000000341, 4.144634861064347 
4.270000000003387, 4.134807738480191 
4.280000000003364, 4.138450331072069 
4.2900000000033405, 4.138020566845415 
4.300000000003317, 4.137718019452248 
4.310000000003294, 4.1391153809358 
4.320000000003271, 4.138539293714829 
4.330000000003247, 4.136733439110893 
4.340000000003224, 4.111938230752666 
4.350000000003201, 4.160632899378902 
4.360000000003177, 4.176539608937877 
4.370000000003154, 4.1757910651697685 
4.380000000003131, 4.144093547545678 
4.390000000003107, -6.163495917855267 
4.400000000003084, -6.2161500743164195 
4.410000000003061, -6.21491061350896 
4.4200000000030375, -6.161039286917795 
4.430000000003014, -1.3876194417065044 
4.440000000002991, -2.829515344531186 
4.450000000002968, -2.94115581275232 
4.460000000002944, -2.950577699340954 
4.470000000002921, -2.9514163736442542 
4.480000000002898, -2.950848136363052 
4.490000000002874, -2.9501709880787996 
4.500000000002851, -2.948524938352804 
4.510000000002828, -2.9469904643858835 
4.520000000002804, -2.9468491531932073 
4.530000000002781, -2.9450733639868463 
4.540000000002758, -2.93404998207886 
4.5500000000027345, -2.9016810790661616 
4.560000000002711, -3.005590266828987 
4.570000000002688, -3.0522673511762326 
4.580000000002665, -3.0615434657854963 
4.590000000002641, -3.0637237677262625 
4.600000000002618, -3.063194489128279 
4.610000000002595, -3.059613047581367 
4.620000000002571, -3.0473304900876994 
4.630000000002548, -2.9806926630672623 
4.640000000002525, -2.13002461449849 
4.6500000000025015, -0.6545941518430584 
4.660000000002478, -0.3784400611695523 
4.670000000002455, -0.31252186060715076 
4.6800000000024315, -0.2923309134535149 
4.690000000002408, -0.28537969734817403 
4.700000000002385, -0.2828944533413945 
4.710000000002362, -0.28204276099515585 
4.720000000002338, -0.28179083915653563 
4.730000000002315, -0.281725687217631 
4.740000000002292, -0.28167360414151177 
4.750000000002268, -0.28156965909779236 
4.760000000002245, -0.28141802472937355 
4.770000000002222, -0.2812860282278603 
4.7800000000021985, -0.28130351236075035 
4.790000000002175, -0.2816545029067473 
4.800000000002152, -0.2825677992927918 
4.810000000002129, -0.28432412773675664 
4.820000000002105, -0.28728147951082045 
4.830000000002082, -0.2918767073647745 
4.840000000002059, -0.29849873518351944 
4.850000000002035, -0.30711617154141785 
4.860000000002012, -0.31682120611233905 
4.870000000001989, -0.3259686737318747 
4.880000000001965, -0.3331602229991205 
4.890000000001942, -0.3379794001942026 
4.900000000001919, -0.34074969252329296 
4.9100000000018955, -0.3419518275271222 
4.920000000001872, -0.3418813636352827 
4.930000000001849, -0.34051697020227584 
4.940000000001826, -0.3373976434690336 
4.950000000001802, -0.3313622462535175 
4.960000000001779, -0.32014403414791665 
4.970000000001756, -0.30042457996401634 
