t, s[1].omega / s[0].omega 
0, -0.6599548139244699 
0.009999999999999995, -0.6558519663129232 
0.019999999999999934, -0.6524920946127353 
0.029999999999999874, -0.6497183981706149 
0.04000000000000012, -0.6473793965218422 
0.050000000000000405, -0.6453673160650989 
0.06000000000000069, -0.6436341713416749 
0.07000000000000098, -0.6421913977508993 
0.08000000000000126, -0.6410969599329415 
0.09000000000000155, -0.6404353385439737 
0.10000000000000184, -0.640295962517757 
0.11000000000000212, -0.6407552602705923 
0.12000000000000241, -0.6418666828902322 
0.130000000000002, -0.6436608639538135 
0.1400000000000009, -0.646155332101884 
0.1499999999999998, -0.6493718071292949 
0.1599999999999987, -0.6533594739406801 
0.1699999999999976, -0.6582231733745894 
0.1799999999999965, -0.6641545113567711 
0.1899999999999954, -0.6714601794921997 
0.1999999999999943, -0.680570095589503 
0.2099999999999932, -0.691973034620608 
0.2199999999999921, -0.7059610526249749 
0.229999999999991, -0.7220724276408264 
0.2399999999999899, -0.7385493029215288 
0.2499999999999888, -0.7528203035700342 
0.2599999999999877, -0.7631491718685552 
0.2699999999999866, -0.7695257386487634 
0.2799999999999855, -0.7729375672598259 
0.2899999999999844, -0.7743897833257934 
0.2999999999999833, -0.7745230923760638 
0.3099999999999822, -0.7736262387099624 
0.3199999999999811, -0.7717661446776416 
0.32999999999998, -0.7690493835005185 
0.3399999999999789, -0.7664825740843764 
0.3499999999999778, -0.7692076312778194 
0.35999999999997667, -0.7982554151521591 
0.36999999999997557, -0.9259984162843725 
0.37999999999997447, -1.280004231162246 
0.38999999999997337, -1.6774727054716227 
0.39999999999997227, -1.8600044217714207 
0.40999999999997117, -1.928356639683173 
0.41999999999997006, -1.9573961710692784 
0.42999999999996896, -1.9710849878973238 
0.43999999999996786, -1.9776281602151333 
0.44999999999996676, -1.9804317840670844 
0.45999999999996566, -1.981133415710206 
0.46999999999996456, -1.9805779148361826 
0.47999999999996346, -1.9792043015703569 
0.48999999999996235, -1.977037580675988 
0.49999999999996125, -1.973669198898173 
0.5099999999999602, -1.9693240373679175 
0.519999999999959, -1.9663181940624495 
0.529999999999958, -1.9659752606438894 
0.5399999999999568, -1.9661503419587583 
0.5499999999999557, -1.9647710414675181 
0.5599999999999546, -1.958844262236564 
0.5699999999999535, -1.9345153543942835 
0.5799999999999524, -1.8097549056161188 
0.5899999999999513, -1.4755801120804697 
0.5999999999999502, -3.6517534919367094 
0.6099999999999491, -3.917875659734 
0.619999999999948, -3.9303887693657105 
0.6299999999999469, -3.9315397997616905 
0.6399999999999458, -3.9287801959184554 
0.6499999999999447, -3.9126561483375326 
0.6599999999999436, -3.560442601952475 
0.6699999999999425, -2.7122650399851738 
0.6799999999999414, -2.9649499898202087 
0.6899999999999403, -2.983421130638729 
0.6999999999999392, -2.9853862469618964 
0.7099999999999381, -2.98494916367391 
0.719999999999937, -2.984497838832994 
0.7299999999999359, -2.9834622301595743 
0.7399999999999348, -2.981895962847018 
0.7499999999999337, -2.9815570180967947 
0.7599999999999326, -2.980378015524501 
0.7699999999999315, -2.972297178895551 
0.7799999999999304, -2.9309076408943526 
0.7899999999999293, -3.026055551849315 
0.7999999999999282, -3.1058511518330243 
0.8099999999999271, -3.1196568134970155 
0.819999999999926, -3.1227761561970366 
0.8299999999999249, -3.122706709886966 
0.8399999999999238, -3.119797345064664 
0.8499999999999227, -3.1096475021246817 
0.8599999999999216, -3.056794358203578 
0.8699999999999205, -2.3646751755353157 
0.8799999999999194, -0.9314102516250239 
0.8899999999999183, -0.7687951021525359 
0.8999999999999172, -0.7711691945238552 
0.9099999999999161, -0.7843792269931504 
0.919999999999915, -0.7933408804182062 
0.9299999999999139, -0.7983704814651567 
0.9399999999999128, -0.8008906571321391 
0.9499999999999117, -0.801764449042099 
0.9599999999999106, -0.8012815594594294 
0.9699999999999095, -0.7991941306072362 
0.9799999999999084, -0.7945459922546076 
0.9899999999999073, -0.785260085996944 
0.9999999999999062, -0.767843979484402 
1.0099999999999052, -0.7387633492501756 
1.019999999999904, -0.6989720067466071 
1.029999999999903, -0.6563653330569501 
1.039999999999902, -0.6194579441215355 
1.0499999999999008, -0.5912931224282649 
1.0599999999998997, -0.5707943432095619 
1.0699999999998986, -0.555884138210822 
1.0799999999998975, -0.5448391787213741 
1.0899999999998964, -0.5364843535027545 
1.0999999999998953, -0.53006750178231 
1.1099999999998942, -0.5251166192909704 
1.119999999999893, -0.5213360052193334 
1.129999999999892, -0.5185371920519883 
1.1399999999998909, -0.5165941210937097 
1.1499999999998898, -0.5154151514987774 
1.1599999999998887, -0.5149273434759413 
1.1699999999998876, -0.5150701879260011 
1.1799999999998865, -0.5157969963974174 
1.1899999999998854, -0.5170828730664315 
1.1999999999998843, -0.5189387464077009 
1.2099999999998832, -0.5214313078711948 
1.219999999999882, -0.5247088989927942 
1.229999999999881, -0.529033900427333 
1.2399999999998799, -0.5348223391222022 
1.2499999999998788, -0.542682432794767 
1.2599999999998777, -0.5533984436448771 
1.2699999999998766, -0.567688630375736 
1.2799999999998755, -0.585469386267078 
1.2899999999998744, -0.6048445387529716 
1.2999999999998733, -0.6223602738886905 
1.3099999999998722, -0.6353336967668723 
1.319999999999871, -0.643460383350246 
1.32999999999987, -0.6479252598194732 
1.3399999999998689, -0.650000974212435 
1.3499999999998678, -0.6504898453812558 
1.3599999999998666, -0.6496949551156198 
1.3699999999998655, -0.647439567422294 
1.3799999999998644, -0.6428749429412668 
1.3899999999998633, -0.6337063869919098 
1.3999999999998622, -0.6134393017132388 
1.4099999999998611, -0.5595684278222353 
1.41999999999986, -0.370619023462819 
1.429999999999859, 0.26031644098197865 
1.4399999999998578, 0.7516469044166465 
1.4499999999998567, 0.8467108618758028 
1.4599999999998556, 0.8667527086315276 
1.4699999999998545, 0.8724054068392668 
1.4799999999998534, 0.873864048787554 
1.4899999999998523, 0.8732626874678637 
1.4999999999998512, 0.8706258530471404 
1.5099999999998501, 0.8647340399878924 
1.519999999999849, 0.8533634403902303 
1.529999999999848, 0.835753210873999 
1.5399999999998468, 0.8177641125455732 
1.5499999999998457, 0.8073219771060733 
1.5599999999998446, 0.8040776348355857 
1.5699999999998435, 0.8038556078545588 
1.5799999999998424, 0.8042086783479065 
1.5899999999998413, 0.8042274301078619 
1.5999999999998402, 0.8034316824233295 
1.6099999999998391, 0.8009965923080486 
1.619999999999838, 0.7943491454299911 
1.629999999999837, 0.7724989935016549 
1.6399999999998358, 0.6589108080057782 
1.6499999999998347, -0.5568950045900338 
1.6599999999998336, -2.690764044740985 
1.6699999999998325, -2.877779478622087 
1.6799999999998314, -2.903644727130227 
1.6899999999998303, -2.9098357748669503 
1.6999999999998292, -2.9110030720721256 
1.709999999999828, -2.9098267902422705 
1.719999999999827, -2.9059740786800745 
1.729999999999826, -2.8943189659359962 
1.7399999999998248, -2.86208044705067 
1.7499999999998237, -2.851966613471313 
1.7599999999998226, -2.860785667576798 
1.7699999999998215, -2.862490254673932 
1.7799999999998204, -2.861220903423234 
1.7899999999998193, -2.8611951296338445 
1.7999999999998182, -2.864598434318995 
1.809999999999817, -2.866587677336764 
1.819999999999816, -2.8670414116076812 
1.8299999999998149, -2.8665867980154776 
1.8399999999998138, -2.863522222053282 
1.8499999999998127, -2.8478082157486417 
1.8599999999998116, -2.6959673488564553 
1.8699999999998105, 0.0723403316837832 
1.8799999999998094, 1.1782924217589559 
1.8899999999998083, 1.2345898982058112 
1.8999999999998072, 1.2436573671972815 
1.909999999999806, 1.2456275128898255 
1.919999999999805, 1.2452184445322154 
1.9299999999998039, 1.2427957745673714 
1.9399999999998028, 1.2371356968421152 
1.9499999999998017, 1.2263048598793787 
1.9599999999998006, 1.2119853606752153 
1.9699999999997995, 1.2025972261751003 
1.9799999999997984, 1.2007652418269432 
1.9899999999997973, 1.201659244763604 
1.9999999999997962, 1.2023130431070412 
2.0099999999998173, 1.2018045865220117 
2.0199999999998384, 1.1990260001315354 
2.0299999999998595, 1.1894973908291846 
2.0399999999998806, 1.1478515103523041 
2.0499999999999017, 0.9288065822110715 
2.059999999999923, 1.643195982354062 
2.069999999999944, 2.0051740471687953 
2.079999999999965, 2.025728683119787 
2.089999999999986, 2.028283523777117 
2.100000000000007, 2.026740087955835 
2.1100000000000283, 2.015955832551909 
2.1200000000000494, 1.8683935412232544 
2.1300000000000705, -0.5367595888145231 
2.1400000000000916, -1.4711759410142067 
2.1500000000001127, -1.6477356136311472 
2.160000000000134, -1.6843451688584543 
2.170000000000155, -1.6935662565736667 
2.180000000000176, -1.6958606227882735 
2.190000000000197, -1.6956464066280574 
2.2000000000002182, -1.694341540159068 
2.2100000000002393, -1.69410928375801 
2.2200000000002604, -1.6982805601765842 
2.2300000000002815, -1.7060146653076167 
2.2400000000003026, -1.7131081814306957 
2.2500000000003237, -1.7179799084495522 
2.260000000000345, -1.7210730428680783 
2.270000000000366, -1.722955103913484 
2.280000000000387, -1.7238787777602007 
2.290000000000408, -1.7239134114035621 
2.3000000000004293, -1.7230541709769056 
2.3100000000004504, -1.7212327680458208 
2.3200000000004715, -1.7182778399057141 
2.3300000000004926, -1.7138264020475926 
2.3400000000005137, -1.7071193282809265 
2.3500000000005348, -1.6966199389347647 
2.360000000000556, -1.679969614645961 
2.370000000000577, -1.6571825053417129 
2.380000000000598, -1.6384758578884848 
2.390000000000619, -1.633869937832006 
2.4000000000006403, -1.6360435088467846 
2.4100000000006614, -1.6377630185208467 
2.4200000000006825, -1.6376017253366535 
2.4300000000007036, -1.6347908131678293 
2.4400000000007247, -1.6258815644277231 
2.450000000000746, -1.5994243767602299 
2.460000000000767, -1.5509047995792151 
2.470000000000788, -1.7568317527862072 
2.480000000000809, -2.2654493747610736 
2.49000000000083, -2.4119439145860855 
2.5000000000008513, -2.4458031714611255 
2.5100000000008724, -2.4567922450920956 
2.5200000000008935, -2.460908030544629 
2.5300000000009146, -2.462047806237984 
2.5400000000009357, -2.4613504187128905 
2.550000000000957, -2.4588735041745657 
2.560000000000978, -2.4533285770277287 
2.570000000000999, -2.4399059230430207 
2.58000000000102, -2.4126530774694386 
2.5900000000010412, -2.3993739762172215 
2.6000000000010624, -2.405498198635366 
2.6100000000010835, -2.408306037594383 
2.6200000000011046, -2.4076698348047585 
2.6300000000011257, -2.404868148505601 
2.6400000000011468, -2.4059305442595207 
2.650000000001168, -2.415419546410344 
2.660000000001189, -2.4226634254599078 
2.67000000000121, -2.4258366872179398 
2.680000000001231, -2.42698970529829 
2.6900000000012523, -2.4267443343750026 
2.7000000000012734, -2.424568644397476 
2.7100000000012945, -2.4184971387485654 
2.7200000000013156, -2.4022018398740284 
2.7300000000013367, -2.349842277440279 
2.740000000001358, -2.103042630103343 
2.750000000001379, -0.9269442949496722 
2.7600000000014, 0.017230734733547602 
2.770000000001421, 0.21884871781421406 
2.780000000001442, 0.26986860144149516 
2.7900000000014633, 0.2873660193394224 
2.8000000000014844, 0.29456530971952694 
2.8100000000015055, 0.2976995316077176 
2.8200000000015266, 0.29881163800921456 
2.8300000000015477, 0.2985693828653434 
2.840000000001569, 0.296967683283484 
2.85000000000159, 0.2933230027539947 
2.860000000001611, 0.2855511787770503 
2.870000000001632, 0.267289417270178 
2.8800000000016532, 0.21486872452536185 
2.8900000000016743, 0.00941565052160472 
2.9000000000016954, -1.010105828396656 
2.9100000000017165, -2.371318867531187 
2.9200000000017377, -2.5857666206727212 
2.9300000000017588, -2.622823009645595 
2.94000000000178, -2.633165194426113 
2.950000000001801, -2.6363686985834196 
2.960000000001822, -2.636683045249953 
2.970000000001843, -2.6351415390565576 
2.9800000000018643, -2.6311953604513585 
2.9900000000018854, -2.621171723896776 
3.0000000000019065, -2.5985803768001374 
3.0100000000019276, -2.5866412500314544 
3.0200000000019487, -2.5924999401181505 
3.03000000000197, -2.5947030296226865 
3.040000000001991, -2.593561820561961 
3.050000000002012, -2.5912144146037415 
3.060000000002033, -2.5951312683744083 
3.070000000002054, -2.6023989681472157 
3.0800000000020753, -2.6059996860440995 
3.0900000000020964, -2.6072383316888326 
3.1000000000021175, -2.6071322638578396 
3.1100000000021386, -2.605029215212702 
3.1200000000021597, -2.5978202552620515 
3.130000000002181, -2.571842657116494 
3.140000000002202, -2.438968307127996 
3.150000000002223, -1.3616723373886754 
3.160000000002244, 0.3085818843558198 
3.1700000000022652, 0.5539946734268066 
3.1800000000022863, 0.5963355787120698 
3.1900000000023074, 0.6082176726906892 
3.2000000000023285, 0.6124309213176424 
3.2100000000023496, 0.6139742540721538 
3.2200000000023707, 0.6143688596878306 
3.230000000002392, 0.6142236873377239 
3.240000000002413, 0.6139300436889207 
3.250000000002434, 0.6140361772981375 
3.260000000002455, 0.6157273969960257 
3.2700000000024763, 0.6213553973794559 
3.2800000000024974, 0.633506582609692 
3.2900000000025185, 0.6507566867797933 
3.3000000000025396, 0.6666952031858184 
3.3100000000025607, 0.6771737795723031 
3.3200000000025818, 0.6827368968176014 
3.330000000002603, 0.6851768825549106 
3.340000000002624, 0.6856227195894214 
3.350000000002645, 0.684273680919655 
3.360000000002666, 0.6800860544519514 
3.3700000000026873, 0.6689551514276745 
3.3800000000027084, 0.6361900303320974 
3.3900000000027295, 0.5358204992816205 
3.4000000000027506, 0.3449540899369318 
3.4100000000027717, 0.22595513539371534 
3.420000000002793, 0.19916054015855428 
3.430000000002814, 0.19699788950060498 
3.440000000002835, 0.19833544995486818 
3.450000000002856, 0.1995325287574719 
3.460000000002877, 0.2002017636869015 
3.4700000000028983, 0.20040682475039512 
3.4800000000029194, 0.20019379041618368 
3.4900000000029405, 0.19951086821945763 
3.5000000000029616, 0.1981615916501665 
3.5100000000029827, 0.19569452072234966 
3.520000000003004, 0.19110239436672596 
3.530000000003025, 0.1819337701222458 
3.540000000003046, 0.16127031352733256 
3.550000000003067, 0.10523888971796176 
3.5600000000030882, -0.08873042062348292 
3.5700000000031094, -0.7780732026959917 
3.5800000000031305, -1.6264157847297742 
3.5900000000031516, -1.8842099708813282 
3.6000000000031727, -1.9408675395932984 
3.6100000000031938, -1.955381263297958 
3.620000000003215, -1.9594075901286545 
3.630000000003236, -1.96015859183344 
3.640000000003257, -1.9598051198091846 
3.650000000003278, -1.9594758802708458 
3.6600000000032993, -1.9595193169672729 
3.6700000000033204, -1.9594260615269175 
3.6800000000033415, -1.9590157090486156 
3.6900000000033626, -1.9587319360223006 
3.7000000000033837, -1.9585616004893178 
3.710000000003405, -1.9576562333894507 
3.720000000003426, -1.9544593693794794 
3.730000000003447, -1.9447351385520164 
3.740000000003468, -1.9129179149863418 
3.750000000003489, -1.7939783564441296 
3.7600000000035103, -1.3528374985441567 
3.7700000000035314, -0.5487538196774948 
3.7800000000035525, -0.12105428874724536 
3.7900000000035736, 0.012423856737969783 
3.8000000000035947, 0.058350552141346025 
3.810000000003616, 0.07730446204540223 
3.820000000003637, 0.08621780440493092 
3.830000000003658, 0.09073365798735113 
3.840000000003679, 0.09303783229319325 
3.8500000000037002, 0.09405907770448027 
3.8600000000037213, 0.09417806266020422 
3.8700000000037424, 0.09346017444340235 
3.8800000000037635, 0.09167720809690653 
3.8900000000037847, 0.08813067113654387 
3.9000000000038058, 0.08104989952878085 
3.910000000003827, 0.0656361580060822 
3.920000000003848, 0.026717908340309023 
3.930000000003869, -0.09503876625780294 
3.94000000000389, -0.6075888332806305 
3.9500000000039113, -2.35135015595763 
3.9600000000039324, -2.8520288267587213 
3.9700000000039535, -2.9019343151868555 
3.9800000000039746, -2.9124533045381895 
3.9900000000039957, -2.9151859874092185 
4.000000000004016, -2.9149937743411765 
4.010000000003993, -2.9124592185921117 
4.02000000000397, -2.9050321540601978 
4.030000000003946, -2.8779355145069734 
4.040000000003923, -2.811156269706565 
4.0500000000039, -2.818188280411559 
4.0600000000038765, -2.828897841213824 
4.070000000003853, -2.8303090484432607 
4.08000000000383, -2.829307716276927 
4.090000000003807, -2.829746267839792 
4.100000000003783, -2.831894650516412 
4.11000000000376, -2.8327690142900677 
4.120000000003737, -2.83281184054809 
4.130000000003713, -2.832098415901844 
4.14000000000369, -2.828110376733769 
4.150000000003667, -2.8048827433638306 
4.1600000000036434, -2.481430019555715 
4.17000000000362, 1.1152969118138143 
4.180000000003597, 1.5408100891040144 
4.1900000000035735, 1.5649649720298735 
4.20000000000355, 1.5688640528669757 
4.210000000003527, 1.5687648059973167 
4.220000000003504, 1.5655120796155333 
4.23000000000348, 1.5536400195222362 
4.240000000003457, 1.5097216255757018 
4.250000000003434, 1.4360381422526052 
4.26000000000341, 1.4360699253716331 
4.270000000003387, 1.4482874829168013 
4.280000000003364, 1.4527280012098434 
4.2900000000033405, 1.4535269422959283 
4.300000000003317, 1.452133363809401 
4.310000000003294, 1.4483118660475915 
4.320000000003271, 1.4439551201163483 
4.330000000003247, 1.455542276478508 
4.340000000003224, 1.4846940511506763 
4.350000000003201, 1.5018320988208815 
4.360000000003177, 1.5078860955321114 
4.370000000003154, 1.5094435581459755 
4.380000000003131, 1.5085549277272494 
4.390000000003107, 1.5034552247562574 
4.400000000003084, 1.4748217549897815 
4.410000000003061, 0.9020676208275663 
4.4200000000030375, -2.9732845862514594 
4.430000000003014, -3.165405746639771 
4.440000000002991, -3.1791571494827418 
4.450000000002968, -3.180732772491348 
4.460000000002944, -3.179880762879608 
4.470000000002921, -3.1774657271747597 
4.480000000002898, -3.171442499354723 
4.490000000002874, -3.166760928368767 
4.500000000002851, -3.1684494964931043 
4.510000000002828, -3.167978112771459 
4.520000000002804, -3.164050331697905 
4.530000000002781, -3.1672693285733127 
4.540000000002758, -3.176622720172685 
4.5500000000027345, -3.179802023186396 
4.560000000002711, -3.180301157351337 
4.570000000002688, -3.178760592118946 
4.580000000002665, -3.1706646601292547 
4.590000000002641, -3.1114402922852973 
4.600000000002618, -1.5787604219701505 
4.610000000002595, 1.1393428922834796 
4.620000000002571, 1.2494768064483759 
4.630000000002548, 1.263103920077105 
4.640000000002525, 1.2660992238086195 
4.6500000000025015, 1.2663894427393854 
4.660000000002478, 1.265224011194307 
4.670000000002455, 1.2624899534601295 
4.6800000000024315, 1.257775413608191 
4.690000000002408, 1.2515728441328138 
4.700000000002385, 1.2462109141278421 
4.710000000002362, 1.2436265732888694 
4.720000000002338, 1.2431190254124378 
4.730000000002315, 1.2430965841606034 
4.740000000002292, 1.2424397139628949 
4.750000000002268, 1.2398020591551924 
4.760000000002245, 1.2303860375653994 
4.770000000002222, 1.181920606262737 
4.7800000000021985, 0.6488235765796848 
4.790000000002175, -3.7678005107307335 
4.800000000002152, -4.417312989857395 
4.810000000002129, -4.429327373046735 
4.820000000002105, -4.429510230330362 
4.830000000002082, -4.423914028229498 
4.840000000002059, -4.343233771516222 
4.850000000002035, -0.4757563036307449 
4.860000000002012, 0.9943675202998941 
4.870000000001989, 1.1325059343545107 
4.880000000001965, 1.1527787545755914 
4.890000000001942, 1.1576096300611234 
4.900000000001919, 1.158685125086337 
4.9100000000018955, 1.15838226935984 
4.920000000001872, 1.1576364853034693 
4.930000000001849, 1.15775468856699 
4.940000000001826, 1.1610599204364003 
4.950000000001802, 1.168571808673823 
4.960000000001779, 1.177008022519506 
4.970000000001756, 1.182891172413167 
