t, s[1].omega / s[0].omega 
0, -1.4792477100559118 
0.009999999999999995, -1.3821644131237025 
0.019999999999999934, -1.2318852553675064 
0.029999999999999874, -1.0317521207079985 
0.04000000000000012, -0.8338811498743578 
0.050000000000000405, -0.6968673860394067 
0.06000000000000069, -0.6238694757248828 
0.07000000000000098, -0.5900927806494677 
0.08000000000000126, -0.5757010192204522 
0.09000000000000155, -0.5700656190954728 
0.10000000000000184, -0.56816022795636 
0.11000000000000212, -0.5677113367555287 
0.12000000000000241, -0.5677047752805913 
0.130000000000002, -0.5676795893249184 
0.1400000000000009, -0.5674096125578255 
0.1499999999999998, -0.5667746354201265 
0.1599999999999987, -0.5657319983724165 
0.1699999999999976, -0.5643369487208274 
0.1799999999999965, -0.5627551337044477 
0.1899999999999954, -0.5612190631855781 
0.1999999999999943, -0.5599423384005071 
0.2099999999999932, -0.5590550636345858 
0.2199999999999921, -0.5585898371875135 
0.229999999999991, -0.5584940026779223 
0.2399999999999899, -0.5586452167594225 
0.2499999999999888, -0.5588777173725601 
0.2599999999999877, -0.5590303851773347 
0.2699999999999866, -0.5589991473837077 
0.2799999999999855, -0.5587645735966877 
0.2899999999999844, -0.5583951031213042 
0.2999999999999833, -0.5580569541849811 
0.3099999999999822, -0.5580653127357124 
0.3199999999999811, -0.5590061935771754 
0.32999999999998, -0.5619623905085585 
0.3399999999999789, -0.5688838443161981 
0.3499999999999778, -0.5831217752220942 
0.35999999999997667, -0.6100135919152169 
0.36999999999997557, -0.6569705549176316 
0.37999999999997447, -0.7316632523529244 
0.38999999999997337, -0.8368306123622137 
0.39999999999997227, -0.9643663406853834 
0.40999999999997117, -1.0965657134430735 
0.41999999999997006, -1.214889022427935 
0.42999999999996896, -1.3066789197594058 
0.43999999999996786, -1.367685817587572 
0.44999999999996676, -1.4023037176008595 
0.45999999999996566, -1.4194954467679088 
0.46999999999996456, -1.427229127129873 
0.47999999999996346, -1.4303347034996263 
0.48999999999996235, -1.4312079285545167 
0.49999999999996125, -1.4310268283321614 
0.5099999999999602, -1.4306345469667927 
0.519999999999959, -1.4308996861401166 
0.529999999999958, -1.4322924075660155 
0.5399999999999568, -1.4344031991595123 
0.5499999999999557, -1.436502815731286 
0.5599999999999546, -1.438241494456516 
0.5699999999999535, -1.439604892812851 
0.5799999999999524, -1.4405954043087095 
0.5899999999999513, -1.4411161479600025 
0.5999999999999502, -1.4410397538307957 
0.6099999999999491, -1.4402777352024052 
0.619999999999948, -1.4387934640615097 
0.6299999999999469, -1.436576586870517 
0.6399999999999458, -1.4335971669147454 
0.6499999999999447, -1.429761312671453 
0.6599999999999436, -1.424874411098862 
0.6699999999999425, -1.4185950013121043 
0.6799999999999414, -1.4104174390208741 
0.6899999999999403, -1.3999393489250602 
0.6999999999999392, -1.3878848998343298 
0.7099999999999381, -1.377344504055772 
0.719999999999937, -1.3718196732045869 
0.7299999999999359, -1.3708671039304026 
0.7399999999999348, -1.3714714071040128 
0.7499999999999337, -1.371652306439358 
0.7599999999999326, -1.370478893133488 
0.7699999999999315, -1.366597912681703 
0.7799999999999304, -1.3559144305787107 
0.7899999999999293, -1.3244612201755115 
0.7999999999999282, -1.2223469772552968 
0.8099999999999271, -0.9146908178698109 
0.819999999999926, -0.4210756099972284 
0.8299999999999249, -0.12751693854365104 
0.8399999999999238, -0.02057847456438889 
0.8499999999999227, 0.019476001977063055 
0.8599999999999216, 0.03665118225953447 
0.8699999999999205, 0.044951621424469235 
0.8799999999999194, 0.049266254916768684 
0.8899999999999183, 0.051575741665179906 
0.8999999999999172, 0.052780068225711164 
0.9099999999999161, 0.05331956505405942 
0.919999999999915, 0.05340576105719719 
0.9299999999999139, 0.053107790527571454 
0.9399999999999128, 0.05237062469442659 
0.9499999999999117, 0.05097860503569601 
0.9599999999999106, 0.04844520088178393 
0.9699999999999095, 0.04383144248283538 
0.9799999999999084, 0.03611398414018886 
0.9899999999999073, 0.03261065179861766 
0.9999999999999062, 0.1339358923080108 
1.0099999999999052, 0.6742883988771128 
1.019999999999904, 0.9933159069359185 
1.029999999999903, 1.0478748336349553 
1.039999999999902, 1.059629172936965 
1.0499999999999008, 1.0627073899333195 
1.0599999999998997, 1.062791946619888 
1.0699999999998986, 1.0604868458035435 
1.0799999999998975, 1.0536688300592305 
1.0899999999998964, 1.0346952168343262 
1.0999999999998953, 0.9876482492945258 
1.1099999999998942, 0.927567696705973 
1.119999999999893, 0.9086064434400566 
1.129999999999892, 0.9123725040770558 
1.1399999999998909, 0.9168759942245144 
1.1499999999998898, 0.9191808840722538 
1.1599999999998887, 0.9197614809843678 
1.1699999999998876, 0.9187359198199184 
1.1799999999998865, 0.9151010571361716 
1.1899999999998854, 0.9044977168953092 
1.1999999999998843, 0.8667176918067133 
1.2099999999998832, 0.6981274523623845 
1.219999999999882, 0.9221261011503366 
1.229999999999881, 1.968007879471823 
1.2399999999998799, 2.021173401301938 
1.2499999999998788, 2.026722074642122 
1.2599999999998777, 2.0265379295668975 
1.2699999999998766, 2.0211136901599738 
1.2799999999998755, 1.9756532085697447 
1.2899999999998744, 0.7723999410379235 
1.2999999999998733, -0.39042742098351957 
1.3099999999998722, -0.44121153551610093 
1.319999999999871, -0.44701884603090847 
1.32999999999987, -0.45116534028027255 
1.3399999999998689, -0.4544940496497231 
1.3499999999998678, -0.45686522550549613 
1.3599999999998666, -0.4583928700495451 
1.3699999999998655, -0.4592225881390212 
1.3799999999998644, -0.45944249027727535 
1.3899999999998633, -0.45907028520023463 
1.3999999999998622, -0.4580735263048686 
1.4099999999998611, -0.4564222401035833 
1.41999999999986, -0.4541735773325544 
1.429999999999859, -0.4515426972176969 
1.4399999999998578, -0.4488764469297294 
1.4499999999998567, -0.44652072161109163 
1.4599999999998556, -0.4446967488347303 
1.4699999999998545, -0.44347710189379236 
1.4799999999998534, -0.44282793002949666 
1.4899999999998523, -0.44264787708719255 
1.4999999999998512, -0.4427845158512741 
1.5099999999998501, -0.4430524959196287 
1.519999999999849, -0.44327373883335497 
1.529999999999848, -0.44332443049886266 
1.5399999999998468, -0.44315855523666203 
1.5499999999998457, -0.4428058461929519 
1.5599999999998446, -0.44237421286459444 
1.5699999999998435, -0.4420987018500545 
1.5799999999998424, -0.4425009785329951 
1.5899999999998413, -0.44481676270408455 
1.5999999999998402, -0.4521567060023156 
1.6099999999998391, -0.47288150588770544 
1.619999999999838, -0.5310438982227018 
1.629999999999837, -0.6956757148226972 
1.6399999999998358, -1.085029031519635 
1.6499999999998347, -1.5432102000593757 
1.6599999999998336, -1.7767867360264353 
1.6699999999998325, -1.8681785684167445 
1.6799999999998314, -1.9070206626542086 
1.6899999999998303, -1.9249745290926377 
1.6999999999998292, -1.933353637273972 
1.709999999999828, -1.9369455583686992 
1.719999999999827, -1.9380278329898348 
1.729999999999826, -1.9377409707707525 
1.7399999999998248, -1.9367049365309181 
1.7499999999998237, -1.9351482473817814 
1.7599999999998226, -1.9328388214115784 
1.7699999999998215, -1.9297684633237817 
1.7799999999998204, -1.927280905013586 
1.7899999999998193, -1.9266316737139184 
1.7999999999998182, -1.9266393641209345 
1.809999999999817, -1.9254887276808084 
1.819999999999816, -1.9206758740419159 
1.8299999999998149, -1.90197603212399 
1.8399999999998138, -1.8030287172725974 
1.8499999999998127, -1.0303453840490533 
1.8599999999998116, 1.1488482858194522 
1.8699999999998105, 1.4119211546728025 
1.8799999999998094, 1.4349175030704364 
1.8899999999998083, 1.4391355173202953 
1.8999999999998072, 1.4392733307873649 
1.909999999999806, 1.4364278441989824 
1.919999999999805, 1.426054674337551 
1.9299999999998039, 1.3851494012036034 
1.9399999999998028, 1.2763132674004867 
1.9499999999998017, 1.2442675355012962 
1.9599999999998006, 1.2626209866157851 
1.9699999999997995, 1.2711191154367902 
1.9799999999997984, 1.273793269467512 
1.9899999999997973, 1.2738397170853308 
1.9999999999997962, 1.271801033910815 
2.0099999999998173, 1.2668384378544468 
2.0199999999998384, 1.2601780635819657 
2.0299999999998595, 1.2742172261206952 
2.0399999999998806, 1.3209963309863952 
2.0499999999999017, 1.3497981832782027 
2.059999999999923, 1.3596635036026314 
2.069999999999944, 1.3625587904507834 
2.079999999999965, 1.362541045566856 
2.089999999999986, 1.3595667994620517 
2.100000000000007, 1.3467893993949773 
2.1100000000000283, 1.250000857916815 
2.1200000000000494, -0.6182808665631754 
2.1300000000000705, -2.3352559136434405 
2.1400000000000916, -2.4484198013219514 
2.1500000000001127, -2.462794973866153 
2.160000000000134, -2.4653002820213614 
2.170000000000155, -2.465200049630492 
2.180000000000176, -2.4646937939892464 
2.190000000000197, -2.4642511198152652 
2.2000000000002182, -2.4631849461636275 
2.2100000000002393, -2.4619982021793425 
2.2200000000002604, -2.4616732383983244 
2.2300000000002815, -2.460901852263444 
2.2400000000003026, -2.456587340315106 
2.2500000000003237, -2.433571840115146 
2.260000000000345, -2.239437410575476 
2.270000000000366, -2.1300253667255484 
2.280000000000387, -4.078782542512899 
2.290000000000408, -4.124510331100444 
2.3000000000004293, -4.128234693620219 
2.3100000000004504, -4.126923472991521 
2.3200000000004715, -4.117571875602211 
2.3300000000004926, -3.957928564001906 
2.3400000000005137, -1.2847818688128638 
2.3500000000005348, -1.4262089210648774 
2.360000000000556, -1.6009474731946898 
2.370000000000577, -1.6463699642435088 
2.380000000000598, -1.6582669436242792 
2.390000000000619, -1.6614580010536997 
2.4000000000006403, -1.6615979956415274 
2.4100000000006614, -1.6601591849011264 
2.4200000000006825, -1.658732682300774 
2.4300000000007036, -1.6616766776173761 
2.4400000000007247, -1.6715219274146371 
2.450000000000746, -1.6829346647740397 
2.460000000000767, -1.6914387695560347 
2.470000000000788, -1.6969278471374838 
2.480000000000809, -1.7004077731432883 
2.49000000000083, -1.702549535687584 
2.5000000000008513, -1.7036675533840266 
2.5100000000008724, -1.7039026340443197 
2.5200000000008935, -1.7033038744243716 
2.5300000000009146, -1.7018427878412479 
2.5400000000009357, -1.699402585593956 
2.550000000000957, -1.695725849844107 
2.560000000000978, -1.6902606506472293 
2.570000000000999, -1.6819836310981096 
2.58000000000102, -1.6699801752747063 
2.5900000000010412, -1.6564928297792558 
2.6000000000010624, -1.6485528817397959 
2.6100000000010835, -1.647906668743963 
2.6200000000011046, -1.6492603657469107 
2.6300000000011257, -1.6495747612673288 
2.6400000000011468, -1.6478124870033088 
2.650000000001168, -1.6414847690340202 
2.660000000001189, -1.6202756900229942 
2.67000000000121, -1.5412601565297608 
2.680000000001231, -1.3362412872021492 
2.6900000000012523, -2.5203177834755044 
2.7000000000012734, -3.612685363149331 
2.7100000000012945, -3.652439152564348 
2.7200000000013156, -3.6574522337404836 
2.7300000000013367, -3.657326767790573 
2.740000000001358, -3.6533467248306897 
2.750000000001379, -3.632126218854741 
2.7600000000014, -3.30830684144561 
2.770000000001421, -3.0747864644766825 
2.780000000001442, -3.1703336103541764 
2.7900000000014633, -3.178128942864185 
2.8000000000014844, -3.1784490477782237 
2.8100000000015055, -3.1778884864543127 
2.8200000000015266, -3.1772062222640325 
2.8300000000015477, -3.1754884784896484 
2.840000000001569, -3.1747345930691653 
2.85000000000159, -3.1741400541579874 
2.860000000001611, -3.168657337905757 
2.870000000001632, -3.1421011997200337 
2.8800000000016532, -3.1974852483756466 
2.8900000000016743, -3.2444313055352074 
2.9000000000016954, -3.2530720867323284 
2.9100000000017165, -3.2547583224226293 
2.9200000000017377, -3.253678554252045 
2.9300000000017588, -3.2482850724978007 
2.94000000000178, -3.224185787636361 
2.950000000001801, -2.9572538264844086 
2.960000000001822, 0.3761331030688312 
2.970000000001843, 1.0404505945331928 
2.9800000000018643, 1.09021872866647 
2.9900000000018854, 1.0997362552399523 
3.0000000000019065, 1.102241540946162 
3.0100000000019276, 1.1027468073475903 
3.0200000000019487, 1.102621492994364 
3.03000000000197, 1.1026506418931807 
3.040000000001991, 1.1036540114129507 
3.050000000002012, 1.1062266500294122 
3.060000000002033, 1.109977625279659 
3.070000000002054, 1.1136361895162312 
3.0800000000020753, 1.116235100136935 
3.0900000000020964, 1.1175810483274242 
3.1000000000021175, 1.1177731789912517 
3.1100000000021386, 1.1165934096438987 
3.1200000000021597, 1.1124655113105368 
3.130000000002181, 1.096919345041594 
3.140000000002202, 0.9905198895029643 
3.150000000002223, -1.07159874431971 
3.160000000002244, -2.8930200308247196 
3.1700000000022652, -2.979314594614281 
3.1800000000022863, -2.9899022347282056 
3.1900000000023074, -2.9913960763803633 
3.2000000000023285, -2.9905874866581126 
3.2100000000023496, -2.9882811961926703 
3.2200000000023707, -2.9826286640662856 
3.230000000002392, -2.975843762861317 
3.240000000002413, -2.976747746946519 
3.250000000002434, -2.9774738478279827 
3.260000000002455, -2.974767981177711 
3.2700000000024763, -2.9715416164889956 
3.2800000000024974, -2.9823600210544807 
3.2900000000025185, -2.990606029516713 
3.3000000000025396, -2.9930747050474564 
3.3100000000025607, -2.993337422365065 
3.3200000000025818, -2.9913888086187073 
3.330000000002603, -2.9830028520860217 
3.340000000002624, -2.938230930941642 
3.350000000002645, -2.3708840787466507 
3.360000000002666, 0.6178404366886056 
3.3700000000026873, 0.9604097571737753 
3.3800000000027084, 0.9948774448630526 
3.3900000000027295, 1.0024771799004757 
3.4000000000027506, 1.004643336682629 
3.4100000000027717, 1.005104772760425 
3.420000000002793, 1.0048734467473026 
3.430000000002814, 1.004344160853052 
3.440000000002835, 1.0037477314605423 
3.450000000002856, 1.0032567053323411 
3.460000000002877, 1.0029790889431527 
3.4700000000028983, 1.0029247713736207 
3.4800000000029194, 1.0030008757700384 
3.4900000000029405, 1.003041741715296 
3.5000000000029616, 1.002822886126332 
3.5100000000029827, 1.0019766193771393 
3.520000000003004, 0.9996071281468113 
3.530000000003025, 0.9925595086714877 
3.540000000003046, 0.9638665163824977 
3.550000000003067, 0.7184333400916191 
3.5600000000030882, -2.09481564906439 
3.5700000000031094, -2.917917654313254 
3.5800000000031305, -2.9745517208756107 
3.5900000000031516, -2.9837633380802484 
3.6000000000031727, -2.985259247541674 
3.6100000000031938, -2.984329756960933 
3.620000000003215, -2.9813893508996303 
3.630000000003236, -2.97339601180638 
3.640000000003257, -2.9607488521604104 
3.650000000003278, -2.9616501490995524 
3.6600000000032993, -2.9640039511725202 
3.6700000000033204, -2.9628187553925693 
3.6800000000033415, -2.9603709053078275 
3.6900000000033626, -2.9653723847862397 
3.7000000000033837, -2.971017736427465 
3.710000000003405, -2.9728832262980402 
3.720000000003426, -2.973066358532771 
3.730000000003447, -2.9713371427686344 
3.740000000003468, -2.963159813046807 
3.750000000003489, -2.912028801575859 
3.7600000000035103, -2.052137965125713 
3.7700000000035314, 0.828716488205694 
3.7800000000035525, 1.042166243631375 
3.7900000000035736, 1.066311949585715 
3.8000000000035947, 1.0718144728897312 
3.810000000003616, 1.073187682404718 
3.820000000003637, 1.073001324806678 
3.830000000003658, 1.0718073812090334 
3.840000000003679, 1.069672191171573 
3.8500000000037002, 1.0666992023411288 
3.8600000000037213, 1.0633831373860068 
3.8700000000037424, 1.0605553120708997 
3.8800000000037635, 1.0587753827083086 
3.8900000000037847, 1.0579307302316077 
3.9000000000038058, 1.0574979877058563 
3.910000000003827, 1.0568678063894805 
3.920000000003848, 1.0552176004089875 
3.930000000003869, 1.0504278850438291 
3.94000000000389, 1.0329136284754261 
3.9500000000039113, 0.91850161963691 
3.9600000000039324, -1.0491511497494315 
3.9700000000039535, -2.981609582468285 
3.9800000000039746, -3.0825483787985255 
3.9900000000039957, -3.0971443325158496 
4.000000000004016, -3.100202690507791 
4.010000000003993, -3.0998652683736285 
4.02000000000397, -3.0970232580372317 
4.030000000003946, -3.0878392385200977 
4.040000000003923, -3.0549933732650905 
4.0500000000039, -3.0349468584493953 
4.0600000000038765, -3.046811967550851 
4.070000000003853, -3.049141526484698 
4.08000000000383, -3.0481662507986877 
4.090000000003807, -3.0483286215125114 
4.100000000003783, -3.050461761688315 
4.11000000000376, -3.051179537903834 
4.120000000003737, -3.051088184489317 
4.130000000003713, -3.0499802394097375 
4.14000000000369, -3.04343853857932 
4.150000000003667, -2.984202099523972 
4.1600000000036434, -0.9968698608570723 
4.17000000000362, 2.2921761659346522 
4.180000000003597, 2.3420207378711213 
4.1900000000035735, 2.345831596445593 
4.20000000000355, 2.3444692126090625 
4.210000000003527, 2.3324987959060475 
4.220000000003504, 2.092579692337322 
4.23000000000348, 1.0420356146666363 
4.240000000003457, 1.3709574935792688 
4.250000000003434, 1.412688271165787 
4.26000000000341, 1.4201825807001822 
4.270000000003387, 1.4217164651326912 
4.280000000003364, 1.4215182526010577 
4.2900000000033405, 1.420976979701736 
4.300000000003317, 1.4216506809237655 
4.310000000003294, 1.4249732251568703 
4.320000000003271, 1.4298390527789933 
4.330000000003247, 1.4337257795728777 
4.340000000003224, 1.4357920121767278 
4.350000000003201, 1.4363760350984274 
4.360000000003177, 1.4356016300356047 
4.370000000003154, 1.4321542108628942 
4.380000000003131, 1.4167357914512515 
4.390000000003107, 1.2539383215672033 
4.400000000003084, -2.6556281384398703 
4.410000000003061, -3.3826237859847588 
4.4200000000030375, -3.413541929583077 
4.430000000003014, -3.4175768145455967 
4.440000000002991, -3.4171723215368046 
4.450000000002968, -3.414133920220569 
4.460000000002944, -3.4029573935505177 
4.470000000002921, -3.3798988474442098 
4.480000000002898, -3.3861134163654136 
4.490000000002874, -3.389107965599932 
4.500000000002851, -3.3880802401721395 
4.510000000002828, -3.388280381078123 
4.520000000002804, -3.390219450134855 
4.530000000002781, -3.390483833532163 
4.540000000002758, -3.390112941638028 
4.5500000000027345, -3.387517189195303 
4.560000000002711, -3.3657859119274995 
4.570000000002688, -2.8775892254061946 
4.580000000002665, -4.300263002145766 
4.590000000002641, -4.409984377264512 
4.600000000002618, -4.4150906296174925 
4.610000000002595, -4.413867390713973 
4.620000000002571, -4.402954982550246 
4.630000000002548, -4.020842743589581 
4.640000000002525, 1.7824362634353292 
4.6500000000025015, 1.969337607377637 
4.660000000002478, 1.9802401923070847 
4.670000000002455, 1.9817737588041093 
4.6800000000024315, 1.9817113444096397 
4.690000000002408, 1.9810909802203913 
4.700000000002385, 1.979774004359605 
4.710000000002362, 1.977793215197379 
4.720000000002338, 1.9762316637818895 
4.730000000002315, 1.975714997910135 
4.740000000002292, 1.975105248050328 
4.750000000002268, 1.9719608309693517 
4.760000000002245, 1.9540886590347424 
4.770000000002222, 1.814265691541467 
4.7800000000021985, 2.186552119243378 
4.790000000002175, 2.2879856635818263 
4.800000000002152, 2.296185011341998 
4.810000000002129, 2.2964522042034363 
4.820000000002105, 2.29135610124585 
4.830000000002082, 2.229854997243719 
4.840000000002059, -2.637922609687189 
4.850000000002035, -3.638849635844038 
4.860000000002012, -3.6583280084782457 
4.870000000001989, -3.6596776272622877 
4.880000000001965, -3.6584138892555047 
4.890000000001942, -3.6543221759231677 
4.900000000001919, -3.6453210784103702 
4.9100000000018955, -3.6463014629472 
4.920000000001872, -3.64725885178036 
4.930000000001849, -3.6450113204633445 
4.940000000001826, -3.646941099545104 
4.950000000001802, -3.65020849728648 
4.960000000001779, -3.650663078862162 
4.970000000001756, -3.6497869688994675 
4.980000000001732, -3.6428723966424927 
