t, s[1].omega / s[0].omega 
0, -0.22999782696291135 
0.009999999999999995, -0.22998715175648482 
0.019999999999999934, -0.23036036214911504 
0.029999999999999874, -0.23103868005409858 
0.04000000000000012, -0.23189028817971521 
0.050000000000000405, -0.23275285684489386 
0.06000000000000069, -0.23347661321392993 
0.07000000000000098, -0.2339597595548976 
0.08000000000000126, -0.23415196442959213 
0.09000000000000155, -0.23402948378716865 
0.10000000000000184, -0.2335591335143683 
0.11000000000000212, -0.23265867304440668 
0.12000000000000241, -0.2311451456088288 
0.130000000000002, -0.22865180298662446 
0.1400000000000009, -0.22449928274638964 
0.1499999999999998, -0.2175780501093741 
0.1599999999999987, -0.20654656759797635 
0.1699999999999976, -0.19090703554356206 
0.1799999999999965, -0.1725417074085502 
0.1899999999999954, -0.1551866566070535 
0.1999999999999943, -0.1415652015910071 
0.2099999999999932, -0.13207157053369947 
0.2199999999999921, -0.12581033307470768 
0.229999999999991, -0.12173637425987731 
0.2399999999999899, -0.1190630254343213 
0.2499999999999888, -0.11727223597325927 
0.2599999999999877, -0.11603392034977252 
0.2699999999999866, -0.1151376947552546 
0.2799999999999855, -0.11445022382482647 
0.2899999999999844, -0.11388992989834867 
0.2999999999999833, -0.11341106940361789 
0.3099999999999822, -0.11299285146160573 
0.3199999999999811, -0.11263045873909557 
0.32999999999998, -0.11232038310937813 
0.3399999999999789, -0.11201230292553302 
0.3499999999999778, -0.1114222828237004 
0.35999999999997667, -0.10932214074536392 
0.36999999999997557, -0.10113904414538795 
0.37999999999997447, -0.07369247264303462 
0.38999999999997337, -0.008725093429061897 
0.39999999999997227, 0.07793204494507869 
0.40999999999997117, 0.141818904671341 
0.41999999999997006, 0.17479801053576632 
0.42999999999996896, 0.19023844065077494 
0.43999999999996786, 0.19762080641781193 
0.44999999999996676, 0.20129901864196484 
0.45999999999996566, 0.20316672905774386 
0.46999999999996456, 0.20409128784565453 
0.47999999999996346, 0.20450715115444776 
0.48999999999996235, 0.20465728009945808 
0.49999999999996125, 0.20469724412796203 
0.5099999999999602, 0.2047483464331179 
0.519999999999959, 0.20493758694796504 
0.529999999999958, 0.2054453988466136 
0.5399999999999568, 0.20657510350007885 
0.5499999999999557, 0.20883627625818488 
0.5599999999999546, 0.21294516326723945 
0.5699999999999535, 0.21947630584364752 
0.5799999999999524, 0.22804789951195112 
0.5899999999999513, 0.23696225224667153 
0.5999999999999502, 0.24435045036058628 
0.6099999999999491, 0.24945880348577182 
0.619999999999948, 0.25254086111441715 
0.6299999999999469, 0.2541434408045947 
0.6399999999999458, 0.25470768638594443 
0.6499999999999447, 0.2544995277150386 
0.6599999999999436, 0.2536653847563491 
0.6699999999999425, 0.25231439654587673 
0.6799999999999414, 0.2505913823711375 
0.6899999999999403, 0.24870648186966576 
0.6999999999999392, 0.2468978819696354 
0.7099999999999381, 0.24535755179999624 
0.719999999999937, 0.24418528529727462 
0.7299999999999359, 0.24339768851254778 
0.7399999999999348, 0.2429639823929509 
0.7499999999999337, 0.2428335688252785 
0.7599999999999326, 0.24294335385619883 
0.7699999999999315, 0.24321122504569606 
0.7799999999999304, 0.24352860641250537 
0.7899999999999293, 0.24376190695034797 
0.7999999999999282, 0.24376035533324938 
0.8099999999999271, 0.24335319481569134 
0.819999999999926, 0.24231386412879172 
0.8299999999999249, 0.2402705470662736 
0.8399999999999238, 0.2365408078600336 
0.8499999999999227, 0.2298934363313201 
0.8599999999999216, 0.21847170889745882 
0.8699999999999205, 0.20085556871692756 
0.8799999999999194, 0.17917519081689803 
0.8899999999999183, 0.15993660615920532 
0.8999999999999172, 0.14766191982427757 
0.9099999999999161, 0.14143307622146356 
0.919999999999915, 0.1385549480986443 
0.9299999999999139, 0.13718605126570288 
0.9399999999999128, 0.13643742262394892 
0.9499999999999117, 0.13592174139234375 
0.9599999999999106, 0.1354613271930521 
0.9699999999999095, 0.13495095136424254 
0.9799999999999084, 0.13429259476290004 
0.9899999999999073, 0.1333527639427058 
0.9999999999999062, 0.13191257389265354 
1.0099999999999052, 0.12957652884659762 
1.019999999999904, 0.1255705506142223 
1.029999999999903, 0.11826044156793569 
1.039999999999902, 0.10399457338131719 
1.0499999999999008, 0.07470604245577857 
1.0599999999998997, 0.01645683377517055 
1.0699999999998986, -0.07458852288835756 
1.0799999999998975, -0.16177388922245875 
1.0899999999998964, -0.20997542723274196 
1.0999999999998953, -0.2287611263669584 
1.1099999999998942, -0.2353899203136835 
1.119999999999893, -0.2379109475771179 
1.129999999999892, -0.23904117063177158 
1.1399999999998909, -0.23963914757125812 
1.1499999999998898, -0.23998691644981146 
1.1599999999998887, -0.24018595977492563 
1.1699999999998876, -0.24027836632817134 
1.1799999999998865, -0.24028751044459717 
1.1899999999998854, -0.24023602214866405 
1.1999999999998843, -0.240158097369495 
1.2099999999998832, -0.24010974918133193 
1.219999999999882, -0.24017525517226934 
1.229999999999881, -0.2404675263083596 
1.2399999999998799, -0.2411233663613456 
1.2499999999998788, -0.24229596274066392 
1.2599999999998777, -0.24413956005307597 
1.2699999999998766, -0.24676780414823124 
1.2799999999998755, -0.25016784394787067 
1.2899999999998744, -0.2540999683095163 
1.2999999999998733, -0.25809427778500627 
1.3099999999998722, -0.26162933603947525 
1.319999999999871, -0.26436983653336593 
1.32999999999987, -0.26624696257914604 
1.3399999999998689, -0.26736272191630495 
1.3499999999998678, -0.2678581466973976 
1.3599999999998666, -0.2678325439505197 
1.3699999999998655, -0.2673105040342018 
1.3799999999998644, -0.26622825833660757 
1.3899999999998633, -0.2644256285296892 
1.3999999999998622, -0.2616569664340859 
1.4099999999998611, -0.2576677511988335 
1.41999999999986, -0.2523864521809202 
1.429999999999859, -0.24615865339978277 
1.4399999999998578, -0.2397498561664228 
1.4499999999998567, -0.23397704528956145 
1.4599999999998556, -0.229311906364088 
1.4699999999998545, -0.22581603437721937 
1.4799999999998534, -0.2233156388352008 
1.4899999999998523, -0.22157249721728767 
1.4999999999998512, -0.22036604930535986 
1.5099999999998501, -0.21951538020829192 
1.519999999999849, -0.21888011847581232 
1.529999999999848, -0.21835772408823226 
1.5399999999998468, -0.21787956229393785 
1.5499999999998457, -0.2174046879130219 
1.5599999999998446, -0.21691213148357158 
1.5699999999998435, -0.21639343141560655 
1.5799999999998424, -0.2158449838560887 
1.5899999999998413, -0.21525259826956983 
1.5999999999998402, -0.21453662601089593 
1.6099999999998391, -0.21333485691930193 
1.619999999999838, -0.2101607574407694 
1.629999999999837, -0.19946590538432016 
1.6399999999998358, -0.16474597937505067 
1.6499999999998347, -0.08173089172998767 
1.6599999999998336, 0.029809720054270555 
1.6699999999998325, 0.10969145487051368 
1.6799999999998314, 0.14932343604611859 
1.6899999999998303, 0.16733258855760785 
1.6999999999998292, 0.17581054966061158 
1.709999999999828, 0.18002614608457693 
1.719999999999827, 0.18219661916420196 
1.729999999999826, 0.1833134106061122 
1.7399999999998248, 0.18386019383582566 
1.7499999999998237, 0.1840969622069242 
1.7599999999998226, 0.18418110440616367 
1.7699999999998215, 0.18422898308954086 
1.7799999999998204, 0.18436314834206438 
1.7899999999998193, 0.18477525216275514 
1.7999999999998182, 0.18583960838250227 
1.809999999999817, 0.18830997869774144 
1.819999999999816, 0.19350974446808836 
1.8299999999998149, 0.20294846245453563 
1.8399999999998138, 0.216537157548002 
1.8499999999998127, 0.23111378740650065 
1.8599999999998116, 0.24289939960206022 
1.8699999999998105, 0.250656079980629 
1.8799999999998094, 0.25516372559663686 
1.8899999999998083, 0.25754839451862654 
1.8999999999998072, 0.2586097743055323 
1.909999999999806, 0.25880990539011994 
1.919999999999805, 0.2584070969333488 
1.9299999999998039, 0.2575719462509768 
1.9399999999998028, 0.2564609402569509 
1.9499999999998017, 0.2552433377847699 
1.9599999999998006, 0.25408604583290245 
1.9699999999997995, 0.25312202908959347 
1.9799999999997984, 0.25243335779127934 
1.9899999999997973, 0.2520576777400195 
1.9999999999997962, 0.25200367875816293 
2.0099999999998173, 0.2522582612954468 
2.0199999999998384, 0.25277907981352027 
2.0299999999998595, 0.25347985178234106 
2.0399999999998806, 0.2542256684699056 
2.0499999999999017, 0.25485090978145464 
2.059999999999923, 0.2551890194663811 
2.069999999999944, 0.2550835482288689 
2.079999999999965, 0.25435708934995127 
2.089999999999986, 0.2527341280181354 
2.100000000000007, 0.2497220471882838 
2.1100000000000283, 0.24448129597340315 
2.1200000000000494, 0.2358749887587827 
2.1300000000000705, 0.22324530637646656 
2.1400000000000916, 0.20811494127072727 
2.1500000000001127, 0.19437353277369657 
2.160000000000134, 0.1849085418807752 
2.170000000000155, 0.179557957317788 
2.180000000000176, 0.1767898375273557 
2.190000000000197, 0.17534199792687188 
2.2000000000002182, 0.17450833350879216 
2.2100000000002393, 0.17393842534797238 
2.2200000000002604, 0.17345080276883112 
2.2300000000002815, 0.17292693073553772 
2.2400000000003026, 0.1722521557922841 
2.2500000000003237, 0.17127077547583688 
2.260000000000345, 0.16972715193171675 
2.270000000000366, 0.1671507443201692 
2.280000000000387, 0.16259022180310315 
2.290000000000408, 0.15395665654896884 
2.3000000000004293, 0.13641263425850236 
2.3100000000004504, 0.09924938699162651 
2.3200000000004715, 0.026656241786124087 
2.3300000000004926, -0.0735233332143981 
2.3400000000005137, -0.1504269496813487 
2.3500000000005348, -0.1844048983561708 
2.360000000000556, -0.19540515887825793 
2.370000000000577, -0.1986560650878118 
2.380000000000598, -0.19968126971340278 
2.390000000000619, -0.20007961625534562 
2.4000000000006403, -0.20028500470745908 
2.4100000000006614, -0.20041356208237643 
2.4200000000006825, -0.200497635698036 
2.4300000000007036, -0.20055056300873178 
2.4400000000007247, -0.2005871406289433 
2.450000000000746, -0.20063384785806176 
2.460000000000767, -0.20073765299197427 
2.470000000000788, -0.2009744697715304 
2.480000000000809, -0.201456222206626 
2.49000000000083, -0.20233668988707856 
2.5000000000008513, -0.20381781709445032 
2.5100000000008724, -0.20615296102908953 
2.5200000000008935, -0.20962457674485774 
2.5300000000009146, -0.21444612965546886 
2.5400000000009357, -0.22054919127906322 
2.550000000000957, -0.22736454120174607 
2.560000000000978, -0.2339137230751239 
2.570000000000999, -0.23931460000791532 
2.58000000000102, -0.2432145098992609 
2.5900000000010412, -0.24574568539599645 
2.6000000000010624, -0.24722761692330134 
2.6100000000010835, -0.24795069858770855 
2.6200000000011046, -0.24810305756233997 
2.6300000000011257, -0.2477699843372856 
2.6400000000011468, -0.24695216535034933 
2.650000000001168, -0.24558898047789818 
2.660000000001189, -0.2435979812234068 
2.67000000000121, -0.24094737003344444 
2.680000000001231, -0.23774924903159037 
2.6900000000012523, -0.23430055394064286 
2.7000000000012734, -0.23099550257971604 
2.7100000000012945, -0.22815926582370452 
2.7200000000013156, -0.22594654478722126 
2.7300000000013367, -0.224357853169393 
2.740000000001358, -0.22330720148279126 
2.750000000001379, -0.2226747130076296 
2.7600000000014, -0.22233142281970547 
2.770000000001421, -0.2221514947517796 
2.780000000001442, -0.22202390211496179 
2.7900000000014633, -0.22186256399197446 
2.8000000000014844, -0.22160818558242892 
2.8100000000015055, -0.2212193916058848 
2.8200000000015266, -0.22065571232632833 
2.8300000000015477, -0.21985294683818743 
2.840000000001569, -0.21868146065712685 
2.85000000000159, -0.2168565134060751 
2.860000000001611, -0.2137199212974627 
2.870000000001632, -0.20770932251984164 
2.8800000000016532, -0.1952873314091248 
2.8900000000016743, -0.17014585240415686 
2.9000000000016954, -0.12762845530452943 
2.9100000000017165, -0.07632408874096647 
2.9200000000017377, -0.03384829115889966 
2.9300000000017588, -0.006894700537713125 
2.94000000000178, 0.008107045181533877 
2.950000000001801, 0.016214963181235442 
2.960000000001822, 0.020706835573105358 
2.970000000001843, 0.023235697498968012 
2.9800000000018643, 0.024662740724945474 
2.9900000000018854, 0.025451860919935156 
3.0000000000019065, 0.025865153602318548 
3.0100000000019276, 0.026057140909430336 
3.0200000000019487, 0.026122778895209843 
3.03000000000197, 0.026126725277670015 
3.040000000001991, 0.026130232868460786 
3.050000000002012, 0.026235424054816714 
3.060000000002033, 0.0266931152022849 
3.070000000002054, 0.028198219130167495 
3.0800000000020753, 0.03264526336606034 
3.0900000000020964, 0.04444066277794678 
3.1000000000021175, 0.06982830165430265 
3.1100000000021386, 0.10787550705497831 
3.1200000000021597, 0.1444349565927508 
3.130000000002181, 0.16889993894567248 
3.140000000002202, 0.18244416912046718 
3.150000000002223, 0.1895066124935133 
3.160000000002244, 0.19315178991690263 
3.1700000000022652, 0.1949920983925436 
3.1800000000022863, 0.19583847280471045 
3.1900000000023074, 0.19611939232492362 
3.2000000000023285, 0.19608697845129605 
3.2100000000023496, 0.19591045306830526 
3.2200000000023707, 0.19571750134043603 
3.230000000002392, 0.19561618300633538 
3.240000000002413, 0.19571443814278283 
3.250000000002434, 0.19614367112699843 
3.260000000002455, 0.19708322980877627 
3.2700000000024763, 0.1987667090023021 
3.2800000000024974, 0.20142430375021111 
3.2900000000025185, 0.20511235761623298 
3.3000000000025396, 0.20950092895896932 
3.3100000000025607, 0.21388980049260858 
3.3200000000025818, 0.21757575819951708 
3.330000000002603, 0.2202042765065461 
3.340000000002624, 0.22177193082226937 
3.350000000002645, 0.22242285305277223 
3.360000000002666, 0.2222858727144122 
3.3700000000026873, 0.22141764906275335 
3.3800000000027084, 0.2198242848020755 
3.3900000000027295, 0.21753781838547082 
3.4000000000027506, 0.21471628334056048 
3.4100000000027717, 0.21168567780046343 
3.420000000002793, 0.2088442738272541 
3.430000000002814, 0.20648957212898217 
3.440000000002835, 0.20472863253985518 
3.450000000002856, 0.20352005565987202 
3.460000000002877, 0.20276135888517782 
3.4700000000028983, 0.2023461723272919 
3.4800000000029194, 0.20218012783000966 
3.4900000000029405, 0.20217323192529552 
3.5000000000029616, 0.2022262314165047 
3.5100000000029827, 0.20222112353549374 
3.520000000003004, 0.20201656430639306 
3.530000000003025, 0.20143753583580687 
3.540000000003046, 0.20023933269102073 
3.550000000003067, 0.19802017939370237 
3.5600000000030882, 0.1940509242178116 
3.5700000000031094, 0.18701112299944303 
3.5800000000031305, 0.17484278771193307 
3.5900000000031516, 0.155735649934382 
3.6000000000031727, 0.13152903717961106 
3.6100000000031938, 0.10934052516385666 
3.620000000003215, 0.09479541737794758 
3.630000000003236, 0.0872622681661016 
3.640000000003257, 0.08371764540954867 
3.650000000003278, 0.08200586286333242 
3.6600000000032993, 0.08107306948012835 
3.6700000000033204, 0.08046076757791076 
3.6800000000033415, 0.07996512824139879 
3.6900000000033626, 0.07947781144894119 
3.7000000000033837, 0.07891435823189637 
3.710000000003405, 0.07817525064522032 
3.720000000003426, 0.07711258287495362 
3.730000000003447, 0.07548245293416148 
3.740000000003468, 0.07285351576718753 
3.750000000003489, 0.06841142310404216 
3.7600000000035103, 0.06053672798451996 
3.7700000000035314, 0.04598133830015952 
3.7800000000035525, 0.018917306405717975 
3.7900000000035736, -0.02668064775627919 
3.8000000000035947, -0.08565544096935646 
3.810000000003616, -0.13590926898597072 
3.820000000003637, -0.1644835987771043 
3.830000000003658, -0.17732083407077154 
3.840000000003679, -0.18276479541780102 
3.8500000000037002, -0.18519170826617407 
3.8600000000037213, -0.18637093282876657 
3.8700000000037424, -0.18698346105718183 
3.8800000000037635, -0.1873012692978035 
3.8900000000037847, -0.18744187682932673 
3.9000000000038058, -0.18746376268475357 
3.910000000003827, -0.18740661587590124 
3.920000000003848, -0.18731301040045542 
3.930000000003869, -0.1872430389180728 
3.94000000000389, -0.18728368793382127 
3.9500000000039113, -0.18755242148285783 
3.9600000000039324, -0.18819699186260344 
3.9700000000039535, -0.18939511427869432 
3.9800000000039746, -0.19135020761521582 
3.9900000000039957, -0.1942610179707692 
4.000000000004016, -0.1982279132016433 
4.010000000003993, -0.2030921054822703 
4.02000000000397, -0.2083298217831735 
4.030000000003946, -0.21320493751381245 
4.040000000003923, -0.21713898655466962 
4.0500000000039, -0.21994060407028898 
4.0600000000038765, -0.2217241847504058 
4.070000000003853, -0.2227080151849211 
4.08000000000383, -0.22307901912262715 
4.090000000003807, -0.22294552219104508 
4.100000000003783, -0.22233391797172045 
4.11000000000376, -0.2212000408807564 
4.120000000003737, -0.2194538037056391 
4.130000000003713, -0.21701374842061333 
4.14000000000369, -0.21390119596780915 
4.150000000003667, -0.21033036300605792 
4.1600000000036434, -0.2066928337916522 
4.17000000000362, -0.20340137587676738 
4.180000000003597, -0.2007215432532769 
4.1900000000035735, -0.19872717658953382 
4.20000000000355, -0.1973610480323517 
4.210000000003527, -0.19650837624105422 
4.220000000003504, -0.19603768060484722 
4.23000000000348, -0.19581591475025392 
4.240000000003457, -0.1957174432162166 
4.250000000003434, -0.19563506545411516 
4.26000000000341, -0.19548811922313114 
4.270000000003387, -0.19522047562394637 
4.280000000003364, -0.19478737108502953 
4.2900000000033405, -0.19413335831658796 
4.300000000003317, -0.19315853906915836 
4.310000000003294, -0.19165641627565172 
4.320000000003271, -0.18917950116518004 
4.330000000003247, -0.18473995571950297 
4.340000000003224, -0.17623260151180412 
4.350000000003201, -0.15988867766076703 
4.360000000003177, -0.13190890540144204 
4.370000000003154, -0.09475206689565766 
4.380000000003131, -0.05922931496592811 
4.390000000003107, -0.03357614882919656 
4.400000000003084, -0.01777089784233411 
4.410000000003061, -0.008529113626300398 
4.4200000000030375, -0.003092209016551201 
4.430000000003014, 0.00016820157148920723 
4.440000000002991, 0.0017963627008466734 
4.450000000002968, 0.0027069657375478856 
4.460000000002944, 0.0031941400212889747 
4.470000000002921, 0.0034348130334720395 
4.480000000002898, 0.0035394767287022406 
4.490000000002874, 0.00358187886826637 
4.500000000002851, 0.003622716767613998 
4.510000000002828, 0.003740588517403081 
4.520000000002804, 0.00409544757113269 
4.530000000002781, 0.005090308347094714 
4.540000000002758, 0.0077942505205007995 
4.5500000000027345, 0.014878136397615097 
4.560000000002711, 0.03153308110595722 
4.570000000002688, 0.06214601583692943 
4.580000000002665, 0.10031509835394967 
4.590000000002641, 0.1318322846459082 
4.600000000002618, 0.15134507322579627 
4.610000000002595, 0.16195665727551806 
4.620000000002571, 0.16753427550245023 
4.630000000002548, 0.17044151850051695 
4.640000000002525, 0.17190575027559835 
4.6500000000025015, 0.17255951074662215 
4.660000000002478, 0.17275168514134637 
4.670000000002455, 0.17269747912976624 
4.6800000000024315, 0.172546529088134 
4.690000000002408, 0.1724151581204558 
4.700000000002385, 0.17240788161667076 
4.710000000002362, 0.17264096850930358 
4.720000000002338, 0.17327265203965672 
4.730000000002315, 0.17453499433426417 
4.740000000002292, 0.17673936839995552 
4.750000000002268, 0.1801848734171501 
4.760000000002245, 0.18490098768784918 
4.770000000002222, 0.19036706194119066 
4.7800000000021985, 0.19562931077583579 
4.790000000002175, 0.1998685077267102 
4.800000000002152, 0.20278716691950555 
4.810000000002129, 0.20449541665253063 
4.820000000002105, 0.20522622585856504 
4.830000000002082, 0.20516687525613514 
4.840000000002059, 0.2044237556897114 
4.850000000002035, 0.20306052029983274 
4.860000000002012, 0.20116911564242565 
4.870000000001989, 0.1989329800227689 
4.880000000001965, 0.19662569802723107 
