t, s[1].omega / s[0].omega 
0, -0.2799978300857855 
0.009999999999999995, -0.2800857354042532 
0.019999999999999934, -0.2807504382095108 
0.029999999999999874, -0.28189619297497615 
0.04000000000000012, -0.28333559368561717 
0.050000000000000405, -0.284807956626428 
0.06000000000000069, -0.2860552499082248 
0.07000000000000098, -0.2869001847016532 
0.08000000000000126, -0.2872609474332687 
0.09000000000000155, -0.287102105842638 
0.10000000000000184, -0.2863588475423665 
0.11000000000000212, -0.2848432624103007 
0.12000000000000241, -0.282080797749931 
0.130000000000002, -0.27692018215385494 
0.1400000000000009, -0.2665137514542252 
0.1499999999999998, -0.24390550353559032 
0.1599999999999987, -0.19525964734306184 
0.1699999999999976, -0.11063916255876957 
0.1799999999999965, -0.016885703782185835 
0.1899999999999954, 0.04668261902656333 
0.1999999999999943, 0.07929268402455952 
0.2099999999999932, 0.09492247619591147 
0.2199999999999921, 0.10257379282042685 
0.229999999999991, 0.10641855885282665 
0.2399999999999899, 0.10831459127810283 
0.2499999999999888, 0.1091380125699694 
0.2599999999999877, 0.10935203226080828 
0.2699999999999866, 0.10924278748571743 
0.2799999999999855, 0.10901492848983367 
0.2899999999999844, 0.1088322035583759 
0.2999999999999833, 0.10884795047089804 
0.3099999999999822, 0.10925289220124608 
0.3199999999999811, 0.11036433322364639 
0.32999999999998, 0.1127897534995775 
0.3399999999999789, 0.11767838811107327 
0.3499999999999778, 0.12684814616170353 
0.35999999999997667, 0.14189215262780855 
0.36999999999997557, 0.16152971666945024 
0.37999999999997447, 0.18067792432529461 
0.38999999999997337, 0.1949275937901847 
0.39999999999997227, 0.2037313368946097 
0.40999999999997117, 0.2085978606413442 
0.41999999999997006, 0.21100801099993896 
0.42999999999996896, 0.21186820795695055 
0.43999999999996786, 0.21162587965602492 
0.44999999999996676, 0.21046805154030332 
0.45999999999996566, 0.2084937917680604 
0.46999999999996456, 0.20586584271575675 
0.47999999999996346, 0.20290086600628832 
0.48999999999996235, 0.2000226456754977 
0.49999999999996125, 0.19760404961717895 
0.5099999999999602, 0.1958494265201764 
0.519999999999959, 0.19480521262092837 
0.529999999999958, 0.1944383897427901 
0.5399999999999568, 0.19469399573919555 
0.5499999999999557, 0.195499338752085 
0.5599999999999546, 0.19672938732522272 
0.5699999999999535, 0.19817447185794193 
0.5799999999999524, 0.19955652912237357 
0.5899999999999513, 0.20059635921761726 
0.5999999999999502, 0.2010693982382024 
0.6099999999999491, 0.20078616444747066 
0.619999999999948, 0.1994878280014793 
0.6299999999999469, 0.19666283421481104 
0.6399999999999458, 0.19125012170236905 
0.6499999999999447, 0.1812169317087141 
0.6599999999999436, 0.16348379223329973 
0.6699999999999425, 0.1361640015162045 
0.6799999999999414, 0.10399892730417315 
0.6899999999999403, 0.07727663257496956 
0.6999999999999392, 0.06080587003485801 
0.7099999999999381, 0.05217185888644098 
0.719999999999937, 0.04781274416164447 
0.7299999999999359, 0.04554450692660331 
0.7399999999999348, 0.044308271287009586 
0.7499999999999337, 0.043613953439848294 
0.7599999999999326, 0.04321821618712253 
0.7699999999999315, 0.042969755008486536 
0.7799999999999304, 0.04273414028396142 
0.7899999999999293, 0.04235512911874758 
0.7999999999999282, 0.04163021533182259 
0.8099999999999271, 0.04027619251346951 
0.819999999999926, 0.03784621906524415 
0.8299999999999249, 0.033534871551102734 
0.8399999999999238, 0.02575849215236876 
0.8499999999999227, 0.011364581332871819 
0.8599999999999216, -0.014989643236509906 
0.8699999999999205, -0.05909499827548296 
0.8799999999999194, -0.11643587495623473 
0.8899999999999183, -0.16705348711032428 
0.8999999999999172, -0.19843962907503296 
0.9099999999999161, -0.214479790588269 
0.919999999999915, -0.22228163389840358 
0.9299999999999139, -0.22612224336130277 
0.9399999999999128, -0.22799812782643752 
0.9499999999999117, -0.2287858957501092 
0.9599999999999106, -0.22886224887790968 
0.9699999999999095, -0.22838078693966352 
0.9799999999999084, -0.22740720621784988 
0.9899999999999073, -0.2260077182461382 
0.9999999999999062, -0.22431462121433973 
1.0099999999999052, -0.22254691820581649 
1.019999999999904, -0.22096501337033078 
1.029999999999903, -0.21979424194588232 
1.039999999999902, -0.21918344155442954 
1.0499999999999008, -0.2192169616405518 
1.0599999999998997, -0.21994016910025155 
1.0699999999998986, -0.2213529241337886 
1.0799999999998975, -0.2233593764709158 
1.0899999999998964, -0.22571639141120556 
1.0999999999998953, -0.22806137454218672 
1.1099999999998942, -0.23004071490641978 
1.119999999999893, -0.2314338214801024 
1.129999999999892, -0.232165668779133 
1.1399999999998909, -0.2322249406809765 
1.1499999999998898, -0.23155885971368603 
1.1599999999998887, -0.22996525888495226 
1.1699999999998876, -0.22694028752220552 
1.1799999999998865, -0.22140861571076967 
1.1899999999998854, -0.21133096675120835 
1.1999999999998843, -0.1936992608348098 
1.2099999999998832, -0.166666099250581 
1.219999999999882, -0.13407824849515765 
1.229999999999881, -0.10468162960196607 
1.2399999999998799, -0.08378690302034811 
1.2499999999998788, -0.07078911048190449 
1.2599999999998777, -0.06307099059690666 
1.2699999999998766, -0.05850465638304188 
1.2799999999998755, -0.05579282744416505 
1.2899999999998744, -0.05419545910099177 
1.2999999999998733, -0.053273962211320115 
1.3099999999998722, -0.05274287061826597 
1.319999999999871, -0.05240013503749935 
1.32999999999987, -0.05209840396137133 
1.3399999999998689, -0.05172754731941599 
1.3499999999998678, -0.051189931014716694 
1.3599999999998666, -0.050355077769327586 
1.3699999999998655, -0.04896423384439992 
1.3799999999998644, -0.046390343683043886 
1.3899999999998633, -0.040967862415300225 
1.3999999999998622, -0.028190560668462213 
1.4099999999998611, 0.002475100136711538 
1.41999999999986, 0.06334684863980543 
1.429999999999859, 0.14133209212858205 
1.4399999999998578, 0.19952088310893365 
1.4499999999998567, 0.2299538306120692 
1.4599999999998556, 0.24412721716272143 
1.4699999999998545, 0.2507138395805649 
1.4799999999998534, 0.2537530506087246 
1.4899999999998523, 0.25497096395256824 
1.4999999999998512, 0.25512441144171294 
1.5099999999998501, 0.25458528408218717 
1.519999999999849, 0.25359763181220857 
1.529999999999848, 0.25238767132007756 
1.5399999999998468, 0.2511869344562595 
1.5499999999998457, 0.25020892550062207 
1.5599999999998446, 0.24962641492439755 
1.5699999999998435, 0.24957579599380453 
1.5799999999998424, 0.2501757600236943 
1.5899999999998413, 0.2515243509919618 
1.5999999999998402, 0.25364248198218714 
1.6099999999998391, 0.25637449968676984 
1.619999999999838, 0.25933911659272635 
1.629999999999837, 0.26203983146858556 
1.6399999999998358, 0.2640753955317158 
1.6499999999998347, 0.2652459819120104 
1.6599999999998336, 0.26547686239977225 
1.6699999999998325, 0.2646507946774165 
1.6799999999998314, 0.26241825461970236 
1.6899999999998303, 0.2579585309714224 
1.6999999999998292, 0.2496809526203287 
1.709999999999828, 0.23525849542635716 
1.719999999999827, 0.21342938462992436 
1.729999999999826, 0.1879241020835972 
1.7399999999998248, 0.16653315680383235 
1.7499999999998237, 0.15311157190577995 
1.7599999999998226, 0.1459975807474254 
1.7699999999998215, 0.14241672079357132 
1.7799999999998204, 0.1405782319069262 
1.7899999999998193, 0.13958345071149147 
1.7999999999998182, 0.13900117428763611 
1.809999999999817, 0.13860185788432472 
1.819999999999816, 0.13822453426988565 
1.8299999999998149, 0.13770820942397163 
1.8399999999998138, 0.13684517295557724 
1.8499999999998127, 0.13532095243410266 
1.8599999999998116, 0.13258508133787025 
1.8699999999998105, 0.12752653472170053 
1.8799999999998094, 0.1176108315843403 
1.8899999999998083, 0.0964869077221065 
1.8999999999998072, 0.04782692038331372 
1.909999999999806, -0.06108583270776006 
1.919999999999805, -0.23706191403405935 
1.9299999999998039, -0.3882027522311807 
1.9399999999998028, -0.4643468255842774 
1.9499999999998017, -0.49626030627128115 
1.9599999999998006, -0.5100093148953231 
1.9699999999997995, -0.5163908721796381 
1.9799999999997984, -0.519470710083493 
1.9899999999997973, -0.5208384781662351 
1.9999999999997962, -0.5211168079137752 
2.0099999999998173, -0.5204791622305204 
2.0199999999998384, -0.5188237243700966 
2.0299999999998595, -0.5158402016311555 
2.0399999999998806, -0.5111152065544308 
2.0499999999999017, -0.5044112575082684 
2.059999999999923, -0.49607970307349997 
2.069999999999944, -0.4871720213609361 
2.079999999999965, -0.47891120684820293 
2.089999999999986, -0.47204085639925014 
2.100000000000007, -0.4666965931730737 
2.1100000000000283, -0.4626658002625622 
2.1200000000000494, -0.4596412618107415 
2.1300000000000705, -0.457342536398709 
2.1400000000000916, -0.4555524892880256 
2.1500000000001127, -0.45412353735086386 
2.160000000000134, -0.45297626118951273 
2.170000000000155, -0.45209615235136524 
2.180000000000176, -0.4515320177516767 
2.190000000000197, -0.4514007229288313 
2.2000000000002182, -0.45190276961145887 
2.2100000000002393, -0.4533530650158628 
2.2200000000002604, -0.4562333292170617 
2.2300000000002815, -0.46127809799739616 
2.2400000000003026, -0.4696163164038169 
2.2500000000003237, -0.4830061362080129 
2.260000000000345, -0.5042181655387638 
2.270000000000366, -0.5376120983169007 
2.280000000000387, -0.5897746459656097 
2.290000000000408, -0.669278174976849 
2.3000000000004293, -0.7824393993023446 
2.3100000000004504, -0.9211786499214186 
2.3200000000004715, -1.053963965410565 
2.3300000000004926, -1.1481665082912547 
2.3400000000005137, -1.1998342290907975 
2.3500000000005348, -1.2240534125621043 
2.360000000000556, -1.2346326131115317 
2.370000000000577, -1.23904749436123 
2.380000000000598, -1.2406320667988322 
2.390000000000619, -1.2407827558638593 
2.4000000000006403, -1.2401471988394313 
2.4100000000006614, -1.2393359247944484 
2.4200000000006825, -1.239521018584899 
2.4300000000007036, -1.242473621311505 
2.4400000000007247, -1.2491668000076053 
2.450000000000746, -1.2584343512468161 
2.460000000000767, -1.2681149558422018 
2.470000000000788, -1.2768217213012325 
2.480000000000809, -1.2841798801532753 
2.49000000000083, -1.2902925378461372 
2.5000000000008513, -1.2953517979201652 
2.5100000000008724, -1.2994959766095622 
2.5200000000008935, -1.3027827364597375 
2.5300000000009146, -1.3052107954460501 
2.5400000000009357, -1.3067730982903156 
2.550000000000957, -1.3075125715397247 
2.560000000000978, -1.307543250166701 
2.570000000000999, -1.307038243562681 
2.58000000000102, -1.3062133896722297 
2.5900000000010412, -1.305297702140892 
2.6000000000010624, -1.3044593402877447 
2.6100000000010835, -1.303749243050309 
2.6200000000011046, -1.3031687424341891 
2.6300000000011257, -1.3027794323126458 
2.6400000000011468, -1.302664486592049 
2.650000000001168, -1.3027707692681223 
2.660000000001189, -1.302863825364687 
2.67000000000121, -1.3026352604301736 
2.680000000001231, -1.301784927936598 
2.6900000000012523, -1.3000262983478064 
2.7000000000012734, -1.2970996629542806 
2.7100000000012945, -1.2928278951630001 
2.7200000000013156, -1.2871498913155288 
2.7300000000013367, -1.2800651321317866 
2.740000000001358, -1.271522453454051 
2.750000000001379, -1.261342573148182 
2.7600000000014, -1.249246941446564 
2.770000000001421, -1.235099977466294 
2.780000000001442, -1.2195315211503166 
2.7900000000014633, -1.2047220351603358 
2.8000000000014844, -1.1939097274401829 
2.8100000000015055, -1.1886859462500337 
2.8200000000015266, -1.1875321471613762 
2.8300000000015477, -1.1879354565137619 
2.840000000001569, -1.1883366473120105 
2.85000000000159, -1.1880633092559416 
2.860000000001611, -1.1866224204530842 
2.870000000001632, -1.1830509051779217 
2.8800000000016532, -1.1750318088742744 
2.8900000000016743, -1.157199385960395 
2.9000000000016954, -1.1187112797514074 
2.9100000000017165, -1.044424226495523 
2.9200000000017377, -0.9298214274698087 
2.9300000000017588, -0.7987167641209629 
2.94000000000178, -0.6847711714687218 
2.950000000001801, -0.6018071575611995 
2.960000000001822, -0.5461607601290537 
2.970000000001843, -0.5098027500629303 
2.9800000000018643, -0.4861153220674976 
2.9900000000018854, -0.47064237734358716 
3.0000000000019065, -0.4605412459609653 
3.0100000000019276, -0.454004153877941 
3.0200000000019487, -0.44986416487979214 
3.03000000000197, -0.44735387173719027 
3.040000000001991, -0.44596127056534796 
3.050000000002012, -0.44534331508835495 
3.060000000002033, -0.44527360655558745 
3.070000000002054, -0.4456112792247494 
3.0800000000020753, -0.4462843864338698 
3.0900000000020964, -0.4472841854980665 
3.1000000000021175, -0.4486674898555315 
3.1100000000021386, -0.4505639708393394 
3.1200000000021597, -0.45318563302463905 
3.130000000002181, -0.4568351886173342 
3.140000000002202, -0.46189902982555475 
3.150000000002223, -0.4687751579042011 
3.160000000002244, -0.47764186698051925 
3.1700000000022652, -0.48804587081030537 
3.1800000000022863, -0.49866396664431384 
3.1900000000023074, -0.5078337954550313 
3.2000000000023285, -0.5145593703300954 
3.2100000000023496, -0.5188478686862442 
3.2200000000023707, -0.5212337147591506 
3.230000000002392, -0.522257348392729 
3.240000000002413, -0.5222420812556192 
3.250000000002434, -0.521239028361753 
3.260000000002455, -0.5189565928278213 
3.2700000000024763, -0.514513106030748 
3.2800000000024974, -0.5057181405236487 
3.2900000000025185, -0.4871607682773929 
3.3000000000025396, -0.44608920696702575 
3.3100000000025607, -0.3610058157974643 
3.3200000000025818, -0.23139342052148698 
3.330000000002603, -0.11375382134199508 
3.340000000002624, -0.04514813240583166 
3.350000000002645, -0.01171521687920987 
3.360000000002666, 0.004449587446076999 
3.3700000000026873, 0.012483723667057004 
3.3800000000027084, 0.01673850996677293 
3.3900000000027295, 0.019036693321788513 
3.4000000000027506, 0.020257937342429023 
3.4100000000027717, 0.02086679796850157 
3.420000000002793, 0.021129187129357716 
3.430000000002814, 0.021205218856613296 
3.440000000002835, 0.021195064117087388 
3.450000000002856, 0.021171908757054 
3.460000000002877, 0.02122664793207527 
3.4700000000028983, 0.021576817876660995 
3.4800000000029194, 0.022923273795376137 
3.4900000000029405, 0.027736700444456624 
3.5000000000029616, 0.04461559359584174 
3.5100000000029827, 0.09680787290811146 
3.520000000003004, 0.20257176096687868 
3.530000000003025, 0.3064642221523585 
3.540000000003046, 0.3609838469822112 
3.550000000003067, 0.3834775454679077 
3.5600000000030882, 0.39274484890393085 
3.5700000000031094, 0.39667398729850356 
3.5800000000031305, 0.39817381597502943 
3.5900000000031516, 0.3983392386821605 
3.6000000000031727, 0.39759808045500755 
3.6100000000031938, 0.3961540887286043 
3.620000000003215, 0.39419854231322576 
3.630000000003236, 0.39200379382823874 
3.640000000003257, 0.38990021713100775 
3.650000000003278, 0.388174981142679 
3.6600000000032993, 0.38699150082461464 
3.6700000000033204, 0.3863845588987094 
3.6800000000033415, 0.3862979654752847 
3.6900000000033626, 0.3866145935009783 
3.7000000000033837, 0.38716797987190066 
3.710000000003405, 0.3877537618921337 
3.720000000003426, 0.38815141042601725 
3.730000000003447, 0.38813628879961637 
3.740000000003468, 0.38744019646822714 
3.750000000003489, 0.3856038124310407 
3.7600000000035103, 0.3815800998118745 
3.7700000000035314, 0.37257199687340337 
3.7800000000035525, 0.35011642035606133 
3.7900000000035736, 0.28673429373950443 
3.8000000000035947, 0.1169368339525638 
3.810000000003616, -0.1343827705440576 
3.820000000003637, -0.28287291002513515 
3.830000000003658, -0.336172935796097 
3.840000000003679, -0.3551828015920152 
3.8500000000037002, -0.36309886237746836 
3.8600000000037213, -0.36689941180344826 
3.8700000000037424, -0.36885978707308703 
3.8800000000037635, -0.3698237036690077 
3.8900000000037847, -0.37012903570193034 
3.9000000000038058, -0.3699025276228112 
3.910000000003827, -0.36917557926199035 
3.920000000003848, -0.3679554047625351 
3.930000000003869, -0.3662931289856207 
3.94000000000389, -0.3643386037343023 
3.9500000000039113, -0.3623382607995739 
3.9600000000039324, -0.36056046974962463 
3.9700000000039535, -0.3592066366075949 
3.9800000000039746, -0.3583756118497016 
3.9900000000039957, -0.35807905213656505 
4.000000000004016, -0.3582627220847929 
4.010000000003993, -0.3588107829457654 
4.02000000000397, -0.3595494127198343 
4.030000000003946, -0.3602774164375604 
4.040000000003923, -0.3608205758558599 
4.0500000000039, -0.3610709721929445 
4.0600000000038765, -0.3609842065861116 
4.070000000003853, -0.36054655398411606 
4.08000000000383, -0.35973683143528423 
4.090000000003807, -0.35849076933182145 
4.100000000003783, -0.356649703458518 
4.11000000000376, -0.35382110386942484 
4.120000000003737, -0.3488366262889314 
4.130000000003713, -0.33714096542542327 
4.14000000000369, -0.29621114462869697 
4.150000000003667, -0.11254056222301936 
4.1600000000036434, 0.37327717773412555 
4.17000000000362, 0.6547456621604728 
4.180000000003597, 0.7189650888330867 
4.1900000000035735, 0.7353821959289911 
4.20000000000355, 0.7405954302942643 
4.210000000003527, 0.7422067656681691 
4.220000000003504, 0.7421534745100717 
4.23000000000348, 0.7409076832677091 
4.240000000003457, 0.7384689979693071 
4.250000000003434, 0.7347973981684027 
4.26000000000341, 0.7302115830444967 
4.270000000003387, 0.7255681648859527 
4.280000000003364, 0.7218276875801044 
4.2900000000033405, 0.719399486201909 
4.300000000003317, 0.7180706328789312 
4.310000000003294, 0.7173861141366005 
4.320000000003271, 0.7169203012860123 
4.330000000003247, 0.7163058456355622 
4.340000000003224, 0.7151024057954383 
4.350000000003201, 0.7124422765211 
4.360000000003177, 0.7058259285304965 
4.370000000003154, 0.6852545854029977 
4.380000000003131, 0.5878657252657489 
4.390000000003107, -0.2662044960553902 
4.400000000003084, -2.2995709293545095 
4.410000000003061, -2.6098335079704738 
4.4200000000030375, -2.649538321971789 
4.430000000003014, -2.657901296059545 
4.440000000002991, -2.6596676780451265 
4.450000000002968, -2.6592711352131895 
4.460000000002944, -2.6576978876951216 
4.470000000002921, -2.65453039786837 
4.480000000002898, -2.6490288700420956 
4.490000000002874, -2.6455241413155157 
4.500000000002851, -2.646410745637941 
4.510000000002828, -2.646662409560624 
4.520000000002804, -2.644435725001465 
4.530000000002781, -2.6391247215444578 
4.540000000002758, -2.644377958326297 
4.5500000000027345, -2.661243432245157 
4.560000000002711, -2.669658473950064 
4.570000000002688, -2.672649764436335 
4.580000000002665, -2.6733614415002602 
4.590000000002641, -2.672336472772354 
4.600000000002618, -2.66856624192006 
4.610000000002595, -2.6575717198337347 
4.620000000002571, -2.6171865876571454 
4.630000000002548, -2.3805521091451953 
4.640000000002525, -1.478512354703573 
4.6500000000025015, -1.1357958625634124 
4.660000000002478, -1.1514265096939558 
4.670000000002455, -1.1849456137453243 
4.6800000000024315, -1.2021144689741117 
4.690000000002408, -1.209576816873596 
4.700000000002385, -1.2125636208362263 
4.710000000002362, -1.213314313204923 
4.720000000002338, -1.212504088268842 
4.730000000002315, -1.2098333016890663 
4.740000000002292, -1.2039044217285078 
4.750000000002268, -1.1919015402827733 
4.760000000002245, -1.1732705832320562 
4.770000000002222, -1.1827562777621268 
4.7800000000021985, -1.4010445919004526 
4.790000000002175, -1.886110705056732 
4.800000000002152, -2.127415094927492 
4.810000000002129, -2.1960336388613846 
4.820000000002105, -2.218675608504182 
4.830000000002082, -2.227381736372136 
4.840000000002059, -2.2307305946590903 
4.850000000002035, -2.231571735871136 
4.860000000002012, -2.2309745527635148 
4.870000000001989, -2.2292829650612545 
4.880000000001965, -2.2262521369522403 
4.890000000001942, -2.2210726271377803 
4.900000000001919, -2.2146003458692443 
4.9100000000018955, -2.2118151764195266 
