t, s[1].omega / s[0].omega 
0, -1.3599973196506776 
0.009999999999999995, -1.359512069698067 
0.019999999999999934, -1.3585750478162706 
0.029999999999999874, -1.3571399022272463 
0.04000000000000012, -1.3551718801373789 
0.050000000000000405, -1.3526557526468603 
0.06000000000000069, -1.3495418248413613 
0.07000000000000098, -1.3456979415514538 
0.08000000000000126, -1.3410577675543593 
0.09000000000000155, -1.336053781394868 
0.10000000000000184, -1.3318862077361466 
0.11000000000000212, -1.3296683933788498 
0.12000000000000241, -1.3291214886792277 
0.130000000000002, -1.3289831732684918 
0.1400000000000009, -1.3280879124002039 
0.1499999999999998, -1.3252970682102256 
0.1599999999999987, -1.318621883803927 
0.1699999999999976, -1.3041012824979288 
0.1799999999999965, -1.2754663173498528 
0.1899999999999954, -1.2272906033886275 
0.1999999999999943, -1.1609277228753596 
0.2099999999999932, -1.0842493303856375 
0.2199999999999921, -1.0046899361243442 
0.229999999999991, -0.9262436517666867 
0.2399999999999899, -0.8515044318988265 
0.2499999999999888, -0.7838151007614853 
0.2599999999999877, -0.7272172767496115 
0.2699999999999866, -0.684568526177024 
0.2799999999999855, -0.6559240403536977 
0.2899999999999844, -0.6387952979361095 
0.2999999999999833, -0.6296794108465409 
0.3099999999999822, -0.6254080469909 
0.3199999999999811, -0.6237079825342751 
0.32999999999998, -0.6231710350509538 
0.3399999999999789, -0.623000330470524 
0.3499999999999778, -0.622761709415854 
0.35999999999997667, -0.6222231954798076 
0.36999999999997557, -0.6212893178081222 
0.37999999999997447, -0.6199988616826676 
0.38999999999997337, -0.6185230670097428 
0.39999999999997227, -0.6171074389554917 
0.40999999999997117, -0.6159741538477477 
0.41999999999997006, -0.615255105297484 
0.42999999999996896, -0.6149802814058021 
0.43999999999996786, -0.6150883949522619 
0.44999999999996676, -0.6154374292167779 
0.45999999999996566, -0.6158324557572609 
0.46999999999996456, -0.6160882045983878 
0.47999999999996346, -0.616099898334845 
0.48999999999996235, -0.6158808236323765 
0.49999999999996125, -0.6155705926083449 
0.5099999999999602, -0.6154560318494032 
0.519999999999959, -0.6160354148840992 
0.529999999999958, -0.6181211677480967 
0.5399999999999568, -0.6229349093148361 
0.5499999999999557, -0.6321067837729454 
0.5599999999999546, -0.6474808359058194 
0.5699999999999535, -0.6707087730849941 
0.5799999999999524, -0.7027959710055314 
0.5899999999999513, -0.743911959179526 
0.5999999999999502, -0.7936728703868454 
0.6099999999999491, -0.8517235111206771 
0.619999999999948, -0.9180565001108258 
0.6299999999999469, -0.9922231933434171 
0.6399999999999458, -1.070557281299641 
0.6499999999999447, -1.143012932657252 
0.6599999999999436, -1.1971194019095033 
0.6699999999999425, -1.2290473482296118 
0.6799999999999414, -1.2447587432226093 
0.6899999999999403, -1.251625183593708 
0.6999999999999392, -1.2541995956775227 
0.7099999999999381, -1.2546726440029035 
0.719999999999937, -1.2541870205314214 
0.7299999999999359, -1.2539063169901763 
0.7399999999999348, -1.2555503561251073 
0.7499999999999337, -1.260421157750738 
0.7599999999999326, -1.267730064345529 
0.7699999999999315, -1.2753906849057277 
0.7799999999999304, -1.2820451710486174 
0.7899999999999293, -1.287430275930214 
0.7999999999999282, -1.291758315607295 
0.8099999999999271, -1.2952788176704781 
0.819999999999926, -1.2981656420117973 
0.8299999999999249, -1.3005318683834841 
0.8399999999999238, -1.3024370506009821 
0.8499999999999227, -1.3038740482426583 
0.8599999999999216, -1.3047760221865046 
0.8699999999999205, -1.3050673415809597 
0.8799999999999194, -1.304734579252841 
0.8899999999999183, -1.3038691256230999 
0.8999999999999172, -1.3026494888125215 
0.9099999999999161, -1.3012475612832708 
0.919999999999915, -1.2997115811188753 
0.9299999999999139, -1.2979941882679928 
0.9399999999999128, -1.2961733602426126 
0.9499999999999117, -1.2946050176410848 
0.9599999999999106, -1.2936831870401495 
0.9699999999999095, -1.2933705175953807 
0.9799999999999084, -1.2931490575746403 
0.9899999999999073, -1.2923619130779813 
0.9999999999999062, -1.2903604206602717 
1.0099999999999052, -1.2864476345417484 
1.019999999999904, -1.2799655443447293 
1.029999999999903, -1.2706156577568017 
1.039999999999902, -1.2586390725452978 
1.0499999999999008, -1.2445036627725155 
1.0599999999998997, -1.2283897778287727 
1.0699999999998986, -1.209919199122819 
1.0799999999998975, -1.1881687002472787 
1.0899999999998964, -1.1619792167817995 
1.0999999999998953, -1.1309965323331348 
1.1099999999998942, -1.0978810409567177 
1.119999999999893, -1.069558639730679 
1.129999999999892, -1.0525212310468093 
1.1399999999998909, -1.0462671193374262 
1.1499999999998898, -1.045569645134727 
1.1599999999998887, -1.046269463764928 
1.1699999999998876, -1.0465293697437303 
1.1799999999998865, -1.0455681976712445 
1.1899999999998854, -1.0425212138724487 
1.1999999999998843, -1.0356090581615804 
1.2099999999998832, -1.021399259674476 
1.219999999999882, -0.9951604008134971 
1.229999999999881, -0.9547444622753831 
1.2399999999998799, -0.9055934730971968 
1.2499999999998788, -0.8573367281087085 
1.2599999999998777, -0.8157567244560232 
1.2699999999998766, -0.781599026270936 
1.2799999999998755, -0.7535419053352383 
1.2899999999998744, -0.7301432940042344 
1.2999999999998733, -0.7104059345901592 
1.3099999999998722, -0.6937903796928137 
1.319999999999871, -0.6800813031167713 
1.32999999999987, -0.66921666670072 
1.3399999999998689, -0.6611156347997211 
1.3499999999998678, -0.6555505452403503 
1.3599999999998666, -0.652110182230429 
1.3699999999998655, -0.6502605110823343 
1.3799999999998644, -0.6494535658931102 
1.3899999999998633, -0.6492192203644371 
1.3999999999998622, -0.6492079093837897 
1.4099999999998611, -0.6491952444510751 
1.41999999999986, -0.649075567790973 
1.429999999999859, -0.6488565703839255 
1.4399999999998578, -0.648642216563421 
1.4499999999998567, -0.6485892004628246 
1.4599999999998556, -0.648849619377652 
1.4699999999998545, -0.6495257832034304 
1.4799999999998534, -0.6506391544485798 
1.4899999999998523, -0.6520996948892519 
1.4999999999998512, -0.6536910801138685 
1.5099999999998501, -0.655120436200206 
1.519999999999849, -0.6561363819776087 
1.529999999999848, -0.6566289942489635 
1.5399999999998468, -0.6566448774938956 
1.5499999999998457, -0.6563625429833805 
1.5599999999998446, -0.656116622641594 
1.5699999999998435, -0.6565249166007082 
1.5799999999998424, -0.6587294168174179 
1.5899999999998413, -0.6646948233646458 
1.5999999999998402, -0.6773562288172246 
1.6099999999998391, -0.7002151890175169 
1.619999999999838, -0.7360608038847861 
1.629999999999837, -0.7852783960368106 
1.6399999999998358, -0.84526292510564 
1.6499999999998347, -0.9119015636655501 
1.6599999999998336, -0.9817575149537452 
1.6699999999998325, -1.0527714337646572 
1.6799999999998314, -1.1228550576877199 
1.6899999999998303, -1.1874589054841942 
1.6999999999998292, -1.2393766982880403 
1.709999999999828, -1.2737999282175931 
1.719999999999827, -1.2926758236658749 
1.729999999999826, -1.3016278093918021 
1.7399999999998248, -1.3053393451844515 
1.7499999999998237, -1.3064399499100978 
1.7599999999998226, -1.3062887678349293 
1.7699999999998215, -1.3059318860260702 
1.7799999999998204, -1.3066542793082336 
1.7899999999998193, -1.3094516450105533 
1.7999999999998182, -1.3139122192970771 
1.809999999999817, -1.3186697611846718 
1.819999999999816, -1.322791653428906 
1.8299999999998149, -1.3260899031604299 
1.8399999999998138, -1.328690779063514 
1.8499999999998127, -1.330709259950571 
1.8599999999998116, -1.3321945067178682 
1.8699999999998105, -1.3331848142786586 
1.8799999999998094, -1.3337302953911032 
1.8899999999998083, -1.3338677986558867 
1.8999999999998072, -1.3335926169311951 
1.909999999999806, -1.332862315694703 
1.919999999999805, -1.331634854642798 
1.9299999999998039, -1.329909562476149 
1.9399999999998028, -1.3277226747004955 
1.9499999999998017, -1.3250779495241691 
1.9599999999998006, -1.3219009694267836 
1.9699999999997995, -1.318187552031563 
1.9799999999997984, -1.3143468102702904 
1.9899999999997973, -1.3112989181873775 
1.9999999999997962, -1.3097459890263814 
2.0099999999998173, -1.3093437025967127 
2.0199999999998384, -1.3090851630049587 
2.0299999999998595, -1.308000784775505 
2.0399999999998806, -1.3050668070626288 
2.0499999999999017, -1.2986658956514456 
2.059999999999923, -1.2862462835686075 
2.069999999999944, -1.2650042057003046 
2.079999999999965, -1.23386057655117 
2.089999999999986, -1.1944667528262947 
2.100000000000007, -1.1493349475631323 
2.1100000000000283, -1.0996705032278633 
2.1200000000000494, -1.045313457335582 
2.1300000000000705, -0.9863245994768837 
2.1400000000000916, -0.9253190554696392 
2.1500000000001127, -0.8688841388217765 
2.160000000000134, -0.825013088924732 
2.170000000000155, -0.7974460677679993 
2.180000000000176, -0.7836798632965449 
2.190000000000197, -0.7783862988936159 
2.2000000000002182, -0.7770561555393902 
2.2100000000002393, -0.7770585335627331 
2.2200000000002604, -0.7771391936672389 
2.2300000000002815, -0.776711892770071 
2.2400000000003026, -0.7754088414237073 
2.2500000000003237, -0.7729024952041301 
2.260000000000345, -0.7689602819991521 
2.270000000000366, -0.7636676805296843 
2.280000000000387, -0.7575679748581134 
2.290000000000408, -0.7514383596902493 
2.3000000000004293, -0.7458767673569692 
2.3100000000004504, -0.7411185329944077 
2.3200000000004715, -0.7371287000620296 
2.3300000000004926, -0.7337574452551767 
2.3400000000005137, -0.7308436110427478 
2.3500000000005348, -0.7282675026338401 
2.360000000000556, -0.7259730187757463 
2.370000000000577, -0.7239660801673897 
2.380000000000598, -0.7222942308990086 
2.390000000000619, -0.7210184003782039 
2.4000000000006403, -0.7201896616960234 
2.4100000000006614, -0.7198379544192675 
2.4200000000006825, -0.7199705713023242 
2.4300000000007036, -0.7205734450615211 
2.4400000000007247, -0.7216119033154642 
2.450000000000746, -0.723034892799793 
2.460000000000767, -0.7247890499443274 
2.470000000000788, -0.7268432208947819 
2.480000000000809, -0.7292151922980358 
2.49000000000083, -0.7319880258210436 
2.5000000000008513, -0.7353065381821999 
2.5100000000008724, -0.7393485171001486 
2.5200000000008935, -0.7442570166467525 
2.5300000000009146, -0.750007791472378 
2.5400000000009357, -0.7562340030609767 
2.550000000000957, -0.7621874146559936 
2.560000000000978, -0.7670461518290067 
2.570000000000999, -0.770365026644123 
2.58000000000102, -0.7721901766363246 
2.5900000000010412, -0.7728267746386238 
2.6000000000010624, -0.7726222076059069 
2.6100000000010835, -0.771963491109989 
2.6200000000011046, -0.7715283517749822 
2.6300000000011257, -0.7728649449624292 
2.6400000000011468, -0.7793242744625761 
2.650000000001168, -0.7967469542593228 
2.660000000001189, -0.8319710108778591 
2.67000000000121, -0.8875450907866458 
2.680000000001231, -0.9570376870183999 
2.6900000000012523, -1.0289859813964168 
2.7000000000012734, -1.095358644124914 
2.7100000000012945, -1.1539246597788084 
2.7200000000013156, -1.2052806553362407 
2.7300000000013367, -1.249782024502442 
2.740000000001358, -1.2862359859109251 
2.750000000001379, -1.3128316281422947 
2.7600000000014, -1.3294611658994362 
2.770000000001421, -1.3383704044512876 
2.780000000001442, -1.342468881318651 
2.7900000000014633, -1.3439121139416734 
2.8000000000014844, -1.3440009475009755 
2.8100000000015055, -1.3436857946224694 
2.8200000000015266, -1.3439439812995375 
2.8300000000015477, -1.3454532919260993 
2.840000000001569, -1.3479524054606773 
2.85000000000159, -1.3506017136789397 
2.860000000001611, -1.35285873539237 
2.870000000001632, -1.3546509200496903 
2.8800000000016532, -1.3560534379362044 
2.8900000000016743, -1.357052172468829 
2.9000000000016954, -1.3575546786707124 
2.9100000000017165, -1.3574935503262828 
2.9200000000017377, -1.356872298214515 
2.9300000000017588, -1.3557398099315514 
2.94000000000178, -1.3541358648498059 
2.950000000001801, -1.3520527255686627 
2.960000000001822, -1.3494335047410282 
2.970000000001843, -1.3461876227106964 
2.9800000000018643, -1.342178817572168 
2.9900000000018854, -1.3371813431298993 
3.0000000000019065, -1.330934355405485 
3.0100000000019276, -1.3235342166737092 
3.0200000000019487, -1.3161430424695015 
3.03000000000197, -1.310884569457218 
3.040000000001991, -1.3087786507373687 
3.050000000002012, -1.3085884413568214 
3.060000000002033, -1.3085326257493937 
3.070000000002054, -1.3073810153581455 
3.0800000000020753, -1.3038005713820908 
3.0900000000020964, -1.2949307614624836 
3.1000000000021175, -1.2741544928999209 
3.1100000000021386, -1.2292259341816936 
3.1200000000021597, -1.1483710300927352 
3.130000000002181, -1.0381059621243707 
3.140000000002202, -0.9233677942527801 
3.150000000002223, -0.8230248947458788 
3.160000000002244, -0.7418996919768474 
3.1700000000022652, -0.6783278667466613 
3.1800000000022863, -0.6294941335041855 
3.1900000000023074, -0.5928577048249171 
3.2000000000023285, -0.5662106027614948 
3.2100000000023496, -0.547554618495893 
3.2200000000023707, -0.5350657483874287 
3.230000000002392, -0.527130979915589 
3.240000000002413, -0.5223980423378041 
3.250000000002434, -0.5197999731856502 
3.260000000002455, -0.5185442460182448 
3.2700000000024763, -0.518074926833866 
3.2800000000024974, -0.5180242834360088 
3.2900000000025185, -0.5181698056672743 
3.3000000000025396, -0.5184062082813996 
3.3100000000025607, -0.5187311860280782 
3.3200000000025818, -0.5192329218459426 
3.330000000002603, -0.5200677435431161 
3.340000000002624, -0.5214314015727147 
3.350000000002645, -0.5235350506041335 
3.360000000002666, -0.5265751500731082 
3.3700000000026873, -0.5306531853697467 
3.3800000000027084, -0.5356152766314395 
3.3900000000027295, -0.5409131013557227 
3.4000000000027506, -0.5457321305776526 
3.4100000000027717, -0.5494082564556213 
3.420000000002793, -0.5517145213950319 
3.430000000002814, -0.5527627301627953 
3.440000000002835, -0.5527477189039869 
3.450000000002856, -0.5517788490229679 
3.460000000002877, -0.5498312478275214 
3.4700000000028983, -0.5468093038118714 
3.4800000000029194, -0.5429381933679239 
3.4900000000029405, -0.5407694750146688 
3.5000000000029616, -0.5567321746940695 
3.5100000000029827, -0.7140912544418635 
3.520000000003004, -2.1313884492015753 
3.530000000003025, -3.055169326514136 
3.540000000003046, -3.115216630605212 
3.550000000003067, -3.125324541560953 
3.5600000000030882, -3.127648408721236 
3.5700000000031094, -3.1269505423054285 
3.5800000000031305, -3.1229875912815346 
3.5900000000031516, -3.1089314956801783 
3.6000000000031727, -3.0149877194901373 
3.6100000000031938, -2.3606251038916946 
3.620000000003215, -2.4391590639846994 
3.630000000003236, -2.4884169859922602 
3.640000000003257, -2.495408708562489 
3.650000000003278, -2.495756283284798 
3.6600000000032993, -2.4951173424039856 
3.6700000000033204, -2.4966545876792603 
3.6800000000033415, -2.498713174236926 
3.6900000000033626, -2.4993475384777373 
3.7000000000033837, -2.4993211718616015 
3.710000000003405, -2.498749582689758 
3.720000000003426, -2.4956695164533906 
3.730000000003447, -2.482227909789268 
3.740000000003468, -2.401945184995168 
3.750000000003489, -1.5903669892178456 
3.7600000000035103, 0.23408974346560982 
3.7700000000035314, 0.5395195555351263 
3.7800000000035525, 0.5888905051243583 
3.7900000000035736, 0.6021730211975078 
3.8000000000035947, 0.6067367473690871 
3.810000000003616, 0.6082911966300988 
3.820000000003637, 0.6084883979027038 
3.830000000003658, 0.6079456795296505 
3.840000000003679, 0.6069990699342174 
3.8500000000037002, 0.6059437950550886 
3.8600000000037213, 0.6050965596155402 
3.8700000000037424, 0.6047622969459489 
3.8800000000037635, 0.6051517747952879 
3.8900000000037847, 0.6062920019873449 
3.9000000000038058, 0.6079774388233675 
3.910000000003827, 0.6098204334747341 
3.920000000003848, 0.61140068835466 
3.930000000003869, 0.6123985201960529 
3.94000000000389, 0.6125886645041367 
3.9500000000039113, 0.6116642432876751 
3.9600000000039324, 0.6088110324238515 
3.9700000000039535, 0.601394262680518 
3.9800000000039746, 0.5789416311487267 
3.9900000000039957, 0.48061129737192126 
4.000000000004016, -0.24960263004966682 
4.010000000003993, -1.8929469046209086 
4.02000000000397, -2.177473666393738 
4.030000000003946, -2.2143777326436336 
4.040000000003923, -2.2215816725852755 
4.0500000000039, -2.2227928422119474 
4.0600000000038765, -2.2224861558759716 
4.070000000003853, -2.2223551815913662 
4.08000000000383, -2.2223324377278533 
4.090000000003807, -2.2215649460678195 
4.100000000003783, -2.2205358016127743 
4.11000000000376, -2.220127172155311 
4.120000000003737, -2.2193123131778636 
4.130000000003713, -2.215326945611587 
4.14000000000369, -2.1976197016546477 
4.150000000003667, -2.0809846866825605 
4.1600000000036434, -0.8453215886454938 
4.17000000000362, 0.6620234848659488 
4.180000000003597, 0.818017526080731 
4.1900000000035735, 0.8432391386663175 
4.20000000000355, 0.8498691518095048 
4.210000000003527, 0.8516571012465212 
4.220000000003504, 0.8512933062441904 
4.23000000000348, 0.8491029234356662 
4.240000000003457, 0.8444592407791891 
4.250000000003434, 0.8363680429323349 
4.26000000000341, 0.8249038155432155 
4.270000000003387, 0.8130263691708677 
4.280000000003364, 0.8046910790215993 
4.2900000000033405, 0.8007303585372607 
4.300000000003317, 0.7994514963410594 
4.310000000003294, 0.7991913388677803 
4.320000000003271, 0.7989940186018865 
4.330000000003247, 0.7982452036336193 
4.340000000003224, 0.7961127900009758 
4.350000000003201, 0.7903686461393936 
4.360000000003177, 0.7721667453818831 
4.370000000003154, 0.6854226493433593 
4.380000000003131, -0.14482944961509633 
4.390000000003107, -2.3070139640636826 
4.400000000003084, -2.6553347788566155 
4.410000000003061, -2.70804209855199 
4.4200000000030375, -2.720873570758215 
4.430000000003014, -2.7242299383621793 
4.440000000002991, -2.7242848356375298 
4.450000000002968, -2.7224952004424106 
4.460000000002944, -2.71792912808713 
4.470000000002921, -2.7057816841918827 
4.480000000002898, -2.6891954974721632 
4.490000000002874, -2.6907812174292713 
4.500000000002851, -2.6936523096867897 
4.510000000002828, -2.692157506759144 
4.520000000002804, -2.6874609529422644 
4.530000000002781, -2.6949015738557285 
4.540000000002758, -2.7091072720284606 
4.5500000000027345, -2.7148795105261385 
4.560000000002711, -2.716621411130615 
4.570000000002688, -2.7165520902861187 
4.580000000002665, -2.7140967445940705 
4.590000000002641, -2.7056767801838175 
4.600000000002618, -2.6756146022183445 
4.610000000002595, -2.5221877683320963 
4.620000000002571, -1.246806980702202 
4.630000000002548, 0.5152974833765123 
4.640000000002525, 0.7238830280411758 
4.6500000000025015, 0.757365563230947 
4.660000000002478, 0.7663480499705836 
4.670000000002455, 0.7692784363002704 
4.6800000000024315, 0.7701055821227102 
4.690000000002408, 0.7700586897762063 
4.700000000002385, 0.7697525210826158 
4.710000000002362, 0.7698639658703378 
4.720000000002338, 0.7716023733706152 
4.730000000002315, 0.7768464813689145 
4.740000000002292, 0.786729254243981 
4.750000000002268, 0.7990152126802758 
4.760000000002245, 0.8094406208798584 
4.770000000002222, 0.8160583671667624 
4.7800000000021985, 0.819438239543168 
4.790000000002175, 0.8205954347203006 
4.800000000002152, 0.8199467589958053 
4.810000000002129, 0.8167554627846597 
4.820000000002105, 0.8069732549847506 
4.830000000002082, 0.7690460669668955 
4.840000000002059, 0.5097696122352382 
4.850000000002035, -1.1699677000322528 
4.860000000002012, -1.9288495836357704 
4.870000000001989, -2.0131660312764117 
4.880000000001965, -2.0278528750346547 
4.890000000001942, -2.030936905490816 
4.900000000001919, -2.0310232987628707 
4.9100000000018955, -2.0307236511777 
4.920000000001872, -2.0315788991347796 
4.930000000001849, -2.0329436184594116 
4.940000000001826, -2.0335958096236606 
4.950000000001802, -2.0336690750019364 
