t, s[1].omega / s[0].omega 
0, -1.5804445726110652 
0.009999999999999995, -1.6146310887068647 
0.019999999999999934, -1.6340186351271686 
0.029999999999999874, -1.6443429281715596 
0.04000000000000012, -1.6493178293986017 
0.050000000000000405, -1.6512969723278839 
0.06000000000000069, -1.6516548943320513 
0.07000000000000098, -1.6512209863161176 
0.08000000000000126, -1.6505918152517722 
0.09000000000000155, -1.6500625712818295 
0.10000000000000184, -1.6495031128205089 
0.11000000000000212, -1.648769972608995 
0.12000000000000241, -1.64811941436774 
0.130000000000002, -1.6478541142070757 
0.1400000000000009, -1.6477132413288782 
0.1499999999999998, -1.6469893301324479 
0.1599999999999987, -1.64472442883867 
0.1699999999999976, -1.6391797712745557 
0.1799999999999965, -1.626612853202488 
0.1899999999999954, -1.599435698891798 
0.1999999999999943, -1.5442200397111814 
0.2099999999999932, -1.4407238027511284 
0.2199999999999921, -1.2660268308204423 
0.229999999999991, -1.0204385347522364 
0.2399999999999899, -0.7688476722559695 
0.2499999999999888, -0.5895253507474041 
0.2599999999999877, -0.48942823356041504 
0.2699999999999866, -0.4386397872968801 
0.2799999999999855, -0.41328160864648444 
0.2899999999999844, -0.40053485756963497 
0.2999999999999833, -0.39410837238929736 
0.3099999999999822, -0.3909163034330866 
0.3199999999999811, -0.3894076167239143 
0.32999999999998, -0.3887811295530214 
0.3399999999999789, -0.3886153948303292 
0.3499999999999778, -0.38869253856752606 
0.35999999999997667, -0.3889168670866359 
0.36999999999997557, -0.3892815288406832 
0.37999999999997447, -0.38985716424971234 
0.38999999999997337, -0.39078621996479246 
0.39999999999997227, -0.392277671213502 
0.40999999999997117, -0.3946071494306447 
0.41999999999997006, -0.39812064450871093 
0.42999999999996896, -0.40320365897960225 
0.43999999999996786, -0.4101242905137208 
0.44999999999996676, -0.4186802029904285 
0.45999999999996566, -0.4278733049956169 
0.46999999999996456, -0.43619470594149534 
0.47999999999996346, -0.4425248696001506 
0.48999999999996235, -0.44663890145969337 
0.49999999999996125, -0.44889469121847175 
0.5099999999999602, -0.4497251373329445 
0.519999999999959, -0.4493582424730504 
0.529999999999958, -0.4476868612590178 
0.5399999999999568, -0.4440659246936504 
0.5499999999999557, -0.4367332602908031 
0.5599999999999546, -0.42119346485910175 
0.5699999999999535, -0.38636061273714556 
0.5799999999999524, -0.3110971051021303 
0.5899999999999513, -0.18761280876356157 
0.5999999999999502, -0.06799262094647837 
0.6099999999999491, 0.00286718553306545 
0.619999999999948, 0.036256323905190416 
0.6299999999999469, 0.05181799178565464 
0.6399999999999458, 0.05941400337541227 
0.6499999999999447, 0.06324800817960467 
0.6599999999999436, 0.06514185107460876 
0.6699999999999425, 0.0659553382659023 
0.6799999999999414, 0.06615262593878776 
0.6899999999999403, 0.06602909213725582 
0.6999999999999392, 0.06579974522882992 
0.7099999999999381, 0.06563716148488706 
0.719999999999937, 0.06570740412061465 
0.7299999999999359, 0.06623842725917324 
0.7399999999999348, 0.0676709558443791 
0.7499999999999337, 0.07101333023258011 
0.7599999999999326, 0.07865270185266074 
0.7699999999999315, 0.09565841602010808 
0.7799999999999304, 0.1288239748325784 
0.7899999999999293, 0.17617231226230376 
0.7999999999999282, 0.21986119880561256 
0.8099999999999271, 0.24756070075931338 
0.819999999999926, 0.2619593805400845 
0.8299999999999249, 0.26894667786020665 
0.8399999999999238, 0.27215928837041037 
0.8499999999999227, 0.2733113007692586 
0.8599999999999216, 0.27311502361542084 
0.8699999999999205, 0.2718106380243978 
0.8799999999999194, 0.2694630796483063 
0.8899999999999183, 0.2661939387008108 
0.8999999999999172, 0.2623569376616954 
0.9099999999999161, 0.25852687005444 
0.919999999999915, 0.2552667723600174 
0.9299999999999139, 0.25290010818667835 
0.9399999999999128, 0.2514905971194026 
0.9499999999999117, 0.25095931582524156 
0.9599999999999106, 0.2511808187434127 
0.9699999999999095, 0.25200151222483796 
0.9799999999999084, 0.2532120989136836 
0.9899999999999073, 0.2545343787537143 
0.9999999999999062, 0.2556598295051863 
1.0099999999999052, 0.2563107933741704 
1.019999999999904, 0.2562501862362804 
1.029999999999903, 0.2551903766614313 
1.039999999999902, 0.2525701968368087 
1.0499999999999008, 0.24706706836207623 
1.0599999999998997, 0.23538436661905995 
1.0699999999998986, 0.2092396037027609 
1.0799999999998975, 0.15100356897057615 
1.0899999999998964, 0.047252513938778606 
1.0999999999998953, -0.06109858628953998 
1.1099999999998942, -0.12419779527558679 
1.119999999999893, -0.15124251877206918 
1.129999999999892, -0.16239512889674695 
1.1399999999998909, -0.16731117789049899 
1.1499999999998898, -0.16959902506942962 
1.1599999999998887, -0.17060508039306616 
1.1699999999998876, -0.1708600673041003 
1.1799999999998865, -0.17058818960723848 
1.1899999999998854, -0.16990830945428143 
1.1999999999998843, -0.1689347752377893 
1.2099999999998832, -0.16783100661805403 
1.219999999999882, -0.1668152387378517 
1.229999999999881, -0.16612510584880527 
1.2399999999998799, -0.16598233516400915 
1.2499999999998788, -0.16659893764609468 
1.2599999999998777, -0.1682223575023541 
1.2699999999998766, -0.1711741761649839 
1.2799999999998755, -0.17580298429986857 
1.2899999999998744, -0.18224883761703242 
1.2999999999998733, -0.19004610266196653 
1.3099999999998722, -0.19799487376955432 
1.319999999999871, -0.20475257329016644 
1.32999999999987, -0.20961398423940528 
1.3399999999998689, -0.21260796302858576 
1.3499999999998678, -0.21407245469510788 
1.3599999999998666, -0.214286551508552 
1.3699999999998655, -0.21330787168098878 
1.3799999999998644, -0.21090470192220545 
1.3899999999998633, -0.20651430024404832 
1.3999999999998622, -0.19932083556694336 
1.4099999999998611, -0.1887482655988464 
1.41999999999986, -0.1754594444052026 
1.429999999999859, -0.16175633466545225 
1.4399999999998578, -0.15014498286569816 
1.4499999999998567, -0.14168598293415896 
1.4599999999998556, -0.1360787821760026 
1.4699999999998545, -0.13257601433167077 
1.4799999999998534, -0.1305253773002358 
1.4899999999998523, -0.12947655049551648 
1.4999999999998512, -0.12911975353883212 
1.5099999999998501, -0.12920630535225017 
1.519999999999849, -0.12950548525156336 
1.529999999999848, -0.12980635831216364 
1.5399999999998468, -0.1299386303081277 
1.5499999999998457, -0.1297749647573856 
1.5599999999998446, -0.12919596642346193 
1.5699999999998435, -0.12801147039530675 
1.5799999999998424, -0.12579854911770214 
1.5899999999998413, -0.12149599187392887 
1.5999999999998402, -0.11224789764128326 
1.6099999999998391, -0.09022755716668583 
1.619999999999838, -0.03754043554472307 
1.629999999999837, 0.06043652725436338 
1.6399999999998358, 0.16519874121516723 
1.6499999999998347, 0.22838070968265614 
1.6599999999998336, 0.25700292182550627 
1.6699999999998325, 0.2694255907366552 
1.6799999999998314, 0.2749592756346968 
1.6899999999998303, 0.27733572941138995 
1.6999999999998292, 0.278030020328629 
1.709999999999828, 0.2776426831022468 
1.719999999999827, 0.2764518396440952 
1.729999999999826, 0.27467180180410333 
1.7399999999998248, 0.2725771003003251 
1.7499999999998237, 0.2705092729586417 
1.7599999999998226, 0.26879647436963156 
1.7699999999998215, 0.2676767559477337 
1.7799999999998204, 0.2672896159413911 
1.7899999999998193, 0.26771028126718227 
1.7999999999998182, 0.26896102474175587 
1.809999999999817, 0.27096381587295165 
1.819999999999816, 0.2734674291082631 
1.8299999999998149, 0.276048877638657 
1.8399999999998138, 0.2782483220434417 
1.8499999999998127, 0.27973198364862134 
1.8599999999998116, 0.2803219483007613 
1.8699999999998105, 0.2798711433939455 
1.8799999999998094, 0.27804445975910314 
1.8899999999998083, 0.2739675966991008 
1.8999999999998072, 0.26549898248077614 
1.909999999999806, 0.2476921740548474 
1.919999999999805, 0.21118155092242702 
1.9299999999998039, 0.14910111965837614 
1.9399999999998028, 0.07992185565994446 
1.9499999999998017, 0.03355159236018286 
1.9599999999998006, 0.011367506936960719 
1.9699999999997995, 0.001753903236713991 
1.9799999999997984, -0.0022973918367326677 
1.9899999999997973, -0.0040038396013243925 
1.9999999999997962, -0.004694783311521499 
2.0099999999998173, -0.004855736444849784 
2.0199999999998384, -0.004715941112382267 
2.0299999999998595, -0.00442553769782409 
2.0399999999998806, -0.0041330841072887755 
2.0499999999999017, -0.004020299741998422 
2.059999999999923, -0.004319676982629325 
2.069999999999944, -0.005345931953620988 
2.079999999999965, -0.007587661170258886 
2.089999999999986, -0.011928159890462768 
2.100000000000007, -0.020115457460784247 
2.1100000000000283, -0.03563062116268919 
2.1200000000000494, -0.06452096609053282 
2.1300000000000705, -0.11259995230858573 
2.1400000000000916, -0.17350892864463036 
2.1500000000001127, -0.22577936914552957 
2.160000000000134, -0.2577203777893474 
2.170000000000155, -0.27406432283902027 
2.180000000000176, -0.28203900735329157 
2.190000000000197, -0.28589112900319874 
2.2000000000002182, -0.28759415966243684 
2.2100000000002393, -0.28798697777135 
2.2200000000002604, -0.28737110875304045 
2.2300000000002815, -0.28578573543193764 
2.2400000000003026, -0.2831778542279542 
2.2500000000003237, -0.279582280255259 
2.260000000000345, -0.2752962502238532 
2.270000000000366, -0.27089035141847 
2.280000000000387, -0.2669713804272552 
2.290000000000408, -0.26391518232359473 
2.3000000000004293, -0.26181577601743045 
2.3100000000004504, -0.26060211753531093 
2.3200000000004715, -0.260150843503554 
2.3300000000004926, -0.260323114429182 
2.3400000000005137, -0.26094764142839505 
2.3500000000005348, -0.26180346531213233 
2.360000000000556, -0.2626452098398351 
2.370000000000577, -0.26326236103774087 
2.380000000000598, -0.2635189025028607 
2.390000000000619, -0.2633389463450073 
2.4000000000006403, -0.2626502816623314 
2.4100000000006614, -0.2612999629536766 
2.4200000000006825, -0.258902204181908 
2.4300000000007036, -0.25443427399374624 
2.4400000000007247, -0.24487360229385616 
2.450000000000746, -0.21998681072099466 
2.460000000000767, -0.14369218753546908 
2.470000000000788, 0.060514161483565386 
2.480000000000809, 0.3121106892854465 
2.49000000000083, 0.43017186626824866 
2.5000000000008513, 0.4684595131207723 
2.5100000000008724, 0.4816782198433846 
2.5200000000008935, 0.4867158755586418 
2.5300000000009146, 0.48850739133404275 
2.5400000000009357, 0.4886153496419575 
2.550000000000957, 0.48750975394659324 
2.560000000000978, 0.48527890809286883 
2.570000000000999, 0.4819802626763213 
2.58000000000102, 0.47790840971331255 
2.5900000000010412, 0.4736811839224722 
2.6000000000010624, 0.4699995639152793 
2.6100000000010835, 0.4672920429034271 
2.6200000000011046, 0.46560635032929615 
2.6300000000011257, 0.46475029822396374 
2.6400000000011468, 0.464453942901356 
2.650000000001168, 0.4644463731474671 
2.660000000001189, 0.4644702624421675 
2.67000000000121, 0.4642676252046355 
2.680000000001231, 0.46352949288695655 
2.6900000000012523, 0.4617491239759281 
2.7000000000012734, 0.4577876297921035 
2.7100000000012945, 0.44838827569236317 
2.7200000000013156, 0.42168223292231194 
2.7300000000013367, 0.3180173661954283 
2.740000000001358, -0.23629353986221613 
2.750000000001379, -1.4216817828259267 
2.7600000000014, -1.7893263831293222 
2.770000000001421, -1.855138153852477 
2.780000000001442, -1.8702033894626875 
2.7900000000014633, -1.8741511503605643 
2.8000000000014844, -1.8748056272703852 
2.8100000000015055, -1.874390213521799 
2.8200000000015266, -1.8742765413924452 
2.8300000000015477, -1.8751605617372067 
2.840000000001569, -1.8763336565080884 
2.85000000000159, -1.8770634855735673 
2.860000000001611, -1.8774360729007271 
2.870000000001632, -1.877598088343182 
2.8800000000016532, -1.8771893691693926 
2.8900000000016743, -1.8754376896881286 
2.9000000000016954, -1.8709239612980337 
2.9100000000017165, -1.8605909996115417 
2.9200000000017377, -1.8376820029137377 
2.9300000000017588, -1.786806903217633 
2.94000000000178, -1.6700932261173556 
2.950000000001801, -1.4013820616199406 
2.960000000001822, -0.9364223818683847 
2.970000000001843, -0.5412998591714364 
2.9800000000018643, -0.3555329492364688 
2.9900000000018854, -0.28013785200638086 
3.0000000000019065, -0.24777593492511213 
3.0100000000019276, -0.2326810919855308 
3.0200000000019487, -0.22516499537668158 
3.03000000000197, -0.22128221037400325 
3.040000000001991, -0.21928667130587337 
3.050000000002012, -0.21835533355835474 
3.060000000002033, -0.21809148090564046 
3.070000000002054, -0.21832036205885202 
3.0800000000020753, -0.2190068740764643 
3.0900000000020964, -0.2202325744280802 
3.1000000000021175, -0.22221114212782567 
3.1100000000021386, -0.22534580359740378 
3.1200000000021597, -0.23036078132851373 
3.130000000002181, -0.23858581957437566 
3.140000000002202, -0.2525423069258069 
3.150000000002223, -0.27696405723514916 
3.160000000002244, -0.31949593391437225 
3.1700000000022652, -0.3862952474381021 
3.1800000000022863, -0.466866817186751 
3.1900000000023074, -0.5333252835167832 
3.2000000000023285, -0.5726889697854225 
3.2100000000023496, -0.5922644007370056 
3.2200000000023707, -0.6014911257261141 
3.230000000002392, -0.605713748234929 
3.240000000002413, -0.6073428158568197 
3.250000000002434, -0.6073029002191266 
3.260000000002455, -0.6056836927262872 
3.2700000000024763, -0.6018052679887249 
3.2800000000024974, -0.5937396059725055 
3.2900000000025185, -0.5770895723283819 
3.3000000000025396, -0.5435123493586679 
3.3100000000025607, -0.4841275301826977 
3.3200000000025818, -0.4056916607503093 
3.330000000002603, -0.3347414277619016 
3.340000000002624, -0.28704414107256954 
3.350000000002645, -0.25901053175290667 
3.360000000002666, -0.2428164209907519 
3.3700000000026873, -0.23315207250408396 
3.3800000000027084, -0.22712418056284686 
3.3900000000027295, -0.22320674097624468 
3.4000000000027506, -0.22057339884746283 
3.4100000000027717, -0.21876382897556232 
3.420000000002793, -0.2175278381181041 
3.430000000002814, -0.2167556091562648 
3.440000000002835, -0.2164538990792874 
3.450000000002856, -0.2167592675073184 
3.460000000002877, -0.21800327407830783 
3.4700000000028983, -0.22088007178245633 
3.4800000000029194, -0.22685378294030323 
3.4900000000029405, -0.23919629610159632 
3.5000000000029616, -0.2658480008750143 
3.5100000000029827, -0.32786237579061916 
3.520000000003004, -0.48265047507603925 
3.530000000003025, -0.8399802522789825 
3.540000000003046, -1.3338508636714643 
3.550000000003067, -1.649349637358577 
3.5600000000030882, -1.7859357595017311 
3.5700000000031094, -1.8439302889974627 
3.5800000000031305, -1.8694978945857337 
3.5900000000031516, -1.8807256720678756 
3.6000000000031727, -1.8853430714491446 
3.6100000000031938, -1.8868290738337712 
3.620000000003215, -1.8867828950936452 
3.630000000003236, -1.8860426309014706 
3.640000000003257, -1.885039050126896 
3.650000000003278, -1.883690637325632 
3.6600000000032993, -1.8818383681404511 
3.6700000000033204, -1.8801192329147516 
3.6800000000033415, -1.8794307259796734 
3.6900000000033626, -1.879280930241256 
3.7000000000033837, -1.878302285992741 
3.710000000003405, -1.874535457922245 
3.720000000003426, -1.8616417074201301 
3.730000000003447, -1.8081254100397703 
3.740000000003468, -1.5074307914642993 
3.750000000003489, -0.3069148803826232 
3.7600000000035103, 0.3709299800489331 
3.7700000000035314, 0.4875885096881435 
3.7800000000035525, 0.5148715243837177 
3.7900000000035736, 0.5236991495914549 
3.8000000000035947, 0.527005471070322 
3.810000000003616, 0.5281374648348736 
3.820000000003637, 0.5282065965300988 
3.830000000003658, 0.5276837548281846 
3.840000000003679, 0.5268564779751876 
3.8500000000037002, 0.5259793014205737 
3.8600000000037213, 0.5253064156001706 
3.8700000000037424, 0.5250700981507354 
3.8800000000037635, 0.5254382236645933 
3.8900000000037847, 0.5264624053727897 
3.9000000000038058, 0.5280274829866285 
3.910000000003827, 0.5298457617713932 
3.920000000003848, 0.5315413199553037 
3.930000000003869, 0.5327810947898279 
3.94000000000389, 0.5333335475434356 
3.9500000000039113, 0.5329863004763542 
3.9600000000039324, 0.5313068080366941 
3.9700000000039535, 0.5270627519449012 
3.9800000000039746, 0.516281676809239 
3.9900000000039957, 0.4834348885884775 
4.000000000004016, 0.3505422518646035 
4.010000000003993, -0.19191968709224277 
4.02000000000397, -0.8705543873670628 
4.030000000003946, -1.1025867703660126 
4.040000000003923, -1.1652681588865481 
4.0500000000039, -1.1846935340367848 
4.0600000000038765, -1.1914136592653273 
4.070000000003853, -1.1935542412987021 
4.08000000000383, -1.1934696990979048 
4.090000000003807, -1.1916618121498543 
4.100000000003783, -1.187979137138862 
4.11000000000376, -1.1833444909384752 
4.120000000003737, -1.1862961906450884 
4.130000000003713, -1.2241162065586164 
4.14000000000369, -1.3189592006043742 
4.150000000003667, -1.4296422289811983 
4.1600000000036434, -1.5091548120397282 
4.17000000000362, -1.5572518417623589 
4.180000000003597, -1.5864510755219865 
4.1900000000035735, -1.6048877778189148 
4.20000000000355, -1.6166425293034645 
4.210000000003527, -1.6238383137902968 
4.220000000003504, -1.6278246470346176 
4.23000000000348, -1.6296177659960893 
4.240000000003457, -1.6299869581906026 
4.250000000003434, -1.6295049574686804 
4.26000000000341, -1.6286208778675433 
4.270000000003387, -1.6275924805230204 
4.280000000003364, -1.6263746794701404 
4.2900000000033405, -1.6248998700276083 
4.300000000003317, -1.6235290548061367 
4.310000000003294, -1.6228098550774277 
4.320000000003271, -1.6226280210918034 
4.330000000003247, -1.6222005128884274 
4.340000000003224, -1.6205473897444231 
4.350000000003201, -1.61605022862105 
4.360000000003177, -1.6047982374204117 
4.370000000003154, -1.5769662134761144 
4.380000000003131, -1.5105767100560996 
4.390000000003107, -1.3692599754304668 
4.400000000003084, -1.1298090952663769 
4.410000000003061, -0.8434048030269123 
4.4200000000030375, -0.6101396116858447 
4.430000000003014, -0.4661523138943916 
4.440000000002991, -0.3872382041322808 
4.450000000002968, -0.34469325711601456 
4.460000000002944, -0.3212169492026146 
4.470000000002921, -0.30786981321855456 
4.480000000002898, -0.3001112582593843 
4.490000000002874, -0.2955759372056888 
4.500000000002851, -0.2929890236139816 
4.510000000002828, -0.2916446838363402 
4.520000000002804, -0.29115080715510905 
4.530000000002781, -0.29130278346700567 
4.540000000002758, -0.2920242172623081 
4.5500000000027345, -0.29334710885743803 
4.560000000002711, -0.2954213462058737 
4.570000000002688, -0.2985553821892176 
4.580000000002665, -0.30330547520374596 
4.590000000002641, -0.3106578288249461 
4.600000000002618, -0.3223881873181971 
4.610000000002595, -0.34168991320308856 
4.620000000002571, -0.37381171706798233 
4.630000000002548, -0.4246082933501828 
4.640000000002525, -0.4921761256127869 
4.6500000000025015, -0.5582168504422553 
4.660000000002478, -0.6040646671968155 
4.670000000002455, -0.6290705046957855 
4.6800000000024315, -0.6412975353848425 
4.690000000002408, -0.6470243983183925 
4.700000000002385, -0.6494602067532436 
4.710000000002362, -0.6499757095854266 
4.720000000002338, -0.6489411069317355 
4.730000000002315, -0.645954371243867 
4.740000000002292, -0.6394714302280523 
4.750000000002268, -0.6253694134550203 
4.760000000002245, -0.5931028194330098 
4.770000000002222, -0.5195941407950697 
4.7800000000021985, -0.3828594983529015 
4.790000000002175, -0.2265974838955634 
4.800000000002152, -0.1232146708827124 
4.810000000002129, -0.07213478718108451 
4.820000000002105, -0.04790148673459203 
4.830000000002082, -0.035708415493280486 
4.840000000002059, -0.029112908588852675 
4.850000000002035, -0.025331958694633255 
4.860000000002012, -0.023076248780390825 
4.870000000001989, -0.021690080418263095 
4.880000000001965, -0.020809072362601287 
4.890000000001942, -0.020221136057430956 
4.900000000001919, -0.019807777660681865 
