t, s[1].omega / s[0].omega 
0, -0.3416707505366764 
0.009999999999999995, -0.5938846079048284 
0.019999999999999934, -0.9862977874129095 
0.029999999999999874, -1.2767695538508987 
0.04000000000000012, -1.3933936082980352 
0.050000000000000405, -1.431943846768632 
0.06000000000000069, -1.4448757708920443 
0.07000000000000098, -1.449269235471807 
0.08000000000000126, -1.4504178551836349 
0.09000000000000155, -1.4501223592384789 
0.10000000000000184, -1.4494229404143764 
0.11000000000000212, -1.4497818873940367 
0.12000000000000241, -1.4526933571895966 
0.130000000000002, -1.4577847802714496 
0.1400000000000009, -1.4631622848161796 
0.1499999999999998, -1.4676064337466377 
0.1599999999999987, -1.4709581437915913 
0.1699999999999976, -1.4734158857341035 
0.1799999999999965, -1.475131611877395 
0.1899999999999954, -1.4761754128271694 
0.1999999999999943, -1.4765910061434018 
0.2099999999999932, -1.4764123113912766 
0.2199999999999921, -1.4756500330479907 
0.229999999999991, -1.4742820228422777 
0.2399999999999899, -1.4722593325744076 
0.2499999999999888, -1.4695103573264663 
0.2599999999999877, -1.4659095909296553 
0.2699999999999866, -1.4612327952281927 
0.2799999999999855, -1.4552949080002793 
0.2899999999999844, -1.4485559363681655 
0.2999999999999833, -1.442781950252838 
0.3099999999999822, -1.4398640720548628 
0.3199999999999811, -1.439434118354891 
0.32999999999998, -1.4396603565475086 
0.3399999999999789, -1.4391932524952378 
0.3499999999999778, -1.436970268196476 
0.35999999999997667, -1.430706700273767 
0.36999999999997557, -1.413310616054696 
0.37999999999997447, -1.3612472597480185 
0.38999999999997337, -1.2034613197668929 
0.39999999999997227, -0.8449367762768791 
0.40999999999997117, -0.45702073879531946 
0.41999999999997006, -0.25170000305705786 
0.42999999999996896, -0.16548804694518343 
0.43999999999996786, -0.127238635610294 
0.44999999999996676, -0.10832448888331803 
0.45999999999996566, -0.09804063807626806 
0.46999999999996456, -0.09203923706351615 
0.47999999999996346, -0.08837732635423935 
0.48999999999996235, -0.08612365954645554 
0.49999999999996125, -0.08482820938907379 
0.5099999999999602, -0.08431168566830774 
0.519999999999959, -0.08459634789310588 
0.529999999999958, -0.08592972782699533 
0.5399999999999568, -0.0889266944907173 
0.5499999999999557, -0.0949629698038901 
0.5599999999999546, -0.1072512608772519 
0.5699999999999535, -0.13406873831794502 
0.5799999999999524, -0.19961420346428344 
0.5899999999999513, -0.38140879084819407 
0.5999999999999502, -0.8607284155459178 
0.6099999999999491, -1.499542099480443 
0.619999999999948, -1.818799646778407 
0.6299999999999469, -1.931529602861468 
0.6399999999999458, -1.9743313628579142 
0.6499999999999447, -1.9918763141473483 
0.6599999999999436, -1.9990816203409516 
0.6699999999999425, -2.0017020004471497 
0.6799999999999414, -2.0021449739206454 
0.6899999999999403, -2.0015049349318548 
0.6999999999999392, -2.0003184494952073 
0.7099999999999381, -1.9985724361193646 
0.719999999999937, -1.995974114715393 
0.7299999999999359, -1.99321780438056 
0.7399999999999348, -1.9919872684626487 
0.7499999999999337, -1.9919789173556648 
0.7599999999999326, -1.9913157590936923 
0.7699999999999315, -1.9878496890151105 
0.7799999999999304, -1.9742952339721103 
0.7899999999999293, -1.9050948487064872 
0.7999999999999282, -1.3750750254833803 
0.8099999999999271, 1.2308680746886604 
0.819999999999926, 1.724216263631225 
0.8299999999999249, 1.7499481439414368 
0.8399999999999238, 1.753651547473502 
0.8499999999999227, 1.7531373869618165 
0.8599999999999216, 1.7480288904808734 
0.8699999999999205, 1.720177254962986 
0.8799999999999194, 1.4941778829205168 
0.8899999999999183, 1.3001644335153033 
0.8999999999999172, 1.377491564974307 
0.9099999999999161, 1.3964157887773383 
0.919999999999915, 1.4008747690372023 
0.9299999999999139, 1.4015357300959885 
0.9399999999999128, 1.4005799952712128 
0.9499999999999117, 1.3990292401692344 
0.9599999999999106, 1.3997739238198474 
0.9699999999999095, 1.4073004740130646 
0.9799999999999084, 1.4182864198355385 
0.9899999999999073, 1.4257241290729827 
0.9999999999999062, 1.42908131020808 
1.0099999999999052, 1.4299799099671862 
1.019999999999904, 1.4290113624109098 
1.029999999999903, 1.4244122274752855 
1.039999999999902, 1.4013367784136563 
1.0499999999999008, 1.0603226341798142 
1.0599999999998997, -2.9861630819400014 
1.0699999999998986, -3.2971557336345105 
1.0799999999998975, -3.315778833660636 
1.0899999999998964, -3.3180711026650487 
1.0999999999998953, -3.3172306315449185 
1.1099999999998942, -3.3141572020570083 
1.119999999999893, -3.3048447671580456 
1.129999999999892, -3.2958387843229 
1.1399999999998909, -3.2995519427061124 
1.1499999999998898, -3.3000296745872992 
1.1599999999998887, -3.29785213324545 
1.1699999999998876, -3.2999230277051708 
1.1799999999998865, -3.303817463905215 
1.1899999999998854, -3.304813429926642 
1.1999999999998843, -3.304527859036962 
1.2099999999998832, -3.3015343566558486 
1.219999999999882, -3.2798811283811276 
1.229999999999881, -2.680187404897034 
1.2399999999998799, 1.9486877978060722 
1.2499999999998788, 2.0751742677213967 
1.2599999999998777, 2.0832877105496737 
1.2699999999998766, 2.083666793830593 
1.2799999999998755, 2.0796883891276368 
1.2899999999998744, 2.0538697105426547 
1.2999999999998733, 1.790670833461003 
1.3099999999998722, 1.7272498770443967 
1.319999999999871, 1.7856109078076803 
1.32999999999987, 1.7947428196202668 
1.3399999999998689, 1.7962103900906197 
1.3499999999998678, 1.7958359495849223 
1.3599999999998666, 1.795563533397735 
1.3699999999998655, 1.797154145822304 
1.3799999999998644, 1.8001851298524414 
1.3899999999998633, 1.8025066477054352 
1.3999999999998622, 1.8034682020427053 
1.4099999999998611, 1.8033728240768077 
1.41999999999986, 1.8019496276035916 
1.429999999999859, 1.795754485736694 
1.4399999999998578, 1.7449353801733367 
1.4499999999998567, -1.3272992484850457 
1.4599999999998556, -3.7946495416053674 
1.4699999999998545, -3.8343016110484243 
1.4799999999998534, -3.8384909614341147 
1.4899999999998523, -3.837696654031549 
1.4999999999998512, -3.832040883857753 
1.5099999999998501, -3.7906880616650214 
1.519999999999849, -3.6615331979690575 
1.529999999999848, -3.7163264973487693 
1.5399999999998468, -3.721315416799392 
1.5499999999998457, -3.720912382292211 
1.5599999999998446, -3.720403505542136 
1.5699999999998435, -3.7188843854568923 
1.5799999999998424, -3.7176906417142845 
1.5899999999998413, -3.7171450593066346 
1.5999999999998402, -3.710982816062612 
1.6099999999998391, -3.704507109803076 
1.619999999999838, -3.7362150581946736 
1.629999999999837, -3.743599540633049 
1.6399999999998358, -3.744416513988976 
1.6499999999998347, -3.7420278754619267 
1.6599999999998336, -3.7262163853614703 
1.6699999999998325, -3.389038586428318 
1.6799999999998314, 1.5627460873925383 
1.6899999999998303, 1.751688615710989 
1.6999999999998292, 1.7638976421078396 
1.709999999999828, 1.7657235515952354 
1.719999999999827, 1.7649934816095851 
1.729999999999826, 1.7617049256254063 
1.7399999999998248, 1.7531499830407529 
1.7499999999998237, 1.7381725920473028 
1.7599999999998226, 1.729917046364556 
1.7699999999998215, 1.731576539286748 
1.7799999999998204, 1.7334696830378877 
1.7899999999998193, 1.7333326354865382 
1.7999999999998182, 1.7303008085358218 
1.809999999999817, 1.7208023529112804 
1.819999999999816, 1.7137072980348769 
1.8299999999998149, 1.7645352955655962 
1.8399999999998138, 1.7983322825030743 
1.8499999999998127, 1.80689880977588 
1.8599999999998116, 1.808598784144739 
1.8699999999998105, 1.8073093704454357 
1.8799999999998094, 1.799447960749972 
1.8899999999998083, 1.7218295737737723 
1.8999999999998072, -2.3235335201382297 
1.909999999999806, -3.5233944652885483 
1.919999999999805, -3.550690478521605 
1.9299999999998039, -3.5532271505680173 
1.9399999999998028, -3.5522942001178515 
1.9499999999998017, -3.5487935369219086 
1.9599999999998006, -3.537883824177199 
1.9699999999997995, -3.533476625232263 
1.9799999999997984, -3.5369289947298954 
1.9899999999997973, -3.5361100776722347 
1.9999999999997962, -3.5350957283940128 
2.0099999999998173, -3.538391278358376 
2.0199999999998384, -3.5396536509655006 
2.0299999999998595, -3.5395045597059065 
2.0399999999998806, -3.5374333990560296 
2.0499999999999017, -3.520281556369615 
2.059999999999923, -2.9718937606218576 
2.069999999999944, 4.009720899928413 
2.079999999999965, 4.323993259613886 
2.089999999999986, 4.325340327931505 
2.100000000000007, 4.30794628460131 
2.1100000000000283, -5.964441028326598 
2.1200000000000494, -6.081246862132416 
2.1300000000000705, -6.08080349392212 
2.1400000000000916, -6.06162171860845 
2.1500000000001127, -6.023544704766377 
2.160000000000134, -6.035266865032325 
2.170000000000155, -6.033824446948348 
2.180000000000176, -6.02805197158851 
2.190000000000197, -6.028811461171214 
2.2000000000002182, -6.027214502836257 
2.2100000000002393, -6.027486272977947 
2.2200000000002604, -6.026328917942985 
2.2300000000002815, -6.02154021617025 
2.2400000000003026, -6.024877657203906 
2.2500000000003237, -6.032373589479007 
2.260000000000345, -6.030564953676992 
2.270000000000366, -5.917075094173742 
2.280000000000387, -6.600663938406835 
2.290000000000408, -6.617022896542082 
2.3000000000004293, -6.612771277982018 
2.3100000000004504, -2.2641699930976626 
2.3200000000004715, 4.605030440636752 
2.3300000000004926, 4.607903987144473 
2.3400000000005137, 4.598869318297764 
2.3500000000005348, 4.425045078105121 
2.360000000000556, 4.514255894750398 
2.370000000000577, 4.515417282314499 
2.380000000000598, 4.513600007159349 
2.390000000000619, 4.507030969280893 
2.4000000000006403, 4.5082289174930175 
2.4100000000006614, 4.5073885311166535 
2.4200000000006825, 4.507188935632087 
2.4300000000007036, 4.508883838459171 
2.4400000000007247, 4.508159976905454 
2.450000000000746, 4.504236992745236 
2.460000000000767, 4.465132910796723 
2.470000000000788, 4.540676382277735 
2.480000000000809, 4.5431823250252314 
2.49000000000083, 4.536032465447804 
2.5000000000008513, -5.915781197466147 
2.5100000000008724, -6.61992145994008 
2.5200000000008935, -6.620160318427777 
2.5300000000009146, -6.585776839798055 
2.5400000000009357, 4.121904616344599 
2.550000000000957, 4.18238754057592 
2.560000000000978, 4.1827393749680395 
2.570000000000999, 4.176114024192159 
2.58000000000102, 4.147597867293852 
2.5900000000010412, 4.1613945491665545 
2.6000000000010624, 4.162072910737608 
2.6100000000010835, 4.161738852699517 
2.6200000000011046, 4.160972941175435 
2.6300000000011257, 4.159670279324876 
2.6400000000011468, 4.158581554327019 
2.650000000001168, 4.148979758355578 
2.660000000001189, 4.163361140101612 
2.67000000000121, 4.17078247670168 
2.680000000001231, 4.170009451465902 
2.6900000000012523, 4.151143526583957 
2.7000000000012734, -6.6220990735130245 
2.7100000000012945, -7.321768552430548 
2.7200000000013156, -7.3202136910197195 
2.7300000000013367, -6.565066246098555 
2.740000000001358, 5.299564211517785 
2.750000000001379, 5.30163466108661 
2.7600000000014, 5.278425295505537 
2.770000000001421, 5.195683916854544 
2.780000000001442, 5.210690324135511 
2.7900000000014633, 5.209528527674122 
2.8000000000014844, 5.20068993807419 
2.8100000000015055, 5.202065883126396 
2.8200000000015266, 5.201786290053885 
2.8300000000015477, 5.201665511955739 
2.840000000001569, 5.200747826501578 
2.85000000000159, 5.199571629824229 
2.860000000001611, 5.190293985517925 
2.870000000001632, 5.203847457014652 
2.8800000000016532, 5.2062653537173365 
2.8900000000016743, 5.2014669116544265 
2.9000000000016954, 4.972216428607366 
2.9100000000017165, 5.4788655729883216 
2.9200000000017377, 5.478377986767507 
2.9300000000017588, 5.0271964886111915 
2.94000000000178, -7.4655834130860015 
2.950000000001801, -7.4665988431076595 
2.960000000001822, -7.38885356574971 
2.970000000001843, -7.113636318116656 
2.9800000000018643, -7.118700451865604 
2.9900000000018854, -7.11098564949876 
3.0000000000019065, -7.101544104327447 
3.0100000000019276, -7.103776077808552 
3.0200000000019487, -7.101245582065609 
3.03000000000197, -7.098852468821152 
3.040000000001991, -7.0970551496827525 
3.050000000002012, -7.097028338903932 
3.060000000002033, -7.095484723919718 
3.070000000002054, -7.086019375921744 
3.0800000000020753, -7.09749613236841 
3.0900000000020964, -7.096605762977522 
3.1000000000021175, -7.02127640974963 
3.1100000000021386, -7.197085933359003 
3.1200000000021597, -7.200020317715142 
3.130000000002181, -7.174627957475859 
3.140000000002202, 5.2655086081191245 
3.150000000002223, 5.28217520594753 
3.160000000002244, 5.275250273994357 
3.1700000000022652, 2.334022954057145 
3.1800000000022863, 4.006938083904158 
3.1900000000023074, 4.01231231175952 
3.2000000000023285, 4.011037474255657 
3.2100000000023496, 4.0010976082248755 
3.2200000000023707, 3.993368414198945 
3.230000000002392, 3.998266264714803 
3.240000000002413, 3.997536350229905 
3.250000000002434, 3.997896733206386 
3.260000000002455, 3.9981304132716162 
3.2700000000024763, 3.997294310420254 
3.2800000000024974, 3.9951867551163978 
3.2900000000025185, 3.9712249438799447 
3.3000000000025396, 4.015342591635156 
3.3100000000025607, 4.026925114182889 
3.3200000000025818, 4.026143922790455 
3.330000000002603, 4.000665630886189 
3.340000000002624, -6.003078327751167 
3.350000000002645, -6.095128758866941 
3.360000000002666, -6.094829010197778 
3.3700000000026873, -6.069591509433087 
3.3800000000027084, 2.3129922600024724 
3.3900000000027295, 3.1021522404395148 
3.4000000000027506, 3.110178869659879 
3.4100000000027717, 3.1102588420049004 
3.420000000002793, 3.1079085675910956 
3.430000000002814, 3.100027499042695 
3.440000000002835, 3.0956543088570396 
3.450000000002856, 3.0981677831680763 
3.460000000002877, 3.0975230752677474 
3.4700000000028983, 3.094765544692849 
3.4800000000029194, 3.099240744499963 
3.4900000000029405, 3.1039148377457484 
3.5000000000029616, 3.104555314113619 
3.5100000000029827, 3.1031407083122557 
3.520000000003004, 3.0901143208985093 
3.530000000003025, 1.7317001660803677 
3.540000000003046, 4.666139841382924 
3.550000000003067, 4.681483055763559 
3.5600000000030882, 4.677545060077792 
3.5700000000031094, -0.9724388668123428 
3.5800000000031305, -6.525236564876556 
3.5900000000031516, -6.526837368492278 
3.6000000000031727, -6.5125104050322165 
3.6100000000031938, -6.440404875366541 
3.620000000003215, -6.4593512321310325 
3.630000000003236, -6.457495132359713 
3.640000000003257, -6.448608980227827 
3.650000000003278, -6.451511957635955 
3.6600000000032993, -6.4502142321794 
3.6700000000033204, -6.448951278026897 
3.6800000000033415, -6.447652184734386 
3.6900000000033626, -6.442051980640109 
3.7000000000033837, -6.448385788110093 
3.710000000003405, -6.447766999695615 
3.720000000003426, -6.429343441405737 
3.730000000003447, -6.494786743711947 
3.740000000003468, -6.509044423486851 
3.750000000003489, -6.505373685248027 
3.7600000000035103, -3.819873343326763 
3.7700000000035314, 4.644170040139202 
3.7800000000035525, 4.647417682851915 
3.7900000000035736, 4.634708335127241 
3.8000000000035947, 1.992368780589644 
3.810000000003616, 3.35493513596267 
3.820000000003637, 3.364523239363586 
3.830000000003658, 3.3645548668727807 
3.840000000003679, 3.3618979720119784 
3.8500000000037002, 3.3530980025644324 
3.8600000000037213, 3.3514133939466335 
3.8700000000037424, 3.3534453773529824 
3.8800000000037635, 3.351879231668248 
3.8900000000037847, 3.351392278748615 
3.9000000000038058, 3.3560393549055427 
3.910000000003827, 3.3573664600314848 
3.920000000003848, 3.356652506430237 
3.930000000003869, 3.3513100558545723 
3.94000000000389, 3.1589938456562567 
3.9500000000039113, 3.697514137522468 
3.9600000000039324, 3.730647919991127 
3.9700000000039535, 3.7307581214223804 
3.9800000000039746, 3.714146611889059 
3.9900000000039957, -5.21638687090888 
4.000000000004016, -5.607693562692118 
4.010000000003993, -5.609787245846217 
4.02000000000397, -5.6040736804969935 
4.030000000003946, -5.497030440665645 
4.040000000003923, -5.5532028078336335 
4.0500000000039, -5.554563330207857 
4.0600000000038765, -5.552666073258253 
4.070000000003853, -5.547591361838938 
4.08000000000383, -5.548628832381555 
4.090000000003807, -5.546683613766275 
4.100000000003783, -5.547936349056375 
4.11000000000376, -5.547188860430153 
4.120000000003737, -5.543738157559137 
4.130000000003713, -5.527297670176719 
4.14000000000369, -5.564031740753462 
4.150000000003667, -5.56527703720159 
4.1600000000036434, -5.558739555336027 
4.17000000000362, -2.4327849300148308 
4.180000000003597, 4.106046445942118 
4.1900000000035735, 4.112232644234359 
4.20000000000355, 4.107419862257286 
4.210000000003527, 2.759436143470148 
4.220000000003504, -5.137260439338682 
4.23000000000348, -5.15170573848186 
4.240000000003457, -5.150658679020015 
4.250000000003434, -5.141580989829894 
4.26000000000341, -5.126264168123529 
4.270000000003387, -5.134031170576263 
4.280000000003364, -5.133251124977976 
4.2900000000033405, -5.132456958421106 
4.300000000003317, -5.130677854084142 
4.310000000003294, -5.129658145207493 
4.320000000003271, -5.123476326058209 
4.330000000003247, -5.13309135273798 
4.340000000003224, -5.134568908732932 
4.350000000003201, -5.132308703874704 
4.360000000003177, -5.0640776985573 
4.370000000003154, -5.583151256704452 
4.380000000003131, -5.654185128561049 
4.390000000003107, -5.654662071895628 
4.400000000003084, -5.642690011898576 
4.410000000003061, 2.174433502001223 
4.4200000000030375, 3.626481281845522 
4.430000000003014, 3.631545391512134 
4.440000000002991, 3.629527579771829 
4.450000000002968, 3.60607272691862 
4.460000000002944, 3.5676835356300565 
4.470000000002921, 3.5877046487918776 
4.480000000002898, 3.5886938948341935 
4.490000000002874, 3.588378947835487 
4.500000000002851, 3.5878086828658597 
4.510000000002828, 3.5861899544066964 
4.520000000002804, 3.5856597884939463 
4.530000000002781, 3.5829232561189386 
4.540000000002758, 3.5684593855231332 
4.5500000000027345, 3.596989474906919 
4.560000000002711, 3.605300456625423 
4.570000000002688, 3.605038164509504 
4.580000000002665, 3.5955229227802676 
4.590000000002641, -1.7362658467162295 
4.600000000002618, -5.727917597196893 
4.610000000002595, -5.733831547385147 
4.620000000002571, -5.729903435720396 
4.630000000002548, -5.488985220856097 
4.640000000002525, 2.8554243426140427 
4.6500000000025015, 2.9458275844421182 
4.660000000002478, 2.9492036268270807 
4.670000000002455, 2.9487790353334353 
4.6800000000024315, 2.945863829362439 
4.690000000002408, 2.938152248638432 
4.700000000002385, 2.935415953340166 
4.710000000002362, 2.937349370252068 
4.720000000002338, 2.9363934613662654 
4.730000000002315, 2.9327184367044636 
4.740000000002292, 2.9379883105950255 
4.750000000002268, 2.9452310830675623 
4.760000000002245, 2.946754555553281 
4.770000000002222, 2.945812332922692 
4.7800000000021985, 2.93789042135133 
4.790000000002175, 2.4801921981462884 
4.800000000002152, -5.327242295737591 
4.810000000002129, -5.361575489396611 
4.820000000002105, -5.361650530101535 
4.830000000002082, -5.350559352895438 
4.840000000002059, -1.8717464337528185 
4.850000000002035, 2.9734786920884475 
4.860000000002012, 2.991451916351024 
4.870000000001989, 2.9923483435784646 
4.880000000001965, 2.9906806921975746 
4.890000000001942, 2.9838029961680492 
4.900000000001919, 2.974095084142159 
4.9100000000018955, 2.9768206718111707 
4.920000000001872, 2.9778264295379446 
4.930000000001849, 2.9757039782245203 
4.940000000001826, 2.9757401477702325 
4.950000000001802, 2.981795567409249 
4.960000000001779, 2.984143288194927 
4.970000000001756, 2.9839228918456846 
4.980000000001732, 2.9809780473506082 
4.990000000001709, 2.938281013863748 
5.000000000001686, -0.7236893271147349 
5.0100000000016625, -7.707029935134145 
5.020000000001639, -7.709348137439174 
5.030000000001616, -7.634959800063766 
5.0400000000015925, 5.694068326586385 
