t, s[1].omega / s[0].omega 
0, -0.9598311710943543 
0.009999999999999995, -0.943252559267615 
0.019999999999999934, -0.9274604303754452 
0.029999999999999874, -0.9124740233337242 
0.04000000000000012, -0.8982223209218798 
0.050000000000000405, -0.8847607476088344 
0.06000000000000069, -0.8723913028352428 
0.07000000000000098, -0.8616651229884363 
0.08000000000000126, -0.8532048349921834 
0.09000000000000155, -0.847372154993271 
0.10000000000000184, -0.8440059968564573 
0.11000000000000212, -0.8424760942337424 
0.12000000000000241, -0.8419941618848252 
0.130000000000002, -0.8418929814293442 
0.1400000000000009, -0.8417119726689251 
0.1499999999999998, -0.8411491983219443 
0.1599999999999987, -0.8400011893739132 
0.1699999999999976, -0.8381613144457436 
0.1799999999999965, -0.8356704082798558 
0.1899999999999954, -0.8327390737549816 
0.1999999999999943, -0.8296678686827029 
0.2099999999999932, -0.8267117411664234 
0.2199999999999921, -0.824000167224183 
0.229999999999991, -0.8215453546955777 
0.2399999999999899, -0.8192945275948187 
0.2499999999999888, -0.8171852290162047 
0.2599999999999877, -0.8151859617262678 
0.2699999999999866, -0.8133142036530574 
0.2799999999999855, -0.8116302439882281 
0.2899999999999844, -0.8102142074385481 
0.2999999999999833, -0.8091400691813748 
0.3099999999999822, -0.8084593380562153 
0.3199999999999811, -0.8081971774106496 
0.32999999999998, -0.8083529197795297 
0.3399999999999789, -0.8088972431192823 
0.3499999999999778, -0.8097693475280497 
0.35999999999997667, -0.8108847387373286 
0.36999999999997557, -0.8121578557860889 
0.37999999999997447, -0.8135311747611077 
0.38999999999997337, -0.8149961051543265 
0.39999999999997227, -0.8165935771389963 
0.40999999999997117, -0.8183901200402619 
0.41999999999997006, -0.8204339735564117 
0.42999999999996896, -0.8227011761813827 
0.43999999999996786, -0.8250510811448508 
0.44999999999996676, -0.8272315813142394 
0.45999999999996566, -0.828966847407471 
0.46999999999996456, -0.8300816638333031 
0.47999999999996346, -0.8305610846779222 
0.48999999999996235, -0.8305229084044011 
0.49999999999996125, -0.8301788403530205 
0.5099999999999602, -0.829848902583929 
0.519999999999959, -0.8300214665293855 
0.529999999999958, -0.8313817041815501 
0.5399999999999568, -0.8346974295846377 
0.5499999999999557, -0.840537089556536 
0.5599999999999546, -0.8490018977729579 
0.5699999999999535, -0.859721368711939 
0.5799999999999524, -0.8721185524755066 
0.5899999999999513, -0.8857103960834858 
0.5999999999999502, -0.9002585281654539 
0.6099999999999491, -0.9157564458500996 
0.619999999999948, -0.9322980569882875 
0.6299999999999469, -0.9498261390641597 
0.6399999999999458, -0.9677544128700765 
0.6499999999999447, -0.9846822068409077 
0.6599999999999436, -0.9987620103344076 
0.6699999999999425, -1.0088037012204554 
0.6799999999999414, -1.0149483470405982 
0.6899999999999403, -1.0181774435909907 
0.6999999999999392, -1.0195119876065397 
0.7099999999999381, -1.0196763704848997 
0.719999999999937, -1.019179335333757 
0.7299999999999359, -1.0186022779223278 
0.7399999999999348, -1.0189858538102725 
0.7499999999999337, -1.0220034387779662 
0.7599999999999326, -1.0292779078525496 
0.7699999999999315, -1.0409935851702157 
0.7799999999999304, -1.055541325937931 
0.7899999999999293, -1.070824124619317 
0.7999999999999282, -1.0854916474527572 
0.8099999999999271, -1.099089347509961 
0.819999999999926, -1.1116567060684577 
0.8299999999999249, -1.1233440952951095 
0.8399999999999238, -1.1341678073892876 
0.8499999999999227, -1.1438781714714283 
0.8599999999999216, -1.1519946888722727 
0.8699999999999205, -1.1580730671199495 
0.8799999999999194, -1.1620250903166058 
0.8899999999999183, -1.1641644040336405 
0.8999999999999172, -1.1649846431444286 
0.9099999999999161, -1.1649692400957803 
0.919999999999915, -1.1645849994946933 
0.9299999999999139, -1.1643658768258969 
0.9399999999999128, -1.164863839869085 
0.9499999999999117, -1.1663581442269837 
0.9599999999999106, -1.1686484254354228 
0.9699999999999095, -1.1712729073686015 
0.9799999999999084, -1.1738646802754678 
0.9899999999999073, -1.1762588225088373 
0.9999999999999062, -1.1783994904249955 
1.0099999999999052, -1.1802512249062787 
1.019999999999904, -1.1817869207316634 
1.029999999999903, -1.1830059664651271 
1.039999999999902, -1.1839315402822608 
1.0499999999999008, -1.1845826131286625 
1.0599999999998997, -1.184945594741998 
1.0699999999998986, -1.184971614011731 
1.0799999999998975, -1.1846069037697082 
1.0899999999998964, -1.1838380233761916 
1.0999999999998953, -1.182722054000283 
1.1099999999998942, -1.1813812755229958 
1.119999999999893, -1.1799556579731265 
1.129999999999892, -1.1785393764340615 
1.1399999999998909, -1.177175304156523 
1.1499999999998898, -1.1759361804796706 
1.1599999999998887, -1.174983243673854 
1.1699999999998876, -1.174471299121897 
1.1799999999998865, -1.1743668045824718 
1.1899999999998854, -1.1744074722606486 
1.1999999999998843, -1.1742381465516039 
1.2099999999998832, -1.1735334093430734 
1.219999999999882, -1.1720348982118147 
1.229999999999881, -1.169581904794079 
1.2399999999998799, -1.1661642899137026 
1.2499999999998788, -1.1619241999576555 
1.2599999999998777, -1.1570616948908412 
1.2699999999998766, -1.1517184255901165 
1.2799999999998755, -1.1459273125594833 
1.2899999999998744, -1.1396300133748056 
1.2999999999998733, -1.1327235912463043 
1.3099999999998722, -1.1251340700593244 
1.319999999999871, -1.116965985780411 
1.32999999999987, -1.1087436583885593 
1.3399999999998689, -1.1015330226161024 
1.3499999999998678, -1.096499598952938 
1.3599999999998666, -1.093997021554483 
1.3699999999998655, -1.0932882745661519 
1.3799999999998644, -1.093261556384441 
1.3899999999998633, -1.0930688140268612 
1.3999999999998622, -1.0921353792348323 
1.4099999999998611, -1.0898813871873432 
1.41999999999986, -1.0854892309424788 
1.429999999999859, -1.0779172503227863 
1.4399999999998578, -1.0663622284765621 
1.4499999999998567, -1.0509818088389464 
1.4599999999998556, -1.0330079675662014 
1.4699999999998545, -1.0139298167910475 
1.4799999999998534, -0.9947075957242065 
1.4899999999998523, -0.9756813679651675 
1.4999999999998512, -0.9568922135889844 
1.5099999999998501, -0.9384483061147334 
1.519999999999849, -0.9208192303312964 
1.529999999999848, -0.90497102172783 
1.5399999999998468, -0.8921491550315291 
1.5499999999998457, -0.8832444691058392 
1.5599999999998446, -0.8781847955067938 
1.5699999999998435, -0.8759822558806685 
1.5799999999998424, -0.875361774646208 
1.5899999999998413, -0.8753044957282594 
1.5999999999998402, -0.8751714468243819 
1.6099999999998391, -0.8745709294958621 
1.619999999999838, -0.8732062597064653 
1.629999999999837, -0.8708218412025728 
1.6399999999998358, -0.8672802848278698 
1.6499999999998347, -0.8627057381049624 
1.6599999999998336, -0.857510763351946 
1.6699999999998325, -0.8522064145114541 
1.6799999999998314, -0.847165942694625 
1.6899999999998303, -0.8425435561054126 
1.6999999999998292, -0.8383351186917063 
1.709999999999828, -0.8344719052925381 
1.719999999999827, -0.8308886117137145 
1.729999999999826, -0.8275567290748501 
1.7399999999998248, -0.8244906004047328 
1.7499999999998237, -0.821738306397924 
1.7599999999998226, -0.8193693174448121 
1.7699999999998215, -0.8174625661876751 
1.7799999999998204, -0.8160883429263762 
1.7899999999998193, -0.8152787575694666 
1.7999999999998182, -0.8149976646304677 
1.809999999999817, -0.815133394398776 
1.819999999999816, -0.8155257525300819 
1.8299999999998149, -0.8160129839136946 
1.8399999999998138, -0.8164749033253432 
1.8499999999998127, -0.8168590533337596 
1.8599999999998116, -0.8171854817396225 
1.8699999999998105, -0.8175265539544354 
1.8799999999998094, -0.8179654934429662 
1.8899999999998083, -0.8185496430842063 
1.8999999999998072, -0.8192558202800141 
1.909999999999806, -0.8199810045190468 
1.919999999999805, -0.8205714184278428 
1.9299999999998039, -0.8208871179590387 
1.9399999999998028, -0.8208656347451615 
1.9499999999998017, -0.8205483424601633 
1.9599999999998006, -0.8200769294486472 
1.9699999999997995, -0.8196882489621616 
1.9799999999997984, -0.8197073563018847 
1.9899999999997973, -0.8205052855949297 
1.9999999999997962, -0.8224005320554235 
2.0099999999998173, -0.8255466209303345 
2.0199999999998384, -0.829891084344877 
2.0299999999998595, -0.8352402590341341 
2.0399999999998806, -0.8413744050147404 
2.0499999999999017, -0.8481379883309493 
2.059999999999923, -0.8554780631604052 
2.069999999999944, -0.8634429780044022 
2.079999999999965, -0.8721518445374776 
2.089999999999986, -0.8817205483174364 
2.100000000000007, -0.8921109576216442 
2.1100000000000283, -0.9029059819931616 
2.1200000000000494, -0.9131778241414679 
2.1300000000000705, -0.9217699640630667 
2.1400000000000916, -0.9279469586162934 
2.1500000000001127, -0.9317399491335976 
2.160000000000134, -0.9336684357951361 
2.170000000000155, -0.9343099930550789 
2.180000000000176, -0.934120707657572 
2.190000000000197, -0.9335132353849728 
2.2000000000002182, -0.9331133222158627 
2.2100000000002393, -0.9341227356077699 
2.2200000000002604, -0.938486482006779 
2.2300000000002815, -0.9482469005507899 
2.2400000000003026, -0.9640804872439916 
2.2500000000003237, -0.9845482211407923 
2.260000000000345, -1.0071528703994876 
2.270000000000366, -1.0298953081437676 
2.280000000000387, -1.0518340148654928 
2.290000000000408, -1.0727636029176069 
2.3000000000004293, -1.0926692516205452 
2.3100000000004504, -1.1112621125567244 
2.3200000000004715, -1.1277341357094635 
2.3300000000004926, -1.1409861422517735 
2.3400000000005137, -1.1503464450955367 
2.3500000000005348, -1.156071614751213 
2.360000000000556, -1.159060065626751 
2.370000000000577, -1.1602586773618657 
2.380000000000598, -1.1603838670866158 
2.390000000000619, -1.1600003945093347 
2.4000000000006403, -1.159746272512868 
2.4100000000006614, -1.160422987148857 
2.4200000000006825, -1.1626495929931213 
2.4300000000007036, -1.1663327761985716 
2.4400000000007247, -1.170750876670322 
2.450000000000746, -1.1751770988600867 
2.460000000000767, -1.1792362888509516 
2.470000000000788, -1.182834621228943 
2.480000000000809, -1.185988174792325 
2.49000000000083, -1.188735296586017 
2.5000000000008513, -1.1911165455901935 
2.5100000000008724, -1.1931611299323692 
2.5200000000008935, -1.1948619552582518 
2.5300000000009146, -1.196161011369516 
2.5400000000009357, -1.196970849645232 
2.550000000000957, -1.1972293101768692 
2.560000000000978, -1.196950998123289 
2.570000000000999, -1.1962450138025171 
2.58000000000102, -1.1952985036111112 
2.5900000000010412, -1.1943221964247293 
2.6000000000010624, -1.193460250909565 
2.6100000000010835, -1.1927425263834968 
2.6200000000011046, -1.192156426553373 
2.6300000000011257, -1.1917512465061697 
2.6400000000011468, -1.1916163590896862 
2.650000000001168, -1.191740536117936 
2.660000000001189, -1.19193755314608 
2.67000000000121, -1.1919256745996663 
2.680000000001231, -1.1914404545899897 
2.6900000000012523, -1.190291503177592 
2.7000000000012734, -1.1883924504834176 
2.7100000000012945, -1.1857773798841664 
2.7200000000013156, -1.1825670201679492 
2.7300000000013367, -1.1788876232628354 
2.740000000001358, -1.1748041491379464 
2.750000000001379, -1.1703067220828354 
2.7600000000014, -1.165333528916491 
2.770000000001421, -1.1598016407210476 
2.780000000001442, -1.1536556500066328 
2.7900000000014633, -1.1469912288111384 
2.8000000000014844, -1.140272900541552 
2.8100000000015055, -1.1344405893647236 
2.8200000000015266, -1.130489055167119 
2.8300000000015477, -1.1286498338993107 
2.840000000001569, -1.1282074452456885 
2.85000000000159, -1.1281727786391005 
2.860000000001611, -1.1277960552212993 
2.870000000001632, -1.126509152142837 
2.8800000000016532, -1.123644998051843 
2.8900000000016743, -1.1182408291764037 
2.9000000000016954, -1.1091560666837879 
2.9100000000017165, -1.0956823570182013 
2.9200000000017377, -1.078234450234554 
2.9300000000017588, -1.0581856165754002 
2.94000000000178, -1.036919805955736 
2.950000000001801, -1.0152034955523397 
2.960000000001822, -0.9932655128248099 
2.970000000001843, -0.9712069064517941 
2.9800000000018643, -0.949445902581634 
2.9900000000018854, -0.9290542893715882 
3.0000000000019065, -0.9117123971523322 
3.0100000000019276, -0.8989946578150331 
3.0200000000019487, -0.8913457017932421 
3.03000000000197, -0.8877859657738789 
3.040000000001991, -0.8866642358778265 
3.050000000002012, -0.8865520906210038 
3.060000000002033, -0.8865557058999325 
3.070000000002054, -0.8861720773934281 
3.0800000000020753, -0.8850539704927067 
3.0900000000020964, -0.8828684919478078 
3.1000000000021175, -0.879310671711975 
3.1100000000021386, -0.8742779258568142 
3.1200000000021597, -0.8680615348027528 
3.130000000002181, -0.8612866246592897 
3.140000000002202, -0.8545870458061436 
3.150000000002223, -0.8483424574937579 
3.160000000002244, -0.8426610268872146 
3.1700000000022652, -0.83749579223886 
3.1800000000022863, -0.8327564710226678 
3.1900000000023074, -0.8283741629999378 
3.2000000000023285, -0.8243265891022166 
3.2100000000023496, -0.8206403457110337 
3.2200000000023707, -0.8173835084082445 
3.230000000002392, -0.8146526077857604 
3.240000000002413, -0.8125475273520738 
3.250000000002434, -0.8111296181764762 
3.260000000002455, -0.8103774362625359 
3.2700000000024763, -0.8101707515453989 
3.2800000000024974, -0.8103194528438353 
3.2900000000025185, -0.8106195159437755 
3.3000000000025396, -0.8109042519071809 
3.3100000000025607, -0.8110757539714027 
3.3200000000025818, -0.8111174852241401 
3.330000000002603, -0.8110860741354813 
3.340000000002624, -0.8110776720789821 
3.350000000002645, -0.8111784800226529 
3.360000000002666, -0.8114212853214342 
3.3700000000026873, -0.8117636100900378 
3.3800000000027084, -0.8120954519407974 
3.3900000000027295, -0.8122811194523525 
3.4000000000027506, -0.8122209077983051 
3.4100000000027717, -0.8118980923844312 
3.420000000002793, -0.8113930216964139 
3.430000000002814, -0.8108786711355833 
3.440000000002835, -0.8106110034842405 
3.450000000002856, -0.8109001669519842 
3.460000000002877, -0.8120417377041405 
3.4700000000028983, -0.8142241072113515 
3.4800000000029194, -0.8174716633246254 
3.4900000000029405, -0.8216684147284031 
3.5000000000029616, -0.8266403517933425 
3.5100000000029827, -0.8322380070711874 
3.520000000003004, -0.8383842066084586 
3.530000000003025, -0.8450885198923583 
3.540000000003046, -0.8524390847486474 
3.550000000003067, -0.86056746403039 
3.5600000000030882, -0.869561412596631 
3.5700000000031094, -0.8792963102070009 
3.5800000000031305, -0.8892257663170522 
3.5900000000031516, -0.8983563366669248 
3.6000000000031727, -0.9056612769116166 
3.6100000000031938, -0.9106675296795771 
3.620000000003215, -0.9135791423060201 
3.630000000003236, -0.9149183522229896 
3.640000000003257, -0.915185902160547 
3.650000000003278, -0.9147815285898874 
3.6600000000032993, -0.9141422453344523 
3.6700000000033204, -0.9140458871637577 
3.6800000000033415, -0.9159872602192604 
3.6900000000033626, -0.922219739623236 
3.7000000000033837, -0.9348230884968487 
3.710000000003405, -0.9541057366146992 
3.720000000003426, -0.97813775195439 
3.730000000003447, -1.0041509655116365 
3.740000000003468, -1.03011739898656 
3.750000000003489, -1.0551493425526108 
3.7600000000035103, -1.0790435053798513 
3.7700000000035314, -1.1016467554477736 
3.7800000000035525, -1.1223540291546874 
3.7900000000035736, -1.1399910448071615 
3.8000000000035947, -1.1533776633972115 
3.810000000003616, -1.1622137887342379 
3.820000000003637, -1.1672613329545423 
3.830000000003658, -1.169698416850003 
3.840000000003679, -1.1705213179525722 
3.8500000000037002, -1.1704242092704997 
3.8600000000037213, -1.169992425941947 
3.8700000000037424, -1.1699532188896253 
3.8800000000037635, -1.1711567563671956 
3.8900000000037847, -1.174058525848993 
3.9000000000038058, -1.1782737639716918 
3.910000000003827, -1.1829477951612635 
3.920000000003848, -1.1874211603208091 
3.930000000003869, -1.191427798878597 
3.94000000000389, -1.1949357482232572 
3.9500000000039113, -1.1979831160895922 
3.9600000000039324, -1.200616402676769 
3.9700000000039535, -1.2028777165754392 
3.9800000000039746, -1.2047873902781265 
3.9900000000039957, -1.2063208844942461 
4.000000000004016, -1.2074072694090352 
4.010000000003993, -1.2079664406444035 
4.02000000000397, -1.2079666691573046 
4.030000000003946, -1.2074632912227732 
4.040000000003923, -1.2066014971700185 
4.0500000000039, -1.2055845873831992 
4.0600000000038765, -1.2045993600601723 
4.070000000003853, -1.2037330766807774 
4.08000000000383, -1.2029838484548263 
4.090000000003807, -1.20237233579688 
4.100000000003783, -1.2019980753830786 
4.11000000000376, -1.2019334633369745 
4.120000000003737, -1.2020786346891605 
4.130000000003713, -1.2021691817001436 
4.14000000000369, -1.2019009208114322 
4.150000000003667, -1.2010187440779394 
4.1600000000036434, -1.199352813713455 
4.17000000000362, -1.1968512251049526 
4.180000000003597, -1.193588685219774 
4.1900000000035735, -1.1897076965027265 
4.20000000000355, -1.1853248737995599 
4.210000000003527, -1.180474715003259 
4.220000000003504, -1.1751103609404505 
4.23000000000348, -1.1691327560275204 
4.240000000003457, -1.162436282554814 
4.250000000003434, -1.1550161199370563 
4.26000000000341, -1.147198348366679 
4.270000000003387, -1.1398852788459708 
4.280000000003364, -1.1343549708745615 
4.2900000000033405, -1.131341755593954 
4.300000000003317, -1.1303719809604242 
4.310000000003294, -1.1303105579362305 
4.320000000003271, -1.1301929260749826 
4.330000000003247, -1.1293744007969773 
4.340000000003224, -1.1272326025146904 
4.350000000003201, -1.1228393003157802 
4.360000000003177, -1.1148279384124513 
4.370000000003154, -1.1017729246591788 
4.380000000003131, -1.0831939764028744 
4.390000000003107, -1.0602322211109902 
4.400000000003084, -1.0349053903043872 
4.410000000003061, -1.0088121783838762 
4.4200000000030375, -0.9826953534421552 
4.430000000003014, -0.9568127556353309 
4.440000000002991, -0.9315019657514483 
4.450000000002968, -0.907626807963649 
4.460000000002944, -0.8866925337809686 
4.470000000002921, -0.8703676466004223 
4.480000000002898, -0.8595304885635906 
4.490000000002874, -0.8536605966608966 
4.500000000002851, -0.8512250765631828 
4.510000000002828, -0.8505854690976662 
4.520000000002804, -0.8505644119744111 
4.530000000002781, -0.8504774504515863 
4.540000000002758, -0.849928206287846 
4.5500000000027345, -0.8486222291749677 
4.560000000002711, -0.8462963086817947 
4.570000000002688, -0.8427873971383878 
4.580000000002665, -0.8381877742963623 
4.590000000002641, -0.8329043767714926 
4.600000000002618, -0.8274832266076917 
4.610000000002595, -0.8223473095875746 
4.620000000002571, -0.8176846764138315 
4.630000000002548, -0.8135015718381252 
4.640000000002525, -0.8097229442177338 
4.6500000000025015, -0.8062686654339061 
4.660000000002478, -0.8030933949984325 
4.670000000002455, -0.8001968434252452 
4.6800000000024315, -0.7976149772538109 
4.690000000002408, -0.7954043504215514 
4.700000000002385, -0.7936278880681319 
4.710000000002362, -0.7923415612029411 
4.720000000002338, -0.7915764846774442 
4.730000000002315, -0.7913175110981345 
4.740000000002292, -0.7914911269450642 
4.750000000002268, -0.791976208312025 
4.760000000002245, -0.7926365020180114 
4.770000000002222, -0.7933596005878722 
4.7800000000021985, -0.794086830546893 
4.790000000002175, -0.7948247887884916 
4.800000000002152, -0.7956333838872652 
4.810000000002129, -0.7965916890456337 
4.820000000002105, -0.7977522526911207 
4.830000000002082, -0.7990974784321814 
4.840000000002059, -0.8005134208595406 
4.850000000002035, -0.8018056614135125 
4.860000000002012, -0.8027710555307077 
4.870000000001989, -0.8032867643422701 
4.880000000001965, -0.8033527676394566 
4.890000000001942, -0.8030814030134602 
4.900000000001919, -0.8026843139297147 
4.9100000000018955, -0.8024901476395598 
4.920000000001872, -0.8029701374955577 
4.930000000001849, -0.8047054897602642 
