t, s[1].omega / s[0].omega 
0, -1.4400248271144986 
0.009999999999999995, -1.4420799247549483 
0.019999999999999934, -1.4433072993232021 
0.029999999999999874, -1.4437345904475811 
0.04000000000000012, -1.4434264090128675 
0.050000000000000405, -1.4425051820891441 
0.06000000000000069, -1.4411340477731722 
0.07000000000000098, -1.4394437669646278 
0.08000000000000126, -1.4374522579817672 
0.09000000000000155, -1.435162408641134 
0.10000000000000184, -1.4328602216944735 
0.11000000000000212, -1.4311706315860546 
0.12000000000000241, -1.4304551594995911 
0.130000000000002, -1.4303027525236254 
0.1400000000000009, -1.429918847448117 
0.1499999999999998, -1.4285011889637909 
0.1599999999999987, -1.424942677895552 
0.1699999999999976, -1.417123072190087 
0.1799999999999965, -1.4011131986848544 
0.1899999999999954, -1.37108199905064 
0.1999999999999943, -1.3210977376139252 
0.2099999999999932, -1.2479737379544953 
0.2199999999999921, -1.1523981565352925 
0.229999999999991, -1.039351787091637 
0.2399999999999899, -0.9204915393376032 
0.2499999999999888, -0.8136939223910756 
0.2599999999999877, -0.7336099120614212 
0.2699999999999866, -0.6828861760320167 
0.2799999999999855, -0.6549144743561015 
0.2899999999999844, -0.6411868408506841 
0.2999999999999833, -0.6352046826802735 
0.3099999999999822, -0.6329913150971722 
0.3199999999999811, -0.6323972602470144 
0.32999999999998, -0.6323441810562109 
0.3399999999999789, -0.6323050616065982 
0.3499999999999778, -0.6320090967585781 
0.35999999999997667, -0.6313024315728863 
0.36999999999997557, -0.6301119212093941 
0.37999999999997447, -0.6284695592333478 
0.38999999999997337, -0.6265369846280466 
0.39999999999997227, -0.6245658542319503 
0.40999999999997117, -0.6227981234706379 
0.41999999999997006, -0.6213828151898575 
0.42999999999996896, -0.6203565281440697 
0.43999999999996786, -0.6196654376089518 
0.44999999999996676, -0.6191969411876517 
0.45999999999996566, -0.618816432538629 
0.46999999999996456, -0.6184112964755071 
0.47999999999996346, -0.617929469535159 
0.48999999999996235, -0.6173991740002622 
0.49999999999996125, -0.6169356346606104 
0.5099999999999602, -0.6167512517558642 
0.519999999999959, -0.6171762088854069 
0.529999999999958, -0.6186802243271294 
0.5399999999999568, -0.621876224664574 
0.5499999999999557, -0.6274899753889379 
0.5599999999999546, -0.6362987479555666 
0.5699999999999535, -0.6490690198516467 
0.5799999999999524, -0.6665384949012488 
0.5899999999999513, -0.6894754797942004 
0.5999999999999502, -0.7188090991589667 
0.6099999999999491, -0.7557549375790376 
0.619999999999948, -0.8017097961467649 
0.6299999999999469, -0.8573547019595578 
0.6399999999999458, -0.9201971471127168 
0.6499999999999447, -0.9817858683791894 
0.6599999999999436, -1.0306354397336335 
0.6699999999999425, -1.061515942398616 
0.6799999999999414, -1.0778826568541924 
0.6899999999999403, -1.0856503796424095 
0.6999999999999392, -1.0889787876673958 
0.7099999999999381, -1.0900204345908548 
0.719999999999937, -1.089764594243966 
0.7299999999999359, -1.0887677060230687 
0.7399999999999348, -1.0878623066944642 
0.7499999999999337, -1.0890813631778968 
0.7599999999999326, -1.0960169159363413 
0.7699999999999315, -1.1114940987571478 
0.7799999999999304, -1.1339164561108614 
0.7899999999999293, -1.1583421745078795 
0.7999999999999282, -1.180910284253419 
0.8099999999999271, -1.2003572294510831 
0.819999999999926, -1.2168969997148031 
0.8299999999999249, -1.23106689684582 
0.8399999999999238, -1.2431989546430986 
0.8499999999999227, -1.2532906619082802 
0.8599999999999216, -1.2611302721717026 
0.8699999999999205, -1.2665963562129445 
0.8799999999999194, -1.2698900311513264 
0.8899999999999183, -1.2714829099235403 
0.8999999999999172, -1.2719090732373701 
0.9099999999999161, -1.2716588200738403 
0.919999999999915, -1.2712173930623973 
0.9299999999999139, -1.2710707086059394 
0.9399999999999128, -1.2715109917347964 
0.9499999999999117, -1.2724499057312055 
0.9599999999999106, -1.2735830915321904 
0.9699999999999095, -1.2746971834140202 
0.9799999999999084, -1.2757345104271776 
0.9899999999999073, -1.2766562165277786 
0.9999999999999062, -1.2773497587644413 
1.0099999999999052, -1.277666437908819 
1.019999999999904, -1.2774954190395438 
1.029999999999903, -1.2767982717740898 
1.039999999999902, -1.2755997402314878 
1.0499999999999008, -1.2739488141512598 
1.0599999999998997, -1.2718749436738377 
1.0699999999998986, -1.2693679617209275 
1.0799999999998975, -1.266387029312232 
1.0899999999998964, -1.262876488799204 
1.0999999999998953, -1.2587674677873248 
1.1099999999998942, -1.2539941348514239 
1.119999999999893, -1.2486208768325682 
1.129999999999892, -1.2431202331489974 
1.1399999999998909, -1.2385037584525804 
1.1499999999998898, -1.235732220980763 
1.1599999999998887, -1.234770972164524 
1.1699999999998876, -1.2346845281937102 
1.1799999999998865, -1.23449709026363 
1.1899999999998854, -1.2334864409661768 
1.1999999999998843, -1.2308569188809035 
1.2099999999998832, -1.2252468311805014 
1.219999999999882, -1.2143398352148684 
1.229999999999881, -1.195134333537577 
1.2399999999998799, -1.1655586564299276 
1.2499999999998788, -1.1263443707074148 
1.2599999999998777, -1.0805331317282822 
1.2699999999998766, -1.031216724505627 
1.2799999999998755, -0.9805181094011433 
1.2899999999998744, -0.9303007745194483 
1.2999999999998733, -0.883212917362782 
1.3099999999998722, -0.8428027622598062 
1.319999999999871, -0.8121936807138626 
1.32999999999987, -0.7923059555529093 
1.3399999999998689, -0.7814522251176375 
1.3499999999998678, -0.7766210003170355 
1.3599999999998666, -0.7750184480649107 
1.3699999999998655, -0.7747661834791275 
1.3799999999998644, -0.774828921588743 
1.3899999999998633, -0.7746798387850309 
1.3999999999998622, -0.7740164059859617 
1.4099999999998611, -0.772608104767049 
1.41999999999986, -0.7702761174079696 
1.429999999999859, -0.7669837006885577 
1.4399999999998578, -0.7629444426776575 
1.4499999999998567, -0.7585894688355088 
1.4599999999998556, -0.7543668358381661 
1.4699999999998545, -0.7505573132970076 
1.4799999999998534, -0.7472419752449753 
1.4899999999998523, -0.7443720781910181 
1.4999999999998512, -0.7418505062992857 
1.5099999999998501, -0.7395898092522162 
1.519999999999849, -0.7375452198471499 
1.529999999999848, -0.73572474020392 
1.5399999999998468, -0.7341794512128141 
1.5499999999998457, -0.7329814887227567 
1.5599999999998446, -0.7321997632171 
1.5699999999998435, -0.7318822391726187 
1.5799999999998424, -0.7320485268246769 
1.5899999999998413, -0.7326905499931354 
1.5999999999998402, -0.7337771135881774 
1.6099999999998391, -0.7352613581755237 
1.619999999999838, -0.7370934229516518 
1.629999999999837, -0.7392393184580222 
1.6399999999998358, -0.7417017745651544 
1.6499999999998347, -0.7445341674031942 
1.6599999999998336, -0.7478377261897867 
1.6699999999998325, -0.7517334428706086 
1.6799999999998314, -0.7562982550268779 
1.6899999999998303, -0.761457384550566 
1.6999999999998292, -0.7668691393290608 
1.709999999999828, -0.7719337131391905 
1.719999999999827, -0.7760366923120803 
1.729999999999826, -0.7788584774514113 
1.7399999999998248, -0.7804431164422723 
1.7499999999998237, -0.7810305111283232 
1.7599999999998226, -0.7808911154534421 
1.7699999999998215, -0.7802988710899678 
1.7799999999998204, -0.7796620613609172 
1.7899999999998193, -0.7798453213980926 
1.7999999999998182, -0.782732753946423 
1.809999999999817, -0.7918851191638695 
1.819999999999816, -0.8125439837326734 
1.8299999999998149, -0.8496893778872303 
1.8399999999998138, -0.9041719760573598 
1.8499999999998127, -0.9705832270642301 
1.8599999999998116, -1.0403922038247226 
1.8699999999998105, -1.106897214470565 
1.8799999999998094, -1.166608287537747 
1.8899999999998083, -1.2175650173536037 
1.8999999999998072, -1.2578956239909997 
1.909999999999806, -1.286369569072142 
1.919999999999805, -1.3038841451419327 
1.9299999999998039, -1.3133194616603903 
1.9399999999998028, -1.3178083670137444 
1.9499999999998017, -1.3195678070696815 
1.9599999999998006, -1.3198735131905708 
1.9699999999997995, -1.3195147121063617 
1.9799999999997984, -1.3192473056688008 
1.9899999999997973, -1.3198918740909775 
1.9999999999997962, -1.321824291240461 
2.0099999999998173, -1.3245894444683102 
2.0199999999998384, -1.32743448267201 
2.0299999999998595, -1.32993574295186 
2.0399999999998806, -1.3320096418790568 
2.0499999999999017, -1.3336641017838857 
2.059999999999923, -1.3348749377427018 
2.069999999999944, -1.335606644886314 
2.079999999999965, -1.33585314495469 
2.089999999999986, -1.335637802047008 
2.100000000000007, -1.334985215741796 
2.1100000000000283, -1.3338957955799648 
2.1200000000000494, -1.3323441801696974 
2.1300000000000705, -1.330299111761171 
2.1400000000000916, -1.3277395272847783 
2.1500000000001127, -1.3246402944799724 
2.160000000000134, -1.3209511846176916 
2.170000000000155, -1.3166817800062443 
2.180000000000176, -1.3121758211197578 
2.190000000000197, -1.3083153548711106 
2.2000000000002182, -1.3060218381049293 
2.2100000000002393, -1.3052902263782267 
2.2200000000002604, -1.3052270079809445 
2.2300000000002815, -1.3048869088223582 
2.2400000000003026, -1.303501772055205 
2.2500000000003237, -1.3000447688713233 
2.260000000000345, -1.2925483748144966 
2.270000000000366, -1.2774309056589295 
2.280000000000387, -1.2497130269405212 
2.290000000000408, -1.2055084530887565 
2.3000000000004293, -1.1453694738937257 
2.3100000000004504, -1.0740424160937851 
2.3200000000004715, -0.997290318203689 
2.3300000000004926, -0.9204911760753625 
2.3400000000005137, -0.8492417272115054 
2.3500000000005348, -0.7891760718748091 
2.360000000000556, -0.744077826910046 
2.370000000000577, -0.7142276732268605 
2.380000000000598, -0.6968491268655878 
2.390000000000619, -0.6879841211919975 
2.4000000000006403, -0.6841029536811004 
2.4100000000006614, -0.6827445189661264 
2.4200000000006825, -0.682446951579909 
2.4300000000007036, -0.6824251964093221 
2.4400000000007247, -0.6822689260631457 
2.450000000000746, -0.6817472862238209 
2.460000000000767, -0.6807212807871916 
2.470000000000788, -0.6791421752253235 
2.480000000000809, -0.6770926184234923 
2.49000000000083, -0.6747940433337954 
2.5000000000008513, -0.6725279536279861 
2.5100000000008724, -0.6705196149598777 
2.5200000000008935, -0.6688744093803033 
2.5300000000009146, -0.6675849870618757 
2.5400000000009357, -0.6665695074834777 
2.550000000000957, -0.6657141584047418 
2.560000000000978, -0.6649160823268321 
2.570000000000999, -0.6641212229284604 
2.58000000000102, -0.6633466655424899 
2.5900000000010412, -0.6626860759362752 
2.6000000000010624, -0.6623054776023497 
2.6100000000010835, -0.6624322438122853 
2.6200000000011046, -0.6633325026031595 
2.6300000000011257, -0.6652744469798525 
2.6400000000011468, -0.6684874228127409 
2.650000000001168, -0.6731369448160309 
2.660000000001189, -0.6793322014786575 
2.67000000000121, -0.6871674193490366 
2.680000000001231, -0.6967853914238052 
2.6900000000012523, -0.7084488368365175 
2.7000000000012734, -0.7226062543436864 
2.7100000000012945, -0.7399237588410801 
2.7200000000013156, -0.7611895177648478 
2.7300000000013367, -0.786857157345289 
2.740000000001358, -0.8159666702869192 
2.750000000001379, -0.8450468902473091 
2.7600000000014, -0.8692234145907622 
2.770000000001421, -0.8857294737573493 
2.780000000001442, -0.8953026481683333 
2.7900000000014633, -0.9002050857906354 
2.8000000000014844, -0.9023452364713679 
2.8100000000015055, -0.9028365236215601 
2.8200000000015266, -0.9022083803118989 
2.8300000000015477, -0.9007232224726746 
2.840000000001569, -0.8988485739471525 
2.85000000000159, -0.8984090821557548 
2.860000000001611, -0.9053633978952128 
2.870000000001632, -0.9338995083511008 
2.8800000000016532, -1.0037944998602968 
2.8900000000016743, -1.1164687408389549 
2.9000000000016954, -1.2374677593053016 
2.9100000000017165, -1.3340668142412713 
2.9200000000017377, -1.4015953519099946 
2.9300000000017588, -1.4474416962107395 
2.94000000000178, -1.478266241954221 
2.950000000001801, -1.4982211723403414 
2.960000000001822, -1.5101972999969788 
2.970000000001843, -1.5166682792072579 
2.9800000000018643, -1.5196881688274189 
2.9900000000018854, -1.5207019120757386 
3.0000000000019065, -1.5206294417584363 
3.0100000000019276, -1.5201361613111772 
3.0200000000019487, -1.5197617204914413 
3.03000000000197, -1.5197127942505646 
3.040000000001991, -1.5197848280540485 
3.050000000002012, -1.5197753515561234 
3.060000000002033, -1.5197663557879868 
3.070000000002054, -1.5198736601834042 
3.0800000000020753, -1.519912718095666 
3.0900000000020964, -1.519448626319645 
3.1000000000021175, -1.5179511630593345 
3.1100000000021386, -1.514763649769132 
3.1200000000021597, -1.5090475505460537 
3.130000000002181, -1.4998501149055414 
3.140000000002202, -1.4861522146748736 
3.150000000002223, -1.4665892396779394 
3.160000000002244, -1.438727643100557 
3.1700000000022652, -1.398188036317481 
3.1800000000022863, -1.3392243044573284 
3.1900000000023074, -1.2623550888426935 
3.2000000000023285, -1.1892171766374529 
3.2100000000023496, -1.1482756617544994 
3.2200000000023707, -1.1375109579017546 
3.230000000002392, -1.138536675462095 
3.240000000002413, -1.141102505717097 
3.250000000002434, -1.1425817314685163 
3.260000000002455, -1.1426416606302356 
3.2700000000024763, -1.140955232180905 
3.2800000000024974, -1.1361594780651258 
3.2900000000025185, -1.1239388195544595 
3.3000000000025396, -1.090815926392532 
3.3100000000025607, -0.9953676992496583 
3.3200000000025818, -0.7513493939512685 
3.330000000002603, -0.39694663103793026 
3.340000000002624, -0.16915857800626594 
3.350000000002645, -0.07447555212329231 
3.360000000002666, -0.035631455467890275 
3.3700000000026873, -0.017821090013488285 
3.3800000000027084, -0.008710222419506492 
3.3900000000027295, -0.0036419677924758804 
3.4000000000027506, -0.0006526428106224503 
3.4100000000027717, 0.0008737310281326233 
3.420000000002793, 0.00156428792337937 
3.430000000002814, 0.0017814118227671369 
3.440000000002835, 0.0016075633275807518 
3.450000000002856, 0.0009987612288658875 
3.460000000002877, -0.00018898170473636357 
3.4700000000028983, -0.0021673187956058005 
3.4800000000029194, -0.006496131807786019 
3.4900000000029405, -0.015956814950449906 
3.5000000000029616, -0.03640840726154461 
3.5100000000029827, -0.06531720180585646 
3.520000000003004, 0.17230919385241553 
3.530000000003025, 1.3293575365817816 
3.540000000003046, 1.5200676450543456 
3.550000000003067, 1.5393309754043902 
3.5600000000030882, 1.5428043052600517 
3.5700000000031094, 1.5424646354379623 
3.5800000000031305, 1.5383102378122324 
3.5900000000031516, 1.5197252766245741 
3.6000000000031727, 1.3995622171163393 
3.6100000000031938, 1.0816669086248558 
3.620000000003215, 1.1207296795101966 
3.630000000003236, 1.1562145408017086 
3.640000000003257, 1.1662430517576408 
3.650000000003278, 1.16908945681857 
3.6600000000032993, 1.1692700289033313 
3.6700000000033204, 1.1677127199868462 
3.6800000000033415, 1.164368316238612 
3.6900000000033626, 1.16090447931558 
3.7000000000033837, 1.1692854449437795 
3.710000000003405, 1.20011738952184 
3.720000000003426, 1.22694227451835 
3.730000000003447, 1.238852039476252 
3.740000000003468, 1.2430829510151278 
3.750000000003489, 1.2440030032637917 
3.7600000000035103, 1.2426117902207277 
3.7700000000035314, 1.2366741051722618 
3.7800000000035525, 1.2091456320848537 
3.7900000000035736, 0.9251520614714016 
3.8000000000035947, -1.5071282953202263 
3.810000000003616, -2.2024978960562747 
3.820000000003637, -2.2652742714237215 
3.830000000003658, -2.275647628867527 
3.840000000003679, -2.277593094476903 
3.8500000000037002, -2.2774103293379033 
3.8600000000037213, -2.277040829125303 
3.8700000000037424, -2.277120010505464 
3.8800000000037635, -2.276909885602276 
3.8900000000037847, -2.2762952634203732 
3.9000000000038058, -2.2759724242891437 
3.910000000003827, -2.2755181171015044 
3.920000000003848, -2.2732071730130383 
3.930000000003869, -2.2638486718467368 
3.94000000000389, -2.2150026390059234 
3.9500000000039113, -1.7512639121954447 
3.9600000000039324, 0.5296947911437618 
3.9700000000039535, 0.987797716681086 
3.9800000000039746, 1.031682466220466 
3.9900000000039957, 1.0406267468017483 
4.000000000004016, 1.0428930185474807 
4.010000000003993, 1.0427756653742857 
4.02000000000397, 1.0408610828613132 
4.030000000003946, 1.036466486832199 
4.040000000003923, 1.0282826670889198 
4.0500000000039, 1.016312926692891 
4.0600000000038765, 1.0048524517993258 
4.070000000003853, 0.9987481893146054 
4.08000000000383, 0.9972585071502239 
4.090000000003807, 0.9974429125221018 
4.100000000003783, 0.9976244511577319 
4.11000000000376, 0.9970416048191766 
4.120000000003737, 0.9947634885459216 
4.130000000003713, 0.9877916702112609 
4.14000000000369, 0.9612304612017566 
4.150000000003667, 0.7801892364797368 
4.1600000000036434, -1.5097717706143368 
4.17000000000362, -3.3459591770057124 
4.180000000003597, -3.4143732269423 
4.1900000000035735, -3.423162712111533 
4.20000000000355, -3.4244227652208563 
4.210000000003527, -3.4226250956829167 
4.220000000003504, -3.415239091261216 
4.23000000000348, -3.371567662775859 
4.240000000003457, -3.1782383364383864 
4.250000000003434, -3.2410294162137525 
4.26000000000341, -3.254167837987796 
4.270000000003387, -3.2550921544796885 
4.280000000003364, -3.254525595606956 
4.2900000000033405, -3.25448831946566 
4.300000000003317, -3.2535991081102957 
4.310000000003294, -3.2527960595505263 
4.320000000003271, -3.2521780512256475 
4.330000000003247, -3.2471297137309767 
4.340000000003224, -3.211035468991034 
4.350000000003201, -3.2740249733644218 
4.360000000003177, -3.365988786165919 
4.370000000003154, -3.378891285736779 
4.380000000003131, -3.381239123384824 
4.390000000003107, -3.3804083834834464 
4.400000000003084, -3.375388815856631 
4.410000000003061, -3.351617928613435 
4.4200000000030375, -3.029135623541657 
4.430000000003014, 0.423859845857342 
4.440000000002991, 1.0182086164726187 
4.450000000002968, 1.0683646495647696 
4.460000000002944, 1.0782545105384849 
4.470000000002921, 1.08088262425887 
4.480000000002898, 1.0813631911847126 
4.490000000002874, 1.0810754691485343 
4.500000000002851, 1.0808545242173078 
4.510000000002828, 1.0818547668662597 
4.520000000002804, 1.085384848307719 
4.530000000002781, 1.0912869350736056 
4.540000000002758, 1.0973170151809453 
4.5500000000027345, 1.1015844283032663 
4.560000000002711, 1.1038486859315009 
4.570000000002688, 1.1045243472134505 
4.580000000002665, 1.1037030452185002 
4.590000000002641, 1.100256556237368 
4.600000000002618, 1.0878244717809329 
4.610000000002595, 1.0147260925092008 
4.620000000002571, -0.23840936982142505 
4.630000000002548, -2.6648483484842296 
4.640000000002525, -2.810101749484096 
4.6500000000025015, -2.825771912397008 
4.660000000002478, -2.828279943583142 
4.670000000002455, -2.8279729130283515 
4.6800000000024315, -2.826667153184817 
4.690000000002408, -2.823867343914896 
4.700000000002385, -2.8192393840766603 
4.710000000002362, -2.8177282677744566 
4.720000000002338, -2.818402868487028 
4.730000000002315, -2.816680140750169 
4.740000000002292, -2.8087389363990947 
4.750000000002268, -2.8090375950356723 
4.760000000002245, -2.8418647933388113 
4.770000000002222, -2.8563423165721034 
4.7800000000021985, -2.8604900848266395 
4.790000000002175, -2.8614006038427693 
4.800000000002152, -2.860184495040003 
4.810000000002129, -2.8554216395591814 
4.820000000002105, -2.839669365687496 
4.830000000002082, -2.762276843346895 
4.840000000002059, -1.888750345180774 
4.850000000002035, 0.3170696311332147 
4.860000000002012, 0.6385583694742449 
4.870000000001989, 0.6869336664068113 
4.880000000001965, 0.6995403110808031 
4.890000000001942, 0.7037428736313824 
4.900000000001919, 0.7050464001716695 
4.9100000000018955, 0.7049558025547382 
4.920000000001872, 0.7039057492457796 
4.930000000001849, 0.702025736361891 
4.940000000001826, 0.6998885325172381 
4.950000000001802, 0.7010890661896594 
