t, s[1].omega / s[0].omega 
0, -0.6210939947780283 
0.009999999999999995, -0.753996232266773 
0.019999999999999934, -0.9159393375583221 
0.029999999999999874, -1.0520593231147426 
0.04000000000000012, -1.1299031220502962 
0.050000000000000405, -1.164890413240921 
0.06000000000000069, -1.179265713058789 
0.07000000000000098, -1.1849831076830066 
0.08000000000000126, -1.1869721709175307 
0.09000000000000155, -1.187120359431619 
0.10000000000000184, -1.1862031023450503 
0.11000000000000212, -1.1849651189693398 
0.12000000000000241, -1.1852836017112751 
0.130000000000002, -1.1908644344131345 
0.1400000000000009, -1.2046568835799447 
0.1499999999999998, -1.2245017028746008 
0.1599999999999987, -1.2450486556708762 
0.1699999999999976, -1.2629096579114683 
0.1799999999999965, -1.277472857491777 
0.1899999999999954, -1.289296022737276 
0.1999999999999943, -1.2990310228102901 
0.2099999999999932, -1.3070855120491023 
0.2199999999999921, -1.3135988662708946 
0.229999999999991, -1.3185447756904165 
0.2399999999999899, -1.3219050220521043 
0.2499999999999888, -1.3238093992774491 
0.2599999999999877, -1.3245391511781512 
0.2699999999999866, -1.3244460138472207 
0.2799999999999855, -1.3239078816637244 
0.2899999999999844, -1.3233109777993362 
0.2999999999999833, -1.3229390263129837 
0.3099999999999822, -1.32282688145196 
0.3199999999999811, -1.322835176847308 
0.32999999999998, -1.3228904315041512 
0.3399999999999789, -1.3230500859915824 
0.3499999999999778, -1.323327198434726 
0.35999999999997667, -1.3235488831419544 
0.36999999999997557, -1.3234209248541755 
0.37999999999997447, -1.3226496598124444 
0.38999999999997337, -1.3209973517035958 
0.39999999999997227, -1.3183148680653178 
0.40999999999997117, -1.3145677643890363 
0.41999999999997006, -1.3098024077374195 
0.42999999999996896, -1.3040489339541281 
0.43999999999996786, -1.297227778605718 
0.44999999999996676, -1.2891010668087546 
0.45999999999996566, -1.2792746291071606 
0.46999999999996456, -1.2673341783243406 
0.47999999999996346, -1.253368204925353 
0.48999999999996235, -1.2389930459821596 
0.49999999999996125, -1.2276225186472016 
0.5099999999999602, -1.2217984668728248 
0.519999999999959, -1.2204643595730356 
0.529999999999958, -1.2208579450588217 
0.5399999999999568, -1.2211445925329354 
0.5499999999999557, -1.2204711351762618 
0.5599999999999546, -1.218016341347068 
0.5699999999999535, -1.2119313300964587 
0.5799999999999524, -1.1975496664498289 
0.5899999999999513, -1.1640453893257383 
0.5999999999999502, -1.0925218485188601 
0.6099999999999491, -0.9706976253252492 
0.619999999999948, -0.8233248175405932 
0.6299999999999469, -0.6946759316020296 
0.6399999999999458, -0.6025737351925083 
0.6499999999999447, -0.5414506197995165 
0.6599999999999436, -0.501339327655942 
0.6699999999999425, -0.474718415781365 
0.6799999999999414, -0.4567998970878423 
0.6899999999999403, -0.44463062379295926 
0.6999999999999392, -0.43636492920527087 
0.7099999999999381, -0.43081659757097046 
0.719999999999937, -0.4271995781483616 
0.7299999999999359, -0.4249790923063023 
0.7399999999999348, -0.4237854752369078 
0.7499999999999337, -0.4233640571222037 
0.7599999999999326, -0.4235466935111882 
0.7699999999999315, -0.4242376820834318 
0.7799999999999304, -0.42541086811941736 
0.7899999999999293, -0.427116775157314 
0.7999999999999282, -0.4294996305709674 
0.8099999999999271, -0.43282616530978785 
0.819999999999926, -0.43753222614465237 
0.8299999999999249, -0.44429267385328597 
0.8399999999999238, -0.45408719799071495 
0.8499999999999227, -0.4681072667117278 
0.8599999999999216, -0.48709896275985853 
0.8699999999999205, -0.5098614250587203 
0.8799999999999194, -0.5323781672356598 
0.8899999999999183, -0.5502165118904093 
0.8999999999999172, -0.5618681858632676 
0.9099999999999161, -0.5685060284422182 
0.919999999999915, -0.5718733830644935 
0.9299999999999139, -0.5731923946565274 
0.9399999999999128, -0.5730436545770777 
0.9499999999999117, -0.5714477357314388 
0.9599999999999106, -0.5677592021267186 
0.9699999999999095, -0.5600547529021211 
0.9799999999999084, -0.5431746523160681 
0.9899999999999073, -0.5031533837764787 
0.9999999999999062, -0.40747678473316873 
1.0099999999999052, -0.22990210017050355 
1.019999999999904, -0.05108425225760734 
1.029999999999903, 0.046337551108328115 
1.039999999999902, 0.08764153737868507 
1.0499999999999008, 0.10538237201141862 
1.0599999999998997, 0.11358869129559238 
1.0699999999998986, 0.11758231883536348 
1.0799999999998975, 0.11949810909001321 
1.0899999999998964, 0.12028963980060765 
1.0999999999998953, 0.12045067732116836 
1.1099999999998942, 0.1202881787052188 
1.119999999999893, 0.12002699768037599 
1.129999999999892, 0.11985504883145195 
1.1399999999998909, 0.11996488049995198 
1.1499999999998898, 0.12063082612422624 
1.1599999999998887, 0.12237079472980358 
1.1699999999998876, 0.12627925888581534 
1.1799999999998865, 0.13458541187457435 
1.1899999999998854, 0.15084183350318026 
1.1999999999998843, 0.17719827911242786 
1.2099999999998832, 0.2083702079273868 
1.219999999999882, 0.23412631319305058 
1.229999999999881, 0.25028218068601377 
1.2399999999998799, 0.2590080767302426 
1.2499999999998788, 0.26334932522393045 
1.2599999999998777, 0.265209968023164 
1.2699999999998766, 0.2655016289281943 
1.2799999999998755, 0.26455029830328053 
1.2899999999998744, 0.2623722125421949 
1.2999999999998733, 0.2589017475109209 
1.3099999999998722, 0.2542645460517371 
1.319999999999871, 0.24900023624458906 
1.32999999999987, 0.2439567101448957 
1.3399999999998689, 0.23985442639904647 
1.3499999999998678, 0.23698202471510413 
1.3599999999998666, 0.23527044256397117 
1.3699999999998655, 0.23451310764214234 
1.3799999999998644, 0.2344978852302789 
1.3899999999998633, 0.2350254093064333 
1.3999999999998622, 0.2358779888858434 
1.4099999999998611, 0.23680047004096044 
1.41999999999986, 0.23751948007342477 
1.429999999999859, 0.23777494058064863 
1.4399999999998578, 0.23730532476666738 
1.4499999999998567, 0.23573638397286345 
1.4599999999998556, 0.2323076828257936 
1.4699999999998545, 0.2252184148537213 
1.4799999999998534, 0.20990842586513217 
1.4899999999998523, 0.17478448550967848 
1.4999999999998512, 0.09669462458445602 
1.5099999999998501, -0.03110342618586755 
1.519999999999849, -0.14508391675630894 
1.529999999999848, -0.20391369587298488 
1.5399999999998468, -0.22831446691218488 
1.5499999999998457, -0.23858523263679937 
1.5599999999998446, -0.24325592729496473 
1.5699999999998435, -0.24545897512594356 
1.5799999999998424, -0.24637887333854863 
1.5899999999998413, -0.24648049563687077 
1.5999999999998402, -0.24594408347284197 
1.6099999999998391, -0.24485009806522987 
1.619999999999838, -0.24329088170483212 
1.629999999999837, -0.2414446821949115 
1.6399999999998358, -0.23958376144427831 
1.6499999999998347, -0.23800454622835096 
1.6599999999998336, -0.23694210105206404 
1.6699999999998325, -0.23654455257542736 
1.6799999999998314, -0.23690611887852553 
1.6899999999998303, -0.23809931290356173 
1.6999999999998292, -0.24015312324169277 
1.709999999999828, -0.24296479644315702 
1.719999999999827, -0.24620943603337767 
1.729999999999826, -0.24938056337139214 
1.7399999999998248, -0.25199565329994356 
1.7499999999998237, -0.2537818466005147 
1.7599999999998226, -0.25467326240058646 
1.7699999999998215, -0.25467194843722596 
1.7799999999998204, -0.2536874996158406 
1.7899999999998193, -0.2513629745852801 
1.7999999999998182, -0.24677922514072118 
1.809999999999817, -0.23783665130051784 
1.819999999999816, -0.2202129834754772 
1.8299999999998149, -0.1873392198848343 
1.8399999999998138, -0.13704029840041781 
1.8499999999998127, -0.08256726205785991 
1.8599999999998116, -0.04156347750875565 
1.8699999999998105, -0.01716824144946878 
1.8799999999998094, -0.003851234986317819 
1.8899999999998083, 0.003163453163383064 
1.8999999999998072, 0.006743666447107395 
1.909999999999806, 0.0085188910423459 
1.919999999999805, 0.009223250494286564 
1.9299999999998039, 0.009277513617717146 
1.9399999999998028, 0.00896984380022594 
1.9499999999998017, 0.008527599801045296 
1.9599999999998006, 0.008137611846940267 
1.9699999999997995, 0.00795943759657519 
1.9799999999997984, 0.008163157536557554 
1.9899999999997973, 0.009017337768390896 
1.9999999999997962, 0.011081816123569909 
2.0099999999998173, 0.015651011710383904 
2.0199999999998384, 0.02570817916479267 
2.0299999999998595, 0.04711486691275303 
2.0399999999998806, 0.08598462966856915 
2.0499999999999017, 0.13624414493919101 
2.059999999999923, 0.17850634261744866 
2.069999999999944, 0.20394835742501788 
2.079999999999965, 0.21701248283683044 
2.089999999999986, 0.22339307721670315 
2.100000000000007, 0.226352025413048 
2.1100000000000283, 0.22741392323110485 
2.1200000000000494, 0.22723506621680714 
2.1300000000000705, 0.22608427407075432 
2.1400000000000916, 0.22411329794926732 
2.1500000000001127, 0.22153652952259123 
2.160000000000134, 0.21871107415155575 
2.170000000000155, 0.2160707990745326 
2.180000000000176, 0.21397683618274108 
2.190000000000197, 0.21263256265944808 
2.2000000000002182, 0.21211443939098498 
2.2100000000002393, 0.21244276050911579 
2.2200000000002604, 0.21360824819158367 
2.2300000000002815, 0.2155273104449627 
2.2400000000003026, 0.21796378536391003 
2.2500000000003237, 0.2205142752924396 
2.260000000000345, 0.22272462668816168 
2.270000000000366, 0.22425091341570663 
2.280000000000387, 0.224904877482685 
2.290000000000408, 0.22454820359120423 
2.3000000000004293, 0.22290012921599373 
2.3100000000004504, 0.21926123845815612 
2.3200000000004715, 0.2120342950788599 
2.3300000000004926, 0.1979393980929303 
2.3400000000005137, 0.17178526046192977 
2.3500000000005348, 0.13100044716417353 
2.360000000000556, 0.08567897144975237 
2.370000000000577, 0.052064045069939405 
2.380000000000598, 0.0335366783824084 
2.390000000000619, 0.02450223567893832 
2.4000000000006403, 0.020106413946459085 
2.4100000000006614, 0.017883199732607623 
2.4200000000006825, 0.016741975581169934 
2.4300000000007036, 0.01619784774897972 
2.4400000000007247, 0.016006788400855284 
2.450000000000746, 0.01600160120533971 
2.460000000000767, 0.016016046286958956 
2.470000000000788, 0.01585384804635042 
2.480000000000809, 0.01527724610688907 
2.49000000000083, 0.013980126089561774 
2.5000000000008513, 0.011498729206908769 
2.5100000000008724, 0.006997612741195191 
2.5200000000008935, -0.0011258213192045338 
2.5300000000009146, -0.0157937696790032 
2.5400000000009357, -0.04294296286097093 
2.550000000000957, -0.08761563968669049 
2.560000000000978, -0.14358692582108165 
2.570000000000999, -0.1914713299067352 
2.58000000000102, -0.2208949330527617 
2.5900000000010412, -0.23607750512287135 
2.6000000000010624, -0.2435351848590198 
2.6100000000010835, -0.24714905699016315 
2.6200000000011046, -0.24874324494971384 
2.6300000000011257, -0.24910307731294012 
2.6400000000011468, -0.2485247834645557 
2.650000000001168, -0.24707875041018967 
2.660000000001189, -0.24477563887407636 
2.67000000000121, -0.24172166430202974 
2.680000000001231, -0.23823194669929754 
2.6900000000012523, -0.23479117947644249 
2.7000000000012734, -0.23185742560353645 
2.7100000000012945, -0.22969572018870785 
2.7200000000013156, -0.2283762176987972 
2.7300000000013367, -0.22786815360576376 
2.740000000001358, -0.2281106466794017 
2.750000000001379, -0.22901579624458987 
2.7600000000014, -0.23042476894892067 
2.770000000001421, -0.23207663314019428 
2.780000000001442, -0.23365055023333267 
2.7900000000014633, -0.2348670001493145 
2.8000000000014844, -0.23555539352957638 
2.8100000000015055, -0.23563051841322719 
2.8200000000015266, -0.23500297411679552 
2.8300000000015477, -0.2334513663787924 
2.840000000001569, -0.2304054127296733 
2.85000000000159, -0.2244373824996077 
2.860000000001611, -0.21192721526277455 
2.870000000001632, -0.18400459599970184 
2.8800000000016532, -0.12440234430852379 
2.8900000000016743, -0.028724700892347455 
2.9000000000016954, 0.06267371790092341 
2.9100000000017165, 0.11701237691008967 
2.9200000000017377, 0.14293201087257007 
2.9300000000017588, 0.15492308684259762 
2.94000000000178, 0.16060875972655392 
2.950000000001801, 0.16326699088802946 
2.960000000001822, 0.1643024885509364 
2.970000000001843, 0.1643622596707358 
2.9800000000018643, 0.1638028837620848 
2.9900000000018854, 0.1628916412653727 
3.0000000000019065, 0.1618795909719879 
3.0100000000019276, 0.16100668476251215 
3.0200000000019487, 0.1604923560655386 
3.03000000000197, 0.1605547598842211 
3.040000000001991, 0.1614701009111498 
3.050000000002012, 0.1636497621966582 
3.060000000002033, 0.16766267149875766 
3.070000000002054, 0.174030264281752 
3.0800000000020753, 0.18263326567749635 
3.0900000000020964, 0.1921642473064305 
3.1000000000021175, 0.2006780705465548 
3.1100000000021386, 0.20693343836181288 
3.1200000000021597, 0.21083258910020763 
3.130000000002181, 0.212836348849455 
3.140000000002202, 0.21338042544327793 
3.150000000002223, 0.21264042685151407 
3.160000000002244, 0.21048012105063396 
3.1700000000022652, 0.2064658902861654 
3.1800000000022863, 0.20002987581026427 
3.1900000000023074, 0.19100266099542923 
3.2000000000023285, 0.18037877865677324 
3.2100000000023496, 0.17023369720814677 
3.2200000000023707, 0.16230513759561088 
3.230000000002392, 0.15699840814912203 
3.240000000002413, 0.15381260520529122 
3.250000000002434, 0.1520898423305221 
3.260000000002455, 0.1513370023391425 
3.2700000000024763, 0.15123373397553502 
3.2800000000024974, 0.15155044913758775 
3.2900000000025185, 0.1520747730672474 
3.3000000000025396, 0.15257659308256355 
3.3100000000025607, 0.15280967304031284 
3.3200000000025818, 0.15251596215704605 
3.330000000002603, 0.15138073992910958 
3.340000000002624, 0.14888480803562715 
3.350000000002645, 0.14395863837782868 
3.360000000002666, 0.1341798190692436 
3.3700000000026873, 0.11396440104680594 
3.3800000000027084, 0.07192693115842752 
3.3900000000027295, -0.003978305261891904 
3.4000000000027506, -0.09661216415982911 
3.4100000000027717, -0.16424736567309398 
3.420000000002793, -0.1984088360744465 
3.430000000002814, -0.21367791857821458 
3.440000000002835, -0.22061917715184792 
3.450000000002856, -0.22389161067150903 
3.460000000002877, -0.22536410833161208 
3.4700000000028983, -0.2257887376318636 
3.4800000000029194, -0.2254642050455348 
3.4900000000029405, -0.2245078167541959 
3.5000000000029616, -0.22300019357801143 
3.5100000000029827, -0.22108584026470385 
3.520000000003004, -0.21901823771489423 
3.530000000003025, -0.21711545170327992 
3.540000000003046, -0.21566024787918128 
3.550000000003067, -0.21483889735903974 
3.5600000000030882, -0.21475879773362153 
3.5700000000031094, -0.2154974490223232 
3.5800000000031305, -0.21711676133207775 
3.5900000000031516, -0.21960576667323206 
3.6000000000031727, -0.22276979250262507 
3.6100000000031938, -0.2261750034068566 
3.620000000003215, -0.22927462170065885 
3.630000000003236, -0.2316478691861604 
3.640000000003257, -0.23311765415134392 
3.650000000003278, -0.2336689632269894 
3.6600000000032993, -0.23328526498673968 
3.6700000000033204, -0.23178690944616132 
3.6800000000033415, -0.22863226941446818 
3.6900000000033626, -0.22256043956069668 
3.7000000000033837, -0.21097880613815395 
3.710000000003405, -0.1896091045160841 
3.720000000003426, -0.15507106071989013 
3.730000000003447, -0.11229081079767622 
3.740000000003468, -0.07436027591803787 
3.750000000003489, -0.04874118743479993 
3.7600000000035103, -0.03372580159704841 
3.7700000000035314, -0.025273404667473236 
3.7800000000035525, -0.020506263105795994 
3.7900000000035736, -0.017828347145113575 
3.8000000000035947, -0.016396099962063173 
3.810000000003616, -0.015734578209370527 
3.820000000003637, -0.015530962573393892 
3.830000000003658, -0.015542390373634942 
3.840000000003679, -0.015568353122290986 
3.8500000000037002, -0.015444053408625119 
3.8600000000037213, -0.015019180677529647 
3.8700000000037424, -0.0140989273511966 
3.8800000000037635, -0.01231485104834809 
3.8900000000037847, -0.008829912659915676 
3.9000000000038058, -0.0016338464146361594 
3.910000000003827, 0.013521789013696467 
3.920000000003848, 0.045029627773112604 
3.930000000003869, 0.09678477935116372 
3.94000000000389, 0.15260180383123523 
3.9500000000039113, 0.19164319515902012 
3.9600000000039324, 0.21259814025310209 
3.9700000000039535, 0.2228432382890561 
3.9800000000039746, 0.227724594087374 
3.9900000000039957, 0.22986744241802048 
4.000000000004016, 0.23042986531908682 
4.010000000003993, 0.22989963965551197 
4.02000000000397, 0.2284946854040192 
4.030000000003946, 0.22639272012088182 
4.040000000003923, 0.22386702716940493 
4.0500000000039, 0.22130131624183186 
4.0600000000038765, 0.2190843776423277 
4.070000000003853, 0.21749320872445269 
4.08000000000383, 0.21667003598011236 
4.090000000003807, 0.21667656118317374 
4.100000000003783, 0.21754157394707155 
4.11000000000376, 0.21924468279759785 
4.120000000003737, 0.22163766564026463 
4.130000000003713, 0.2243785414270473 
4.14000000000369, 0.22698932001891162 
4.150000000003667, 0.22903409838445238 
4.1600000000036434, 0.23024937986115585 
4.17000000000362, 0.23050498462522234 
4.180000000003597, 0.2296404144152854 
4.1900000000035735, 0.2272386874989199 
4.20000000000355, 0.22228312467088487 
4.210000000003527, 0.21255076291707148 
4.220000000003504, 0.19388336856078592 
4.23000000000348, 0.16146120700010533 
4.240000000003457, 0.11774105574100761 
4.250000000003434, 0.07772744734499445 
4.26000000000341, 0.052401817961987895 
4.270000000003387, 0.039450035053597204 
4.280000000003364, 0.03319463466869803 
4.2900000000033405, 0.030098968866455845 
4.300000000003317, 0.028514085477752592 
4.310000000003294, 0.027715000582726475 
4.320000000003271, 0.027363713710146648 
4.330000000003247, 0.027265560989723964 
4.340000000003224, 0.027257894605500745 
4.350000000003201, 0.027159961007833588 
4.360000000003177, 0.026753388505739717 
4.370000000003154, 0.02576335478680552 
4.380000000003131, 0.023797171267066423 
4.390000000003107, 0.02018126030103718 
4.400000000003084, 0.013596647813416457 
4.410000000003061, 0.0013330569086855665 
4.4200000000030375, -0.021478819459998057 
4.430000000003014, -0.06277497497148474 
4.440000000002991, -0.12369279767225243 
4.450000000002968, -0.18570072726068362 
4.460000000002944, -0.22810821647111768 
4.470000000002921, -0.25060128296331036 
4.480000000002898, -0.2615272918432286 
4.490000000002874, -0.2667995082482036 
4.500000000002851, -0.26927800060333096 
4.510000000002828, -0.27020484000662726 
4.520000000002804, -0.2700792600044436 
4.530000000002781, -0.26905459714580476 
4.540000000002758, -0.2671382340220628 
4.5500000000027345, -0.26435063506892614 
4.560000000002711, -0.2608811242724285 
4.570000000002688, -0.2571523909298211 
4.580000000002665, -0.25369082316941494 
4.590000000002641, -0.25089880140884246 
4.600000000002618, -0.24894863097628353 
4.610000000002595, -0.2478422621488586 
4.620000000002571, -0.2475115701288187 
4.630000000002548, -0.2478643173022351 
4.640000000002525, -0.2487681620601347 
4.6500000000025015, -0.2500160746614252 
4.660000000002478, -0.2513329009569218 
4.670000000002455, -0.25244442371994724 
4.6800000000024315, -0.2531535504519071 
4.690000000002408, -0.25335356189490255 
4.700000000002385, -0.2529723836349551 
4.710000000002362, -0.25187753055084083 
4.720000000002338, -0.24972939593214621 
4.730000000002315, -0.24565868795713786 
4.740000000002292, -0.2373517511672504 
4.750000000002268, -0.2182402129810867 
4.760000000002245, -0.17007272105152674 
4.770000000002222, -0.05982098006996953 
4.7800000000021985, 0.09622742651318003 
4.790000000002175, 0.2052138016805003 
4.800000000002152, 0.25357582397327394 
4.810000000002129, 0.273145030624221 
4.820000000002105, 0.2814604909230696 
4.830000000002082, 0.2851046805936759 
4.840000000002059, 0.28651807171593624 
4.850000000002035, 0.28666198566891066 
4.860000000002012, 0.285957981239997 
4.870000000001989, 0.2846605160845054 
4.880000000001965, 0.2830217616307344 
