t, s[1].omega / s[0].omega 
0, -1.4400563867582767 
0.009999999999999995, -1.4448935898354303 
0.019999999999999934, -1.4482421225423592 
0.029999999999999874, -1.4502396891678868 
0.04000000000000012, -1.451077728095203 
0.050000000000000405, -1.4510113638722753 
0.06000000000000069, -1.450334642771507 
0.07000000000000098, -1.4493483796499296 
0.08000000000000126, -1.4482624310051413 
0.09000000000000155, -1.4470965188081792 
0.10000000000000184, -1.4458137150025157 
0.11000000000000212, -1.4445998984899515 
0.12000000000000241, -1.4438253079866514 
0.130000000000002, -1.443576232248865 
0.1400000000000009, -1.443434498759611 
0.1499999999999998, -1.4427680426541714 
0.1599999999999987, -1.4408664648925085 
0.1699999999999976, -1.4367094907074538 
0.1799999999999965, -1.4286967370341417 
0.1899999999999954, -1.4146951093914915 
0.1999999999999943, -1.3925270569849597 
0.2099999999999932, -1.3603338184217508 
0.2199999999999921, -1.3160813683133246 
0.229999999999991, -1.256769936539731 
0.2399999999999899, -1.1795130123326591 
0.2499999999999888, -1.08748822575338 
0.2599999999999877, -0.9977717433983534 
0.2699999999999866, -0.9331064429318164 
0.2799999999999855, -0.9000069619509568 
0.2899999999999844, -0.8882582739439423 
0.2999999999999833, -0.8860382698388001 
0.3099999999999822, -0.8866938362547312 
0.3199999999999811, -0.8876099645564549 
0.32999999999998, -0.8879547639170102 
0.3399999999999789, -0.8873991245587659 
0.3499999999999778, -0.8855536805320838 
0.35999999999997667, -0.8816861708900895 
0.36999999999997557, -0.8745967783318781 
0.37999999999997447, -0.8629124486544131 
0.38999999999997337, -0.8461620925712259 
0.39999999999997227, -0.8258999519493073 
0.40999999999997117, -0.8050621946605272 
0.41999999999997006, -0.7860005897282524 
0.42999999999996896, -0.7696002587583124 
0.43999999999996786, -0.7557544126232786 
0.44999999999996676, -0.7440277481106186 
0.45999999999996566, -0.7340056891206476 
0.46999999999996456, -0.7254038746777594 
0.47999999999996346, -0.7180733156228734 
0.48999999999996235, -0.711967111002328 
0.49999999999996125, -0.7070900700136005 
0.5099999999999602, -0.7034401286894867 
0.519999999999959, -0.7009554531621214 
0.529999999999958, -0.6994875242417381 
0.5399999999999568, -0.6988130977542042 
0.5499999999999557, -0.6986767030842457 
0.5599999999999546, -0.6988393788533825 
0.5699999999999535, -0.6991138668973339 
0.5799999999999524, -0.6993831913664844 
0.5899999999999513, -0.6996086820552184 
0.5999999999999502, -0.6998277136277935 
0.6099999999999491, -0.7001336340196564 
0.619999999999948, -0.7006369666348339 
0.6299999999999469, -0.7014203087917912 
0.6399999999999458, -0.7024985738606403 
0.6499999999999447, -0.7037898780252763 
0.6599999999999436, -0.7051137964384159 
0.6699999999999425, -0.7062429727524153 
0.6799999999999414, -0.7069952133395463 
0.6899999999999403, -0.7073010766377881 
0.6999999999999392, -0.7072087846044324 
0.7099999999999381, -0.7068631178629057 
0.719999999999937, -0.7065160706641103 
0.7299999999999359, -0.7065950154216318 
0.7399999999999348, -0.7078140867140872 
0.7499999999999337, -0.7112683878249646 
0.7599999999999326, -0.7184009101679905 
0.7699999999999315, -0.7307418490095203 
0.7799999999999304, -0.7494661705395911 
0.7899999999999293, -0.7750260735820986 
0.7999999999999282, -0.8071401531268171 
0.8099999999999271, -0.8451442888808316 
0.819999999999926, -0.8883789934102282 
0.8299999999999249, -0.9361810682760481 
0.8399999999999238, -0.987140368326268 
0.8499999999999227, -1.0377334147640966 
0.8599999999999216, -1.0819483058096264 
0.8699999999999205, -1.1143365103365162 
0.8799999999999194, -1.1340976972354373 
0.8899999999999183, -1.144511706357246 
0.8999999999999172, -1.149411631642407 
0.9099999999999161, -1.1513592548350364 
0.919999999999915, -1.151713363062561 
0.9299999999999139, -1.1512102135282145 
0.9399999999999128, -1.1505558745662368 
0.9499999999999117, -1.1509828515412823 
0.9599999999999106, -1.1542756902832072 
0.9699999999999095, -1.1614904374154873 
0.9799999999999084, -1.1716230037944777 
0.9899999999999073, -1.1825139195825738 
0.9999999999999062, -1.192616076101442 
1.0099999999999052, -1.2014280592101672 
1.019999999999904, -1.2090270187182508 
1.029999999999903, -1.2156380362938062 
1.039999999999902, -1.2214404163529458 
1.0499999999999008, -1.2265008072302266 
1.0599999999998997, -1.2307586876070427 
1.0699999999998986, -1.2340712654681887 
1.0799999999998975, -1.2363235022847097 
1.0899999999998964, -1.2375319525182102 
1.0999999999998953, -1.2378593543053131 
1.1099999999998942, -1.2375654403698297 
1.119999999999893, -1.236971012952716 
1.129999999999892, -1.2364192468500066 
1.1399999999998909, -1.236157385689308 
1.1499999999998898, -1.2362134117553603 
1.1599999999998887, -1.2364587889581837 
1.1699999999998876, -1.2367972214298215 
1.1799999999998865, -1.2372278819383025 
1.1899999999998854, -1.2377352666841919 
1.1999999999998843, -1.2381885802534958 
1.2099999999998832, -1.2383764450296366 
1.219999999999882, -1.2381017732204702 
1.229999999999881, -1.2372414880812728 
1.2399999999998799, -1.235766239707409 
1.2499999999998788, -1.2337265763777796 
1.2599999999998777, -1.2312030496534008 
1.2699999999998766, -1.2282486591666417 
1.2799999999998755, -1.2248622218608565 
1.2899999999998744, -1.220996873692558 
1.2999999999998733, -1.2165785264290592 
1.3099999999998722, -1.2115219480148385 
1.319999999999871, -1.2057881265618822 
1.32999999999987, -1.1995653601555094 
1.3399999999998689, -1.1935334465606506 
1.3499999999998678, -1.1888132463425105 
1.3599999999998666, -1.1861907670308212 
1.3699999999998655, -1.185359894707353 
1.3799999999998644, -1.185303202195564 
1.3899999999998633, -1.1850972961669373 
1.3999999999998622, -1.184077979261002 
1.4099999999998611, -1.1815226226225106 
1.41999999999986, -1.1762692950972453 
1.429999999999859, -1.1665358128439807 
1.4399999999998578, -1.1503737399667147 
1.4499999999998567, -1.1269603556824297 
1.4599999999998556, -1.0975082231467144 
1.4699999999998545, -1.064363676335279 
1.4799999999998534, -1.0294293960350012 
1.4899999999998523, -0.9937027265355601 
1.4999999999998512, -0.957858977042855 
1.5099999999998501, -0.9230779884571161 
1.519999999999849, -0.8915180536584426 
1.529999999999848, -0.8658854635269588 
1.5399999999998468, -0.8480343472867959 
1.5499999999998457, -0.8377574518520973 
1.5599999999998446, -0.8330671053304789 
1.5699999999998435, -0.8315425252585202 
1.5799999999998424, -0.8313499015296546 
1.5899999999998413, -0.8314273616134346 
1.5999999999998402, -0.8312237542378572 
1.6099999999998391, -0.8304059364755286 
1.619999999999838, -0.828686709160397 
1.629999999999837, -0.8258009795851979 
1.6399999999998358, -0.8216300101519055 
1.6499999999998347, -0.8163778360029132 
1.6599999999998336, -0.8105733464891248 
1.6699999999998325, -0.8048138566786056 
1.6799999999998314, -0.7994961562818418 
1.6899999999998303, -0.7947554133689156 
1.6999999999998292, -0.7905563493416654 
1.709999999999828, -0.7868020915044934 
1.719999999999827, -0.7834051047406961 
1.729999999999826, -0.7803197531437863 
1.7399999999998248, -0.7775469495333885 
1.7499999999998237, -0.7751220758336945 
1.7599999999998226, -0.7730976133130663 
1.7699999999998215, -0.771527814198433 
1.7799999999998204, -0.7704552582168727 
1.7899999999998193, -0.7698956191667767 
1.7999999999998182, -0.7698222115550918 
1.809999999999817, -0.7701600364642912 
1.819999999999816, -0.7707984686722885 
1.8299999999998149, -0.7716205805813353 
1.8399999999998138, -0.7725369801309808 
1.8499999999998127, -0.7735111437599888 
1.8599999999998116, -0.7745669974705003 
1.8699999999998105, -0.7757737963695355 
1.8799999999998094, -0.7772105227005849 
1.8899999999998083, -0.7789184755504032 
1.8999999999998072, -0.7808523613037865 
1.909999999999806, -0.7828497784263535 
1.919999999999805, -0.7846571936140072 
1.9299999999998039, -0.7860279329336639 
1.9399999999998028, -0.7868292233739858 
1.9499999999998017, -0.7870754388662835 
1.9599999999998006, -0.7868960446323477 
1.9699999999997995, -0.7865136252428679 
1.9799999999997984, -0.7862787907171108 
1.9899999999997973, -0.7867464530315926 
1.9999999999997962, -0.7887180954888439 
2.0099999999998173, -0.7931377310662685 
2.0199999999998384, -0.8007976587106242 
2.0299999999998595, -0.812011508508166 
2.0399999999998806, -0.8265282650887666 
2.0499999999999017, -0.8437701269631578 
2.059999999999923, -0.863189145598235 
2.069999999999944, -0.8844975329278654 
2.079999999999965, -0.9076769452799054 
2.089999999999986, -0.932754052766325 
2.100000000000007, -0.9593029182064592 
2.1100000000000283, -0.9857677373698399 
2.1200000000000494, -1.0093236251818831 
2.1300000000000705, -1.0272490292923564 
2.1400000000000916, -1.0388046069823422 
2.1500000000001127, -1.045244588438547 
2.160000000000134, -1.0483595778153405 
2.170000000000155, -1.0495016802650803 
2.180000000000176, -1.0494775836512495 
2.190000000000197, -1.0488256641705527 
2.2000000000002182, -1.0482398801708466 
2.2100000000002393, -1.0490686373835272 
2.2200000000002604, -1.053407124803597 
2.2300000000002815, -1.0629167154545625 
2.2400000000003026, -1.077090835294173 
2.2500000000003237, -1.0934972379653223 
2.260000000000345, -1.109775693790088 
2.270000000000366, -1.1247658180642883 
2.280000000000387, -1.138271022495914 
2.290000000000408, -1.1504808314365755 
2.3000000000004293, -1.1615791683930838 
2.3100000000004504, -1.171543979183537 
2.3200000000004715, -1.1800935603655274 
2.3300000000004926, -1.1868253467662981 
2.3400000000005137, -1.19151158528137 
2.3500000000005348, -1.1942913243989282 
2.360000000000556, -1.1955760492542127 
2.370000000000577, -1.1958414229898373 
2.380000000000598, -1.195542054330007 
2.390000000000619, -1.1951615182776505 
2.4000000000006403, -1.1952186985544597 
2.4100000000006614, -1.1960610581280784 
2.4200000000006825, -1.1976269892203513 
2.4300000000007036, -1.1995544229074622 
2.4400000000007247, -1.2015107495751804 
2.450000000000746, -1.2033392595741055 
2.460000000000767, -1.2049818263383394 
2.470000000000788, -1.2063804172608954 
2.480000000000809, -1.2074665983048445 
2.49000000000083, -1.2081992764354827 
2.5000000000008513, -1.208583207982491 
2.5100000000008724, -1.2086505745426586 
2.5200000000008935, -1.208425337293116 
2.5300000000009146, -1.2078994361316826 
2.5400000000009357, -1.2070391464438537 
2.550000000000957, -1.2058174045516947 
2.560000000000978, -1.2042481349154315 
2.570000000000999, -1.202394236786792 
2.58000000000102, -1.2003368473295897 
2.5900000000010412, -1.1981368433099453 
2.6000000000010624, -1.1958608509646858 
2.6100000000010835, -1.193685002856777 
2.6200000000011046, -1.1919354381598413 
2.6300000000011257, -1.1908979427558575 
2.6400000000011468, -1.190529396570026 
2.650000000001168, -1.1904427460965266 
2.660000000001189, -1.1901487852754538 
2.67000000000121, -1.1892034946684333 
2.680000000001231, -1.187187908814773 
2.6900000000012523, -1.1836995072655543 
2.7000000000012734, -1.1784719654979923 
2.7100000000012945, -1.171533373769586 
2.7200000000013156, -1.1631851409928042 
2.7300000000013367, -1.153772969959122 
2.740000000001358, -1.1434733042172645 
2.750000000001379, -1.1322429862787158 
2.7600000000014, -1.1199024618806663 
2.770000000001421, -1.106325880130107 
2.780000000001442, -1.0917931319314684 
2.7900000000014633, -1.0774595642727667 
2.8000000000014844, -1.0654134329942404 
2.8100000000015055, -1.0575438719787678 
2.8200000000015266, -1.0539632484514718 
2.8300000000015477, -1.0531072556205108 
2.840000000001569, -1.0532306377233724 
2.85000000000159, -1.0532397091449133 
2.860000000001611, -1.052524932132728 
2.870000000001632, -1.0505232350205909 
2.8800000000016532, -1.0463648382211337 
2.8900000000016743, -1.0387139608219733 
2.9000000000016954, -1.026100679495747 
2.9100000000017165, -1.0079897610452688 
2.9200000000017377, -0.985700762888305 
2.9300000000017588, -0.9617105632935907 
2.94000000000178, -0.9380501339164194 
2.950000000001801, -0.9156442591660049 
2.960000000001822, -0.8946691121144568 
2.970000000001843, -0.8750941771090543 
2.9800000000018643, -0.8570386265786919 
2.9900000000018854, -0.8409229299507706 
3.0000000000019065, -0.8274101697445267 
3.0100000000019276, -0.8171208026026374 
3.0200000000019487, -0.8102470155663626 
3.03000000000197, -0.80636166069416 
3.040000000001991, -0.8045981482827591 
3.050000000002012, -0.8040248400116461 
3.060000000002033, -0.8039092255054971 
3.070000000002054, -0.8037680373616753 
3.0800000000020753, -0.803296555937456 
3.0900000000020964, -0.8022962108268074 
3.1000000000021175, -0.8006621773444683 
3.1100000000021386, -0.798425305597311 
3.1200000000021597, -0.7957769541133184 
3.130000000002181, -0.7930026811785609 
3.140000000002202, -0.7903551196174023 
3.150000000002223, -0.7879695567790514 
3.160000000002244, -0.7858627682505313 
3.1700000000022652, -0.7839785606144555 
3.1800000000022863, -0.7822410290327406 
3.1900000000023074, -0.7805988791056591 
3.2000000000023285, -0.7790520604237434 
3.2100000000023496, -0.7776554136486383 
3.2200000000023707, -0.776501390901412 
3.230000000002392, -0.7756905726954471 
3.240000000002413, -0.7753025548808599 
3.250000000002434, -0.7753791716937346 
3.260000000002455, -0.7759238772066883 
3.2700000000024763, -0.7769106516538798 
3.2800000000024974, -0.778293720143052 
3.2900000000025185, -0.7800165622326264 
3.3000000000025396, -0.782024802522616 
3.3100000000025607, -0.7842850111071323 
3.3200000000025818, -0.786803469646322 
3.330000000002603, -0.7896336256929486 
3.340000000002624, -0.7928619079758266 
3.350000000002645, -0.7965652177377547 
3.360000000002666, -0.8007363536032136 
3.3700000000026873, -0.8051910029123022 
3.3800000000027084, -0.8095257882051285 
3.3900000000027295, -0.8132322893915702 
3.4000000000027506, -0.8159393843084123 
3.4100000000027717, -0.8175645202602029 
3.420000000002793, -0.818254368594588 
3.430000000002814, -0.8182480284322233 
3.440000000002835, -0.8178230434120831 
3.450000000002856, -0.8173732543827551 
3.460000000002877, -0.8176072963794269 
3.4700000000028983, -0.8197976139803685 
3.4800000000029194, -0.8258483493645616 
3.4900000000029405, -0.8378178119727536 
3.5000000000029616, -0.8568797469717955 
3.5100000000029827, -0.8825276656953702 
3.520000000003004, -0.9129026246163849 
3.530000000003025, -0.9459283879164818 
3.540000000003046, -0.9801593337687244 
3.550000000003067, -1.0148181957364062 
3.5600000000030882, -1.049218120501124 
3.5700000000031094, -1.0819586436301172 
3.5800000000031305, -1.1105551231933792 
3.5900000000031516, -1.132423179869908 
3.6000000000031727, -1.1467336054553776 
3.6100000000031938, -1.154826049541928 
3.620000000003215, -1.1588260993853952 
3.630000000003236, -1.1604333608909585 
3.640000000003257, -1.1606879898257727 
3.650000000003278, -1.1602543574807551 
3.6600000000032993, -1.1598358105754583 
3.6700000000033204, -1.1604894837844382 
3.6800000000033415, -1.163362480432211 
3.6900000000033626, -1.1687284707807213 
3.7000000000033837, -1.1756072094518777 
3.710000000003405, -1.1826817490195567 
3.720000000003426, -1.1891694097965702 
3.730000000003447, -1.1948603484217877 
3.740000000003468, -1.199815094117338 
3.750000000003489, -1.2041526167152243 
3.7600000000035103, -1.2079691169253925 
3.7700000000035314, -1.2113064507399987 
3.7800000000035525, -1.21413156447352 
3.7900000000035736, -1.2163440471973463 
3.8000000000035947, -1.2178333774607784 
3.810000000003616, -1.2185590993701263 
3.820000000003637, -1.2185938402914673 
3.830000000003658, -1.2181143406514854 
3.840000000003679, -1.217373033159109 
3.8500000000037002, -1.2166441220446609 
3.8600000000037213, -1.216115415373264 
3.8700000000037424, -1.2158087432136555 
3.8800000000037635, -1.2156533070859474 
3.8900000000037847, -1.2156286078022995 
3.9000000000038058, -1.2157798709022702 
3.910000000003827, -1.2160924729531433 
3.920000000003848, -1.2164069131256257 
3.930000000003869, -1.2164771521685345 
3.94000000000389, -1.2160742406174259 
3.9500000000039113, -1.2150450919235731 
3.9600000000039324, -1.2133378521061526 
3.9700000000039535, -1.2110005751681365 
3.9800000000039746, -1.208134862805141 
3.9900000000039957, -1.2048256024526611 
4.000000000004016, -1.2010975311489858 
4.010000000003993, -1.196916014547606 
4.02000000000397, -1.1922089402261977 
4.030000000003946, -1.1868900965018399 
4.040000000003923, -1.1809125887658052 
4.0500000000039, -1.174424479619719 
4.0600000000038765, -1.1680169158802476 
4.070000000003853, -1.1627537043163656 
4.08000000000383, -1.1595436260086787 
4.090000000003807, -1.1583131185840974 
4.100000000003783, -1.1581400104895834 
4.11000000000376, -1.1580531077886635 
4.120000000003737, -1.1573638523691563 
4.130000000003713, -1.1554512632875968 
4.14000000000369, -1.1514258366158256 
4.150000000003667, -1.1439420504294957 
4.1600000000036434, -1.1314702633303777 
4.17000000000362, -1.1132308621554503 
4.180000000003597, -1.0900169100343646 
4.1900000000035735, -1.0636871752231842 
4.20000000000355, -1.0358775342954625 
4.210000000003527, -1.0074193365287298 
4.220000000003504, -0.9786527761055333 
4.23000000000348, -0.9500592980624584 
4.240000000003457, -0.9228234458733832 
4.250000000003434, -0.8989700378684449 
4.26000000000341, -0.8806638428657971 
4.270000000003387, -0.8689052953567231 
4.280000000003364, -0.8628582152522686 
4.2900000000033405, -0.8605498404849573 
4.300000000003317, -0.8600611191393291 
4.310000000003294, -0.8601183391095688 
4.320000000003271, -0.8600276444727628 
4.330000000003247, -0.8593939513702115 
4.340000000003224, -0.8579013531525213 
4.350000000003201, -0.8552339952084085 
4.360000000003177, -0.8511615838929254 
4.370000000003154, -0.8457448796423679 
4.380000000003131, -0.839444807040158 
4.390000000003107, -0.832928052545005 
4.400000000003084, -0.8267303630599638 
4.410000000003061, -0.8210991314551478 
4.4200000000030375, -0.8160539376940787 
4.430000000003014, -0.8115113001746839 
4.440000000002991, -0.8073768574778859 
4.450000000002968, -0.8035914128052539 
4.460000000002944, -0.8001435672518994 
4.470000000002921, -0.7970634983352624 
4.480000000002898, -0.7944099376896891 
4.490000000002874, -0.7922553958557208 
4.500000000002851, -0.7906662578264108 
4.510000000002828, -0.7896744156783049 
4.520000000002804, -0.7892490356906998 
4.530000000002781, -0.7892876393819968 
4.540000000002758, -0.7896377449688058 
4.5500000000027345, -0.790139020949339 
4.560000000002711, -0.7906651964585826 
4.570000000002688, -0.7911521690070137 
4.580000000002665, -0.7916071729930794 
4.590000000002641, -0.7920949188426785 
4.600000000002618, -0.7927014721341342 
4.610000000002595, -0.7934879617368996 
4.620000000002571, -0.7944497511989628 
4.630000000002548, -0.7954942090745413 
4.640000000002525, -0.7964548060921419 
4.6500000000025015, -0.7971521779700699 
4.660000000002478, -0.7974727072339088 
4.670000000002455, -0.7974120072226101 
4.6800000000024315, -0.7970735033198145 
4.690000000002408, -0.7966601341976483 
4.700000000002385, -0.7964848416644302 
4.710000000002362, -0.7969778003788061 
4.720000000002338, -0.7986371791842047 
4.730000000002315, -0.801896742668859 
4.740000000002292, -0.8069712167603432 
4.750000000002268, -0.8137983225414276 
4.760000000002245, -0.8221276981286698 
4.770000000002222, -0.831683187435859 
4.7800000000021985, -0.8422933217929686 
4.790000000002175, -0.8539454800410644 
4.800000000002152, -0.8667695148595366 
4.810000000002129, -0.8809478032584408 
4.820000000002105, -0.8965060175541699 
4.830000000002082, -0.9129477553580807 
4.840000000002059, -0.9289281098722247 
4.850000000002035, -0.9425498219803193 
4.860000000002012, -0.9524637812718572 
4.870000000001989, -0.9586368993009424 
4.880000000001965, -0.9619391203563943 
4.890000000001942, -0.9633412269149524 
4.900000000001919, -0.9635415341772481 
4.9100000000018955, -0.9630093623645669 
4.920000000001872, -0.9622479344936938 
4.930000000001849, -0.9622364663007765 
