t, s[1].omega / s[0].omega 
0, -0.7599786819471692 
0.009999999999999995, -0.7579974250363006 
0.019999999999999934, -0.7562920445574426 
0.029999999999999874, -0.7547902911657209 
0.04000000000000012, -0.7534073055312144 
0.050000000000000405, -0.7520881033198179 
0.06000000000000069, -0.750834470316113 
0.07000000000000098, -0.7497102749313719 
0.08000000000000126, -0.7488267840462555 
0.09000000000000155, -0.7483139276196054 
0.10000000000000184, -0.7482861184117775 
0.11000000000000212, -0.7488150753706148 
0.12000000000000241, -0.7499206988479935 
0.130000000000002, -0.7515807904037127 
0.1400000000000009, -0.7537504425734081 
0.1499999999999998, -0.7563819266999705 
0.1599999999999987, -0.7594427931848544 
0.1699999999999976, -0.7629337305164611 
0.1799999999999965, -0.7669044962431266 
0.1899999999999954, -0.7714599628480702 
0.1999999999999943, -0.7767430946536054 
0.2099999999999932, -0.7828754608080917 
0.2199999999999921, -0.7898321169153263 
0.229999999999991, -0.7972670955157942 
0.2399999999999899, -0.8044399710679049 
0.2499999999999888, -0.8104685339789975 
0.2599999999999877, -0.8148029451390727 
0.2699999999999866, -0.817434981407302 
0.2799999999999855, -0.8186914897358213 
0.2899999999999844, -0.8189498503781711 
0.2999999999999833, -0.8185268163335261 
0.3099999999999822, -0.817757674736912 
0.3199999999999811, -0.8172641015098426 
0.32999999999998, -0.8184784843034987 
0.3399999999999789, -0.8243906847752708 
0.3499999999999778, -0.8399066259492608 
0.35999999999997667, -0.8703706701975145 
0.36999999999997557, -0.9176571744398292 
0.37999999999997447, -0.9772538398405348 
0.38999999999997337, -1.040849339050936 
0.39999999999997227, -1.10167276117535 
0.40999999999997117, -1.1564555019300762 
0.41999999999997006, -1.203886199975893 
0.42999999999996896, -1.242785576825286 
0.43999999999996786, -1.271882694926344 
0.44999999999996676, -1.2910600173657674 
0.45999999999996566, -1.302096699802664 
0.46999999999996456, -1.3076863564202106 
0.47999999999996346, -1.310102227849454 
0.48999999999996235, -1.3107766971728667 
0.49999999999996125, -1.3105659830567282 
0.5099999999999602, -1.310178683305401 
0.519999999999959, -1.31041310553355 
0.529999999999958, -1.3118501449473752 
0.5399999999999568, -1.3143188559463923 
0.5499999999999557, -1.317114702540757 
0.5599999999999546, -1.3196910054208484 
0.5699999999999535, -1.3218734406927948 
0.5799999999999524, -1.323655648755342 
0.5899999999999513, -1.3250218715964444 
0.5999999999999502, -1.325931105544798 
0.6099999999999491, -1.3263624644010017 
0.619999999999948, -1.3263306678527562 
0.6299999999999469, -1.3258643180301728 
0.6399999999999458, -1.324975536957597 
0.6499999999999447, -1.3236479843300244 
0.6599999999999436, -1.321850954610607 
0.6699999999999425, -1.3195622464605243 
0.6799999999999414, -1.31676943489748 
0.6899999999999403, -1.3134430794448104 
0.6999999999999392, -1.3095538336687604 
0.7099999999999381, -1.3052524078350396 
0.719999999999937, -1.3011482852015086 
0.7299999999999359, -1.2981984388944716 
0.7399999999999348, -1.2968716402844245 
0.7499999999999337, -1.296624444118423 
0.7599999999999326, -1.2965005347803231 
0.7699999999999315, -1.295702728338826 
0.7799999999999304, -1.2934287752619285 
0.7899999999999293, -1.2883362937512526 
0.7999999999999282, -1.277951168157354 
0.8099999999999271, -1.2585060002086133 
0.819999999999926, -1.2262531895869868 
0.8299999999999249, -1.18010958525171 
0.8399999999999238, -1.1225532656596657 
0.8499999999999227, -1.0575233491520826 
0.8599999999999216, -0.9887221256208292 
0.8699999999999205, -0.9201612897848985 
0.8799999999999194, -0.8571461350438472 
0.8899999999999183, -0.8054111952260513 
0.8999999999999172, -0.7684385769800184 
0.9099999999999161, -0.7457284935492821 
0.919999999999915, -0.7338166087781894 
0.9299999999999139, -0.7285794443347938 
0.9399999999999128, -0.7267852223369613 
0.9499999999999117, -0.7264392275245101 
0.9599999999999106, -0.7264834314990156 
0.9699999999999095, -0.726390210296342 
0.9799999999999084, -0.725871309770518 
0.9899999999999073, -0.7247296291971318 
0.9999999999999062, -0.7228326022097687 
1.0099999999999052, -0.720175679827815 
1.019999999999904, -0.7169548199583893 
1.029999999999903, -0.7135292453280356 
1.039999999999902, -0.7102622497173845 
1.0499999999999008, -0.7073789473767041 
1.0599999999998997, -0.7049397145605989 
1.0699999999998986, -0.7028923558869307 
1.0799999999998975, -0.7011362405805912 
1.0899999999998964, -0.6995736322457073 
1.0999999999998953, -0.6981463987226953 
1.1099999999998942, -0.6968556105293044 
1.119999999999893, -0.6957622103660869 
1.129999999999892, -0.6949720360678807 
1.1399999999998909, -0.6946107682210828 
1.1499999999998898, -0.6947952180133127 
1.1599999999998887, -0.6956095725977413 
1.1699999999998876, -0.6970950248771277 
1.1799999999998865, -0.6992555082765267 
1.1899999999998854, -0.7020752547648226 
1.1999999999998843, -0.7055417202284453 
1.2099999999998832, -0.7096700623242211 
1.219999999999882, -0.7145277450597243 
1.229999999999881, -0.7202563631850767 
1.2399999999998799, -0.7270820654698722 
1.2499999999998788, -0.7352934599204828 
1.2599999999998777, -0.7451394966475919 
1.2699999999998766, -0.7565768185984725 
1.2799999999998755, -0.7688947801746545 
1.2899999999998744, -0.7806035683676089 
1.2999999999998733, -0.7900958800444042 
1.3099999999998722, -0.7966258048291359 
1.319999999999871, -0.8004752510509157 
1.32999999999987, -0.8023554914841602 
1.3399999999998689, -0.8028902322246989 
1.3499999999998678, -0.8024698350830338 
1.3599999999998666, -0.8013359092155538 
1.3699999999998655, -0.7998420862284412 
1.3799999999998644, -0.7991209611368195 
1.3899999999998633, -0.8028062051221067 
1.3999999999998622, -0.820765144163928 
1.4099999999998611, -0.8736985136866945 
1.41999999999986, -0.9860657542109932 
1.429999999999859, -1.1475500461115837 
1.4399999999998578, -1.300565584845264 
1.4499999999998567, -1.4096425314984486 
1.4599999999998556, -1.4796543667223128 
1.4699999999998545, -1.5238114745609415 
1.4799999999998534, -1.5511449075744772 
1.4899999999998523, -1.5671829979414134 
1.4999999999998512, -1.5758184923733025 
1.5099999999998501, -1.5799459474534039 
1.519999999999849, -1.581510784474628 
1.529999999999848, -1.581686140244483 
1.5399999999998468, -1.58122864738477 
1.5499999999998457, -1.5807238173500244 
1.5599999999998446, -1.5804565426338717 
1.5699999999998435, -1.5802743601549403 
1.5799999999998424, -1.5799791516114041 
1.5899999999998413, -1.5796980330881345 
1.5999999999998402, -1.5796283690218944 
1.6099999999998391, -1.5795848772593242 
1.619999999999838, -1.5790376718793748 
1.629999999999837, -1.5772966677862292 
1.6399999999998358, -1.573355688657632 
1.6499999999998347, -1.5655838094378987 
1.6599999999998336, -1.5515673538598505 
1.6699999999998325, -1.5281100594777457 
1.6799999999998314, -1.4908111358436615 
1.6899999999998303, -1.4325071799850018 
1.6999999999998292, -1.341682983659844 
1.709999999999828, -1.2088797672574878 
1.719999999999827, -1.054303386196084 
1.729999999999826, -0.933873113126179 
1.7399999999998248, -0.8729796361799274 
1.7499999999998237, -0.8519171484319308 
1.7599999999998226, -0.8475667138447449 
1.7699999999998215, -0.8481670481672507 
1.7799999999998204, -0.8494771395825997 
1.7899999999998193, -0.8502806555864577 
1.7999999999998182, -0.8502457119281882 
1.809999999999817, -0.8491202293761585 
1.819999999999816, -0.8464046700592549 
1.8299999999998149, -0.8411746497061964 
1.8399999999998138, -0.8321313239992429 
1.8499999999998127, -0.8182708098420161 
1.8599999999998116, -0.8001473365333525 
1.8699999999998105, -0.7802287810322468 
1.8799999999998094, -0.7613070614248002 
1.8899999999998083, -0.7448997509741939 
1.8999999999998072, -0.7312202305245804 
1.909999999999806, -0.7198798101954547 
1.919999999999805, -0.7103930161304678 
1.9299999999998039, -0.7023733398324619 
1.9399999999998028, -0.6955696695694511 
1.9499999999998017, -0.6898462228889113 
1.9599999999998006, -0.6851459068857013 
1.9699999999997995, -0.6814490602788085 
1.9799999999997984, -0.6787324197569808 
1.9899999999997973, -0.676935209440207 
1.9999999999997962, -0.6759422198577165 
2.0099999999998173, -0.6755903360335683 
2.0199999999998384, -0.6756946734973044 
2.0299999999998595, -0.6760818310336948 
2.0399999999998806, -0.6766185734499923 
2.0499999999999017, -0.6772313454401696 
2.059999999999923, -0.6779156013291179 
2.069999999999944, -0.6787312946735075 
2.079999999999965, -0.6797806326760665 
2.089999999999986, -0.6811711527866195 
2.100000000000007, -0.6829703793374555 
2.1100000000000283, -0.6851536961330742 
2.1200000000000494, -0.6875576441039727 
2.1300000000000705, -0.6898858169358427 
2.1400000000000916, -0.6918105820484326 
2.1500000000001127, -0.6931154385020493 
2.160000000000134, -0.6937575047735973 
2.170000000000155, -0.6938264005420667 
2.180000000000176, -0.6934878428105564 
2.190000000000197, -0.6929946511656193 
2.2000000000002182, -0.6928056315999209 
2.2100000000002393, -0.6938453725742515 
2.2200000000002604, -0.6979257810546879 
2.2300000000002815, -0.7082360461905071 
2.2400000000003026, -0.7294985130895517 
2.2500000000003237, -0.7669859812394376 
2.260000000000345, -0.8238128366967181 
2.270000000000366, -0.8978470245683058 
2.280000000000387, -0.9817184531465492 
2.290000000000408, -1.0666542374891543 
2.3000000000004293, -1.1457215825817775 
2.3100000000004504, -1.2137692048986661 
2.3200000000004715, -1.26662277869476 
2.3300000000004926, -1.302416581767766 
2.3400000000005137, -1.3232900948386024 
2.3500000000005348, -1.3339756498713624 
2.360000000000556, -1.3388653844474174 
2.370000000000577, -1.340737295436006 
2.380000000000598, -1.3410602219499044 
2.390000000000619, -1.3406863744018296 
2.4000000000006403, -1.3404204977655503 
2.4100000000006614, -1.3411498293415256 
2.4200000000006825, -1.343265025156792 
2.4300000000007036, -1.346231882541863 
2.4400000000007247, -1.3492224714688867 
2.450000000000746, -1.3518016597026432 
2.460000000000767, -1.3539032326025258 
2.470000000000788, -1.355548791530523 
2.480000000000809, -1.3567210794263167 
2.49000000000083, -1.3573896192424377 
2.5000000000008513, -1.3575517364799863 
2.5100000000008724, -1.3572308896017617 
2.5200000000008935, -1.3564484692846066 
2.5300000000009146, -1.355200272418203 
2.5400000000009357, -1.3534565925523068 
2.550000000000957, -1.3511802809411997 
2.560000000000978, -1.3483351865100623 
2.570000000000999, -1.344864065535098 
2.58000000000102, -1.3406848141155367 
2.5900000000010412, -1.3358471504016538 
2.6000000000010624, -1.3308959207118565 
2.6100000000010835, -1.3269836263939072 
2.6200000000011046, -1.3249981861471245 
2.6300000000011257, -1.3245622065571756 
2.6400000000011468, -1.324548026166868 
2.650000000001168, -1.3239970279798847 
2.660000000001189, -1.3220727471074292 
2.67000000000121, -1.3173806295164598 
2.680000000001231, -1.3069332334999602 
2.6900000000012523, -1.2848879580082824 
2.7000000000012734, -1.2426800073090924 
2.7100000000012945, -1.1739417439997666 
2.7200000000013156, -1.0819886482574503 
2.7300000000013367, -0.9792108612265429 
2.740000000001358, -0.8789212483054673 
2.750000000001379, -0.7905106021589863 
2.7600000000014, -0.7190483197444161 
2.770000000001421, -0.6658083549281935 
2.780000000001442, -0.6290915459204539 
2.7900000000014633, -0.6055400040778097 
2.8000000000014844, -0.5914510959864203 
2.8100000000015055, -0.583609087915505 
2.8200000000015266, -0.5795932721252935 
2.8300000000015477, -0.5777540872890886 
2.840000000001569, -0.5770479182123698 
2.85000000000159, -0.5768492413682145 
2.860000000001611, -0.5767960454900076 
2.870000000001632, -0.5766863231205385 
2.8800000000016532, -0.5764243626131944 
2.8900000000016743, -0.576003965637145 
2.9000000000016954, -0.575503542865214 
2.9100000000017165, -0.5750643823274613 
2.9200000000017377, -0.5748447636329758 
2.9300000000017588, -0.5749716829052355 
2.94000000000178, -0.5755091783420108 
2.950000000001801, -0.5764372888718745 
2.960000000001822, -0.5776349582705963 
2.970000000001843, -0.5788889185444527 
2.9800000000018643, -0.5799566382781296 
2.9900000000018854, -0.5806580262493781 
3.0000000000019065, -0.5809272456126069 
3.0100000000019276, -0.580802161967842 
3.0200000000019487, -0.580398751728894 
3.03000000000197, -0.5799303373733818 
3.040000000001991, -0.5798216978208697 
3.050000000002012, -0.58099583712312 
3.060000000002033, -0.5855008990255502 
3.070000000002054, -0.5978021052864357 
3.0800000000020753, -0.627169950699024 
3.0900000000020964, -0.6906652681245316 
3.1000000000021175, -0.8103560443735024 
3.1100000000021386, -0.9885473951057925 
3.1200000000021597, -1.180089939593788 
3.130000000002181, -1.3336272517776593 
3.140000000002202, -1.437754675983652 
3.150000000002223, -1.503013473599769 
3.160000000002244, -1.541313506328375 
3.1700000000022652, -1.5620229343314382 
3.1800000000022863, -1.5722403597524068 
3.1900000000023074, -1.5767740145261053 
3.2000000000023285, -1.578398616315891 
3.2100000000023496, -1.578567617809029 
3.2200000000023707, -1.5781462789976728 
3.230000000002392, -1.5778122650605 
3.240000000002413, -1.5778954147306261 
3.250000000002434, -1.5781774157522375 
3.260000000002455, -1.5783484674681305 
3.2700000000024763, -1.5784370132360672 
3.2800000000024974, -1.5785822523758504 
3.2900000000025185, -1.57862789445528 
3.3000000000025396, -1.5781306538669109 
3.3100000000025607, -1.5765159105036548 
3.3200000000025818, -1.573018273157422 
3.330000000002603, -1.5665660261163716 
3.340000000002624, -1.5557823173124619 
3.350000000002645, -1.5389464421380619 
3.360000000002666, -1.5134859574747292 
3.3700000000026873, -1.4746887427622493 
3.3800000000027084, -1.4141215543111825 
3.3900000000027295, -1.3222995640987854 
3.4000000000027506, -1.2086986897864267 
3.4100000000027717, -1.118927780907403 
3.420000000002793, -1.0804394770139787 
3.430000000002814, -1.0735568467957957 
3.440000000002835, -1.075771146421456 
3.450000000002856, -1.078451633410967 
3.460000000002877, -1.0798586171657258 
3.4700000000028983, -1.079854800864219 
3.4800000000029194, -1.0781482353101484 
3.4900000000029405, -1.0734797738742166 
3.5000000000029616, -1.0620862596444718 
3.5100000000029827, -1.0333090692121163 
3.520000000003004, -0.959392393010629 
3.530000000003025, -0.7948230243612208 
3.540000000003046, -0.5595197770218902 
3.550000000003067, -0.3751018878513681 
3.5600000000030882, -0.27676117197255806 
3.5700000000031094, -0.22864553656606232 
3.5800000000031305, -0.2039101528668775 
3.5900000000031516, -0.19018604972824932 
3.6000000000031727, -0.18203241763541886 
3.6100000000031938, -0.17692763087236413 
3.620000000003215, -0.17362480895428797 
3.630000000003236, -0.17148108294765577 
3.640000000003257, -0.17017298167986072 
3.650000000003278, -0.16957497288505963 
3.6600000000032993, -0.169719492278205 
3.6700000000033204, -0.17081651339323636 
3.6800000000033415, -0.17334861320213737 
3.6900000000033626, -0.1783103216698851 
3.7000000000033837, -0.18778545746713013 
3.710000000003405, -0.20641062171855368 
3.720000000003426, -0.2453353889620809 
3.730000000003447, -0.33308379504473584 
3.740000000003468, -0.537505540720716 
3.750000000003489, -0.9336899813868044 
3.7600000000035103, -1.3720149143098277 
3.7700000000035314, -1.6336600245717001 
3.7800000000035525, -1.7512347314347547 
3.7900000000035736, -1.800912846739386 
3.8000000000035947, -1.8214943932010825 
3.810000000003616, -1.8297474778903695 
3.820000000003637, -1.832735611259341 
3.830000000003658, -1.833385665222399 
3.840000000003679, -1.8330091037479366 
3.8500000000037002, -1.8323685732510882 
3.8600000000037213, -1.8317551178681093 
3.8700000000037424, -1.8309332365015138 
3.8800000000037635, -1.8298448158724085 
3.8900000000037847, -1.829039122938489 
3.9000000000038058, -1.8287907370453271 
3.910000000003827, -1.828404148741129 
3.920000000003848, -1.826699321379835 
3.930000000003869, -1.821430670672396 
3.94000000000389, -1.8055195882991932 
3.9500000000039113, -1.7523515463933002 
3.9600000000039324, -1.5596459630417194 
3.9700000000039535, -1.0116654768148812 
3.9800000000039746, -0.39910856238512854 
3.9900000000039957, -0.13325655955749632 
4.000000000004016, -0.040968812611757006 
4.010000000003993, -0.004582948791730002 
4.02000000000397, 0.011751265201781094 
4.030000000003946, 0.019891232782602113 
4.040000000003923, 0.024215456621248847 
4.0500000000039, 0.02651058750412314 
4.0600000000038765, 0.02757377472294593 
4.070000000003853, 0.02773826741454825 
4.08000000000383, 0.027052586930728408 
4.090000000003807, 0.02529004867066454 
4.100000000003783, 0.02178749944624113 
4.11000000000376, 0.014923439506351072 
4.120000000003737, 0.0005027148279415714 
4.130000000003713, -0.033528918129605526 
4.14000000000369, -0.13276168332463217 
4.150000000003667, -0.49242004452251475 
4.1600000000036434, -1.5158394679584348 
4.17000000000362, -2.1490667743751013 
4.180000000003597, -2.283011648907166 
4.1900000000035735, -2.3186438649425756 
4.20000000000355, -2.3310799194358687 
4.210000000003527, -2.335742989528427 
4.220000000003504, -2.337063832205396 
4.23000000000348, -2.3365835576648597 
4.240000000003457, -2.33476638523101 
4.250000000003434, -2.3311519958785736 
4.26000000000341, -2.3240182055037044 
4.270000000003387, -2.3138540140214667 
4.280000000003364, -2.310026466103322 
4.2900000000033405, -2.311860155313075 
4.300000000003317, -2.312387137629718 
4.310000000003294, -2.30993822145925 
4.320000000003271, -2.3022871296642107 
4.330000000003247, -2.3016061525086142 
4.340000000003224, -2.3376110536828825 
4.350000000003201, -2.3647680947328302 
4.360000000003177, -2.375422005014723 
4.370000000003154, -2.3796295096286753 
4.380000000003131, -2.381155714602175 
4.390000000003107, -2.380981136939464 
4.400000000003084, -2.379090678918035 
4.410000000003061, -2.374616939629287 
4.4200000000030375, -2.3646142313404312 
4.430000000003014, -2.3379813767159914 
4.440000000002991, -2.247952328072008 
4.450000000002968, -2.050436185737837 
4.460000000002944, -2.024417873151976 
4.470000000002921, -2.0528441673533058 
4.480000000002898, -2.061706732879402 
4.490000000002874, -2.063502796653311 
4.500000000002851, -2.062682815408105 
4.510000000002828, -2.061141834320382 
4.520000000002804, -2.0630264184797307 
4.530000000002781, -2.0694377867650835 
4.540000000002758, -2.075094438662711 
4.5500000000027345, -2.0782792907383913 
4.560000000002711, -2.079858329666249 
4.570000000002688, -2.080350613559008 
4.580000000002665, -2.079656147427289 
4.590000000002641, -2.07727038549386 
4.600000000002618, -2.072117802448188 
4.610000000002595, -2.0618364071230135 
4.620000000002571, -2.0403755113747635 
4.630000000002548, -1.9886709278352594 
4.640000000002525, -1.8396197816674742 
4.6500000000025015, -1.4863296641660864 
4.660000000002478, -1.2112521504919895 
4.670000000002455, -1.165551194187871 
4.6800000000024315, -1.176899415962462 
4.690000000002408, -1.1874608818911025 
4.700000000002385, -1.1927189571280175 
4.710000000002362, -1.1947031267512378 
4.720000000002338, -1.1945865763684573 
4.730000000002315, -1.1922851499141638 
4.740000000002292, -1.1859600596398612 
4.750000000002268, -1.1692808293605683 
4.760000000002245, -1.12050363461604 
4.770000000002222, -0.9556216248441853 
4.7800000000021985, -0.20916300060083232 
4.790000000002175, 1.3472277871242864 
4.800000000002152, 1.5157704399445315 
4.810000000002129, 1.5326215875013909 
4.820000000002105, 1.535643858359523 
4.830000000002082, 1.5350950433099324 
4.840000000002059, 1.5306020793526804 
4.850000000002035, 1.5111797938806553 
4.860000000002012, 1.4018044405371317 
4.870000000001989, 1.1902368506973986 
4.880000000001965, 1.2228462271581817 
4.890000000001942, 1.2481134569105057 
4.900000000001919, 1.2554763592545142 
4.9100000000018955, 1.2573787875006346 
4.920000000001872, 1.256987371178514 
4.930000000001849, 1.2548332160565248 
