t, s[1].omega / s[0].omega 
0, -1.3099973554170947 
0.009999999999999995, -1.3095296013766873 
0.019999999999999934, -1.308657891084041 
0.029999999999999874, -1.3073828630205313 
0.04000000000000012, -1.3057182691181537 
0.050000000000000405, -1.3036999159904163 
0.06000000000000069, -1.3013873466169488 
0.07000000000000098, -1.298871641734919 
0.08000000000000126, -1.2963218094868902 
0.09000000000000155, -1.2940479764962312 
0.10000000000000184, -1.2924312192039993 
0.11000000000000212, -1.2916430696379297 
0.12000000000000241, -1.2914594864229145 
0.130000000000002, -1.291438375327672 
0.1400000000000009, -1.2911705186239488 
0.1499999999999998, -1.2902997708063928 
0.1599999999999987, -1.2883710160927957 
0.1699999999999976, -1.284634143460786 
0.1799999999999965, -1.2778833648602543 
0.1899999999999954, -1.2664629745584461 
0.1999999999999943, -1.2485929289511557 
0.2099999999999932, -1.222939124704399 
0.2199999999999921, -1.1891218161445756 
0.229999999999991, -1.148169715739568 
0.2399999999999899, -1.1032764754967304 
0.2499999999999888, -1.060348046579346 
0.2599999999999877, -1.0263638397661976 
0.2699999999999866, -1.005241534325109 
0.2799999999999855, -0.9955103159421996 
0.2899999999999844, -0.9926627179174259 
0.2999999999999833, -0.9927051761370734 
0.3099999999999822, -0.9934427054495675 
0.3199999999999811, -0.9939995215313433 
0.32999999999998, -0.9940825233668864 
0.3399999999999789, -0.993528201753579 
0.3499999999999778, -0.9920612804035228 
0.35999999999997667, -0.9891049335137596 
0.36999999999997557, -0.9835531484228458 
0.37999999999997447, -0.9735687262291497 
0.38999999999997337, -0.9567926219055873 
0.39999999999997227, -0.931563683805322 
0.40999999999997117, -0.8987565577225268 
0.41999999999997006, -0.8620859385891799 
0.42999999999996896, -0.826030255862582 
0.43999999999996786, -0.7937480499349359 
0.44999999999996676, -0.7666766712621558 
0.45999999999996566, -0.7451035265421634 
0.46999999999996456, -0.7287286507141509 
0.47999999999996346, -0.7169575580725419 
0.48999999999996235, -0.7090269998806922 
0.49999999999996125, -0.7040888645871543 
0.5099999999999602, -0.7013035824662586 
0.519999999999959, -0.6999315115965149 
0.529999999999958, -0.6993909050994864 
0.5399999999999568, -0.6992679492020029 
0.5499999999999557, -0.6992898464447256 
0.5599999999999546, -0.6992838220400069 
0.5699999999999535, -0.6991418584424811 
0.5799999999999524, -0.6988020267315187 
0.5899999999999513, -0.6982474232804895 
0.5999999999999502, -0.6975124083787361 
0.6099999999999491, -0.6966777098340319 
0.619999999999948, -0.6958434520651517 
0.6299999999999469, -0.695090814832784 
0.6399999999999458, -0.6944543358887881 
0.6499999999999447, -0.693916888279111 
0.6599999999999436, -0.6934253686885363 
0.6699999999999425, -0.6929183531593455 
0.6799999999999414, -0.6923537484659654 
0.6899999999999403, -0.6917261185148759 
0.6999999999999392, -0.6910724872920031 
0.7099999999999381, -0.6904736597730954 
0.719999999999937, -0.6900572632721277 
0.7299999999999359, -0.6900017922560389 
0.7399999999999348, -0.6905353276375352 
0.7499999999999337, -0.6919227305492192 
0.7599999999999326, -0.6944416274882881 
0.7699999999999315, -0.6983566459778756 
0.7799999999999304, -0.70390575950858 
0.7899999999999293, -0.7113071354798064 
0.7999999999999282, -0.7207815129364346 
0.8099999999999271, -0.732568759604856 
0.819999999999926, -0.7468976566992447 
0.8299999999999249, -0.7638435368290437 
0.8399999999999238, -0.7830099183198074 
0.8499999999999227, -0.8031177787536347 
0.8599999999999216, -0.8219672217246018 
0.8699999999999205, -0.8373134463445568 
0.8799999999999194, -0.8481233453368636 
0.8899999999999183, -0.8548464914707393 
0.8999999999999172, -0.8586248625326156 
0.9099999999999161, -0.8605187357396916 
0.919999999999915, -0.8612350704891693 
0.9299999999999139, -0.8611600101641104 
0.9399999999999128, -0.8604612934597482 
0.9499999999999117, -0.8591861314004181 
0.9599999999999106, -0.8573946222200128 
0.9699999999999095, -0.8554830795958359 
0.9799999999999084, -0.8550686869553192 
0.9899999999999073, -0.8611525794642537 
0.9999999999999062, -0.8862608959129934 
1.0099999999999052, -0.9542984011464997 
1.019999999999904, -1.0895075020153309 
1.029999999999903, -1.271815367885987 
1.039999999999902, -1.4298406211057628 
1.0499999999999008, -1.527141683394736 
1.0599999999998997, -1.577410749330993 
1.0699999999998986, -1.6015393920626422 
1.0799999999998975, -1.6126754405227832 
1.0899999999998964, -1.6175935374559356 
1.0999999999998953, -1.619536257213048 
1.1099999999998942, -1.6200042139345583 
1.119999999999893, -1.6197249542081529 
1.129999999999892, -1.6191668339888483 
1.1399999999998909, -1.6187260327928672 
1.1499999999998898, -1.6185964802527937 
1.1599999999998887, -1.6186826351502426 
1.1699999999998876, -1.6188501087614662 
1.1799999999998865, -1.619078344239775 
1.1899999999998854, -1.6192974407791059 
1.1999999999998843, -1.6192836376351654 
1.2099999999998832, -1.618725133916962 
1.219999999999882, -1.6172155673335251 
1.229999999999881, -1.6141145980247658 
1.2399999999998799, -1.6083529159673902 
1.2499999999998788, -1.5981927965689633 
1.2599999999998777, -1.5808513314958166 
1.2699999999998766, -1.5519226009990548 
1.2799999999998755, -1.5055373301454467 
1.2899999999998744, -1.4400340497865303 
1.2999999999998733, -1.3729424259932617 
1.3099999999998722, -1.3344589899275696 
1.319999999999871, -1.3265138782408958 
1.32999999999987, -1.3298655718566246 
1.3399999999998689, -1.3336400844667797 
1.3499999999998678, -1.335755890344458 
1.3599999999998666, -1.3364836350838352 
1.3699999999998655, -1.3361157962818102 
1.3799999999998644, -1.3345140289354636 
1.3899999999998633, -1.3308834815295745 
1.3999999999998622, -1.3234123731392216 
1.4099999999998611, -1.309951227937099 
1.41999999999986, -1.297619951380772 
1.429999999999859, -1.337615126223422 
1.4399999999998578, -1.515115879078205 
1.4499999999998567, -1.7385407747281967 
1.4599999999998556, -1.8618666387250937 
1.4699999999998545, -1.912168525446163 
1.4799999999998534, -1.9325127911851154 
1.4899999999998523, -1.9409895484661015 
1.4999999999998512, -1.9444125723390602 
1.5099999999998501, -1.9454934039037752 
1.519999999999849, -1.9453777232413934 
1.529999999999848, -1.9446077623161362 
1.5399999999998468, -1.9434804755932322 
1.5499999999998457, -1.9420814957230423 
1.5599999999998446, -1.940473137960145 
1.5699999999998435, -1.9391635740889666 
1.5799999999998424, -1.9386934396492321 
1.5899999999998413, -1.9386582038862632 
1.5999999999998402, -1.9382018973766981 
1.6099999999998391, -1.9364109766863495 
1.619999999999838, -1.931060764410407 
1.629999999999837, -1.9138017002648666 
1.6399999999998358, -1.8506936824585831 
1.6499999999998347, -1.6654672298312092 
1.6599999999998336, -1.6788065853955392 
1.6699999999998325, -2.3966278790912408 
1.6799999999998314, -2.6417854761428243 
1.6899999999998303, -2.6802510077038324 
1.6999999999998292, -2.6886519123387655 
1.709999999999828, -2.690589359709804 
1.719999999999827, -2.690390168780932 
1.729999999999826, -2.6890062651580577 
1.7399999999998248, -2.6862491774715833 
1.7499999999998237, -2.68147700281944 
1.7599999999998226, -2.6776363088131463 
1.7699999999998215, -2.6780933257577777 
1.7799999999998204, -2.6787752058302274 
1.7899999999998193, -2.677944548671022 
1.7999999999998182, -2.675443492357827 
1.809999999999817, -2.674970095414507 
1.819999999999816, -2.6814138548347777 
1.8299999999998149, -2.6868326723729288 
1.8399999999998138, -2.689144247036001 
1.8499999999998127, -2.6897497732095337 
1.8599999999998116, -2.6889713602189795 
1.8699999999998105, -2.6858871754153117 
1.8799999999998094, -2.6763184401262152 
1.8899999999998083, -2.6393614080247287 
1.8999999999998072, -2.4470452967167917 
1.909999999999806, -2.070051506245047 
1.919999999999805, -2.1712230833596453 
1.9299999999998039, -2.2397080954608017 
1.9399999999998028, -2.2552864637497256 
1.9499999999998017, -2.258966586527497 
1.9599999999998006, -2.2595401430137128 
1.9699999999997995, -2.2590939533578647 
1.9799999999997984, -2.2586065684511145 
1.9899999999997973, -2.2585588936591385 
1.9999999999997962, -2.258595919031537 
2.0099999999998173, -2.2585307339101033 
2.0199999999998384, -2.258500557446059 
2.0299999999998595, -2.2581762967148813 
2.0399999999998806, -2.256729254545948 
2.0499999999999017, -2.2520415420455597 
2.059999999999923, -2.235290556458613 
2.069999999999944, -2.1578184279558443 
2.079999999999965, -1.7683971012548116 
2.089999999999986, -0.9518615972127351 
2.100000000000007, 0.021964983714809035 
2.1100000000000283, 0.6521127785562081 
2.1200000000000494, 0.7663805251741638 
2.1300000000000705, 0.7895369090015065 
2.1400000000000916, 0.796250776389374 
2.1500000000001127, 0.7985873987729717 
2.160000000000134, 0.7993979569437553 
2.170000000000155, 0.7996069273986851 
2.180000000000176, 0.7996310397099459 
2.190000000000197, 0.799748651105148 
2.2000000000002182, 0.8001994775974541 
2.2100000000002393, 0.8011597554853506 
2.2200000000002604, 0.8026388456044504 
2.2300000000002815, 0.8044063175699927 
2.2400000000003026, 0.8060820711591503 
2.2500000000003237, 0.8073355257127147 
2.260000000000345, 0.8079842368630887 
2.270000000000366, 0.8079113891948738 
2.280000000000387, 0.8068492140955703 
2.290000000000408, 0.8039117795082266 
2.3000000000004293, 0.7960113267529535 
2.3100000000004504, 0.7704681214125376 
2.3200000000004715, 0.6681079115823352 
2.3300000000004926, 0.3904014642265348 
2.3400000000005137, 0.2713840477471118 
2.3500000000005348, 0.3101167910376462 
2.360000000000556, 0.340305034513056 
2.370000000000577, 0.35420675822333 
2.380000000000598, 0.3605376911683179 
2.390000000000619, 0.36348867891316233 
2.4000000000006403, 0.36475073274299435 
2.4100000000006614, 0.3649858583276545 
2.4200000000006825, 0.3643717448771119 
2.4300000000007036, 0.3627328546243198 
2.4400000000007247, 0.35939229891061175 
2.450000000000746, 0.3525367072502623 
2.460000000000767, 0.337142905361094 
2.470000000000788, 0.29846753907319895 
2.480000000000809, 0.20387505650336898 
2.49000000000083, 0.14704203879524388 
2.5000000000008513, 0.6066108922326692 
2.5100000000008724, 0.8859927895931609 
2.5200000000008935, 0.935510191955165 
2.5300000000009146, 0.9467584035474479 
2.5400000000009357, 0.9500688432069104 
2.550000000000957, 0.9509451409590646 
2.560000000000978, 0.9507313243361954 
2.570000000000999, 0.9497995265996643 
2.58000000000102, 0.9482755986364519 
2.5900000000010412, 0.9463172091046943 
2.6000000000010624, 0.9442385492799612 
2.6100000000010835, 0.942433794895447 
2.6200000000011046, 0.9411480745558073 
2.6300000000011257, 0.9403511709593166 
2.6400000000011468, 0.9398170571574045 
2.650000000001168, 0.9392375375451927 
2.660000000001189, 0.9381988377211987 
2.67000000000121, 0.9358719575988255 
2.680000000001231, 0.9297327858477862 
2.6900000000012523, 0.9087835090470737 
2.7000000000012734, 0.8024478104576719 
2.7100000000012945, 0.3068655528042693 
2.7200000000013156, 0.6830871125433015 
2.7300000000013367, 1.201728515961512 
2.740000000001358, 1.2563633493110267 
2.750000000001379, 1.2656587227730776 
2.7600000000014, 1.2679305328452002 
2.770000000001421, 1.2682730722576163 
2.780000000001442, 1.2677154609410555 
2.7900000000014633, 1.266457817030759 
2.8000000000014844, 1.264565280606339 
2.8100000000015055, 1.2623261507557064 
2.8200000000015266, 1.2603389463377586 
2.8300000000015477, 1.259074757267443 
2.840000000001569, 1.258443178769102 
2.85000000000159, 1.2579633074331622 
2.860000000001611, 1.257013124943715 
2.870000000001632, 1.2544728047538976 
2.8800000000016532, 1.2465999196627546 
2.8900000000016743, 1.215714641116536 
2.9000000000016954, 1.1296456416063358 
2.9100000000017165, 1.3209524031392328 
2.9200000000017377, 1.4302404795209074 
2.9300000000017588, 1.4478048855103034 
2.94000000000178, 1.4515029554186 
2.950000000001801, 1.4518913378193126 
2.960000000001822, 1.4503650405924795 
2.970000000001843, 1.4457387117461125 
2.9800000000018643, 1.4341372525121698 
2.9900000000018854, 1.4146179647402335 
3.0000000000019065, 1.404966365761003 
3.0100000000019276, 1.4075189856803338 
3.0200000000019487, 1.4103598101578272 
3.03000000000197, 1.4113771791310308 
3.040000000001991, 1.4110352717729997 
3.050000000002012, 1.4095422972275693 
3.060000000002033, 1.407470208330837 
3.070000000002054, 1.4085569933912931 
3.0800000000020753, 1.4175789856421572 
3.0900000000020964, 1.4279765655275418 
3.1000000000021175, 1.4336788301298609 
3.1100000000021386, 1.4358456628073009 
3.1200000000021597, 1.4360444612009093 
3.130000000002181, 1.4343796365042991 
3.140000000002202, 1.427943325766214 
3.150000000002223, 1.39557313977761 
3.160000000002244, 1.156728315689228 
3.1700000000022652, 0.9997627656647357 
3.1800000000022863, 1.134013700230279 
3.1900000000023074, 1.163667374556451 
3.2000000000023285, 1.170708653587335 
3.2100000000023496, 1.1727120545618517 
3.2200000000023707, 1.1732017518909834 
3.230000000002392, 1.1732278393493352 
3.240000000002413, 1.1733279586176693 
3.250000000002434, 1.1738908970456927 
3.260000000002455, 1.1750471739265231 
3.2700000000024763, 1.1765234989035536 
3.2800000000024974, 1.1778465904631015 
3.2900000000025185, 1.1786907441037715 
3.3000000000025396, 1.1789338322805514 
3.3100000000025607, 1.1784428642466962 
3.3200000000025818, 1.1766577355550454 
3.330000000002603, 1.1711878697293465 
3.340000000002624, 1.1488669417355581 
3.350000000002645, 0.9880070823046321 
3.360000000002666, 0.16926048486977305 
3.3700000000026873, 0.28130756477367447 
3.3800000000027084, 0.5940412272895321 
3.3900000000027295, 0.6704514549682387 
3.4000000000027506, 0.6900187220260753 
3.4100000000027717, 0.6964357279813785 
3.420000000002793, 0.6988229216052022 
3.430000000002814, 0.6996474712255711 
3.440000000002835, 0.6997571145602092 
3.450000000002856, 0.6995474208413869 
3.460000000002877, 0.6993683927703385 
3.4700000000028983, 0.6998152371558953 
3.4800000000029194, 0.7019760189000224 
3.4900000000029405, 0.7070978693068051 
3.5000000000029616, 0.7149853966703994 
3.5100000000029827, 0.7231650941618472 
3.520000000003004, 0.7292785556623852 
3.530000000003025, 0.7328835642884102 
3.540000000003046, 0.7345633714902907 
3.550000000003067, 0.7348460337523579 
3.5600000000030882, 0.7338113158490964 
3.5700000000031094, 0.7308281855228238 
3.5800000000031305, 0.7238147158562891 
3.5900000000031516, 0.7075374594516206 
3.6000000000031727, 0.6742314029527939 
3.6100000000031938, 0.6322253631419323 
3.620000000003215, 0.6107392621781187 
3.630000000003236, 0.6087244929160307 
3.640000000003257, 0.611402960961523 
3.650000000003278, 0.613641748842342 
3.6600000000032993, 0.6148519574484526 
3.6700000000033204, 0.6151951306892393 
3.6800000000033415, 0.6147328037993789 
3.6900000000033626, 0.6132285058490198 
3.7000000000033837, 0.6098404060376136 
3.710000000003405, 0.6020977354331936 
3.720000000003426, 0.5823261937793272 
3.730000000003447, 0.5287645379860288 
3.740000000003468, 0.46749923475242083 
3.750000000003489, 0.7321017084225651 
3.7600000000035103, 0.9382088141894721 
3.7700000000035314, 0.980886407989251 
3.7800000000035525, 0.9910287232008017 
3.7900000000035736, 0.993975762333801 
3.8000000000035947, 0.9945912728757124 
3.810000000003616, 0.9940062081127786 
3.820000000003637, 0.992401924269784 
3.830000000003658, 0.9897065236044948 
3.840000000003679, 0.9860514393976698 
3.8500000000037002, 0.9821655604967315 
3.8600000000037213, 0.9791091903170095 
3.8700000000037424, 0.9773658168020048 
3.8800000000037635, 0.9765990977560473 
3.8900000000037847, 0.9762060490610477 
3.9000000000038058, 0.9756694592703857 
3.910000000003827, 0.9744484419291384 
3.920000000003848, 0.9714370644209177 
3.930000000003869, 0.9629999776423013 
3.94000000000389, 0.9328946056332805 
3.9500000000039113, 0.8070663584193987 
3.9600000000039324, 0.8309960923838007 
3.9700000000039535, 1.2178250387539769 
3.9800000000039746, 1.28352320820501 
3.9900000000039957, 1.2946806274234641 
4.000000000004016, 1.2972893546656263 
4.010000000003993, 1.2974959093699796 
4.02000000000397, 1.2962913969467091 
4.030000000003946, 1.293391807300396 
4.040000000003923, 1.288123611245167 
4.0500000000039, 1.2810957036257573 
4.0600000000038765, 1.2757273526042083 
4.070000000003853, 1.274068563617117 
4.08000000000383, 1.274294222323974 
4.090000000003807, 1.2745468991942643 
4.100000000003783, 1.2740549644237604 
4.11000000000376, 1.272128943232541 
4.120000000003737, 1.2669919208081262 
4.130000000003713, 1.255257846286196 
4.14000000000369, 1.2527800382173393 
4.150000000003667, 1.3041167022373954 
4.1600000000036434, 1.3405634406283675 
4.17000000000362, 1.3516964864911885 
4.180000000003597, 1.3547857608224605 
4.1900000000035735, 1.355076846631639 
4.20000000000355, 1.35330309926056 
4.210000000003527, 1.3472677318975943 
4.220000000003504, 1.3267410935214357 
4.23000000000348, 1.2692426822043765 
4.240000000003457, 1.2348754053465323 
4.250000000003434, 1.249149800052078 
4.26000000000341, 1.258138151767989 
4.270000000003387, 1.2612848886270935 
4.280000000003364, 1.262056159962771 
4.2900000000033405, 1.2617321032274194 
4.300000000003317, 1.2609355618083904 
4.310000000003294, 1.260720501723743 
4.320000000003271, 1.2630698670308391 
4.330000000003247, 1.2685671710399073 
4.340000000003224, 1.274310305569377 
4.350000000003201, 1.2779872313387635 
4.360000000003177, 1.2796456412392918 
4.370000000003154, 1.2798483255825985 
4.380000000003131, 1.278553335804797 
4.390000000003107, 1.2739393419453355 
4.400000000003084, 1.2551953774200686 
4.410000000003061, 1.1333119698453216 
4.4200000000030375, 0.6997107269833256 
4.430000000003014, 0.8226240803035758 
4.440000000002991, 0.9119659789604541 
4.450000000002968, 0.933148598228114 
4.460000000002944, 0.9392721731869289 
4.470000000002921, 0.941275032773742 
4.480000000002898, 0.9418199715916362 
4.490000000002874, 0.94179065959814 
4.500000000002851, 0.9416814660264509 
4.510000000002828, 0.9420389885313087 
4.520000000002804, 0.9435479239737153 
4.530000000002781, 0.9465947392388608 
4.540000000002758, 0.9505834960151296 
4.5500000000027345, 0.9542496304586414 
4.560000000002711, 0.9567750719557377 
4.570000000002688, 0.9580644319303643 
4.580000000002665, 0.9582537869966872 
4.590000000002641, 0.9572215808324633 
4.600000000002618, 0.9539572997679091 
4.610000000002595, 0.9442384029443701 
4.620000000002571, 0.908156786573057 
4.630000000002548, 0.756328205420271 
4.640000000002525, 0.5367224128984811 
4.6500000000025015, 0.5596019429270435 
4.660000000002478, 0.6016495015156185 
4.670000000002455, 0.6187605789113815 
4.6800000000024315, 0.6254851238190671 
4.690000000002408, 0.6282222871860277 
4.700000000002385, 0.629169020217443 
4.710000000002362, 0.6290786273576024 
4.720000000002338, 0.6281257997682076 
4.730000000002315, 0.6261544598023764 
4.740000000002292, 0.6228257436637549 
4.750000000002268, 0.6185674535849067 
4.760000000002245, 0.6196684066821163 
4.770000000002222, 0.6456589461088439 
4.7800000000021985, 0.6949946039934046 
4.790000000002175, 0.7300574034428563 
4.800000000002152, 0.7455686900366922 
4.810000000002129, 0.7516999846627839 
4.820000000002105, 0.7539624785244551 
4.830000000002082, 0.7543659058883057 
4.840000000002059, 0.7534715555236537 
4.850000000002035, 0.7511545978411706 
4.860000000002012, 0.7468882778160191 
4.870000000001989, 0.7402227166440171 
4.880000000001965, 0.7318941255981449 
4.890000000001942, 0.7243348505613574 
4.900000000001919, 0.7195788139335139 
4.9100000000018955, 0.7174564509195768 
4.920000000001872, 0.7167460372238729 
4.930000000001849, 0.716496195542633 
4.940000000001826, 0.7161887197277 
4.950000000001802, 0.7154786520390262 
4.960000000001779, 0.7138936888708598 
4.970000000001756, 0.7103115747275027 
4.980000000001732, 0.7012270659290281 
4.990000000001709, 0.6725836620453316 
5.000000000001686, 0.5535423692026116 
