t, s[1].omega / s[0].omega 
0, -0.5599977534070847 
0.009999999999999995, -0.5599177386801139 
0.019999999999999934, -0.5600882718331681 
0.029999999999999874, -0.5604099446946262 
0.04000000000000012, -0.5607464082939146 
0.050000000000000405, -0.560968257548437 
0.06000000000000069, -0.5609932859537317 
0.07000000000000098, -0.5608014683503403 
0.08000000000000126, -0.5604286775757268 
0.09000000000000155, -0.5599630117147548 
0.10000000000000184, -0.5595677092736702 
0.11000000000000212, -0.5595525357860293 
0.12000000000000241, -0.560527998246473 
0.130000000000002, -0.5637108624771514 
0.1400000000000009, -0.5715129182609854 
0.1499999999999998, -0.5886378556665306 
0.1599999999999987, -0.6239182243560483 
0.1699999999999976, -0.6922959711293137 
0.1799999999999965, -0.8121481652045853 
0.1899999999999954, -0.9862361971781445 
0.1999999999999943, -1.176069721102706 
0.2099999999999932, -1.3276841296427133 
0.2199999999999921, -1.422697558045364 
0.229999999999991, -1.473667047022976 
0.2399999999999899, -1.498475272911266 
0.2499999999999888, -1.5098046767120796 
0.2599999999999877, -1.5146851789383469 
0.2699999999999866, -1.5165271048545226 
0.2799999999999855, -1.516887898885118 
0.2899999999999844, -1.5165444445070004 
0.2999999999999833, -1.5160820072623387 
0.3099999999999822, -1.5160526364762543 
0.3199999999999811, -1.5166715185379813 
0.32999999999998, -1.5176572296165198 
0.3399999999999789, -1.5186481099268643 
0.3499999999999778, -1.5195064171747121 
0.35999999999997667, -1.520184010134809 
0.36999999999997557, -1.5205534760464356 
0.37999999999997447, -1.5204182077127781 
0.38999999999997337, -1.519564117675233 
0.39999999999997227, -1.517766623302873 
0.40999999999997117, -1.5147858111992551 
0.41999999999997006, -1.510353816896921 
0.42999999999996896, -1.5041182993785596 
0.43999999999996786, -1.495525607383454 
0.44999999999996676, -1.4836865031117177 
0.45999999999996566, -1.4674609191154322 
0.46999999999996456, -1.4465773920465719 
0.47999999999996346, -1.4246540053772467 
0.48999999999996235, -1.4097232231837746 
0.49999999999996125, -1.405160157322276 
0.5099999999999602, -1.405991290571429 
0.519999999999959, -1.4074758660002893 
0.529999999999958, -1.4080951569203781 
0.5399999999999568, -1.407538313855278 
0.5499999999999557, -1.405239616608132 
0.5599999999999546, -1.399240921932946 
0.5699999999999535, -1.383329854847675 
0.5799999999999524, -1.337723861319429 
0.5899999999999513, -1.2059544096084513 
0.5999999999999502, -0.8691054414639885 
0.6099999999999491, 0.36931279717942467 
0.619999999999948, 1.4465548333535265 
0.6299999999999469, 1.5166334306280835 
0.6399999999999458, 1.5256392331267636 
0.6499999999999447, 1.527274489981852 
0.6599999999999436, 1.526583511882217 
0.6699999999999425, 1.5235002099728434 
0.6799999999999414, 1.5154706216838414 
0.6899999999999403, 1.4994150306241836 
0.6999999999999392, 1.4855708451856604 
0.7099999999999381, 1.4850083278104276 
0.719999999999937, 1.4877424643069868 
0.7299999999999359, 1.488983247731582 
0.7399999999999348, 1.4886043255974575 
0.7499999999999337, 1.4864002217159518 
0.7599999999999326, 1.4818535318976864 
0.7699999999999315, 1.4805419756311697 
0.7799999999999304, 1.498861742354771 
0.7899999999999293, 1.5196712136493893 
0.7999999999999282, 1.5285969187930595 
0.8099999999999271, 1.531387190795726 
0.819999999999926, 1.5315303349538587 
0.8299999999999249, 1.5291992092372397 
0.8399999999999238, 1.5189328108125564 
0.8499999999999227, 1.442867494284256 
0.8599999999999216, 0.5404150279706759 
0.8699999999999205, 0.13417629335577305 
0.8799999999999194, 0.3494395565413301 
0.8899999999999183, 0.43106081327196943 
0.8999999999999172, 0.4571779661988267 
0.9099999999999161, 0.46689249152809315 
0.919999999999915, 0.4709153835909656 
0.9299999999999139, 0.4725054108875895 
0.9399999999999128, 0.4727519155621427 
0.9499999999999117, 0.4719228397949645 
0.9599999999999106, 0.4697544877415506 
0.9699999999999095, 0.46522902735323957 
0.9799999999999084, 0.4556037570521876 
0.9899999999999073, 0.43400074982657777 
0.9999999999999062, 0.3932817188138602 
1.0099999999999052, 0.4416289076063638 
1.019999999999904, 0.790026622531516 
1.029999999999903, 0.9492274901321615 
1.039999999999902, 0.981777876970194 
1.0499999999999008, 0.9900008320011653 
1.0599999999998997, 0.992319742832737 
1.0699999999998986, 0.9924132089985959 
1.0799999999998975, 0.9909215330609991 
1.0899999999998964, 0.987368506718561 
1.0999999999998953, 0.9806385703749726 
1.1099999999998942, 0.9703313123168013 
1.119999999999893, 0.9595612715385045 
1.129999999999892, 0.9531212530795494 
1.1399999999998909, 0.9512484344172554 
1.1499999999998898, 0.9513045344469973 
1.1599999999998887, 0.9515597996629376 
1.1699999999998876, 0.9513122211280578 
1.1799999999998865, 0.9500340871992723 
1.1899999999998854, 0.9464759609280678 
1.1999999999998843, 0.9361875219984004 
1.2099999999998832, 0.8987789185326431 
1.219999999999882, 0.7475264975012098 
1.229999999999881, 0.9537860852315907 
1.2399999999998799, 1.441163468316159 
1.2499999999998788, 1.4935924660482693 
1.2599999999998777, 1.5016321902785992 
1.2699999999998766, 1.5030777248923077 
1.2799999999998755, 1.5020928893453747 
1.2899999999998744, 1.4979373530881495 
1.2999999999998733, 1.485170406379474 
1.3099999999998722, 1.4532440176807224 
1.319999999999871, 1.4274739611416722 
1.32999999999987, 1.431672121743818 
1.3399999999998689, 1.4373302729376638 
1.3499999999998678, 1.4394388396472646 
1.3599999999998666, 1.4395013077717007 
1.3699999999998655, 1.4381137827015893 
1.3799999999998644, 1.4356856597423338 
1.3899999999998633, 1.435682467842435 
1.3999999999998622, 1.4452245567437552 
1.4099999999998611, 1.4584322255519604 
1.41999999999986, 1.4660117864724396 
1.429999999999859, 1.4689512765423602 
1.4399999999998578, 1.469471777839068 
1.4499999999998567, 1.468015452848383 
1.4599999999998556, 1.46182612155139 
1.4699999999998545, 1.427055932068321 
1.4799999999998534, 0.9377587800684595 
1.4899999999998523, -0.9020932857549104 
1.4999999999998512, -1.578108156182578 
1.5099999999998501, -1.7618156235067661 
1.519999999999849, -1.8038331219761445 
1.529999999999848, -1.814742835099612 
1.5399999999998468, -1.817786930795359 
1.5499999999998457, -1.8182617173142095 
1.5599999999998446, -1.817706872673611 
1.5699999999998435, -1.8171749801370491 
1.5799999999998424, -1.8179028009714127 
1.5899999999998413, -1.8199715929256661 
1.5999999999998402, -1.822165821894065 
1.6099999999998391, -1.8237804041141419 
1.619999999999838, -1.8248124139389952 
1.629999999999837, -1.825283927885009 
1.6399999999998358, -1.8250323342372474 
1.6499999999998347, -1.8237488467250604 
1.6599999999998336, -1.8209227298991402 
1.6699999999998325, -1.8156752274257155 
1.6799999999998314, -1.8064076115143082 
1.6899999999998303, -1.789914519613498 
1.6999999999998292, -1.7593509731257537 
1.709999999999828, -1.7023481204832667 
1.719999999999827, -1.6165891651206814 
1.729999999999826, -1.5526470223387323 
1.7399999999998248, -1.543154259515195 
1.7499999999998237, -1.5509680486151047 
1.7599999999998226, -1.5564075850349002 
1.7699999999998215, -1.5586170981248284 
1.7799999999998204, -1.558875943338359 
1.7899999999998193, -1.557599703488516 
1.7999999999998182, -1.5544432287873478 
1.809999999999817, -1.5495238592534517 
1.819999999999816, -1.5494929268876836 
1.8299999999998149, -1.5726849446092876 
1.8399999999998138, -1.6181399673985837 
1.8499999999998127, -1.65874103244299 
1.8599999999998116, -1.6848002134101652 
1.8699999999998105, -1.700353745332897 
1.8799999999998094, -1.7097329265546546 
1.8899999999998083, -1.715395705544325 
1.8999999999998072, -1.7186425167313157 
1.909999999999806, -1.7202182492350286 
1.919999999999805, -1.7205971481758404 
1.9299999999998039, -1.7201011269206248 
1.9399999999998028, -1.71895882593697 
1.9499999999998017, -1.7173134225714264 
1.9599999999998006, -1.7151783866656327 
1.9699999999997995, -1.712577492521072 
1.9799999999997984, -1.7100291302728414 
1.9899999999997973, -1.7085188621489416 
1.9999999999997962, -1.70822702491337 
2.0099999999998173, -1.7082302703067025 
2.0199999999998384, -1.7075705712781084 
2.0299999999998595, -1.705208188367282 
2.0399999999998806, -1.698426393271386 
2.0499999999999017, -1.6773320317524334 
2.059999999999923, -1.5994147265844378 
2.069999999999944, -1.2713940875892251 
2.079999999999965, -0.31614639866343036 
2.089999999999986, 0.35313523790777585 
2.100000000000007, 0.4943475233174651 
2.1100000000000283, 0.5268809400289075 
2.1200000000000494, 0.537111375946971 
2.1300000000000705, 0.5409729804292482 
2.1400000000000916, 0.5424848596721408 
2.1500000000001127, 0.5429613883371205 
2.160000000000134, 0.5429452206949439 
2.170000000000155, 0.542731169128935 
2.180000000000176, 0.5425360700036088 
2.190000000000197, 0.5425574776623854 
2.2000000000002182, 0.542985412391473 
2.2100000000002393, 0.5439763505936848 
2.2200000000002604, 0.5455834130227591 
2.2300000000002815, 0.5476698840657082 
2.2400000000003026, 0.5498976506285883 
2.2500000000003237, 0.5518559598347909 
2.260000000000345, 0.5532325239728006 
2.270000000000366, 0.5538602824257897 
2.280000000000387, 0.5536055005761109 
2.290000000000408, 0.552139710507477 
2.3000000000004293, 0.5484857612856603 
2.3100000000004504, 0.5397216544725858 
2.3200000000004715, 0.516526859522995 
2.3300000000004926, 0.44995026879957123 
2.3400000000005137, 0.29928019133697126 
2.3500000000005348, 0.15564104072658672 
2.360000000000556, 0.10916407475758774 
2.370000000000577, 0.10368203613864306 
2.380000000000598, 0.10537653213375364 
2.390000000000619, 0.10718478320258537 
2.4000000000006403, 0.10827908654842851 
2.4100000000006614, 0.10878171915042585 
2.4200000000006825, 0.10885052831054065 
2.4300000000007036, 0.10855917024815018 
2.4400000000007247, 0.10788998597524875 
2.450000000000746, 0.10671938518229693 
2.460000000000767, 0.1047618397372833 
2.470000000000788, 0.10142158746371918 
2.480000000000809, 0.09540602584121208 
2.49000000000083, 0.0836349722481965 
2.5000000000008513, 0.05780943394712608 
2.5100000000008724, -0.007335676595918656 
2.5200000000008935, -0.18816756841788576 
2.5300000000009146, -0.5910281639430147 
2.5400000000009357, -1.0029744583652564 
2.550000000000957, -1.1957811730406418 
2.560000000000978, -1.2629158384510943 
2.570000000000999, -1.2862032731642659 
2.58000000000102, -1.2947738052980098 
2.5900000000010412, -1.2979484903229097 
2.6000000000010624, -1.298825640779005 
2.6100000000010835, -1.298474611514878 
2.6200000000011046, -1.2973338043934117 
2.6300000000011257, -1.2960408813600404 
2.6400000000011468, -1.296453147172169 
2.650000000001168, -1.3018512381804932 
2.660000000001189, -1.3138769670066899 
2.67000000000121, -1.3296709424849167 
2.680000000001231, -1.3450079824662193 
2.6900000000012523, -1.357829560267373 
2.7000000000012734, -1.367967988869972 
2.7100000000012945, -1.3758655950108991 
2.7200000000013156, -1.3819479312451481 
2.7300000000013367, -1.3864912575493176 
2.740000000001358, -1.3896680528195942 
2.750000000001379, -1.3916298301184618 
2.7600000000014, -1.3925605987359357 
2.770000000001421, -1.3926777011481428 
2.780000000001442, -1.392211742015334 
2.7900000000014633, -1.3914018398643004 
2.8000000000014844, -1.3904808352351747 
2.8100000000015055, -1.38960785448263 
2.8200000000015266, -1.3888273440507046 
2.8300000000015477, -1.3881652501653057 
2.840000000001569, -1.387728721796798 
2.85000000000159, -1.3876014255478943 
2.860000000001611, -1.3876618430827912 
2.870000000001632, -1.3876037727110222 
2.8800000000016532, -1.3870726273924183 
2.8900000000016743, -1.3856886708072422 
2.9000000000016954, -1.3829791150581634 
2.9100000000017165, -1.3783514966431227 
2.9200000000017377, -1.371165018787839 
2.9300000000017588, -1.3608248428446923 
2.94000000000178, -1.346754972160387 
2.950000000001801, -1.3282393816129305 
2.960000000001822, -1.3043870719360091 
2.970000000001843, -1.274777666923127 
2.9800000000018643, -1.2414663836829007 
2.9900000000018854, -1.2111191316012602 
3.0000000000019065, -1.1917224441145853 
3.0100000000019276, -1.1844543802035203 
3.0200000000019487, -1.1839081941896101 
3.03000000000197, -1.1851489359959466 
3.040000000001991, -1.186114040066651 
3.050000000002012, -1.1862688189759365 
3.060000000002033, -1.1853600902146628 
3.070000000002054, -1.1827493738110804 
3.0800000000020753, -1.1766302474399501 
3.0900000000020964, -1.162050353199383 
3.1000000000021175, -1.1253705630066455 
3.1100000000021386, -1.0318466688901295 
3.1200000000021597, -0.8251083624056896 
3.130000000002181, -0.5307881173567124 
3.140000000002202, -0.3067403982203182 
3.150000000002223, -0.19463409236927878 
3.160000000002244, -0.14359046252861984 
3.1700000000022652, -0.11898969173057047 
3.1800000000022863, -0.10607186820161893 
3.1900000000023074, -0.09875164130388382 
3.2000000000023285, -0.09435875820166136 
3.2100000000023496, -0.09163549179751233 
3.2200000000023707, -0.08996250003808887 
3.230000000002392, -0.08904429027155816 
3.240000000002413, -0.08878197985025763 
3.250000000002434, -0.08923903200845397 
3.260000000002455, -0.09067954164370615 
3.2700000000024763, -0.0937127742219687 
3.2800000000024974, -0.0996739109617299 
3.2900000000025185, -0.11164625826713304 
3.3000000000025396, -0.13747147345957197 
3.3100000000025607, -0.19961111822171076 
3.3200000000025818, -0.368446046885323 
3.330000000002603, -0.823640748420873 
3.340000000002624, -1.5282790046029526 
3.350000000002645, -1.903029361921859 
3.360000000002666, -2.0152837622822215 
3.3700000000026873, -2.04985982474344 
3.3800000000027084, -2.0617049942351233 
3.3900000000027295, -2.065839908583431 
3.4000000000027506, -2.0669603510113186 
3.4100000000027717, -2.066725499769825 
3.420000000002793, -2.0658454978107397 
3.430000000002814, -2.064613818537708 
3.440000000002835, -2.0629493881219694 
3.450000000002856, -2.061032893604013 
3.460000000002877, -2.0598637791127152 
3.4700000000028983, -2.0597214941193047 
3.4800000000029194, -2.0594852442101472 
3.4900000000029405, -2.0578819609908114 
3.5000000000029616, -2.0522608603155366 
3.5100000000029827, -2.0310803096678414 
3.520000000003004, -1.938006914134678 
3.530000000003025, -1.7564904698981554 
3.540000000003046, -2.573521776838719 
3.550000000003067, -2.958006976421451 
3.5600000000030882, -2.999841435112089 
3.5700000000031094, -3.007898973960316 
3.5800000000031305, -3.0095317282172434 
3.5900000000031516, -3.0087633753333605 
3.6000000000031727, -3.005713234907413 
3.6100000000031938, -2.996927155142589 
3.620000000003215, -2.974121696112654 
3.630000000003236, -2.9659182306246104 
3.640000000003257, -2.9729685462014768 
3.650000000003278, -2.9746314651266244 
3.6600000000032993, -2.973900404604895 
3.6700000000033204, -2.9733814483743695 
3.6800000000033415, -2.974677785272413 
3.6900000000033626, -2.975529632165682 
3.7000000000033837, -2.9756430062739043 
3.710000000003405, -2.975121986307065 
3.720000000003426, -2.9722195828985227 
3.730000000003447, -2.956361384038015 
3.740000000003468, -2.7929308711327647 
3.750000000003489, -2.511685394491329 
3.7600000000035103, -3.682118507537573 
3.7700000000035314, -3.736304925885934 
3.7800000000035525, -3.7417731945568193 
3.7900000000035736, -3.7416917812774018 
3.8000000000035947, -3.738347829301625 
3.810000000003616, -3.722059135450406 
3.820000000003637, -3.657574426989009 
3.830000000003658, -3.679233812182267 
3.840000000003679, -3.686407637671695 
3.8500000000037002, -3.686518106335265 
3.8600000000037213, -3.6857923118740197 
3.8700000000037424, -3.684895613252391 
3.8800000000037635, -3.6836202450572886 
3.8900000000037847, -3.6833502864305436 
3.9000000000038058, -3.6814667890215325 
3.910000000003827, -3.6735207683077205 
3.920000000003848, -3.6831599468411595 
3.930000000003869, -3.6961660897288047 
3.94000000000389, -3.698769633482621 
3.9500000000039113, -3.698369418217085 
3.9600000000039324, -3.6939870148131972 
3.9700000000039535, -3.6604287168391636 
3.9800000000039746, -2.4603382225569237 
3.9900000000039957, 1.5465691858966795 
4.000000000004016, 1.7278735898893376 
4.010000000003993, 1.7407371818331074 
4.02000000000397, 1.742860466101455 
4.030000000003946, 1.7427725167503076 
4.040000000003923, 1.7413989008486077 
4.0500000000039, 1.7383840093800678 
4.0600000000038765, 1.7337082688822665 
4.070000000003853, 1.7297521639804256 
4.08000000000383, 1.7287295019519777 
4.090000000003807, 1.7289900828705995 
4.100000000003783, 1.7286208687766877 
4.11000000000376, 1.726263197840937 
4.120000000003737, 1.7185522309396144 
4.130000000003713, 1.7056458155704113 
4.14000000000369, 1.7415444781863598 
4.150000000003667, 1.7786105948563118 
4.1600000000036434, 1.7884969398232644 
4.17000000000362, 1.7906150570331392 
4.180000000003597, 1.7898848885881435 
4.1900000000035735, 1.7847678441467167 
4.20000000000355, 1.7510389030588498 
4.210000000003527, 1.2098119777774987 
4.220000000003504, 0.8449354580824988 
4.23000000000348, 1.0973408687157522 
4.240000000003457, 1.1376332847713306 
4.250000000003434, 1.1463162292957665 
4.26000000000341, 1.1486914338100558 
4.270000000003387, 1.1492102983886954 
4.280000000003364, 1.149124835983247 
4.2900000000033405, 1.1491363364234544 
4.300000000003317, 1.1499498260395202 
4.310000000003294, 1.1520333889110215 
4.320000000003271, 1.1549988865491776 
4.330000000003247, 1.1578008498667791 
4.340000000003224, 1.1597104008735972 
4.350000000003201, 1.160594194598622 
4.360000000003177, 1.1604821683073643 
4.370000000003154, 1.1590210127913148 
4.380000000003131, 1.1542555588029781 
4.390000000003107, 1.1353247839625336 
4.400000000003084, 0.9933444686153521 
4.410000000003061, -0.6706904186463779 
4.4200000000030375, -2.285023187712643 
4.430000000003014, -2.4697788411286754 
4.440000000002991, -2.494312641451878 
4.450000000002968, -2.4991851873834663 
4.460000000002944, -2.499904978160938 
4.470000000002921, -2.499367282782115 
4.480000000002898, -2.4984646742244463 
4.490000000002874, -2.4971601024723755 
4.500000000002851, -2.4954496597647546 
4.510000000002828, -2.494599467427902 
4.520000000002804, -2.49455532173645 
4.530000000002781, -2.49359762702766 
4.540000000002758, -2.489176406562767 
4.5500000000027345, -2.4715435214962533 
4.560000000002711, -2.4466320271157675 
4.570000000002688, -2.5590244763820373 
4.580000000002665, -2.62978629656244 
4.590000000002641, -2.648691393853875 
4.600000000002618, -2.654539639078137 
4.610000000002595, -2.656280397504895 
4.620000000002571, -2.6559912008084074 
4.630000000002548, -2.6538714660385745 
4.640000000002525, -2.6485584132627538 
4.6500000000025015, -2.6343169644891193 
4.660000000002478, -2.5978539214421223 
4.670000000002455, -2.5742367407039137 
4.6800000000024315, -2.5848424281860423 
4.690000000002408, -2.58956179441559 
4.700000000002385, -2.5901048493434202 
4.710000000002362, -2.5891589918102986 
4.720000000002338, -2.5889503431591585 
4.730000000002315, -2.5907354142204855 
4.740000000002292, -2.5922688350906475 
4.750000000002268, -2.592876680221408 
4.760000000002245, -2.5928643873774746 
4.770000000002222, -2.5916789205452244 
4.7800000000021985, -2.587061291783214 
4.790000000002175, -2.5677324496506087 
4.800000000002152, -2.4406567354303936 
4.810000000002129, -1.1638739675606216 
4.820000000002105, 0.7058064464881 
4.830000000002082, 0.9166115946379749 
4.840000000002059, 0.9449573566316886 
4.850000000002035, 0.9518140436826735 
4.860000000002012, 0.9538741034128216 
4.870000000001989, 0.9543371493023484 
4.880000000001965, 0.9540849493647017 
4.890000000001942, 0.9534398756312523 
4.900000000001919, 0.9525822286627147 
4.9100000000018955, 0.9516743814942827 
4.920000000001872, 0.9508731249402246 
4.930000000001849, 0.9502821503288408 
4.940000000001826, 0.9499038931469709 
4.950000000001802, 0.9496359235648526 
4.960000000001779, 0.9492935714232447 
4.970000000001756, 0.9485889196484178 
4.980000000001732, 0.9469430674880289 
