t, s[1].omega / s[0].omega 
0, -0.7973350730085713 
0.009999999999999995, -0.5767205485716385 
0.019999999999999934, -0.445635953472075 
0.029999999999999874, -0.37366198749416596 
0.04000000000000012, -0.3336530757761195 
0.050000000000000405, -0.3105291659784237 
0.06000000000000069, -0.2966304106703714 
0.07000000000000098, -0.2880262699107428 
0.08000000000000126, -0.28262439986451554 
0.09000000000000155, -0.27926808641524636 
0.10000000000000184, -0.2773011785899609 
0.11000000000000212, -0.2763526750410402 
0.12000000000000241, -0.2762290234008091 
0.130000000000002, -0.27686390154884366 
0.1400000000000009, -0.27830418906606813 
0.1499999999999998, -0.28072666843326777 
0.1599999999999987, -0.2844928869386762 
0.1699999999999976, -0.29026828480295236 
0.1799999999999965, -0.2992702484552488 
0.1899999999999954, -0.3137961928405001 
0.1999999999999943, -0.33835921307820555 
0.2099999999999932, -0.38193385517043493 
0.2199999999999921, -0.46051502890117246 
0.229999999999991, -0.5894653155199914 
0.2399999999999899, -0.7454787563443978 
0.2499999999999888, -0.8639570801496577 
0.2599999999999877, -0.9249241079516042 
0.2699999999999866, -0.9511780612746226 
0.2799999999999855, -0.9620792483371015 
0.2899999999999844, -0.966514182080173 
0.2999999999999833, -0.9679633670736358 
0.3099999999999822, -0.9676611714427039 
0.3199999999999811, -0.9658270860150339 
0.32999999999998, -0.9620999008759211 
0.3399999999999789, -0.9560585517603064 
0.3499999999999778, -0.9501237154642593 
0.35999999999997667, -0.9641211355755199 
0.36999999999997557, -1.0850648545807609 
0.37999999999997447, -1.4520938037324915 
0.38999999999997337, -1.8027298111087713 
0.39999999999997227, -1.9419683962154786 
0.40999999999997117, -1.9924882066047658 
0.41999999999997006, -2.0139887419816436 
0.42999999999996896, -2.0241207226280236 
0.43999999999996786, -2.0288662818237713 
0.44999999999996676, -2.0307067819711326 
0.45999999999996566, -2.030826957595889 
0.46999999999996456, -2.029823306598962 
0.47999999999996346, -2.0279125689562334 
0.48999999999996235, -2.0247853301654803 
0.49999999999996125, -2.0198778425288277 
0.5099999999999602, -2.01445296884212 
0.519999999999959, -2.012187633328355 
0.529999999999958, -2.0126348124454494 
0.5399999999999568, -2.0126064248797886 
0.5499999999999557, -2.0101209895209267 
0.5599999999999546, -2.0002619828518515 
0.5699999999999535, -1.960576265936109 
0.5799999999999524, -1.8887576200700704 
0.5899999999999513, -2.3451179221321476 
0.5999999999999502, -2.626940775510312 
0.6099999999999491, -2.6742318525251174 
0.619999999999948, -2.6861184762539922 
0.6299999999999469, -2.6899134642392655 
0.6399999999999458, -2.690625775779867 
0.6499999999999447, -2.689324062494523 
0.6599999999999436, -2.685436563825879 
0.6699999999999425, -2.6749754924526967 
0.6799999999999414, -2.6405012315946914 
0.6899999999999403, -2.574931560312236 
0.6999999999999392, -2.58103939009254 
0.7099999999999381, -2.5917041233865907 
0.719999999999937, -2.593591346758827 
0.7299999999999359, -2.592601305716716 
0.7399999999999348, -2.592129758865524 
0.7499999999999337, -2.595150235667823 
0.7599999999999326, -2.597928582645062 
0.7699999999999315, -2.5989758019647216 
0.7799999999999304, -2.599135830216908 
0.7899999999999293, -2.5980831907074875 
0.7999999999999282, -2.593481695362277 
0.8099999999999271, -2.574269334280645 
0.819999999999926, -2.454660397554312 
0.8299999999999249, -1.22057664880036 
0.8399999999999238, 0.46620405331562653 
0.8499999999999227, 0.6611792601178674 
0.8599999999999216, 0.6935959925298232 
0.8699999999999205, 0.7025305599138105 
0.8799999999999194, 0.7055749219048715 
0.8899999999999183, 0.7065569099216592 
0.8999999999999172, 0.7066519629781356 
0.9099999999999161, 0.7063551015054045 
0.919999999999915, 0.70597613602891 
0.9299999999999139, 0.7057840186861815 
0.9399999999999128, 0.7060219688686412 
0.9499999999999117, 0.7068474820807344 
0.9599999999999106, 0.7082400767244817 
0.9699999999999095, 0.7099597029155007 
0.9799999999999084, 0.711631915428306 
0.9899999999999073, 0.7129100314803811 
0.9999999999999062, 0.7135609628012147 
1.0099999999999052, 0.7133906122127844 
1.019999999999904, 0.7119986075651193 
1.029999999999903, 0.7081442552288267 
1.039999999999902, 0.6973047896954224 
1.0499999999999008, 0.6573545330549353 
1.0599999999998997, 0.4086236816817038 
1.0699999999998986, -1.1431633573863897 
1.0799999999998975, -2.012652756646512 
1.0899999999998964, -2.1196066439619146 
1.0999999999998953, -2.1383430620848842 
1.1099999999998942, -2.1425730129136182 
1.119999999999893, -2.143163644609632 
1.129999999999892, -2.1427381005224175 
1.1399999999998909, -2.14252864380652 
1.1499999999998898, -2.142565422571388 
1.1599999999998887, -2.142197028716029 
1.1699999999998876, -2.141646632305234 
1.1799999999998865, -2.141414296965976 
1.1899999999998854, -2.1408645009893723 
1.1999999999998843, -2.138375252660928 
1.2099999999998832, -2.129326815039645 
1.219999999999882, -2.090218839949487 
1.229999999999881, -1.840463635077662 
1.2399999999998799, -0.437756518136295 
1.2499999999998788, 0.4308262697442974 
1.2599999999998777, 0.5552511712889924 
1.2699999999998766, 0.5818815893195499 
1.2799999999998755, 0.5901399118823438 
1.2899999999998744, 0.5931252554357778 
1.2999999999998733, 0.5940760981669487 
1.3099999999998722, 0.5940437117437164 
1.319999999999871, 0.5934727780836451 
1.32999999999987, 0.5926417566816431 
1.3399999999998689, 0.5918031124279166 
1.3499999999998678, 0.5912062866695853 
1.3599999999998666, 0.5910627290554751 
1.3699999999998655, 0.5914890101931601 
1.3799999999998644, 0.5924548101993085 
1.3899999999998633, 0.5937666090789326 
1.3999999999998622, 0.5951190745663956 
1.4099999999998611, 0.596197880271808 
1.41999999999986, 0.5967508444282185 
1.429999999999859, 0.5965498939720132 
1.4399999999998578, 0.595203600048316 
1.4499999999998567, 0.591660945959932 
1.4599999999998556, 0.5825148058163883 
1.4699999999998545, 0.5538507835657059 
1.4799999999998534, 0.4243715741868364 
1.4899999999998523, -0.3275231986624128 
1.4999999999998512, -1.4208631301219614 
1.5099999999998501, -1.6791661951193724 
1.519999999999849, -1.7281338699831472 
1.529999999999848, -1.740130335662106 
1.5399999999998468, -1.7433418111102974 
1.5499999999998457, -1.7437263591713354 
1.5599999999998446, -1.7431318222483223 
1.5699999999998435, -1.7430782417856379 
1.5799999999998424, -1.7448249113634933 
1.5899999999998413, -1.7476584691148715 
1.5999999999998402, -1.750090860036106 
1.6099999999998391, -1.751707078646963 
1.619999999999838, -1.7527022546552686 
1.629999999999837, -1.7531137436715536 
1.6399999999998358, -1.7527151906853404 
1.6499999999998347, -1.751147306997564 
1.6599999999998336, -1.747928486535227 
1.6699999999998325, -1.7423823276623085 
1.6799999999998314, -1.7334431890858872 
1.6899999999998303, -1.7190858663336308 
1.6999999999998292, -1.6948741633405504 
1.709999999999828, -1.650963065308393 
1.719999999999827, -1.5715618271405707 
1.729999999999826, -1.4662832912295087 
1.7399999999998248, -1.4050490161262528 
1.7499999999998237, -1.3992551224732006 
1.7599999999998226, -1.406129589808235 
1.7699999999998215, -1.4105760111761576 
1.7799999999998204, -1.4121320034503229 
1.7899999999998193, -1.4115149697934977 
1.7999999999998182, -1.4081893753590262 
1.809999999999817, -1.399137664147679 
1.819999999999816, -1.3761678244190452 
1.8299999999998149, -1.336989142510317 
1.8399999999998138, -1.460538328655988 
1.8499999999998127, -2.1027905387773025 
1.8599999999998116, -2.3870838362285864 
1.8699999999998105, -2.444745979761956 
1.8799999999998094, -2.4612797743319748 
1.8899999999998083, -2.4672768552151054 
1.8999999999998072, -2.4692903751039363 
1.909999999999806, -2.4691853531838817 
1.919999999999805, -2.467391800157986 
1.9299999999998039, -2.4632437925700446 
1.9399999999998028, -2.4535445611237128 
1.9499999999998017, -2.4316360250137965 
1.9599999999998006, -2.4122127507813262 
1.9699999999997995, -2.416097310333383 
1.9799999999997984, -2.419849584717214 
1.9899999999997973, -2.4198555791321126 
1.9999999999997962, -2.4172636057136025 
2.0099999999998173, -2.4162790799813827 
2.0199999999998384, -2.4250427218166704 
2.0299999999998595, -2.433844769737486 
2.0399999999998806, -2.4379181976742474 
2.0499999999999017, -2.439482989500433 
2.059999999999923, -2.439589262380095 
2.069999999999944, -2.437965371791409 
2.079999999999965, -2.433107647892963 
2.089999999999986, -2.420230301458319 
2.100000000000007, -2.3809118429972793 
2.1100000000000283, -2.2103492173006023 
2.1200000000000494, -1.2623477376140977 
2.1300000000000705, -0.07912943613534516 
2.1400000000000916, 0.20013563857926756 
2.1500000000001127, 0.2657670751381892 
2.160000000000134, 0.2870990715302072 
2.170000000000155, 0.29562943198374436 
2.180000000000176, 0.2993423564447525 
2.190000000000197, 0.30077463099131285 
2.2000000000002182, 0.3007800148447325 
2.2100000000002393, 0.2994687592932086 
2.2200000000002604, 0.29631314930462777 
2.2300000000002815, 0.28960657980930327 
2.2400000000003026, 0.2742409348404319 
2.2500000000003237, 0.2320390966421042 
2.260000000000345, 0.07680011225879738 
2.270000000000366, -0.6989606229216865 
2.280000000000387, -2.242004609565668 
2.290000000000408, -2.559970968763381 
2.3000000000004293, -2.6093991463138817 
2.3100000000004504, -2.622437086469508 
2.3200000000004715, -2.6265527930626704 
2.3300000000004926, -2.627318550821241 
2.3400000000005137, -2.6261585659403526 
2.3500000000005348, -2.6229009013929687 
2.360000000000556, -2.614871873385172 
2.370000000000577, -2.595394499554783 
2.380000000000598, -2.5783781715905105 
2.390000000000619, -2.5830446048116924 
2.4000000000006403, -2.5861265670649205 
2.4100000000006614, -2.5855418798891416 
2.4200000000006825, -2.5829383492369566 
2.4300000000007036, -2.584988493961775 
2.4400000000007247, -2.5928971048951697 
2.450000000000746, -2.5975590400240067 
2.460000000000767, -2.5992766583122804 
2.470000000000788, -2.59953293008588 
2.480000000000809, -2.5981016403352664 
2.49000000000083, -2.59287795338233 
2.5000000000008513, -2.575309481312227 
2.5100000000008724, -2.498483693140271 
2.5200000000008935, -1.934906557082917 
2.5300000000009146, 0.023175257827574798 
2.5400000000009357, 0.5080175097090202 
2.550000000000957, 0.5779270951480803 
2.560000000000978, 0.5953993185756121 
2.570000000000999, 0.6013056182257894 
2.58000000000102, 0.6035050928264134 
2.5900000000010412, 0.6041821964559099 
2.6000000000010624, 0.6041219124614791 
2.6100000000010835, 0.6037207994755597 
2.6200000000011046, 0.6034083441359707 
2.6300000000011257, 0.6041359765648939 
2.6400000000011468, 0.6082144201211371 
2.650000000001168, 0.6195435077501028 
2.660000000001189, 0.6393589231135246 
2.67000000000121, 0.6605906446697118 
2.680000000001231, 0.6755215287841999 
2.6900000000012523, 0.6836003708272357 
2.7000000000012734, 0.6873255703744207 
2.7100000000012945, 0.6885450135509238 
2.7200000000013156, 0.6879550314541039 
2.7300000000013367, 0.6851348842971134 
2.740000000001358, 0.6776869064346874 
2.750000000001379, 0.6573508781227071 
2.7600000000014, 0.5979970511124851 
2.770000000001421, 0.46303643037460773 
2.780000000001442, 0.33607821708723745 
2.7900000000014633, 0.29598099550411233 
2.8000000000014844, 0.2913937966633552 
2.8100000000015055, 0.292957160773205 
2.8200000000015266, 0.2946240805209316 
2.8300000000015477, 0.29563743870603404 
2.840000000001569, 0.29604462450092733 
2.85000000000159, 0.29590459473550335 
2.860000000001611, 0.2951479275847525 
2.870000000001632, 0.2934928493863575 
2.8800000000016532, 0.2902359127288451 
2.8900000000016743, 0.2836192719130063 
2.9000000000016954, 0.2686543190823715 
2.9100000000017165, 0.22790778605966877 
2.9200000000017377, 0.08065082382912618 
2.9300000000017588, -0.5810108346206613 
2.94000000000178, -1.7530173608564155 
2.950000000001801, -2.1243833005885797 
2.960000000001822, -2.198074090514741 
2.970000000001843, -2.2160126349818343 
2.9800000000018643, -2.2209048731172176 
2.9900000000018854, -2.2218740000038335 
3.0000000000019065, -2.221435810271444 
3.0100000000019276, -2.220546461777146 
3.0200000000019487, -2.2192186014935347 
3.03000000000197, -2.217076000390729 
3.040000000001991, -2.2150761470549165 
3.050000000002012, -2.214590179930029 
3.060000000002033, -2.214375542286128 
3.070000000002054, -2.2121951356377108 
3.0800000000020753, -2.202598590653265 
3.0900000000020964, -2.1507313168159934 
3.1000000000021175, -1.8139803896756377 
3.1100000000021386, -2.8747151004483635 
3.1200000000021597, -4.0306039455818725 
3.130000000002181, -4.056313995561686 
3.140000000002202, -4.058767116847077 
3.150000000002223, -4.05687754822352 
3.160000000002244, -4.045053152814654 
3.1700000000022652, -3.8084848619462273 
3.1800000000022863, -2.0013582344327014 
3.1900000000023074, -2.4964350721460002 
3.2000000000023285, -2.555405212851992 
3.2100000000023496, -2.563208016425789 
3.2200000000023707, -2.564095310233699 
3.230000000002392, -2.5636018795182793 
3.240000000002413, -2.5636388587005117 
3.250000000002434, -2.5637959440399167 
3.260000000002455, -2.563272087031154 
3.2700000000024763, -2.5628533216544 
3.2800000000024974, -2.5623740112688878 
3.2900000000025185, -2.5596517529917926 
3.3000000000025396, -2.5458849515083095 
3.3100000000025607, -2.4289609721214642 
3.3200000000025818, -0.5203038773944881 
3.330000000002603, 2.137624790725138 
3.340000000002624, 2.1978896507370616 
3.350000000002645, 2.2028409520837196 
3.360000000002666, 2.202172048335961 
3.3700000000026873, 2.194522675818195 
3.3800000000027084, 2.104649590397575 
3.3900000000027295, 0.9118122175586464 
3.4000000000027506, 1.1981569641188006 
3.4100000000027717, 1.2819169334578775 
3.420000000002793, 1.2962180629609197 
3.430000000002814, 1.2995585649845602 
3.440000000002835, 1.299973893860042 
3.450000000002856, 1.299239161631609 
3.460000000002877, 1.298469610076229 
3.4700000000028983, 1.2999026665294249 
3.4800000000029194, 1.3058751063225453 
3.4900000000029405, 1.3141248943832742 
3.5000000000029616, 1.3202899259597127 
3.5100000000029827, 1.3234521884231802 
3.520000000003004, 1.3244929677719222 
3.530000000003025, 1.3238851942364014 
3.540000000003046, 1.3205923439510383 
3.550000000003067, 1.3069180952580874 
3.5600000000030882, 1.1946457599551197 
3.5700000000031094, -1.7388754576509726 
3.5800000000031305, -3.1442391778651815 
3.5900000000031516, -3.1952346620350145 
3.6000000000031727, -3.2013986706083335 
3.6100000000031938, -3.20171674269458 
3.620000000003215, -3.20011956630256 
3.630000000003236, -3.195625737938258 
3.640000000003257, -3.1854187955457904 
3.650000000003278, -3.18323847552848 
3.6600000000032993, -3.1857197545950102 
3.6700000000033204, -3.1846786963433855 
3.6800000000033415, -3.1822244925292518 
3.6900000000033626, -3.1872455949849394 
3.7000000000033837, -3.1918099691423976 
3.710000000003405, -3.192965203304474 
3.720000000003426, -3.192620694686366 
3.730000000003447, -3.1892582973345975 
3.740000000003468, -3.1685191755648345 
3.750000000003489, -2.811986809398348 
3.7600000000035103, 1.1844445952710878 
3.7700000000035314, 1.478350477547123 
3.7800000000035525, 1.4982037663315118 
3.7900000000035736, 1.5016545783797783 
3.8000000000035947, 1.5016076644444833 
3.810000000003616, 1.49906248424963 
3.820000000003637, 1.491515174840605 
3.830000000003658, 1.4723714882323642 
3.840000000003679, 1.444736741286429 
3.8500000000037002, 1.4363402438132213 
3.8600000000037213, 1.4401755763524569 
3.8700000000037424, 1.4429560077529595 
3.8800000000037635, 1.4434835314219798 
3.8900000000037847, 1.4417731104461178 
3.9000000000038058, 1.4358955322089488 
3.910000000003827, 1.4209332109450963 
3.920000000003848, 1.4260284221480386 
3.930000000003869, 1.5109549226804246 
3.94000000000389, 1.5522555997507117 
3.9500000000039113, 1.5624526823723404 
3.9600000000039324, 1.5647713614961298 
3.9700000000039535, 1.564039192863892 
3.9800000000039746, 1.5588405593704453 
3.9900000000039957, 1.5285665530790644 
4.000000000004016, 0.9363377442350493 
4.010000000003993, -2.440940796955093 
4.02000000000397, -2.7075531848856946 
4.030000000003946, -2.728757289219978 
4.040000000003923, -2.7318953699856365 
4.0500000000039, -2.7318154110503503 
4.0600000000038765, -2.73107444332169 
4.070000000003853, -2.729832641970841 
4.08000000000383, -2.7274999367712125 
4.090000000003807, -2.7260435063467563 
4.100000000003783, -2.7260455130882932 
4.11000000000376, -2.724375014549736 
4.120000000003737, -2.714801458444334 
4.130000000003713, -2.6783438496965206 
4.14000000000369, -2.7693564438644964 
4.150000000003667, -2.8558117162458556 
4.1600000000036434, -2.874129073888649 
4.17000000000362, -2.878944763324422 
4.180000000003597, -2.8799699652159907 
4.1900000000035735, -2.8787363201659852 
4.20000000000355, -2.874308062687902 
4.210000000003527, -2.860577634521984 
4.220000000003504, -2.7951299014680204 
4.23000000000348, -2.359035996430102 
4.240000000003457, -2.171329231718585 
4.250000000003434, -2.259854465007071 
4.26000000000341, -2.2779370629739435 
4.270000000003387, -2.2813077581212715 
4.280000000003364, -2.2812077848418992 
4.2900000000033405, -2.2804936883311724 
4.300000000003317, -2.2815673152586458 
4.310000000003294, -2.2838188950980944 
4.320000000003271, -2.285192022254877 
4.330000000003247, -2.285711126472708 
4.340000000003224, -2.2857242658270462 
4.350000000003201, -2.2846385263579907 
4.360000000003177, -2.280640188274561 
4.370000000003154, -2.2676531394822748 
4.380000000003131, -2.219042347742165 
4.390000000003107, -1.983886425221901 
4.400000000003084, -0.9382840833277685 
4.410000000003061, 0.0315173871078404 
4.4200000000030375, 0.24912482559685314 
4.430000000003014, 0.3018110664445375 
4.440000000002991, 0.319303171388108 
4.450000000002968, 0.32638246213465966 
4.460000000002944, 0.32951806081087687 
4.470000000002921, 0.33085331257105305 
4.480000000002898, 0.3312131628023538 
4.490000000002874, 0.33092560866934834 
4.500000000002851, 0.33008627785623246 
4.510000000002828, 0.328671604811441 
4.520000000002804, 0.3267306334505244 
4.530000000002781, 0.32534109306918985 
4.540000000002758, 0.3314313077980326 
4.5500000000027345, 0.37348869298897014 
4.560000000002711, 0.48636464925269285 
4.570000000002688, 0.5949690065576106 
4.580000000002665, 0.6432007833414525 
4.590000000002641, 0.6603541751743427 
4.600000000002618, 0.666599909209791 
4.610000000002595, 0.6687003530952913 
4.620000000002571, 0.6686861208812797 
4.630000000002548, 0.6668548700094195 
4.640000000002525, 0.6624260598325502 
4.6500000000025015, 0.6534558835423059 
4.660000000002478, 0.6374068693595794 
4.670000000002455, 0.6150556225023592 
4.6800000000024315, 0.5944229100316437 
4.690000000002408, 0.5824615984236641 
4.700000000002385, 0.5777750476713097 
4.710000000002362, 0.5764684837841033 
4.720000000002338, 0.5762493699492373 
4.730000000002315, 0.5761666767455841 
4.740000000002292, 0.5757943535545389 
4.750000000002268, 0.5747642175344101 
4.760000000002245, 0.5723963352632009 
4.770000000002222, 0.5668999956647921 
4.7800000000021985, 0.5522627886154431 
4.790000000002175, 0.500485670612145 
4.800000000002152, 0.19788972436341196 
4.810000000002129, -1.5125406391064211 
4.820000000002105, -2.410573472289781 
4.830000000002082, -2.5290319149202474 
4.840000000002059, -2.5529198758044225 
4.850000000002035, -2.55913669212623 
4.860000000002012, -2.560417768889586 
4.870000000001989, -2.559767909809996 
4.880000000001965, -2.5578827255526173 
4.890000000001942, -2.553948537297688 
4.900000000001919, -2.546893233935245 
4.9100000000018955, -2.542383278922796 
4.920000000001872, -2.5435191760377713 
4.930000000001849, -2.543856332058361 
4.940000000001826, -2.5409239109848487 
4.950000000001802, -2.5326242258662512 
4.960000000001779, -2.540957422841099 
4.970000000001756, -2.5720612773548113 
4.980000000001732, -2.5865179317158713 
