t, s[1].omega / s[0].omega 
0, -0.28012818694087144 
0.009999999999999995, -0.29678400038697517 
0.019999999999999934, -0.3235697123922308 
0.029999999999999874, -0.36253954465674576 
0.04000000000000012, -0.4082852687365806 
0.050000000000000405, -0.44811922210451216 
0.06000000000000069, -0.4743760949648207 
0.07000000000000098, -0.48888886350826466 
0.08000000000000126, -0.4962745433831629 
0.09000000000000155, -0.4997966215862248 
0.10000000000000184, -0.5011274120990715 
0.11000000000000212, -0.5009372497034469 
0.12000000000000241, -0.49924489363113655 
0.130000000000002, -0.4954423025567142 
0.1400000000000009, -0.48802986269762416 
0.1499999999999998, -0.4742372055743836 
0.1599999999999987, -0.45054966333852897 
0.1699999999999976, -0.4162859811495238 
0.1799999999999965, -0.37803505843110163 
0.1899999999999954, -0.34537990556427545 
0.1999999999999943, -0.32231724935255973 
0.2099999999999932, -0.30739737081911944 
0.2199999999999921, -0.29790547131385364 
0.229999999999991, -0.2917646848229081 
0.2399999999999899, -0.28768081051182304 
0.2499999999999888, -0.2848837348252957 
0.2599999999999877, -0.28291311215061754 
0.2699999999999866, -0.2814970085730075 
0.2799999999999855, -0.28049224922044397 
0.2899999999999844, -0.2798588555402136 
0.2999999999999833, -0.27965818173633117 
0.3099999999999822, -0.2800799872755796 
0.3199999999999811, -0.2815198074613757 
0.32999999999998, -0.2847580888988269 
0.3399999999999789, -0.2913676761288208 
0.3499999999999778, -0.30467704166780074 
0.35999999999997667, -0.3321618079329147 
0.36999999999997557, -0.39144701515665087 
0.37999999999997447, -0.5227607596122266 
0.38999999999997337, -0.7883460234628835 
0.39999999999997227, -1.1612092871978104 
0.40999999999997117, -1.4613792844881617 
0.41999999999997006, -1.626108705321172 
0.42999999999996896, -1.7057170393524277 
0.43999999999996786, -1.7427422351263462 
0.44999999999996676, -1.7593159106258736 
0.45999999999996566, -1.766320346525258 
0.46999999999996456, -1.768914676446953 
0.47999999999996346, -1.7694422386586102 
0.48999999999996235, -1.7690462452247426 
0.49999999999996125, -1.768443535100096 
0.5099999999999602, -1.7679299302142542 
0.519999999999959, -1.7672925490401838 
0.529999999999958, -1.7664203439430353 
0.5399999999999568, -1.765727660089547 
0.5499999999999557, -1.7654926902698598 
0.5599999999999546, -1.7651969652704083 
0.5699999999999535, -1.7638654620901613 
0.5799999999999524, -1.759891515526796 
0.5899999999999513, -1.749153452263942 
0.5999999999999502, -1.7195233500882563 
0.6099999999999491, -1.6360820417426851 
0.619999999999948, -1.418046500899496 
0.6299999999999469, -1.0049508796254114 
0.6399999999999458, -0.5855221915027796 
0.6499999999999447, -0.34722369008612153 
0.6599999999999436, -0.2391226793154862 
0.6699999999999425, -0.18934737139764288 
0.6799999999999414, -0.16453693355959406 
0.6899999999999403, -0.15117833912472234 
0.6999999999999392, -0.14355814898558278 
0.7099999999999381, -0.13907784780912494 
0.719999999999937, -0.13648221068293426 
0.7299999999999359, -0.13515277935638365 
0.7399999999999348, -0.1348126552917685 
0.7499999999999337, -0.13540870244887632 
0.7599999999999326, -0.13708919168774497 
0.7699999999999315, -0.1402620660186597 
0.7799999999999304, -0.14577198168366517 
0.7899999999999293, -0.1553257986819393 
0.7999999999999282, -0.17253143682398792 
0.8099999999999271, -0.20559771770921448 
0.819999999999926, -0.2746594933743813 
0.8299999999999249, -0.42935124438191 
0.8399999999999238, -0.754581801631525 
0.8499999999999227, -1.2002295728049268 
0.8599999999999216, -1.4944579037979173 
0.8699999999999205, -1.6085246289529518 
0.8799999999999194, -1.6461750042780197 
0.8899999999999183, -1.6586895040285856 
0.8999999999999172, -1.6628259393781295 
0.9099999999999161, -1.6638462875561593 
0.919999999999915, -1.6636225517893024 
0.9299999999999139, -1.6632695896304905 
0.9399999999999128, -1.6637044038847868 
0.9499999999999117, -1.6649526009818896 
0.9599999999999106, -1.666254400550843 
0.9699999999999095, -1.6671818660540398 
0.9799999999999084, -1.6678113135531034 
0.9899999999999073, -1.6681760923233575 
0.9999999999999062, -1.6680153515327252 
1.0099999999999052, -1.6668944263901306 
1.019999999999904, -1.664250482329249 
1.029999999999903, -1.6593256599653128 
1.039999999999902, -1.6511024463800585 
1.0499999999999008, -1.6381054056523734 
1.0599999999998997, -1.6177171879436418 
1.0699999999998986, -1.5845532308420218 
1.0799999999998975, -1.5278625795287166 
1.0899999999998964, -1.4341055429992176 
1.0999999999998953, -1.3188352123489089 
1.1099999999998942, -1.2457146089976807 
1.119999999999893, -1.2289159764930775 
1.129999999999892, -1.232293272899812 
1.1399999999998909, -1.2367763518707742 
1.1499999999998898, -1.2391024433862863 
1.1599999999998887, -1.2394930668754198 
1.1699999999998876, -1.2379237926669553 
1.1799999999998865, -1.2330154166406007 
1.1899999999998854, -1.2196314457195447 
1.1999999999998843, -1.178804918915929 
1.2099999999998832, -1.0284089725500185 
1.219999999999882, -0.38831467274807435 
1.229999999999881, 0.678903487609458 
1.2399999999998799, 0.9058566128188067 
1.2499999999998788, 0.9403977042900327 
1.2599999999998777, 0.9486755690114741 
1.2699999999998766, 0.9509036832776998 
1.2799999999998755, 0.9507345892919237 
1.2899999999998744, 0.9485882452883031 
1.2999999999998733, 0.9434272134856221 
1.3099999999998722, 0.9329401523788722 
1.319999999999871, 0.9155957729410911 
1.32999999999987, 0.8968437177827424 
1.3399999999998689, 0.8860576131002755 
1.3499999999998678, 0.8832447481765315 
1.3599999999998666, 0.8834883782956846 
1.3699999999998655, 0.8840733079920403 
1.3799999999998644, 0.8841031585364618 
1.3899999999998633, 0.8830684165338825 
1.3999999999998622, 0.8798324068658131 
1.4099999999998611, 0.87026561750842 
1.41999999999986, 0.833128523437853 
1.429999999999859, 0.5671292537196951 
1.4399999999998578, -2.0048442696928297 
1.4499999999998567, -3.1042835511510884 
1.4599999999998556, -3.1645627083783983 
1.4699999999998545, -3.1743873246927015 
1.4799999999998534, -3.1763287337844814 
1.4899999999998523, -3.175349449985973 
1.4999999999998512, -3.171063097732963 
1.5099999999998501, -3.1546906859232364 
1.519999999999849, -3.0781703990108626 
1.529999999999848, -3.0553026263164513 
1.5399999999998468, -3.0757460834636627 
1.5499999999998457, -3.0786035632081483 
1.5599999999998446, -3.0779950543100454 
1.5699999999998435, -3.078064150294686 
1.5799999999998424, -3.078904912363812 
1.5899999999998413, -3.0786931193320783 
1.5999999999998402, -3.0783468387974953 
1.6099999999998391, -3.0770154767732025 
1.619999999999838, -3.068471657110894 
1.629999999999837, -2.97604525587966 
1.6399999999998358, -2.9480716157514504 
1.6499999999998347, -3.8799813181034444 
1.6599999999998336, -3.911579676002867 
1.6699999999998325, -3.9149516711032257 
1.6799999999998314, -3.913819792967255 
1.6899999999998303, -3.9062709595493947 
1.6999999999998292, -3.828688564209635 
1.709999999999828, -1.6315623148592622 
1.719999999999827, -1.295848260597631 
1.729999999999826, -1.4861385113787329 
1.7399999999998248, -1.5479046635832066 
1.7499999999998237, -1.5650685378228206 
1.7599999999998226, -1.5700894355451454 
1.7699999999998215, -1.5710734905090784 
1.7799999999998204, -1.5700309357598274 
1.7899999999998193, -1.5677190728649628 
1.7999999999998182, -1.5669619490728273 
1.809999999999817, -1.5748567762976078 
1.819999999999816, -1.592512395382629 
1.8299999999998149, -1.610326676087403 
1.8399999999998138, -1.6230273649471574 
1.8499999999998127, -1.6312754995564904 
1.8599999999998116, -1.6366795453055467 
1.8699999999998105, -1.6402685612159142 
1.8799999999998094, -1.642573307843731 
1.8899999999998083, -1.6438597514513795 
1.8999999999998072, -1.6442572324342268 
1.909999999999806, -1.6438240941559445 
1.919999999999805, -1.6425874371221139 
1.9299999999998039, -1.640549466556515 
1.9399999999998028, -1.6376222410787658 
1.9499999999998017, -1.633522542327053 
1.9599999999998006, -1.6279651803168114 
1.9699999999997995, -1.6216488113258407 
1.9799999999997984, -1.6170385267681322 
1.9899999999997973, -1.6157082129295897 
1.9999999999997962, -1.6160176361416638 
2.0099999999998173, -1.6159167346795367 
2.0199999999998384, -1.6141031752212627 
2.0299999999998595, -1.6080572399004534 
2.0399999999998806, -1.5880232178209817 
2.0499999999999017, -1.5058282983812732 
2.059999999999923, -1.077322269926831 
2.069999999999944, 0.141544163211166 
2.079999999999965, 0.6027313835675647 
2.089999999999986, 0.675576873465365 
2.100000000000007, 0.6926739169502036 
2.1100000000000283, 0.6980295495825858 
2.1200000000000494, 0.6996886397932431 
2.1300000000000705, 0.6996513611426891 
2.1400000000000916, 0.6984392782904083 
2.1500000000001127, 0.6961376092934822 
2.160000000000134, 0.6928207499822536 
2.170000000000155, 0.6888493947318881 
2.180000000000176, 0.6849247622334526 
2.190000000000197, 0.6817520517024962 
2.2000000000002182, 0.6796397156058742 
2.2100000000002393, 0.6784609479795248 
2.2200000000002604, 0.6778802731838691 
2.2300000000002815, 0.677539302121156 
2.2400000000003026, 0.677101467273197 
2.2500000000003237, 0.6761780133065427 
2.260000000000345, 0.6740866046482583 
2.270000000000366, 0.6690665538552618 
2.280000000000387, 0.6548970632823731 
2.290000000000408, 0.5992063384957043 
2.3000000000004293, 0.19680798359929536 
2.3100000000004504, -1.901082259654214 
2.3200000000004715, -2.533479304321735 
2.3300000000004926, -2.6022084896326314 
2.3400000000005137, -2.614944617433222 
2.3500000000005348, -2.6176596428575194 
2.360000000000556, -2.617569297642892 
2.370000000000577, -2.6163325011567253 
2.380000000000598, -2.6138384653049362 
2.390000000000619, -2.6090920065615855 
2.4000000000006403, -2.605056523632438 
2.4100000000006614, -2.6054013974376713 
2.4200000000006825, -2.60555048064046 
2.4300000000007036, -2.6023743376473556 
2.4400000000007247, -2.59146615245048 
2.450000000000746, -2.5989125716510824 
2.460000000000767, -2.6433908070820396 
2.470000000000788, -2.6623123909370987 
2.480000000000809, -2.668221477313561 
2.49000000000083, -2.6700601940162754 
2.5000000000008513, -2.669820526846748 
2.5100000000008724, -2.6673808961857097 
2.5200000000008935, -2.6607119671827943 
2.5300000000009146, -2.6410243909995517 
2.5400000000009357, -2.5538861929003502 
2.550000000000957, -1.9939720612118168 
2.560000000000978, -1.340223007303614 
2.570000000000999, -1.3448048901934153 
2.58000000000102, -1.3898209809441568 
2.5900000000010412, -1.4081815687243482 
2.6000000000010624, -1.4146415549744376 
2.6100000000010835, -1.4164955424968582 
2.6200000000011046, -1.4159714894026287 
2.6300000000011257, -1.4132434687205397 
2.6400000000011468, -1.4077930809994512 
2.650000000001168, -1.4030231142495746 
2.660000000001189, -1.4213085688571645 
2.67000000000121, -1.4901258907276933 
2.680000000001231, -1.5725892324524322 
2.6900000000012523, -1.627915986798819 
2.7000000000012734, -1.6593612601749435 
2.7100000000012945, -1.6777057047327837 
2.7200000000013156, -1.6890238572214304 
2.7300000000013367, -1.6961492950682557 
2.740000000001358, -1.700453677985718 
2.750000000001379, -1.702719573855043 
2.7600000000014, -1.7034924726927057 
2.770000000001421, -1.7031943041185662 
2.780000000001442, -1.702163324229493 
2.7900000000014633, -1.700623796998983 
2.8000000000014844, -1.6985581740839126 
2.8100000000015055, -1.6958233624849424 
2.8200000000015266, -1.692808651773055 
2.8300000000015477, -1.6907398415631576 
2.840000000001569, -1.6901906477601234 
2.85000000000159, -1.6901287987223685 
2.860000000001611, -1.6892080777769487 
2.870000000001632, -1.6858111266773506 
2.8800000000016532, -1.675355693438728 
2.8900000000016743, -1.6395756897141713 
2.9000000000016954, -1.493300437511737 
2.9100000000017165, -0.9311510356473782 
2.9200000000017377, -0.1646923223939335 
2.9300000000017588, 0.11016047922799314 
2.94000000000178, 0.184245292609513 
2.950000000001801, 0.20906460712829075 
2.960000000001822, 0.21915818702759662 
2.970000000001843, 0.2237686774853526 
2.9800000000018643, 0.2259651999671676 
2.9900000000018854, 0.22696756067673102 
3.0000000000019065, 0.22734286554473768 
3.0100000000019276, 0.22739861626247376 
3.0200000000019487, 0.22733823743612125 
3.03000000000197, 0.22735593176398275 
3.040000000001991, 0.22776568016719184 
3.050000000002012, 0.22930114844088792 
3.060000000002033, 0.23389203308172563 
3.070000000002054, 0.2462801645717879 
3.0800000000020753, 0.2744604241765399 
3.0900000000020964, 0.31960674888834406 
3.1000000000021175, 0.3636891352030946 
3.1100000000021386, 0.3915574421284977 
3.1200000000021597, 0.4055361381563598 
3.130000000002181, 0.41199479746648643 
3.140000000002202, 0.4147378155718259 
3.150000000002223, 0.4154360825083735 
3.160000000002244, 0.4146456441809397 
3.1700000000022652, 0.41230733257487184 
3.1800000000022863, 0.4079794631176054 
3.1900000000023074, 0.4011690567412888 
3.2000000000023285, 0.3920516337370874 
3.2100000000023496, 0.3821322303892972 
3.2200000000023707, 0.37356546358854104 
3.230000000002392, 0.3675451019865432 
3.240000000002413, 0.3639081422814482 
3.250000000002434, 0.3619271309336001 
3.260000000002455, 0.36093586157316 
3.2700000000024763, 0.36047351064540467 
3.2800000000024974, 0.3602244428732856 
3.2900000000025185, 0.35993460982933984 
3.3000000000025396, 0.35934089462890934 
3.3100000000025607, 0.3580817351432165 
3.3200000000025818, 0.355498570575132 
3.330000000002603, 0.3500656949534795 
3.340000000002624, 0.33743530482230394 
3.350000000002645, 0.3020446759082006 
3.360000000002666, 0.17036169292906075 
3.3700000000026873, -0.40967751568158983 
3.3800000000027084, -1.3495359947576446 
3.3900000000027295, -1.6515825357354275 
3.4000000000027506, -1.7144904991435435 
3.4100000000027717, -1.730207763066548 
3.420000000002793, -1.734619618807585 
3.430000000002814, -1.7355093909201849 
3.440000000002835, -1.7351101881598492 
3.450000000002856, -1.7347986921633332 
3.460000000002877, -1.7358309304366757 
3.4700000000028983, -1.7380171872872228 
3.4800000000029194, -1.740096927179756 
3.4900000000029405, -1.7415210695666452 
3.5000000000029616, -1.7424201120592513 
3.5100000000029827, -1.7428473112273717 
3.520000000003004, -1.7425623952458498 
3.530000000003025, -1.7411591632992824 
3.540000000003046, -1.7380844358575565 
3.550000000003067, -1.7325574456978046 
3.5600000000030882, -1.7234089174162937 
3.5700000000031094, -1.7085857278470773 
3.5800000000031305, -1.683781408776202 
3.5900000000031516, -1.6393132412006934 
3.6000000000031727, -1.5569274893304623 
3.6100000000031938, -1.431687782334499 
3.620000000003215, -1.332103493147559 
3.630000000003236, -1.3061546363425196 
3.640000000003257, -1.310643150859041 
3.650000000003278, -1.3165740688198453 
3.6600000000032993, -1.3195324101210084 
3.6700000000033204, -1.3201690087282967 
3.6800000000033415, -1.318729980218 
3.6900000000033626, -1.313971705743327 
3.7000000000033837, -1.3010668331848758 
3.710000000003405, -1.264149972125168 
3.720000000003426, -1.1586994611362331 
3.730000000003447, -0.9665774081009435 
3.740000000003468, -2.676919071462221 
3.750000000003489, -4.663074352236406 
3.7600000000035103, -4.681041081114443 
3.7700000000035314, -4.681462201240014 
3.7800000000035525, -4.6754722753821 
3.7900000000035736, -4.5433602919613865 
3.8000000000035947, 1.937165502805668 
3.810000000003616, 2.2361490870497436 
3.820000000003637, 2.247069199138318 
3.830000000003658, 2.2482955010361545 
3.840000000003679, 2.2479296954752894 
3.8500000000037002, 2.2464847192876216 
3.8600000000037213, 2.243430828197421 
3.8700000000037424, 2.2401266935008595 
3.8800000000037635, 2.2393250105757354 
3.8900000000037847, 2.239396305463493 
3.9000000000038058, 2.2375059825941426 
3.910000000003827, 2.2273174585875197 
3.920000000003848, 2.200691660983126 
3.930000000003869, 2.2831299871301503 
3.94000000000389, 2.314719943396878 
3.9500000000039113, 2.3194319669922683 
3.9600000000039324, 2.3191254975080255 
3.9700000000039535, 2.313024973903106 
3.9800000000039746, 2.2196463928313195 
3.9900000000039957, -3.917044978695961 
4.000000000004016, -4.220709351257868 
4.010000000003993, -4.229000131843276 
4.02000000000397, -4.228533363171218 
4.030000000003946, -4.223597014637392 
4.040000000003923, -4.192398087948713 
4.0500000000039, -4.189833816232904 
4.0600000000038765, -4.196830812897336 
4.070000000003853, -4.196326195567606 
4.08000000000383, -4.196106984803441 
4.090000000003807, -4.195039163613883 
4.100000000003783, -4.194253944926896 
4.11000000000376, -4.192285085119662 
4.120000000003737, -4.178312518174151 
4.130000000003713, -4.202518734633535 
4.14000000000369, -4.214806835466773 
4.150000000003667, -4.215874291412335 
4.1600000000036434, -4.213147815407176 
4.17000000000362, -4.184359309556495 
4.180000000003597, -0.1622200992319219 
4.1900000000035735, 2.320854179508641 
4.20000000000355, 2.3428438700326817 
4.210000000003527, 2.344664635679977 
4.220000000003504, 2.3424868687635696 
4.23000000000348, 2.329132864427699 
4.240000000003457, 2.2383345756143243 
4.250000000003434, 2.2081007802481696 
4.26000000000341, 2.234593838896459 
4.270000000003387, 2.2389009869849006 
4.280000000003364, 2.2389369385573934 
4.2900000000033405, 2.238401060543504 
4.300000000003317, 2.2396038366554762 
4.310000000003294, 2.24179748074256 
4.320000000003271, 2.2428813026957637 
4.330000000003247, 2.2428794859983663 
4.340000000003224, 2.2420060430764055 
4.350000000003201, 2.2379890481488363 
4.360000000003177, 2.2016289337867634 
4.370000000003154, -0.299415612788265 
4.380000000003131, -4.928324707053538 
4.390000000003107, -4.951896920900002 
4.400000000003084, -4.952232627949071 
4.410000000003061, -4.944831079099698 
4.4200000000030375, -4.568900378804903 
4.430000000003014, 2.397062013698231 
4.440000000002991, 2.492116955442197 
4.450000000002968, 2.49707213289402 
4.460000000002944, 2.4972923611314783 
4.470000000002921, 2.4960617574918524 
4.480000000002898, 2.4925280011957676 
4.490000000002874, 2.4872627733961306 
4.500000000002851, 2.486050656190419 
4.510000000002828, 2.4867933439188423 
4.520000000002804, 2.485416894350783 
4.530000000002781, 2.4782750529635913 
4.540000000002758, 2.4760173059364723 
4.5500000000027345, 2.5062198764761847 
4.560000000002711, 2.5165552019890565 
4.570000000002688, 2.518137714022228 
4.580000000002665, 2.516457747740845 
4.590000000002641, 2.502045650694045 
4.600000000002618, 1.268446230638752 
4.610000000002595, -4.48062241587129 
4.620000000002571, -4.513326156089252 
4.630000000002548, -4.514895091719452 
4.640000000002525, -4.511551158144097 
4.6500000000025015, -4.4792118350117125 
4.660000000002478, -4.359867798258351 
4.670000000002455, -4.410962299284406 
4.6800000000024315, -4.412846148607392 
4.690000000002408, -4.411928786475648 
4.700000000002385, -4.409496632395888 
4.710000000002362, -4.40722670031448 
4.720000000002338, -4.40728088039777 
4.730000000002315, -4.403306731731023 
4.740000000002292, -4.407833474304002 
4.750000000002268, -4.411246328660458 
4.760000000002245, -4.411033131903381 
4.770000000002222, -4.4065223660249675 
4.7800000000021985, -4.275319069634041 
4.790000000002175, -5.194350022161684 
4.800000000002152, -5.345428071924376 
4.810000000002129, -5.347763193484692 
4.820000000002105, -5.342558798829739 
4.830000000002082, -5.057830789259541 
4.840000000002059, 3.2387351482100337 
4.850000000002035, 3.2687596184770955 
4.860000000002012, 3.269713131432033 
4.870000000001989, 3.2665612000293294 
4.880000000001965, 3.247133621323781 
4.890000000001942, 3.2346179153587142 
4.900000000001919, 3.2434848263298273 
4.9100000000018955, 3.243965412372721 
4.920000000001872, 3.2433080079971566 
4.930000000001849, 3.2445878752613764 
4.940000000001826, 3.245019834980268 
4.950000000001802, 3.244443107875371 
4.960000000001779, 3.24293069195352 
4.970000000001756, 3.229077112785151 
