t, s[1].omega / s[0].omega 
0, -1.379995404012986 
0.009999999999999995, -1.379294185700543 
0.019999999999999934, -1.378099981433754 
0.029999999999999874, -1.3763799742447287 
0.04000000000000012, -1.374102528979349 
0.050000000000000405, -1.371235238389656 
0.06000000000000069, -1.367711605997655 
0.07000000000000098, -1.3634493470752769 
0.08000000000000126, -1.3585825122020794 
0.09000000000000155, -1.3538608270352945 
0.10000000000000184, -1.3505343474480376 
0.11000000000000212, -1.3491775708515585 
0.12000000000000241, -1.3490283164730141 
0.130000000000002, -1.348918565109943 
0.1400000000000009, -1.3479514223925424 
0.1499999999999998, -1.3451257198419628 
0.1599999999999987, -1.3384035436983035 
0.1699999999999976, -1.3232053470318508 
0.1799999999999965, -1.290586367200344 
0.1899999999999954, -1.2283429314362564 
0.1999999999999943, -1.1305578177850413 
0.2099999999999932, -1.008405488021268 
0.2199999999999921, -0.8839334910316786 
0.229999999999991, -0.7748429030311805 
0.2399999999999899, -0.6888781945630569 
0.2499999999999888, -0.626221027279833 
0.2599999999999877, -0.5832112504492675 
0.2699999999999866, -0.5550871528899367 
0.2799999999999855, -0.5374673424865223 
0.2899999999999844, -0.526888515693358 
0.2999999999999833, -0.5208365240674455 
0.3099999999999822, -0.5175843132683264 
0.3199999999999811, -0.5159932700118876 
0.32999999999998, -0.5153375635352455 
0.3399999999999789, -0.5151680034011032 
0.3499999999999778, -0.5152163860260902 
0.35999999999997667, -0.5153362908206403 
0.36999999999997557, -0.5154733914711571 
0.37999999999997447, -0.5156534916602181 
0.38999999999997337, -0.515971788737906 
0.39999999999997227, -0.516571289350962 
0.40999999999997117, -0.5176128233998981 
0.41999999999997006, -0.5192445835310732 
0.42999999999996896, -0.521563161441772 
0.43999999999996786, -0.5245452468195941 
0.44999999999996676, -0.5279631160233003 
0.45999999999996566, -0.5313765593561663 
0.46999999999996456, -0.5342907106902213 
0.47999999999996346, -0.5363810782967494 
0.48999999999996235, -0.5375737391883172 
0.49999999999996125, -0.5379501373904872 
0.5099999999999602, -0.5376152667833262 
0.519999999999959, -0.5366227180669917 
0.529999999999958, -0.5349660306525091 
0.5399999999999568, -0.5326533549087669 
0.5499999999999557, -0.5300240383499788 
0.5599999999999546, -0.5290296971994152 
0.5699999999999535, -0.5389348809279481 
0.5799999999999524, -0.6079260604106497 
0.5899999999999513, -1.1084576190032651 
0.5999999999999502, -2.9044290751721062 
0.6099999999999491, -3.158136281153529 
0.619999999999948, -3.182216546471085 
0.6299999999999469, -3.1871289960343088 
0.6399999999999458, -3.1876099032170933 
0.6499999999999447, -3.1854088832126686 
0.6599999999999436, -3.1777133486501925 
0.6699999999999425, -3.1403198100973824 
0.6799999999999414, -2.9743430084536455 
0.6899999999999403, -3.003240403533746 
0.6999999999999392, -3.0220408824732847 
0.7099999999999381, -3.0241677227100334 
0.719999999999937, -3.023590007689875 
0.7299999999999359, -3.023698886466269 
0.7399999999999348, -3.024011605857488 
0.7499999999999337, -3.0234477774315147 
0.7599999999999326, -3.023069844487346 
0.7699999999999315, -3.021625583932967 
0.7799999999999304, -3.012352759777034 
0.7899999999999293, -2.9201738149735297 
0.7999999999999282, -3.0735953940972727 
0.8099999999999271, -3.551324065297112 
0.819999999999926, -3.580032467237794 
0.8299999999999249, -3.5841537600848516 
0.8399999999999238, -3.583840304741629 
0.8499999999999227, -3.5796158876768205 
0.8599999999999216, -3.557907712608266 
0.8699999999999205, -3.2073811343585596 
0.8799999999999194, -2.226699514242224 
0.8899999999999183, -2.5079371282631953 
0.8999999999999172, -2.5437784801611514 
0.9099999999999161, -2.548998150860103 
0.919999999999915, -2.5493281425287515 
0.9299999999999139, -2.548831675056477 
0.9399999999999128, -2.549150478677081 
0.9499999999999117, -2.5494337392389257 
0.9599999999999106, -2.5490477620067944 
0.9699999999999095, -2.5487545907539215 
0.9799999999999084, -2.5480816390413605 
0.9899999999999073, -2.5445624539720253 
0.9999999999999062, -2.5265954505279744 
1.0099999999999052, -2.359095939691078 
1.019999999999904, 0.29163259031956845 
1.029999999999903, 1.7275737204085648 
1.039999999999902, 1.7737163730943177 
1.0499999999999008, 1.7793089485593228 
1.0599999999998997, 1.7794663193452167 
1.0699999999998986, 1.7758246590766131 
1.0799999999998975, 1.7577051146921334 
1.0899999999998964, 1.6287353638510542 
1.0999999999998953, 1.4253038352472367 
1.1099999999998942, 1.4895055278558467 
1.119999999999893, 1.5089680758547874 
1.129999999999892, 1.513383540814067 
1.1399999999998909, 1.5139309101099783 
1.1499999999998898, 1.5128970752672142 
1.1599999999998887, 1.5116033821804447 
1.1699999999998876, 1.5134719267290229 
1.1799999999998865, 1.5212183479053878 
1.1899999999998854, 1.5296287863389635 
1.1999999999998843, 1.5344166325236663 
1.2099999999998832, 1.5362462957704608 
1.219999999999882, 1.5362147474337218 
1.229999999999881, 1.5339951748591683 
1.2399999999998799, 1.5242115547098856 
1.2499999999998788, 1.4411005290391352 
1.2599999999998777, -1.851917696697193 
1.2699999999998766, -3.451414914181735 
1.2799999999998755, -3.493452824574606 
1.2899999999998744, -3.4981333316619505 
1.2999999999998733, -3.4978160152169027 
1.3099999999998722, -3.4948727595697013 
1.319999999999871, -3.483830083343156 
1.32999999999987, -3.4636606073172755 
1.3399999999998689, -3.4703329343489484 
1.3499999999998678, -3.472492815212374 
1.3599999999998666, -3.4712647306682363 
1.3699999999998655, -3.472021553633237 
1.3799999999998644, -3.473628500632016 
1.3899999999998633, -3.4736264766822047 
1.3999999999998622, -3.473024661774928 
1.4099999999998611, -3.4687011670891414 
1.41999999999986, -3.4206121315726827 
1.429999999999859, -3.145027784928153 
1.4399999999998578, -4.135544695301829 
1.4499999999998567, -4.163496722554568 
1.4599999999998556, -4.165872000386586 
1.4699999999998545, -4.16376352909778 
1.4799999999998534, -4.1494207267506065 
1.4899999999998523, -3.686281140909203 
1.4999999999998512, 1.345175698148522 
1.5099999999998501, 1.6226153251991502 
1.519999999999849, 1.64122272959844 
1.529999999999848, 1.644354261222262 
1.5399999999998468, 1.6448014019165806 
1.5499999999998457, 1.6447027462758814 
1.5599999999998446, 1.6447321361330236 
1.5699999999998435, 1.644906509409251 
1.5799999999998424, 1.6449268729065216 
1.5899999999998413, 1.6447165994578021 
1.5999999999998402, 1.644398871645836 
1.6099999999998391, 1.6438186594587734 
1.619999999999838, 1.6420406421841995 
1.629999999999837, 1.6348599266001487 
1.6399999999998358, 1.5819572432268567 
1.6499999999998347, -0.42086677157089214 
1.6599999999998336, -3.8180417965868196 
1.6699999999998325, -3.87476249697838 
1.6799999999998314, -3.8801445560442063 
1.6899999999998303, -3.879756941609506 
1.6999999999998292, -3.874761293559893 
1.709999999999828, -3.8382806941566443 
1.719999999999827, -3.4519720007012396 
1.729999999999826, -3.5986755344093324 
1.7399999999998248, -3.6142957827116637 
1.7499999999998237, -3.615049254224273 
1.7599999999998226, -3.6143498147663875 
1.7699999999998215, -3.6130322032327262 
1.7799999999998204, -3.610600671456998 
1.7899999999998193, -3.610397460038425 
1.7999999999998182, -3.6088070345232084 
1.809999999999817, -3.599692059419239 
1.819999999999816, -3.6116943388175295 
1.8299999999998149, -3.628231357283455 
1.8399999999998138, -3.631362126515355 
1.8499999999998127, -3.631130620216574 
1.8599999999998116, -3.6267643522759974 
1.8699999999998105, -3.594191031436916 
1.8799999999998094, -2.2926318721066474 
1.8899999999998083, 1.5795202244240563 
1.8999999999998072, 1.6612619888484268 
1.909999999999806, 1.6695264463686095 
1.919999999999805, 1.6707747748373247 
1.9299999999998039, 1.669758486227036 
1.9399999999998028, 1.6660924760807216 
1.9499999999998017, 1.6571635304588241 
1.9599999999998006, 1.6425727230147689 
1.9699999999997995, 1.634372257721911 
1.9799999999997984, 1.635449181128721 
1.9899999999997973, 1.63725558637709 
1.9999999999997962, 1.6373131356143182 
2.0099999999998173, 1.634769940607247 
2.0199999999998384, 1.6258779827077983 
2.0299999999998595, 1.60700931834934 
2.0399999999998806, 1.6559664480708658 
2.0499999999999017, 1.7222305527512638 
2.059999999999923, 1.7390684592995722 
2.069999999999944, 1.742751400728831 
2.079999999999965, 1.742635086669516 
2.089999999999986, 1.7386101872035726 
2.100000000000007, 1.7135591305459994 
2.1100000000000283, 1.0531791672912423 
2.1200000000000494, -3.0994647244745925 
2.1300000000000705, -3.245676855694776 
2.1400000000000916, -3.255980298478048 
2.1500000000001127, -3.256856551364801 
2.160000000000134, -3.2557672446119 
2.170000000000155, -3.252899156373368 
2.180000000000176, -3.2465188190211705 
2.190000000000197, -3.2444652563169463 
2.2000000000002182, -3.2458438703939363 
2.2100000000002393, -3.2440781593270294 
2.2200000000002604, -3.240427466880882 
2.2300000000002815, -3.2486115934568383 
2.2400000000003026, -3.2551301926814156 
2.2500000000003237, -3.256727545702341 
2.260000000000345, -3.2563908520687663 
2.270000000000366, -3.2527430896106653 
2.280000000000387, -3.2309800045152146 
2.290000000000408, -2.878946316727206 
2.3000000000004293, 1.0340720037933153 
2.3100000000004504, 1.3573137052185775 
2.3200000000004715, 1.380194100709816 
2.3300000000004926, 1.3844290323594386 
2.3400000000005137, 1.384951851355063 
2.3500000000005348, 1.383628965153063 
2.360000000000556, 1.3800052143283312 
2.370000000000577, 1.3726358787635904 
2.380000000000598, 1.3616723729377331 
2.390000000000619, 1.3530127847336462 
2.4000000000006403, 1.3507999344058366 
2.4100000000006614, 1.351521626801226 
2.4200000000006825, 1.352058605300945 
2.4300000000007036, 1.3512794137406499 
2.4400000000007247, 1.3475773329714376 
2.450000000000746, 1.3336750636257775 
2.460000000000767, 1.2673577161539435 
2.470000000000788, 1.256458639091387 
2.480000000000809, 1.7502528292701982 
2.49000000000083, 1.811762789376458 
2.5000000000008513, 1.8196527434753083 
2.5100000000008724, 1.8204936923604358 
2.5200000000008935, 1.8176655334099123 
2.5300000000009146, 1.8012445435488504 
2.5400000000009357, 1.5674804216470792 
2.550000000000957, -0.7412996258993754 
2.560000000000978, -1.5126012893069893 
2.570000000000999, -1.6509018682185623 
2.58000000000102, -1.680031969135382 
2.5900000000010412, -1.6875397043946745 
2.6000000000010624, -1.689303227967164 
2.6100000000010835, -1.6888638524530646 
2.6200000000011046, -1.6875724404822858 
2.6300000000011257, -1.6878332969837586 
2.6400000000011468, -1.69262071824027 
2.650000000001168, -1.700274497171351 
2.660000000001189, -1.706894837998954 
2.67000000000121, -1.7113741693382765 
2.680000000001231, -1.7142206698820321 
2.6900000000012523, -1.7159352030031314 
2.7000000000012734, -1.7167216388022712 
2.7100000000012945, -1.7166295672723233 
2.7200000000013156, -1.7156448747597768 
2.7300000000013367, -1.7136903045855731 
2.740000000001358, -1.710581190435517 
2.750000000001379, -1.70593047561611 
2.7600000000014, -1.6989320117843867 
2.770000000001421, -1.6879846977205912 
2.780000000001442, -1.6708020759455988 
2.7900000000014633, -1.6481084775500605 
2.8000000000014844, -1.6308260881256067 
2.8100000000015055, -1.6273002644017027 
2.8200000000015266, -1.6295355152781859 
2.8300000000015477, -1.6310768948333643 
2.840000000001569, -1.6307246590672446 
2.85000000000159, -1.6275865490373262 
2.860000000001611, -1.6177538399693803 
2.870000000001632, -1.5882643438177892 
2.8800000000016532, -1.5350554874805 
2.8900000000016743, -1.785826224586683 
2.9000000000016954, -2.3380803566604538 
2.9100000000017165, -2.476332982299644 
2.9200000000017377, -2.5068328197827823 
2.9300000000017588, -2.5165212502622345 
2.94000000000178, -2.5199870101788377 
2.950000000001801, -2.520704341004257 
2.960000000001822, -2.5196049765643287 
2.970000000001843, -2.516467575554172 
2.9800000000018643, -2.509115236003398 
2.9900000000018854, -2.490060329038351 
3.0000000000019065, -2.4572213913495236 
3.0100000000019276, -2.453125822489924 
3.0200000000019487, -2.4600442305711523 
3.03000000000197, -2.4617785756117128 
3.040000000001991, -2.460461194565648 
3.050000000002012, -2.458375096470131 
3.060000000002033, -2.462512318910505 
3.070000000002054, -2.4699803199589545 
3.0800000000020753, -2.4740183946259284 
3.0900000000020964, -2.47559092717113 
3.1000000000021175, -2.475821871440616 
3.1100000000021386, -2.4744465545658696 
3.1200000000021597, -2.469791397280192 
3.130000000002181, -2.456112353376356 
3.140000000002202, -2.4091832508996087 
3.150000000002223, -2.1763361890199517 
3.160000000002244, -0.8759616839512671 
3.1700000000022652, 0.2143261190837636 
3.1800000000022863, 0.3990629077297243 
3.1900000000023074, 0.4398683651073 
3.2000000000023285, 0.4529058130670561 
3.2100000000023496, 0.45794460852160956 
3.2200000000023707, 0.45991697205027765 
3.230000000002392, 0.46037107715276215 
3.240000000002413, 0.4597933377276366 
3.250000000002434, 0.4581803362021059 
3.260000000002455, 0.4551373024603307 
3.2700000000024763, 0.4499107844589486 
3.2800000000024974, 0.442796144784665 
3.2900000000025185, 0.4480104569234095 
3.3000000000025396, 0.538958179552313 
3.3100000000025607, 0.7192373039326646 
3.3200000000025818, 0.8106345854074443 
3.330000000002603, 0.8379211084664323 
3.340000000002624, 0.8463933046608381 
3.350000000002645, 0.8490406856573867 
3.360000000002666, 0.8491493302724841 
3.3700000000026873, 0.8471454131607834 
3.3800000000027084, 0.8416231552155322 
3.3900000000027295, 0.8280247228230418 
3.4000000000027506, 0.7968026521962058 
3.4100000000027717, 0.7463335209622407 
3.420000000002793, 0.7086044567410688 
3.430000000002814, 0.6984683935136584 
3.440000000002835, 0.6991666825234314 
3.450000000002856, 0.7011644408410646 
3.460000000002877, 0.7024360454377623 
3.4700000000028983, 0.7027717961431789 
3.4800000000029194, 0.7020345433429589 
3.4900000000029405, 0.6995784564529419 
3.5000000000029616, 0.6931622751751663 
3.5100000000029827, 0.6739703976931695 
3.520000000003004, 0.5914095643684233 
3.530000000003025, -0.07570864574354448 
3.540000000003046, -2.4337710057661637 
3.550000000003067, -2.8141640345216357 
3.5600000000030882, -2.856652781094135 
3.5700000000031094, -2.86626167032979 
3.5800000000031305, -2.868665604851425 
3.5900000000031516, -2.868291870608784 
3.6000000000031727, -2.865720735883108 
3.6100000000031938, -2.8585323884882525 
3.620000000003215, -2.835823080209079 
3.630000000003236, -2.804888974567203 
3.640000000003257, -2.8127312674014866 
3.650000000003278, -2.817513297276299 
3.6600000000032993, -2.8173770259147792 
3.6700000000033204, -2.815926692809802 
3.6800000000033415, -2.8179963873684093 
3.6900000000033626, -2.8213383716122955 
3.7000000000033837, -2.822606637445993 
3.710000000003405, -2.822775637864658 
3.720000000003426, -2.821691653610423 
3.730000000003447, -2.8163131971749804 
3.740000000003468, -2.786571906351589 
3.750000000003489, -2.418826288298066 
3.7600000000035103, 0.603967902288343 
3.7700000000035314, 1.0646198930492756 
3.7800000000035525, 1.1021213358021407 
3.7900000000035736, 1.109590039195428 
3.8000000000035947, 1.1113932029615605 
3.810000000003616, 1.111157819272224 
3.820000000003637, 1.1094252740211754 
3.830000000003658, 1.1058604706696384 
3.840000000003679, 1.1000524596101176 
3.8500000000037002, 1.0927828752158653 
3.8600000000037213, 1.086629753076131 
3.8700000000037424, 1.083460955283001 
3.8800000000037635, 1.0825889229748216 
3.8900000000037847, 1.0824997406031993 
3.9000000000038058, 1.082153226186419 
3.910000000003827, 1.0806732743238592 
3.920000000003848, 1.076031313912416 
3.930000000003869, 1.059163053318452 
3.94000000000389, 0.9559607292854484 
3.9500000000039113, -0.6119892820948413 
3.9600000000039324, -3.29974560957128 
3.9700000000039535, -3.4086485260469046 
3.9800000000039746, -3.42044037976569 
3.9900000000039957, -3.4223808074648154 
4.000000000004016, -3.421087955640772 
4.010000000003993, -3.4152795150896518 
4.02000000000397, -3.384813925553324 
4.030000000003946, -3.2118127010564566 
4.040000000003923, -3.250287736796615 
4.0500000000039, -3.2672555407683164 
4.0600000000038765, -3.26866709185695 
4.070000000003853, -3.2680789924570135 
4.08000000000383, -3.2680753906970557 
4.090000000003807, -3.2673555833633947 
4.100000000003783, -3.266478162839571 
4.11000000000376, -3.2659583345096443 
4.120000000003737, -3.261726156903122 
4.130000000003713, -3.2303013341985127 
4.14000000000369, -3.269947700393792 
4.150000000003667, -3.380475726549271 
4.1600000000036434, -3.3957470303018154 
4.17000000000362, -3.398487761587705 
4.180000000003597, -3.397868327121883 
4.1900000000035735, -3.3933001354719665 
4.20000000000355, -3.372080204154875 
4.210000000003527, -3.1043304087538592 
4.220000000003504, 0.3462705781475537 
4.23000000000348, 1.0317953421487898 
4.240000000003457, 1.0856735014703474 
4.250000000003434, 1.095942097887417 
4.26000000000341, 1.0986339743535645 
4.270000000003387, 1.0991350913192866 
4.280000000003364, 1.0988736531537482 
4.2900000000033405, 1.0986990000706465 
4.300000000003317, 1.0997289421920584 
4.310000000003294, 1.1031222533778289 
4.320000000003271, 1.1085885462812006 
4.330000000003247, 1.1140478428845104 
4.340000000003224, 1.11786424019418 
4.350000000003201, 1.1198526001509128 
4.360000000003177, 1.1203600517383834 
4.370000000003154, 1.1193806737680627 
4.380000000003131, 1.1155750861015494 
4.390000000003107, 1.1014221123964312 
4.400000000003084, 1.0100096348984695 
4.410000000003061, -0.7111151484769211 
4.4200000000030375, -2.7778561139107603 
4.430000000003014, -2.882363254193677 
4.440000000002991, -2.89453771323508 
4.450000000002968, -2.8963626745873903 
4.460000000002944, -2.8957907856525082 
4.470000000002921, -2.8941077673852047 
4.480000000002898, -2.890282208928516 
4.490000000002874, -2.884944365409772 
4.500000000002851, -2.884549916351206 
4.510000000002828, -2.885185455512624 
4.520000000002804, -2.8826614064137717 
4.530000000002781, -2.875388545946707 
4.540000000002758, -2.886506628525984 
4.5500000000027345, -2.9057615927344296 
4.560000000002711, -2.9122991545316426 
4.570000000002688, -2.9140723857839506 
4.580000000002665, -2.913722530249381 
4.590000000002641, -2.910575484434885 
4.600000000002618, -2.8994221136070797 
4.610000000002595, -2.8473894409893616 
4.620000000002571, -2.295879064919706 
4.630000000002548, 0.43257578361634097 
4.640000000002525, 0.8353103248963564 
4.6500000000025015, 0.8793012937933108 
4.660000000002478, 0.8892950929761136 
4.670000000002455, 0.8923122587824943 
4.6800000000024315, 0.8931633996133884 
4.690000000002408, 0.8932126261971011 
4.700000000002385, 0.8931125897536247 
4.710000000002362, 0.8934894269734286 
4.720000000002338, 0.8951355103766703 
4.730000000002315, 0.8986887153534198 
4.740000000002292, 0.9038108705014654 
4.750000000002268, 0.9090465470407405 
4.760000000002245, 0.9130492487876071 
4.770000000002222, 0.915426061388616 
4.7800000000021985, 0.916353401252397 
4.790000000002175, 0.915919319974096 
4.800000000002152, 0.9135070614969039 
4.810000000002129, 0.9060401225500568 
4.820000000002105, 0.8771239765568367 
4.830000000002082, 0.6714323810736664 
4.840000000002059, -1.2058109032952113 
4.850000000002035, -2.2160837785321763 
4.860000000002012, -2.3091768971730304 
4.870000000001989, -2.3238267980401126 
4.880000000001965, -2.3267807377969536 
4.890000000001942, -2.326892997010247 
4.900000000001919, -2.3263743804064285 
4.9100000000018955, -2.325979022170114 
4.920000000001872, -2.325196917039196 
4.930000000001849, -2.323986256798385 
4.940000000001826, -2.3233939239678456 
4.950000000001802, -2.3230833856383204 
4.960000000001779, -2.321126049477297 
4.970000000001756, -2.3123974827526395 
4.980000000001732, -2.26183994377788 
4.990000000001709, -1.7220826568428174 
5.000000000001686, 1.5691887304246412 
