t, s[1].omega / s[0].omega 
0, -1.1899974381524863 
0.009999999999999995, -1.1895884871853624 
0.019999999999999934, -1.188872267390836 
0.029999999999999874, -1.1878423634868276 
0.04000000000000012, -1.18650849304037 
0.050000000000000405, -1.1849116617800157 
0.06000000000000069, -1.1831262605015087 
0.07000000000000098, -1.1812476910762613 
0.08000000000000126, -1.1793821523734236 
0.09000000000000155, -1.177661826905835 
0.10000000000000184, -1.1762631957686778 
0.11000000000000212, -1.1753538968555843 
0.12000000000000241, -1.1749639124536417 
0.130000000000002, -1.1749211274330613 
0.1400000000000009, -1.1749369060316686 
0.1499999999999998, -1.1747243080581187 
0.1599999999999987, -1.174030920879404 
0.1699999999999976, -1.1726132448928615 
0.1799999999999965, -1.1702318827565183 
0.1899999999999954, -1.1667032797270276 
0.1999999999999943, -1.1619704244265592 
0.2099999999999932, -1.15611348796465 
0.2199999999999921, -1.1492777326088617 
0.229999999999991, -1.1415882055168318 
0.2399999999999899, -1.133126518746773 
0.2499999999999888, -1.1239924014029334 
0.2599999999999877, -1.1144460451741287 
0.2699999999999866, -1.1050937534600311 
0.2799999999999855, -1.09694577767957 
0.2899999999999844, -1.0910551579709966 
0.2999999999999833, -1.0878101020108732 
0.3099999999999822, -1.0866412591393617 
0.3199999999999811, -1.0865363546460052 
0.32999999999998, -1.0866661867327372 
0.3399999999999789, -1.086538766928271 
0.3499999999999778, -1.0858303921710764 
0.35999999999997667, -1.0841668284982384 
0.36999999999997557, -1.0809411878030584 
0.37999999999997447, -1.0752039208214836 
0.38999999999997337, -1.0657634482560303 
0.39999999999997227, -1.0516752830678762 
0.40999999999997117, -1.032924107350312 
0.41999999999997006, -1.0106031727418663 
0.42999999999996896, -0.9863400342606214 
0.43999999999996786, -0.9616484028695765 
0.44999999999996676, -0.9377635127258866 
0.45999999999996566, -0.9158144395556234 
0.46999999999996456, -0.896946356783142 
0.47999999999996346, -0.8821579134468897 
0.48999999999996235, -0.8719064619010629 
0.49999999999996125, -0.8658247599163845 
0.5099999999999602, -0.862870983459907 
0.519999999999959, -0.8618122402962054 
0.529999999999958, -0.8616439090370246 
0.5399999999999568, -0.8617211890866139 
0.5499999999999557, -0.8616785109481617 
0.5599999999999546, -0.86129376669211 
0.5699999999999535, -0.86038489322673 
0.5799999999999524, -0.8587656035871947 
0.5899999999999513, -0.8562711274889401 
0.5999999999999502, -0.8528471427557598 
0.6099999999999491, -0.8486358526661608 
0.619999999999948, -0.8439555470712797 
0.6299999999999469, -0.8391637907161613 
0.6399999999999458, -0.8345232511479972 
0.6499999999999447, -0.8301631386850138 
0.6599999999999436, -0.8261179587820067 
0.6699999999999425, -0.822384930517303 
0.6799999999999414, -0.8189657365966718 
0.6899999999999403, -0.8158853502791514 
0.6999999999999392, -0.8131926532172548 
0.7099999999999381, -0.8109497271590568 
0.719999999999937, -0.8092144981966044 
0.7299999999999359, -0.8080195420206628 
0.7399999999999348, -0.807352141364581 
0.7499999999999337, -0.8071450302534234 
0.7599999999999326, -0.8072856040237781 
0.7699999999999315, -0.8076409342255374 
0.7799999999999304, -0.8080864695524088 
0.7899999999999293, -0.8085276967171027 
0.7999999999999282, -0.8089120556671423 
0.8099999999999271, -0.8092319158458128 
0.819999999999926, -0.8095165182098414 
0.8299999999999249, -0.8098104314328858 
0.8399999999999238, -0.8101435505737987 
0.8499999999999227, -0.8105056751099896 
0.8599999999999216, -0.810839418621824 
0.8699999999999205, -0.8110585350460676 
0.8799999999999194, -0.8110847214950627 
0.8899999999999183, -0.8108817277534127 
0.8999999999999172, -0.8104696905384096 
0.9099999999999161, -0.8099237266195282 
0.919999999999915, -0.8093720776396855 
0.9299999999999139, -0.808999061544083 
0.9399999999999128, -0.8090411258548403 
0.9499999999999117, -0.809758309142327 
0.9599999999999106, -0.8113783364595257 
0.9699999999999095, -0.8140385973219063 
0.9799999999999084, -0.817762997045848 
0.9899999999999073, -0.8224875289264799 
0.9999999999999062, -0.8281137843033848 
1.0099999999999052, -0.8345577137110117 
1.019999999999904, -0.8417717947793129 
1.029999999999903, -0.849729855803582 
1.039999999999902, -0.8583654909966402 
1.0499999999999008, -0.8674620618779324 
1.0599999999998997, -0.8765369012153681 
1.0699999999998986, -0.8848484400636242 
1.0799999999998975, -0.8916496065980011 
1.0899999999998964, -0.8965519350058371 
1.0999999999998953, -0.8996508399008851 
1.1099999999998942, -0.901329265089801 
1.119999999999893, -0.9019990533088563 
1.129999999999892, -0.9019753758609607 
1.1399999999998909, -0.9014838703848038 
1.1499999999998898, -0.9007529423084488 
1.1599999999998887, -0.9001882964544423 
1.1699999999998876, -0.9006442826401446 
1.1799999999998865, -0.9037024449604176 
1.1899999999998854, -0.9116196402377259 
1.1999999999998843, -0.9265385409267818 
1.2099999999998832, -0.9492096679191511 
1.219999999999882, -0.9783526353090506 
1.229999999999881, -1.0113182213585956 
1.2399999999998799, -1.04525944662619 
1.2499999999998788, -1.077740339265545 
1.2599999999998777, -1.1067022010625456 
1.2699999999998766, -1.1304241921384501 
1.2799999999998755, -1.1479226344477316 
1.2899999999998744, -1.1594236466306356 
1.2999999999998733, -1.1661850188156981 
1.3099999999998722, -1.1697519482137209 
1.319999999999871, -1.1713660805053805 
1.32999999999987, -1.1718237829865106 
1.3399999999998689, -1.1716019495343932 
1.3499999999998678, -1.1710631709245516 
1.3599999999998666, -1.1706682135780415 
1.3699999999998655, -1.1710851026657831 
1.3799999999998644, -1.1729705769936898 
1.3899999999998633, -1.1764776243228858 
1.3999999999998622, -1.181099333703744 
1.4099999999998611, -1.186094574279271 
1.41999999999986, -1.1909253163478364 
1.429999999999859, -1.1953390347769388 
1.4399999999998578, -1.1992578523554458 
1.4499999999998567, -1.2026721005429784 
1.4599999999998556, -1.2055820502812353 
1.4699999999998545, -1.2079700997997278 
1.4799999999998534, -1.2097963690614664 
1.4899999999998523, -1.2110201466456618 
1.4999999999998512, -1.2116349826090769 
1.5099999999998501, -1.211690712556528 
1.519999999999849, -1.2112913183124419 
1.529999999999848, -1.2105842989876547 
1.5399999999998468, -1.2097511199337772 
1.5499999999998457, -1.2089783533405751 
1.5599999999998446, -1.208399752838289 
1.5699999999998435, -1.2080618136491865 
1.5799999999998424, -1.2079591115623833 
1.5899999999998413, -1.2080805531303824 
1.5999999999998402, -1.2083911568170829 
1.6099999999998391, -1.2087870689596554 
1.619999999999838, -1.2091037664125888 
1.629999999999837, -1.209168132963595 
1.6399999999998358, -1.2088369170437097 
1.6499999999998347, -1.2080107691090853 
1.6599999999998336, -1.2066418841654307 
1.6699999999998325, -1.2047342089813888 
1.6799999999998314, -1.2023244366154797 
1.6899999999998303, -1.1994512142639786 
1.6999999999998292, -1.1961352268966838 
1.709999999999828, -1.1923816000695404 
1.719999999999827, -1.188199746263145 
1.729999999999826, -1.183639601713702 
1.7399999999998248, -1.1788604003470537 
1.7499999999998237, -1.1742280635650761 
1.7599999999998226, -1.1703284152520579 
1.7699999999998215, -1.1677115048123607 
1.7799999999998204, -1.1664729884986331 
1.7899999999998193, -1.1661710365545015 
1.7999999999998182, -1.1661862401304979 
1.809999999999817, -1.166029076590822 
1.819999999999816, -1.1653397897983653 
1.8299999999998149, -1.1637274105190503 
1.8399999999998138, -1.1606001160720965 
1.8499999999998127, -1.155069440824437 
1.8599999999998116, -1.1460515395913844 
1.8699999999998105, -1.1326669289893236 
1.8799999999998094, -1.11472716843382 
1.8899999999998083, -1.0928325416920281 
1.8999999999998072, -1.0680232421685782 
1.909999999999806, -1.0414858166114818 
1.919999999999805, -1.01464253209755 
1.9299999999998039, -0.9894158770121949 
1.9399999999998028, -0.9681354504538155 
1.9499999999998017, -0.9527068423660644 
1.9599999999998006, -0.943525000757516 
1.9699999999997995, -0.9392950981891073 
1.9799999999997984, -0.9380061646670365 
1.9899999999997973, -0.9379853452918224 
1.9999999999997962, -0.938244549599917 
2.0099999999998173, -0.9383013480935964 
2.0199999999998384, -0.9378967957366366 
2.0299999999998595, -0.9367893930940319 
2.0399999999998806, -0.9346322201859051 
2.0499999999999017, -0.930930968415268 
2.059999999999923, -0.9251417018063226 
2.069999999999944, -0.9169622979683749 
2.079999999999965, -0.9066572046606252 
2.089999999999986, -0.8950457810785991 
2.100000000000007, -0.8830912749033388 
2.1100000000000283, -0.8715067040175128 
2.1200000000000494, -0.8606680981657663 
2.1300000000000705, -0.8507360729382254 
2.1400000000000916, -0.841801142405369 
2.1500000000001127, -0.8339710343005207 
2.160000000000134, -0.8273895129066828 
2.170000000000155, -0.8221958003289849 
2.180000000000176, -0.8184472809426289 
2.190000000000197, -0.816051568817634 
2.2000000000002182, -0.8147595092427654 
2.2100000000002393, -0.8142300767740387 
2.2200000000002604, -0.8141219986180197 
2.2300000000002815, -0.8141560888259564 
2.2400000000003026, -0.8141303284006021 
2.2500000000003237, -0.8139074891660698 
2.260000000000345, -0.8134035379600432 
2.270000000000366, -0.8125908328231116 
2.280000000000387, -0.8115072681772798 
2.290000000000408, -0.8102477161295656 
2.3000000000004293, -0.8089268568425005 
2.3100000000004504, -0.8076331647725266 
2.3200000000004715, -0.8064032713436106 
2.3300000000004926, -0.8052264805553596 
2.3400000000005137, -0.8040698002604009 
2.3500000000005348, -0.8029081145964463 
2.360000000000556, -0.8017467607577016 
2.370000000000577, -0.8006306980769706 
2.380000000000598, -0.7996410254632362 
2.390000000000619, -0.7988813924795467 
2.4000000000006403, -0.7984568537871881 
2.4100000000006614, -0.798450677236944 
2.4200000000006825, -0.7989078119254769 
2.4300000000007036, -0.7998311172083926 
2.4400000000007247, -0.8011892439788673 
2.450000000000746, -0.8029306453160101 
2.460000000000767, -0.804999312039419 
2.470000000000788, -0.807349976457567 
2.480000000000809, -0.809959765914629 
2.49000000000083, -0.8128306852367452 
2.5000000000008513, -0.8159760468283433 
2.5100000000008724, -0.8193864022884993 
2.5200000000008935, -0.8229794464726703 
2.5300000000009146, -0.8265583435792785 
2.5400000000009357, -0.8298260066186571 
2.550000000000957, -0.8324843120955551 
2.560000000000978, -0.8343608734564686 
2.570000000000999, -0.8354562447038821 
2.58000000000102, -0.8358895002191051 
2.5900000000010412, -0.8358196561543616 
2.6000000000010624, -0.8354125395548438 
2.6100000000010835, -0.834870838198824 
2.6200000000011046, -0.8345219239926639 
2.6300000000011257, -0.834946040365533 
2.6400000000011468, -0.8370833263497097 
2.650000000001168, -0.8421890674377674 
2.660000000001189, -0.8515218803620455 
2.67000000000121, -0.8658600922080109 
2.680000000001231, -0.8851797844601659 
2.6900000000012523, -0.9087315443768142 
2.7000000000012734, -0.9353668419891532 
2.7100000000012945, -0.9637602255310345 
2.7200000000013156, -0.9923451754064399 
2.7300000000013367, -1.0191360547716095 
2.740000000001358, -1.0419130751350203 
2.750000000001379, -1.0590613361366443 
2.7600000000014, -1.0704125933533986 
2.770000000001421, -1.0770953902719411 
2.780000000001442, -1.0806297873281265 
2.7900000000014633, -1.0822410330337031 
2.8000000000014844, -1.0827024062710238 
2.8100000000015055, -1.0824589200923462 
2.8200000000015266, -1.0818255725674073 
2.8300000000015477, -1.0812226141341568 
2.840000000001569, -1.0814265560728136 
2.85000000000159, -1.083612944347164 
2.860000000001611, -1.0888256144638804 
2.870000000001632, -1.097128628008734 
2.8800000000016532, -1.107480638937738 
2.8900000000016743, -1.1185212938244342 
2.9000000000016954, -1.1292776514312348 
2.9100000000017165, -1.1392745966901194 
2.9200000000017377, -1.1483253105653382 
2.9300000000017588, -1.1563177779261902 
2.94000000000178, -1.1631051909226742 
2.950000000001801, -1.1685151322214067 
2.960000000001822, -1.1724491398138406 
2.970000000001843, -1.1749770303891054 
2.9800000000018643, -1.17632831089356 
2.9900000000018854, -1.1767987418213246 
3.0000000000019065, -1.1766726773428555 
3.0100000000019276, -1.176218403135382 
3.0200000000019487, -1.1757307889581148 
3.03000000000197, -1.1755378009263628 
3.040000000001991, -1.1758974149038175 
3.050000000002012, -1.176856588786714 
3.060000000002033, -1.178253103682246 
3.070000000002054, -1.1798619256324683 
3.0800000000020753, -1.1815069732688752 
3.0900000000020964, -1.1830674648538175 
3.1000000000021175, -1.1844500294112386 
3.1100000000021386, -1.1855828196974565 
3.1200000000021597, -1.1864234858503524 
3.130000000002181, -1.1869587334001896 
3.140000000002202, -1.1871908444890162 
3.150000000002223, -1.1871203283863008 
3.160000000002244, -1.186737628725972 
3.1700000000022652, -1.186030780102725 
3.1800000000022863, -1.185003872195561 
3.1900000000023074, -1.1836940052723004 
3.2000000000023285, -1.1821763701281056 
3.2100000000023496, -1.1805524252546242 
3.2200000000023707, -1.178928504466056 
3.230000000002392, -1.1774110328867913 
3.240000000002413, -1.176128019820145 
3.250000000002434, -1.175224235500007 
3.260000000002455, -1.1747770994788493 
3.2700000000024763, -1.174701768681243 
3.2800000000024974, -1.1747686283303964 
3.2900000000025185, -1.1747078024161652 
3.3000000000025396, -1.174275965940703 
3.3100000000025607, -1.1732554744715233 
3.3200000000025818, -1.1714461144140673 
3.330000000002603, -1.1686952674428528 
3.340000000002624, -1.1649491389369555 
3.350000000002645, -1.1602651634202856 
3.360000000002666, -1.1547593957575801 
3.3700000000026873, -1.14853548133586 
3.3800000000027084, -1.1416553255422126 
3.3900000000027295, -1.1341713614515754 
3.4000000000027506, -1.126218985993276 
3.4100000000027717, -1.118162469323067 
3.420000000002793, -1.1107176338917817 
3.430000000002814, -1.1048276945586688 
3.440000000002835, -1.1011415800086812 
3.450000000002856, -1.099513325476136 
3.460000000002877, -1.0991587597134074 
3.4700000000028983, -1.0992426750847706 
3.4800000000029194, -1.0992021301151746 
3.4900000000029405, -1.0986832395054817 
3.5000000000029616, -1.0973433954706902 
3.5100000000029827, -1.0946674215143974 
3.520000000003004, -1.0898446875088188 
3.530000000003025, -1.0818097778898026 
3.540000000003046, -1.0696075071179596 
3.550000000003067, -1.0529924392349497 
3.5600000000030882, -1.032708455871253 
3.5700000000031094, -1.010099493780219 
3.5800000000031305, -0.9865258577925516 
3.5900000000031516, -0.9631564492279795 
3.6000000000031727, -0.9411159734038197 
3.6100000000031938, -0.9216413896113298 
3.620000000003215, -0.9059549554702031 
3.630000000003236, -0.8948155445712827 
3.640000000003257, -0.8880885711064929 
3.650000000003278, -0.884790631203351 
3.6600000000032993, -0.8836093509124445 
3.6700000000033204, -0.8834296174627669 
3.6800000000033415, -0.8835306545477085 
3.6900000000033626, -0.8835106729871922 
3.7000000000033837, -0.8831315681180524 
3.710000000003405, -0.8821951530730219 
3.720000000003426, -0.8804822078872625 
3.730000000003447, -0.8777681717947339 
3.740000000003468, -0.873922552859163 
3.750000000003489, -0.8690368517711569 
3.7600000000035103, -0.8634482716900276 
3.7700000000035314, -0.8575977289294242 
3.7800000000035525, -0.8518459357270703 
3.7900000000035736, -0.8463942460681884 
3.8000000000035947, -0.8413159340355886 
3.810000000003616, -0.8366247113256327 
3.820000000003637, -0.8323294403454709 
3.830000000003658, -0.8284620255063142 
3.840000000003679, -0.8250826797157165 
3.8500000000037002, -0.8222687946521517 
3.8600000000037213, -0.8200910503746973 
3.8700000000037424, -0.8185815010083107 
3.8800000000037635, -0.8177058170195599 
3.8900000000037847, -0.8173567565657087 
3.9000000000038058, -0.8173761131612653 
3.910000000003827, -0.8175929023835471 
3.920000000003848, -0.8178571448473628 
3.930000000003869, -0.8180589173736716 
3.94000000000389, -0.8181362704708957 
3.9500000000039113, -0.818077658231277 
3.9600000000039324, -0.817916366957904 
3.9700000000039535, -0.8177105998464468 
3.9800000000039746, -0.8175121491967776 
3.9900000000039957, -0.8173383382760603 
4.000000000004016, -0.8171620033806155 
4.010000000003993, -0.8169247950636281 
4.02000000000397, -0.8165672727460723 
4.030000000003946, -0.8160598164230969 
4.040000000003923, -0.8154202587684871 
4.0500000000039, -0.8147175570510676 
4.0600000000038765, -0.8140691572002895 
4.070000000003853, -0.8136338870372011 
4.08000000000383, -0.8135932514160356 
4.090000000003807, -0.8141165632001656 
4.100000000003783, -0.8153205170940184 
4.11000000000376, -0.8172453270053707 
4.120000000003737, -0.8198611855114288 
4.130000000003713, -0.8230979777371854 
4.14000000000369, -0.8268798791661025 
4.150000000003667, -0.831150937626657 
4.1600000000036434, -0.8358856482489687 
4.17000000000362, -0.8410800533309644 
4.180000000003597, -0.8467163028509294 
4.1900000000035735, -0.8526965635601295 
4.20000000000355, -0.8587647796023112 
4.210000000003527, -0.864482550224045 
4.220000000003504, -0.8693435106782236 
4.23000000000348, -0.8729962823772544 
4.240000000003457, -0.8753859133268511 
4.250000000003434, -0.8766942542007522 
4.26000000000341, -0.8771829917303238 
4.270000000003387, -0.8770881867151571 
4.280000000003364, -0.8766099681659089 
4.2900000000033405, -0.8759817864886263 
4.300000000003317, -0.8756107972160494 
4.310000000003294, -0.8762749750988593 
4.320000000003271, -0.8792762910695174 
4.330000000003247, -0.8863122365192228 
4.340000000003224, -0.8988828248592518 
4.350000000003201, -0.9175072133600425 
4.360000000003177, -0.9414123625126564 
4.370000000003154, -0.9689511894533002 
4.380000000003131, -0.9982530657824871 
4.390000000003107, -1.0275282221957625 
4.400000000003084, -1.0549791280062235 
4.410000000003061, -1.0787375933793926 
4.4200000000030375, -1.0972721520345252 
4.430000000003014, -1.11010136746293 
4.440000000002991, -1.11799049878307 
4.450000000002968, -1.1223391125687412 
4.460000000002944, -1.1244479222660304 
4.470000000002921, -1.125211957578195 
4.480000000002898, -1.1251671646575474 
4.490000000002874, -1.1246672860827989 
4.500000000002851, -1.1240982338708376 
4.510000000002828, -1.1240830177302643 
4.520000000002804, -1.1254905961323811 
4.530000000002781, -1.1290066660793276 
4.540000000002758, -1.1345583157981567 
4.5500000000027345, -1.1413462033584656 
4.560000000002711, -1.1484507570700406 
4.570000000002688, -1.1552699112842508 
4.580000000002665, -1.161539493058153 
4.590000000002641, -1.1671806259907407 
4.600000000002618, -1.172167658048393 
4.610000000002595, -1.1764559108784167 
4.620000000002571, -1.1799634585280068 
4.630000000002548, -1.1826041270855647 
4.640000000002525, -1.1843489762628563 
4.6500000000025015, -1.18526412835811 
4.660000000002478, -1.1854950322608588 
4.670000000002455, -1.1852275804506394 
4.6800000000024315, -1.1846718282304383 
4.690000000002408, -1.184067457544099 
4.700000000002385, -1.1836597835181137 
4.710000000002362, -1.1836162181290257 
4.720000000002338, -1.1839566733300564 
4.730000000002315, -1.1845900939260137 
4.740000000002292, -1.1854056973758544 
4.750000000002268, -1.186307961492747 
4.760000000002245, -1.1871951374377983 
4.770000000002222, -1.1879503782174319 
4.7800000000021985, -1.1884648965688664 
4.790000000002175, -1.188663448477517 
4.800000000002152, -1.1885130957557792 
4.810000000002129, -1.1880158860702825 
4.820000000002105, -1.1871905767762523 
4.830000000002082, -1.1860531369154312 
4.840000000002059, -1.184608829686923 
4.850000000002035, -1.1828605609954024 
4.860000000002012, -1.180825503057352 
4.870000000001989, -1.178547052337192 
4.880000000001965, -1.1760966871095293 
4.890000000001942, -1.1735782120526044 
4.900000000001919, -1.1711539279501226 
4.9100000000018955, -1.169069076282 
4.920000000001872, -1.1675879505294087 
4.930000000001849, -1.1668187706659126 
