t, s[1].omega / s[0].omega 
0, -1.2599314329305504 
0.009999999999999995, -1.2525159092602614 
0.019999999999999934, -1.2439441360052272 
0.029999999999999874, -1.2339974768874693 
0.04000000000000012, -1.2223071093117406 
0.050000000000000405, -1.208553986769107 
0.06000000000000069, -1.1930334193462921 
0.07000000000000098, -1.1775558235252401 
0.08000000000000126, -1.1654328718801914 
0.09000000000000155, -1.158958137939751 
0.10000000000000184, -1.1571338088922951 
0.11000000000000212, -1.1573279847457718 
0.12000000000000241, -1.1576675356614357 
0.130000000000002, -1.157263996517052 
0.1400000000000009, -1.1554527757709123 
0.1499999999999998, -1.151013017228109 
0.1599999999999987, -1.1412214930644138 
0.1699999999999976, -1.1206325336555638 
0.1799999999999965, -1.0812219826349239 
0.1899999999999954, -1.0181370771409002 
0.1999999999999943, -0.9385417085249206 
0.2099999999999932, -0.8580743715571023 
0.2199999999999921, -0.7879003972920804 
0.229999999999991, -0.731117649455401 
0.2399999999999899, -0.6866889114899072 
0.2499999999999888, -0.6526142367802322 
0.2599999999999877, -0.6270329525682673 
0.2699999999999866, -0.6083770873723473 
0.2799999999999855, -0.595289263828368 
0.2899999999999844, -0.5865504636033608 
0.2999999999999833, -0.5810653280393538 
0.3099999999999822, -0.5778856357418783 
0.3199999999999811, -0.5762383448101385 
0.32999999999998, -0.5755347095259191 
0.3399999999999789, -0.5753553930791505 
0.3499999999999778, -0.5754209830133308 
0.35999999999997667, -0.5755623216680554 
0.36999999999997557, -0.5757011355323585 
0.37999999999997447, -0.5758411772407659 
0.38999999999997337, -0.5760587324664581 
0.39999999999997227, -0.5764798850726337 
0.40999999999997117, -0.5772451680624168 
0.41999999999997006, -0.5784722161718528 
0.42999999999996896, -0.5802168698141581 
0.43999999999996786, -0.5824233692713042 
0.44999999999996676, -0.5848801479278987 
0.45999999999996566, -0.5872439566100602 
0.46999999999996456, -0.5891679827618627 
0.47999999999996346, -0.5904454699513643 
0.48999999999996235, -0.5910453357037869 
0.49999999999996125, -0.5910470853628296 
0.5099999999999602, -0.5905739833981826 
0.519999999999959, -0.5897965863274284 
0.529999999999958, -0.5890573862327144 
0.5399999999999568, -0.5892468116617533 
0.5499999999999557, -0.5928318971934932 
0.5599999999999546, -0.6066984544585028 
0.5699999999999535, -0.6499079699350515 
0.5799999999999524, -0.7707214055717999 
0.5899999999999513, -1.0400988172795915 
0.5999999999999502, -1.384305582944575 
0.6099999999999491, -1.6083620889573325 
0.619999999999948, -1.715257388971327 
0.6299999999999469, -1.7663214217728034 
0.6399999999999458, -1.7920036222176574 
0.6499999999999447, -1.8049923819984897 
0.6599999999999436, -1.811220021286276 
0.6699999999999425, -1.8137992555925604 
0.6799999999999414, -1.8144043634142353 
0.6899999999999403, -1.8139593491278343 
0.6999999999999392, -1.813036602132237 
0.7099999999999381, -1.811861139910547 
0.719999999999937, -1.8102660114107632 
0.7299999999999359, -1.808288257677263 
0.7399999999999348, -1.8067458845707496 
0.7499999999999337, -1.8062567569724373 
0.7599999999999326, -1.8060707340556856 
0.7699999999999315, -1.8048837718330764 
0.7799999999999304, -1.8007305909426499 
0.7899999999999293, -1.7873260227354195 
0.7999999999999282, -1.7368915442499877 
0.8099999999999271, -1.504038316214043 
0.819999999999926, -0.6725947574832233 
0.8299999999999249, 0.02622406539789119 
0.8399999999999238, 0.20676036095184855 
0.8499999999999227, 0.254894337076545 
0.8599999999999216, 0.27159762294174883 
0.8699999999999205, 0.278529437181627 
0.8799999999999194, 0.2816726004999584 
0.8899999999999183, 0.2830948327374817 
0.8999999999999172, 0.2836564215375159 
0.9099999999999161, 0.2837858790448971 
0.919999999999915, 0.28374763718379264 
0.9299999999999139, 0.2837657992724072 
0.9399999999999128, 0.2841351201470209 
0.9499999999999117, 0.28541356398577367 
0.9599999999999106, 0.2888174136409266 
0.9699999999999095, 0.2968358292043648 
0.9799999999999084, 0.31305804878282306 
0.9899999999999073, 0.33821719541975825 
0.9999999999999062, 0.36510590300843077 
1.0099999999999052, 0.38505670497167543 
1.019999999999904, 0.3966185684017664 
1.029999999999903, 0.4024903076651702 
1.039999999999902, 0.40511702294922564 
1.0499999999999008, 0.40579318947229626 
1.0599999999998997, 0.40495601523971025 
1.0699999999998986, 0.40242660072834935 
1.0799999999998975, 0.3974779121547386 
1.0899999999998964, 0.3890097107920917 
1.0999999999998953, 0.3764588123754608 
1.1099999999998942, 0.36150233458903325 
1.119999999999893, 0.3479619776044788 
1.129999999999892, 0.33851491253964305 
1.1399999999998909, 0.3330389715307181 
1.1499999999998898, 0.3301758849058004 
1.1599999999998887, 0.3287515839462672 
1.1699999999998876, 0.3280510152912341 
1.1799999999998865, 0.3276631235722248 
1.1899999999998854, 0.32731470170011 
1.1999999999998843, 0.3267602616012376 
1.2099999999998832, 0.3256912751447207 
1.219999999999882, 0.32359058521038075 
1.229999999999881, 0.3193614731029884 
1.2399999999998799, 0.3101621902242834 
1.2499999999998788, 0.28694500530712497 
1.2599999999998777, 0.21263289647741684 
1.2699999999998766, -0.10173355583767582 
1.2799999999998755, -1.0328678457826714 
1.2899999999998744, -1.599659876167824 
1.2999999999998733, -1.7235253858733004 
1.3099999999998722, -1.7518628393491606 
1.319999999999871, -1.7595868189323085 
1.32999999999987, -1.7616013075312804 
1.3399999999998689, -1.761610317663801 
1.3499999999998678, -1.761118892830358 
1.3599999999998666, -1.7614515426647959 
1.3699999999998655, -1.763040641717343 
1.3799999999998644, -1.7648902589029745 
1.3899999999998633, -1.7662144368170511 
1.3999999999998622, -1.767039952535376 
1.4099999999998611, -1.7674870734970594 
1.41999999999986, -1.7673416649718168 
1.429999999999859, -1.7661470438967082 
1.4399999999998578, -1.7632370530263632 
1.4499999999998567, -1.7575887090002684 
1.4599999999998556, -1.7475947442171804 
1.4699999999998545, -1.7304979894304018 
1.4799999999998534, -1.7006719448745315 
1.4899999999998523, -1.6451203833214667 
1.4999999999998512, -1.5364312396165642 
1.5099999999998501, -1.3554148257971896 
1.519999999999849, -1.1883521590250383 
1.529999999999848, -1.1240473004077074 
1.5399999999998468, -1.1177495915252167 
1.5499999999998457, -1.1231705928787046 
1.5599999999998446, -1.1275464323707314 
1.5699999999998435, -1.1296635644632325 
1.5799999999998424, -1.1299633496337291 
1.5899999999998413, -1.1284165632744712 
1.5999999999998402, -1.1238002070907533 
1.6099999999998391, -1.1118435305527297 
1.619999999999838, -1.0781070346814627 
1.629999999999837, -0.9694052733152807 
1.6399999999998358, -0.6191549067999882 
1.6499999999998347, -0.039950534361756926 
1.6599999999998336, 0.2376130331029016 
1.6699999999998325, 0.31409740073976833 
1.6799999999998314, 0.33797799617957197 
1.6899999999998303, 0.34698137000590534 
1.6999999999998292, 0.3507380137259023 
1.709999999999828, 0.3522334509434012 
1.719999999999827, 0.35257633079002826 
1.729999999999826, 0.35227023428532844 
1.7399999999998248, 0.3516225061203224 
1.7499999999998237, 0.3508875412879039 
1.7599999999998226, 0.3503095207060479 
1.7699999999998215, 0.35013240998751094 
1.7799999999998204, 0.35061075314121026 
1.7899999999998193, 0.3520149702955387 
1.7999999999998182, 0.3545797716973868 
1.809999999999817, 0.3583373431140187 
1.819999999999816, 0.36290125801128786 
1.8299999999998149, 0.3674808257961364 
1.8399999999998138, 0.3712730329155682 
1.8499999999998127, 0.37385151039398756 
1.8599999999998116, 0.3751614451875682 
1.8699999999998105, 0.37524664424216625 
1.8799999999998094, 0.37395452865085804 
1.8899999999998083, 0.37059394249425076 
1.8999999999998072, 0.36323268684019727 
1.909999999999806, 0.3470003551142884 
1.919999999999805, 0.3113608204666657 
1.9299999999998039, 0.24517102388618808 
1.9399999999998028, 0.16681109156546853 
1.9499999999998017, 0.11538129294284667 
1.9599999999998006, 0.0930066610399576 
1.9699999999997995, 0.08446275428254998 
1.9799999999997984, 0.08104812356042214 
1.9899999999997973, 0.07950847943663364 
1.9999999999997962, 0.07870599535449493 
2.0099999999998173, 0.07821334400337746 
2.0199999999998384, 0.07783171985724802 
2.0299999999998595, 0.07741938223498115 
2.0399999999998806, 0.07681864797624896 
2.0499999999999017, 0.07580906902002318 
2.059999999999923, 0.07404532125750649 
2.069999999999944, 0.07091891127953211 
2.079999999999965, 0.06520467141632724 
2.089999999999986, 0.05410665040251874 
2.100000000000007, 0.03052721356026839 
2.1100000000000283, -0.024447651327763217 
2.1200000000000494, -0.15394170244510114 
2.1300000000000705, -0.37970762208601794 
2.1400000000000916, -0.5796184931238942 
2.1500000000001127, -0.6770705440659467 
2.160000000000134, -0.7156672057883846 
2.170000000000155, -0.7312161841384274 
2.180000000000176, -0.7378135258178541 
2.190000000000197, -0.7405116320682923 
2.2000000000002182, -0.7411137878831882 
2.2100000000002393, -0.7400748298229429 
2.2200000000002604, -0.736942124592429 
2.2300000000002815, -0.7299557956965758 
2.2400000000003026, -0.714399546828385 
2.2500000000003237, -0.6783754148044767 
2.260000000000345, -0.5974647639096824 
2.270000000000366, -0.45434873634466566 
2.280000000000387, -0.29995941533473147 
2.290000000000408, -0.19943232144685477 
2.3000000000004293, -0.14841870523481943 
2.3100000000004504, -0.12321490706822764 
2.3200000000004715, -0.11002034245592367 
2.3300000000004926, -0.10261278796489066 
2.3400000000005137, -0.09820089696749665 
2.3500000000005348, -0.09545258882810616 
2.360000000000556, -0.09368471701922361 
2.370000000000577, -0.09253077573235521 
2.380000000000598, -0.09180267745888014 
2.390000000000619, -0.09143657666838254 
2.4000000000006403, -0.09148634672947273 
2.4100000000006614, -0.09216880688327658 
2.4200000000006825, -0.0940106637909374 
2.4300000000007036, -0.09826033629481981 
2.4400000000007247, -0.10811457414978662 
2.450000000000746, -0.13287955299445436 
2.460000000000767, -0.2048644815641108 
2.470000000000788, -0.4700563157079861 
2.480000000000809, -1.8746360854505113 
2.49000000000083, -3.0438620599180615 
2.5000000000008513, -3.1247858668581374 
2.5100000000008724, -3.1370501984519863 
2.5200000000008935, -3.1397574752001525 
2.5300000000009146, -3.139297273056676 
2.5400000000009357, -3.135938896522215 
2.550000000000957, -3.1241847478594345 
2.560000000000978, -3.0622336539656234 
2.570000000000999, -2.9487432303420715 
2.58000000000102, -2.9899360796241505 
2.5900000000010412, -2.9987836871447806 
2.6000000000010624, -2.9993539170596075 
2.6100000000010835, -2.998725688424913 
2.6200000000011046, -2.9993313248110627 
2.6300000000011257, -2.999564077144915 
2.6400000000011468, -2.999111292609475 
2.650000000001168, -2.9986930741055224 
2.660000000001189, -2.996170455428346 
2.67000000000121, -2.979423250568021 
2.680000000001231, -2.766985916023984 
2.6900000000012523, -3.457774486385625 
2.7000000000012734, -3.8682668698919955 
2.7100000000012945, -3.885319895545527 
2.7200000000013156, -3.887228115234388 
2.7300000000013367, -3.8852437902482393 
2.740000000001358, -3.874157425413416 
2.750000000001379, -3.7149008295282235 
2.7600000000014, -1.6650890221710746 
2.770000000001421, -2.0190477320713045 
2.780000000001442, -2.1435754171917525 
2.7900000000014633, -2.1635150967549612 
2.8000000000014844, -2.167423169771506 
2.8100000000015055, -2.167629538308295 
2.8200000000015266, -2.1669617136078587 
2.8300000000015477, -2.167524426954656 
2.840000000001569, -2.169439441374463 
2.85000000000159, -2.1708981188032226 
2.860000000001611, -2.171530928023566 
2.870000000001632, -2.171731708038913 
2.8800000000016532, -2.171230090323802 
2.8900000000016743, -2.1689337976165652 
2.9000000000016954, -2.1619958215659962 
2.9100000000017165, -2.1409298460443056 
2.9200000000017377, -2.0683900127019617 
2.9300000000017588, -1.7758304897440496 
2.94000000000178, -0.8621765998268781 
2.950000000001801, -0.10723444918656815 
2.960000000001822, 0.1048409070513224 
2.970000000001843, 0.1649237494873732 
2.9800000000018643, 0.1865851024227183 
2.9900000000018854, 0.1958625502000711 
3.0000000000019065, 0.20020911075188347 
3.0100000000019276, 0.20221219282096414 
3.0200000000019487, 0.20286985755441767 
3.03000000000197, 0.20252413230072214 
3.040000000001991, 0.20111866872064263 
3.050000000002012, 0.19814289751159175 
3.060000000002033, 0.19218269904991517 
3.070000000002054, 0.1793878012828519 
3.0800000000020753, 0.14787911439427964 
3.0900000000020964, 0.054220837742395965 
3.1000000000021175, -0.28322950109417366 
3.1100000000021386, -2.246356266954594 
3.1200000000021597, -3.71151978511402 
3.130000000002181, -3.753591207840734 
3.140000000002202, -3.7584100708922286 
3.150000000002223, -3.7580638516226244 
3.160000000002244, -3.7533999504186624 
3.1700000000022652, -3.724208573341815 
3.1800000000022863, -3.188518878528902 
3.1900000000023074, -3.198654080345571 
3.2000000000023285, -3.2564753767844907 
3.2100000000023496, -3.2611770730354435 
3.2200000000023707, -3.2610126027911903 
3.230000000002392, -3.2604171634175296 
3.240000000002413, -3.2591853548772 
3.250000000002434, -3.2572441429525822 
3.260000000002455, -3.256976053570637 
3.2700000000024763, -3.2555484599895097 
3.2800000000024974, -3.2456393979037856 
3.2900000000025185, -3.2378042419761144 
3.3000000000025396, -3.292596399770145 
3.3100000000025607, -3.307761894322683 
3.3200000000025818, -3.3107733889480087 
3.330000000002603, -3.310562423129313 
3.340000000002624, -3.3069409437862527 
3.350000000002645, -3.290930847518532 
3.360000000002666, -3.149837186401845 
3.3700000000026873, 0.10500817705560613 
3.3800000000027084, 1.215197967246113 
3.3900000000027295, 1.2671554956701123 
3.4000000000027506, 1.2755939338685245 
3.4100000000027717, 1.2776021383268916 
3.420000000002793, 1.277945939509007 
3.430000000002814, 1.277797083117623 
3.440000000002835, 1.277607209024858 
3.450000000002856, 1.277549056958713 
3.460000000002877, 1.2776020720949648 
3.4700000000028983, 1.2776711190106114 
3.4800000000029194, 1.2776875153282439 
3.4900000000029405, 1.277570734426239 
3.5000000000029616, 1.2771009981969739 
3.5100000000029827, 1.2756645345479916 
3.520000000003004, 1.2711180007681975 
3.530000000003025, 1.2516259107062804 
3.540000000003046, 1.0605126097351927 
3.550000000003067, -2.4484937249751995 
3.5600000000030882, -3.2335891687427827 
3.5700000000031094, -3.2743039752274923 
3.5800000000031305, -3.2807473969203023 
3.5900000000031516, -3.281341527319389 
3.6000000000031727, -3.279312391816185 
3.6100000000031938, -3.2722525942432577 
3.620000000003215, -3.2436352990535093 
3.630000000003236, -3.2193556762723814 
3.640000000003257, -3.2321618434179022 
3.650000000003278, -3.2344335667884456 
3.6600000000032993, -3.2334905957948843 
3.6700000000033204, -3.233938474450395 
3.6800000000033415, -3.23528876500882 
3.6900000000033626, -3.235290389004857 
3.7000000000033837, -3.234923046066195 
3.710000000003405, -3.2326334797970944 
3.720000000003426, -3.215755156810565 
3.730000000003447, -2.917272463928353 
3.740000000003468, -3.986301245367835 
3.750000000003489, -4.259453449120527 
3.7600000000035103, -4.268937435070101 
3.7700000000035314, -4.269004724588692 
3.7800000000035525, -4.263642931375102 
3.7900000000035736, -4.202625034140423 
3.8000000000035947, -0.10454069453885376 
3.810000000003616, 1.564456942847087 
3.820000000003637, 1.6223673592502625 
3.830000000003658, 1.6296995691631104 
3.840000000003679, 1.631031170151981 
3.8500000000037002, 1.6310701063068993 
3.8600000000037213, 1.631032952625862 
3.8700000000037424, 1.631318162105313 
3.8800000000037635, 1.6317078526202693 
3.8900000000037847, 1.6318567004478424 
3.9000000000038058, 1.6317406664252825 
3.910000000003827, 1.6314091915338822 
3.920000000003848, 1.6304914895761509 
3.930000000003869, 1.6273175145959222 
3.94000000000389, 1.611934737051488 
3.9500000000039113, 1.4108775699532212 
3.9600000000039324, -3.2926955859040836 
3.9700000000039535, -3.7752669032044417 
3.9800000000039746, -3.793900113242865 
3.9900000000039957, -3.7961414502568096 
4.000000000004016, -3.7945072573335255 
4.010000000003993, -3.7859640799650682 
4.02000000000397, -3.706079962274086 
4.030000000003946, -3.519659173317281 
4.040000000003923, -3.594147084491225 
4.0500000000039, -3.5996931889316053 
4.0600000000038765, -3.5994278198530667 
4.070000000003853, -3.5988097596245217 
4.08000000000383, -3.5972121419192797 
4.090000000003807, -3.5956141253954614 
4.100000000003783, -3.595420921764011 
4.11000000000376, -3.591517113802081 
4.120000000003737, -3.5795232818753133 
4.130000000003713, -3.6084170220973157 
4.14000000000369, -3.62087291309271 
4.150000000003667, -3.6229087712963826 
4.1600000000036434, -3.621959267449063 
4.17000000000362, -3.6151101084636337 
4.180000000003597, -3.555842202859469 
4.1900000000035735, -0.6098225564533921 
4.20000000000355, 1.5801360663501787 
4.210000000003527, 1.6279829119225446 
4.220000000003504, 1.6340395950060689 
4.23000000000348, 1.6349193515434248 
4.240000000003457, 1.6339186560899315 
4.250000000003434, 1.630812542815886 
4.26000000000341, 1.6242635913623888 
4.270000000003387, 1.614976284632413 
4.280000000003364, 1.609381202959621 
4.2900000000033405, 1.6092738618830515 
4.300000000003317, 1.6101925607300724 
4.310000000003294, 1.6098957305065027 
4.320000000003271, 1.6068808361241214 
4.330000000003247, 1.5950694586536425 
4.340000000003224, 1.5542935083714515 
4.350000000003201, 1.6395327401197997 
4.360000000003177, 1.768047934764677 
4.370000000003154, 1.7901971762950741 
4.380000000003131, 1.7942316662470028 
4.390000000003107, 1.7940260177682839 
4.400000000003084, 1.7894302645525009 
4.410000000003061, 1.7583386157766552 
4.4200000000030375, 0.8010131972292613 
4.430000000003014, -2.788255713244073 
4.440000000002991, -2.938216615211651 
4.450000000002968, -2.950440800521807 
4.460000000002944, -2.951881710270584 
4.470000000002921, -2.9512934193221416 
4.480000000002898, -2.950061002188269 
4.490000000002874, -2.947355271723844 
4.500000000002851, -2.9444616392477525 
4.510000000002828, -2.9445149989281525 
4.520000000002804, -2.9438748674034345 
4.530000000002781, -2.938130743268165 
4.540000000002758, -2.9256293912564435 
4.5500000000027345, -2.9615735211501466 
4.560000000002711, -2.9867605899068517 
4.570000000002688, -2.99320086459855 
4.580000000002665, -2.9947368032859645 
4.590000000002641, -2.9939373544211714 
4.600000000002618, -2.989793997571793 
4.610000000002595, -2.9751235429535394 
4.620000000002571, -2.8941463624249466 
4.630000000002548, -1.7017499614859144 
4.640000000002525, 0.6072775269394886 
4.6500000000025015, 0.8254418779369033 
4.660000000002478, 0.8568429269882258 
4.670000000002455, 0.8648649293992653 
4.6800000000024315, 0.867335251673356 
4.690000000002408, 0.8678700031236982 
4.700000000002385, 0.8675493640046182 
4.710000000002362, 0.8669598284506683 
4.720000000002338, 0.867012429462761 
4.730000000002315, 0.8696848280284065 
4.740000000002292, 0.877584331950558 
4.750000000002268, 0.8901179186827275 
4.760000000002245, 0.9020544617989674 
4.770000000002222, 0.9098459396821053 
4.7800000000021985, 0.9138328354555986 
4.790000000002175, 0.9153358125872805 
4.800000000002152, 0.9150432820548261 
4.810000000002129, 0.9125215983569974 
4.820000000002105, 0.9045534855325924 
4.830000000002082, 0.8740721990420759 
4.840000000002059, 0.682734581649344 
4.850000000002035, -0.46122653047927475 
4.860000000002012, -1.3040114581325977 
4.870000000001989, -1.4717403462853151 
4.880000000001965, -1.508866655136023 
4.890000000001942, -1.5191047893987264 
4.900000000001919, -1.5220352781866573 
4.9100000000018955, -1.522256358080828 
4.920000000001872, -1.5211166670924565 
4.930000000001849, -1.51993153649336 
4.940000000001826, -1.521889464879172 
4.950000000001802, -1.529809181389194 
4.960000000001779, -1.5408836375834132 
