t, s[1].omega / s[0].omega 
0, -0.6999977083569584 
0.009999999999999995, -0.6999188632015984 
0.019999999999999934, -0.7000929302967503 
0.029999999999999874, -0.7003961393260554 
0.04000000000000012, -0.7006625059131772 
0.050000000000000405, -0.7007477719595381 
0.06000000000000069, -0.7005892281075268 
0.07000000000000098, -0.700231654241587 
0.08000000000000126, -0.6998301236617065 
0.09000000000000155, -0.6996583642436879 
0.10000000000000184, -0.7001265640451231 
0.11000000000000212, -0.7017780520154687 
0.12000000000000241, -0.7052241318218332 
0.130000000000002, -0.7110116748199444 
0.1400000000000009, -0.7194855384514667 
0.1499999999999998, -0.7307409305540573 
0.1599999999999987, -0.7447083540098112 
0.1699999999999976, -0.7613243449606626 
0.1799999999999965, -0.7807039505089106 
0.1899999999999954, -0.8032528533615555 
0.1999999999999943, -0.8296606998948498 
0.2099999999999932, -0.8606173906343242 
0.2199999999999921, -0.8959134927527158 
0.229999999999991, -0.9328789044311326 
0.2399999999999899, -0.9659747746038206 
0.2499999999999888, -0.9901589010852547 
0.2599999999999877, -1.0047335265811843 
0.2699999999999866, -1.0123199968539207 
0.2799999999999855, -1.015778774433035 
0.2899999999999844, -1.0169365596002806 
0.2999999999999833, -1.0167408949358274 
0.3099999999999822, -1.0157609422570442 
0.3199999999999811, -1.014840894637633 
0.32999999999998, -1.0160918035967175 
0.3399999999999789, -1.023659442014938 
0.3499999999999778, -1.0418914484015405 
0.35999999999997667, -1.0705226240566643 
0.36999999999997557, -1.1037337667660756 
0.37999999999997447, -1.135529518886743 
0.38999999999997337, -1.1633351323509618 
0.39999999999997227, -1.187145108916558 
0.40999999999997117, -1.2077447032961888 
0.41999999999997006, -1.2257184134545462 
0.42999999999996896, -1.2411000396201874 
0.43999999999996786, -1.2534544158811542 
0.44999999999996676, -1.2623626303343438 
0.45999999999996566, -1.267950827207604 
0.46999999999996456, -1.270905613351958 
0.47999999999996346, -1.272070711274297 
0.48999999999996235, -1.2721657053376907 
0.49999999999996125, -1.2718135724009139 
0.5099999999999602, -1.271661133808125 
0.519999999999959, -1.2722494238864006 
0.529999999999958, -1.2736463550903376 
0.5399999999999568, -1.2754414321395553 
0.5499999999999557, -1.2772036792984085 
0.5599999999999546, -1.2787616152148125 
0.5699999999999535, -1.2801026694698758 
0.5799999999999524, -1.2811903827494293 
0.5899999999999513, -1.281923698399489 
0.5999999999999502, -1.282206415434748 
0.6099999999999491, -1.2820046687746354 
0.619999999999948, -1.2813470781031582 
0.6299999999999469, -1.2802847156488777 
0.6399999999999458, -1.2788458042130553 
0.6499999999999447, -1.2770170941186607 
0.6599999999999436, -1.274759051735907 
0.6699999999999425, -1.2720317479273566 
0.6799999999999414, -1.2687966135396898 
0.6899999999999403, -1.2649930838406598 
0.6999999999999392, -1.2605724011531558 
0.7099999999999381, -1.2557006610797514 
0.719999999999937, -1.2510463401291463 
0.7299999999999359, -1.24765060524616 
0.7399999999999348, -1.2460468055472624 
0.7499999999999337, -1.2456873807246975 
0.7599999999999326, -1.2455495257488658 
0.7699999999999315, -1.2447716378528668 
0.7799999999999304, -1.242544757098875 
0.7899999999999293, -1.2376563068455588 
0.7999999999999282, -1.22813487716144 
0.8099999999999271, -1.2115352213138133 
0.819999999999926, -1.1863585201506548 
0.8299999999999249, -1.153465034485373 
0.8399999999999238, -1.1153219096047837 
0.8499999999999227, -1.073978924217642 
0.8599999999999216, -1.0303081369606453 
0.8699999999999205, -0.9847581452893447 
0.8799999999999194, -0.9386754289908866 
0.8899999999999183, -0.8953196602068921 
0.8999999999999172, -0.859345123349031 
0.9099999999999161, -0.834237544367407 
0.919999999999915, -0.8199829828416656 
0.9299999999999139, -0.8136149804564037 
0.9399999999999128, -0.8115814522089163 
0.9499999999999117, -0.8113237195111249 
0.9599999999999106, -0.8114456662439133 
0.9699999999999095, -0.8112700186628163 
0.9799999999999084, -0.8104134406299307 
0.9899999999999073, -0.8085522803694071 
0.9999999999999062, -0.8053839291951681 
1.0099999999999052, -0.8007753777859896 
1.019999999999904, -0.794982338392395 
1.029999999999903, -0.7886489858684677 
1.039999999999902, -0.7824805014109606 
1.0499999999999008, -0.7769161855075439 
1.0599999999998997, -0.7720767061026051 
1.0699999999998986, -0.7678897747861451 
1.0799999999998975, -0.7642202883480371 
1.0899999999998964, -0.7609481604730599 
1.0999999999998953, -0.7580030099215626 
1.1099999999998942, -0.7553696006803664 
1.119999999999893, -0.7530742093635487 
1.129999999999892, -0.7511635374917878 
1.1399999999998909, -0.7496866060509104 
1.1499999999998898, -0.7486829859960868 
1.1599999999998887, -0.7481734359284067 
1.1699999999998876, -0.7481490758012023 
1.1799999999998865, -0.7485627480716043 
1.1899999999998854, -0.7493320327106423 
1.1999999999998843, -0.7503592235414838 
1.2099999999998832, -0.7515627912427897 
1.219999999999882, -0.7529074445623376 
1.229999999999881, -0.7544196084970113 
1.2399999999998799, -0.756179988010796 
1.2499999999998788, -0.758292911552408 
1.2599999999998777, -0.7608366377702735 
1.2699999999998766, -0.7637962978073729 
1.2799999999998755, -0.7669937376928919 
1.2899999999998744, -0.7700756834325583 
1.2999999999998733, -0.7726323233818078 
1.3099999999998722, -0.77439014379433 
1.319999999999871, -0.7753062027169683 
1.32999999999987, -0.7755143996044997 
1.3399999999998689, -0.7752473327017114 
1.3499999999998678, -0.774848628854282 
1.3599999999998666, -0.7749047075197677 
1.3699999999998655, -0.7764554351632549 
1.3799999999998644, -0.7811310117155645 
1.3899999999998633, -0.7909225148817014 
1.3999999999998622, -0.8074084348817347 
1.4099999999998611, -0.8308537556096685 
1.41999999999986, -0.8600434352487479 
1.429999999999859, -0.8930914868359187 
1.4399999999998578, -0.9284548752041163 
1.4499999999998567, -0.9653654659363473 
1.4599999999998556, -1.003551312741066 
1.4699999999998545, -1.0424160579424804 
1.4799999999998534, -1.0799450949797975 
1.4899999999998523, -1.1123873241974258 
1.4999999999998512, -1.136229366322616 
1.5099999999998501, -1.1509389770335294 
1.519999999999849, -1.158746949538385 
1.529999999999848, -1.162348464716636 
1.5399999999998468, -1.1636099686048835 
1.5499999999998457, -1.1635949099410516 
1.5599999999998446, -1.1630514076223037 
1.5699999999998435, -1.1629598729030093 
1.5799999999998424, -1.1647628995573902 
1.5899999999998413, -1.1695823845141107 
1.5999999999998402, -1.1769799030693318 
1.6099999999998391, -1.1852974279186417 
1.619999999999838, -1.193143128044314 
1.629999999999837, -1.19998713003753 
1.6399999999998358, -1.205847950688101 
1.6499999999998347, -1.2109087435758812 
1.6599999999998336, -1.2153419451169651 
1.6699999999998325, -1.2192599020655115 
1.6799999999998314, -1.2226918216632756 
1.6899999999998303, -1.2255693753720724 
1.6999999999998292, -1.227755609691464 
1.709999999999828, -1.229131981475804 
1.719999999999827, -1.2296891143150204 
1.729999999999826, -1.22955468800887 
1.7399999999998248, -1.2289685626582214 
1.7499999999998237, -1.2282365483173718 
1.7599999999998226, -1.2276304401398606 
1.7699999999998215, -1.2272523177758283 
1.7799999999998204, -1.2270291390172345 
1.7899999999998193, -1.2268823869551722 
1.7999999999998182, -1.2268514518875093 
1.809999999999817, -1.2270087844641397 
1.819999999999816, -1.2272877345352926 
1.8299999999998149, -1.2274525253127964 
1.8399999999998138, -1.2272168831723311 
1.8499999999998127, -1.2263523422427691 
1.8599999999998116, -1.224739166645187 
1.8699999999998105, -1.2223865279311454 
1.8799999999998094, -1.2194038942421144 
1.8899999999998083, -1.2159183818211001 
1.8999999999998072, -1.2119965889597426 
1.909999999999806, -1.2076199972409465 
1.919999999999805, -1.2027013395044035 
1.9299999999998039, -1.1971062048168852 
1.9399999999998028, -1.1906840343112428 
1.9499999999998017, -1.1833872910425878 
1.9599999999998006, -1.1755676069491332 
1.9699999999997995, -1.1682923137649746 
1.9799999999997984, -1.1630344339952348 
1.9899999999997973, -1.1604663775977175 
1.9999999999997962, -1.1598314505915905 
2.0099999999998173, -1.1598215674321266 
2.0199999999998384, -1.159441928617718 
2.0299999999998595, -1.1579658252850566 
2.0399999999998806, -1.1544859515750612 
2.0499999999999017, -1.1475133709908822 
2.059999999999923, -1.134984479357247 
2.069999999999944, -1.115250296577307 
2.079999999999965, -1.0887094053281767 
2.089999999999986, -1.0579176455963242 
2.100000000000007, -1.0256273537176246 
2.1100000000000283, -0.9933235110034866 
2.1200000000000494, -0.9613885620900193 
2.1300000000000705, -0.9299208276907797 
2.1400000000000916, -0.8994713884041806 
2.1500000000001127, -0.87146518636889 
2.160000000000134, -0.8480053072592877 
2.170000000000155, -0.8308733370663136 
2.180000000000176, -0.8203737775076219 
2.190000000000197, -0.8151721139689819 
2.2000000000002182, -0.8132320579093177 
2.2100000000002393, -0.8128062289875716 
2.2200000000002604, -0.8127832466300541 
2.2300000000002815, -0.8125477508968778 
2.2400000000003026, -0.8117323781808932 
2.2500000000003237, -0.8100606536355619 
2.260000000000345, -0.8073357746818486 
2.270000000000366, -0.8035557904628762 
2.280000000000387, -0.7990202082716105 
2.290000000000408, -0.7942406535952404 
2.3000000000004293, -0.7896863848257321 
2.3100000000004504, -0.7856086868219302 
2.3200000000004715, -0.7820480699613351 
2.3300000000004926, -0.7789281819787087 
2.3400000000005137, -0.7761422125575209 
2.3500000000005348, -0.7736079808201637 
2.360000000000556, -0.7712943729473114 
2.370000000000577, -0.7692221923787932 
2.380000000000598, -0.7674458199414878 
2.390000000000619, -0.7660281645743132 
2.4000000000006403, -0.7650215278181236 
2.4100000000006614, -0.7644591267454534 
2.4200000000006825, -0.76435229386601 
2.4300000000007036, -0.7646863135198918 
2.4400000000007247, -0.7654156012447475 
2.450000000000746, -0.7664670000193458 
2.460000000000767, -0.7677579555498653 
2.470000000000788, -0.7692256941753982 
2.480000000000809, -0.7708545342956464 
2.49000000000083, -0.7726872887221363 
2.5000000000008513, -0.7748126377189855 
2.5100000000008724, -0.7773285681206104 
2.5200000000008935, -0.7802842907001006 
2.5300000000009146, -0.78360416668829 
2.5400000000009357, -0.7870259715937885 
2.550000000000957, -0.790136140727676 
2.560000000000978, -0.7925430231699961 
2.570000000000999, -0.794059387155641 
2.58000000000102, -0.7947313207102126 
2.5900000000010412, -0.7947491257008765 
2.6000000000010624, -0.7943905225485193 
2.6100000000010835, -0.7940784526027775 
2.6200000000011046, -0.7945465921206708 
2.6300000000011257, -0.797019232310394 
2.6400000000011468, -0.8031766817463426 
2.650000000001168, -0.8146468970867172 
2.660000000001189, -0.8321594169653508 
2.67000000000121, -0.8550827215795043 
2.680000000001231, -0.8818737344933254 
2.6900000000012523, -0.911008469077851 
2.7000000000012734, -0.9415938531030091 
2.7100000000012945, -0.9733790940976801 
2.7200000000013156, -1.006304436501927 
2.7300000000013367, -1.0397048626978962 
2.740000000001358, -1.0714422962790524 
2.750000000001379, -1.098071346791952 
2.7600000000014, -1.1169744899551377 
2.770000000001421, -1.1283078586773552 
2.780000000001442, -1.134183096324011 
2.7900000000014633, -1.1367714933522626 
2.8000000000014844, -1.1375047676592103 
2.8100000000015055, -1.1372320564844756 
2.8200000000015266, -1.1366893623296144 
2.8300000000015477, -1.136993319790166 
2.840000000001569, -1.1396779163678434 
2.85000000000159, -1.1456559701730589 
2.860000000001611, -1.1541306622574352 
2.870000000001632, -1.1633118542102634 
2.8800000000016532, -1.1718810030724367 
2.8900000000016743, -1.1793938454746802 
2.9000000000016954, -1.1859102659744842 
2.9100000000017165, -1.1916306656338624 
2.9200000000017377, -1.1967331404881167 
2.9300000000017588, -1.2013175011518473 
2.94000000000178, -1.2053735640878283 
2.950000000001801, -1.2087743886583904 
2.960000000001822, -1.2113364933470427 
2.970000000001843, -1.2129405777514028 
2.9800000000018643, -1.213621403850297 
2.9900000000018854, -1.213564653626554 
3.0000000000019065, -1.2130616818319941 
3.0100000000019276, -1.2124655668441893 
3.0200000000019487, -1.2120904458483552 
3.03000000000197, -1.2120545063131776 
3.040000000001991, -1.2122561936450005 
3.050000000002012, -1.212554194227492 
3.060000000002033, -1.2129185062540482 
3.070000000002054, -1.213379411337851 
3.0800000000020753, -1.2138806228955723 
3.0900000000020964, -1.214238255319803 
3.1000000000021175, -1.2142305090066925 
3.1100000000021386, -1.2136949418479235 
3.1200000000021597, -1.2125732264603422 
3.130000000002181, -1.2109089799028865 
3.140000000002202, -1.208800541036261 
3.150000000002223, -1.2063321828867424 
3.160000000002244, -1.2035310657125156 
3.1700000000022652, -1.2003699559690364 
3.1800000000022863, -1.1967940590318307 
3.1900000000023074, -1.192738361923783 
3.2000000000023285, -1.1881323662834284 
3.2100000000023496, -1.1829517258702253 
3.2200000000023707, -1.1773944110151293 
3.230000000002392, -1.1721077387811403 
3.240000000002413, -1.1680803024188968 
3.250000000002434, -1.1659165985506905 
3.260000000002455, -1.1652490394102881 
3.2700000000024763, -1.1651372439331125 
3.2800000000024974, -1.1647285685564346 
3.2900000000025185, -1.163351039167922 
3.3000000000025396, -1.1602413593226513 
3.3100000000025607, -1.1543315861493244 
3.3200000000025818, -1.1444211461904086 
3.330000000002603, -1.129898357687776 
3.340000000002624, -1.1114031058131335 
3.350000000002645, -1.0904236889513823 
3.360000000002666, -1.0682181092698613 
3.3700000000026873, -1.0452853230542003 
3.3800000000027084, -1.0215684435194505 
3.3900000000027295, -0.9969439803286798 
3.4000000000027506, -0.9717946346916128 
3.4100000000027717, -0.9475519788940728 
3.420000000002793, -0.926713927059865 
3.430000000002814, -0.9116948414625412 
3.440000000002835, -0.9031246391093859 
3.450000000002856, -0.8995134647002088 
3.460000000002877, -0.8985984924869118 
3.4700000000028983, -0.8986211362769607 
3.4800000000029194, -0.8985861397426976 
3.4900000000029405, -0.897952370957292 
3.5000000000029616, -0.8963009273812867 
3.5100000000029827, -0.8931730283516661 
3.520000000003004, -0.8881423201853952 
3.530000000003025, -0.8811271253959884 
3.540000000003046, -0.8726682723819191 
3.550000000003067, -0.8637332675709493 
3.5600000000030882, -0.8551666566228923 
3.5700000000031094, -0.8473749406286284 
3.5800000000031305, -0.8404000568528444 
3.5900000000031516, -0.8341178267242558 
3.6000000000031727, -0.82838017264925 
3.6100000000031938, -0.8230821967164361 
3.620000000003215, -0.818184059637477 
3.630000000003236, -0.8137129733356581 
3.640000000003257, -0.809757248627782 
3.650000000003278, -0.8064484800182473 
3.6600000000032993, -0.8039189769305238 
3.6700000000033204, -0.8022355064557003 
3.6800000000033415, -0.8013424346663864 
3.6900000000033626, -0.8010581079932843 
3.7000000000033837, -0.8011307946331223 
3.710000000003405, -0.80131438387646 
3.720000000003426, -0.8014242407699361 
3.730000000003447, -0.8013660768440474 
3.740000000003468, -0.8011447136001587 
3.750000000003489, -0.8008478827498727 
3.7600000000035103, -0.8005997192872011 
3.7700000000035314, -0.8005018217812895 
3.7800000000035525, -0.8005895319430856 
3.7900000000035736, -0.800814737129838 
3.8000000000035947, -0.8010576753208156 
3.810000000003616, -0.8011724701129909 
3.820000000003637, -0.8010537887120484 
3.830000000003658, -0.8006886128457895 
3.840000000003679, -0.800172716760911 
3.8500000000037002, -0.7997050071112426 
3.8600000000037213, -0.7995703387505473 
3.8700000000037424, -0.8000947685251416 
3.8800000000037635, -0.801559694689334 
3.8900000000037847, -0.8041076875255685 
3.9000000000038058, -0.8077067270558762 
3.910000000003827, -0.8122012329081059 
3.920000000003848, -0.8174070614864328 
3.930000000003869, -0.8231894509521627 
3.94000000000389, -0.8295007973855826 
3.9500000000039113, -0.8363895365869283 
3.9600000000039324, -0.8439926408252012 
3.9700000000039535, -0.8525040511189921 
3.9800000000039746, -0.8620854638068215 
3.9900000000039957, -0.8726715453152769 
4.000000000004016, -0.8836923570904419 
4.010000000003993, -0.8939841044334924 
4.02000000000397, -0.9022710628170516 
4.030000000003946, -0.9079348589160482 
4.040000000003923, -0.9112017949150587 
4.0500000000039, -0.9126892482535783 
4.0600000000038765, -0.912980727191619 
4.070000000003853, -0.9125383951873574 
4.08000000000383, -0.9118898154571303 
4.090000000003807, -0.9120263280604919 
4.100000000003783, -0.9148774742289623 
4.11000000000376, -0.9232508219804012 
4.120000000003737, -0.9393856452267004 
4.130000000003713, -0.9628924409321582 
4.14000000000369, -0.9907262216114503 
4.150000000003667, -1.0194697896181928 
4.1600000000036434, -1.0471239541878388 
4.17000000000362, -1.0731509544772182 
4.180000000003597, -1.097708679971738 
4.1900000000035735, -1.1209008230589284 
4.20000000000355, -1.1422337119726704 
4.210000000003527, -1.1604778584081592 
4.220000000003504, -1.1743063846414012 
4.23000000000348, -1.1833469863619488 
4.240000000003457, -1.1884165000089362 
4.250000000003434, -1.1907829637443768 
4.26000000000341, -1.1915066433111543 
4.270000000003387, -1.1913425294754452 
4.280000000003364, -1.1909829689225906 
4.2900000000033405, -1.1912853751522614 
4.300000000003317, -1.1930582227762199 
4.310000000003294, -1.1964130436029252 
4.320000000003271, -1.2006356469957304 
4.330000000003247, -1.2048807881370582 
4.340000000003224, -1.2087015403636392 
4.350000000003201, -1.2120059853798333 
4.360000000003177, -1.2148310606747963 
4.370000000003154, -1.21722138019225 
4.380000000003131, -1.2192172831926706 
4.390000000003107, -1.2208618632511148 
4.400000000003084, -1.222182515419402 
4.410000000003061, -1.223162855532179 
4.4200000000030375, -1.2237388252158865 
4.430000000003014, -1.2238353195890999 
4.440000000002991, -1.2234245825254806 
4.450000000002968, -1.2225672067722837 
4.460000000002944, -1.2214096608005414 
4.470000000002921, -1.2201271620461198 
4.480000000002898, -1.2188308580180478 
4.490000000002874, -1.2175364886959301 
4.500000000002851, -1.2162689184518247 
4.510000000002828, -1.2151853515038815 
4.520000000002804, -1.2145109629440003 
4.530000000002781, -1.2142928296563147 
4.540000000002758, -1.2142750532159097 
4.5500000000027345, -1.2140414783253048 
4.560000000002711, -1.213187342809837 
4.570000000002688, -1.2113733386147993 
4.580000000002665, -1.2083642779495687 
4.590000000002641, -1.2041120309237479 
4.600000000002618, -1.1987788324353716 
4.610000000002595, -1.1926149923297262 
4.620000000002571, -1.1857888503553382 
4.630000000002548, -1.1783037840197523 
4.640000000002525, -1.170008838723594 
4.6500000000025015, -1.1606543298930625 
4.660000000002478, -1.1500139087202972 
4.670000000002455, -1.1381862113756234 
4.6800000000024315, -1.126109220818711 
4.690000000002408, -1.1157778111127354 
4.700000000002385, -1.1091564843858488 
4.710000000002362, -1.1064025841431142 
4.720000000002338, -1.1059368927082702 
4.730000000002315, -1.1060663253207934 
4.740000000002292, -1.1057534888367633 
4.750000000002268, -1.1043083381660401 
4.760000000002245, -1.100843998784098 
4.770000000002222, -1.093838951012887 
4.7800000000021985, -1.081086878494572 
4.790000000002175, -1.060717624036839 
4.800000000002152, -1.0331695135909218 
4.810000000002129, -1.0015876296156818 
4.820000000002105, -0.9694857185078707 
4.830000000002082, -0.9387884236209946 
4.840000000002059, -0.9099527635161275 
4.850000000002035, -0.8828779182197419 
4.860000000002012, -0.8575903994895528 
4.870000000001989, -0.834578159689577 
4.880000000001965, -0.8147927149084684 
4.890000000001942, -0.7992757280746782 
4.900000000001919, -0.7885475101976389 
4.9100000000018955, -0.7822113192576834 
4.920000000001872, -0.7791316780200596 
4.930000000001849, -0.7779864204377057 
