t, s[1].omega / s[0].omega 
0, -1.1799993454452515 
0.009999999999999995, -1.1798011907511916 
0.019999999999999934, -1.1793189901787497 
0.029999999999999874, -1.1785113118650064 
0.04000000000000012, -1.1773567341821305 
0.050000000000000405, -1.175886201720941 
0.06000000000000069, -1.1741837270942264 
0.07000000000000098, -1.1723484878474628 
0.08000000000000126, -1.170452324505408 
0.09000000000000155, -1.1685595078913082 
0.10000000000000184, -1.166812596331237 
0.11000000000000212, -1.1654590462678933 
0.12000000000000241, -1.1646975574839664 
0.130000000000002, -1.1644645344278788 
0.1400000000000009, -1.1644298134146112 
0.1499999999999998, -1.1641806302422677 
0.1599999999999987, -1.1633461085032717 
0.1699999999999976, -1.161610864655582 
0.1799999999999965, -1.1587387056913856 
0.1899999999999954, -1.1546571545273605 
0.1999999999999943, -1.1495063333237427 
0.2099999999999932, -1.1435494471153411 
0.2199999999999921, -1.1370096943836256 
0.229999999999991, -1.1299743926837078 
0.2399999999999899, -1.1224006581738881 
0.2499999999999888, -1.1141755538176448 
0.2599999999999877, -1.105213510077928 
0.2699999999999866, -1.0956327890696165 
0.2799999999999855, -1.0860213471652143 
0.2899999999999844, -1.0775665693994638 
0.2999999999999833, -1.0715775241913335 
0.3099999999999822, -1.0684904395752144 
0.3199999999999811, -1.067531543992098 
0.32999999999998, -1.0674782591770042 
0.3399999999999789, -1.0673920861448554 
0.3499999999999778, -1.0666759366172605 
0.35999999999997667, -1.0647960296832713 
0.36999999999997557, -1.061029234045446 
0.37999999999997447, -1.0544187201349084 
0.38999999999997337, -1.044132248347887 
0.39999999999997227, -1.0301571259596207 
0.40999999999997117, -1.013578737124899 
0.41999999999997006, -0.995906894922457 
0.42999999999996896, -0.9782201201210281 
0.43999999999996786, -0.9609498286004946 
0.44999999999996676, -0.9441435123951974 
0.45999999999996566, -0.9277987022661008 
0.46999999999996456, -0.9121230927479289 
0.47999999999996346, -0.8976923966638648 
0.48999999999996235, -0.8854107493514963 
0.49999999999996125, -0.876158110870002 
0.5099999999999602, -0.8702592933889818 
0.519999999999959, -0.8672349072836051 
0.529999999999958, -0.8660955051733981 
0.5399999999999568, -0.8658494089071718 
0.5499999999999557, -0.8657814557485141 
0.5599999999999546, -0.8654424357280822 
0.5699999999999535, -0.8645295605128789 
0.5799999999999524, -0.8628083296342531 
0.5899999999999513, -0.8601365955256967 
0.5999999999999502, -0.8565644986263082 
0.6099999999999491, -0.8523831616652489 
0.619999999999948, -0.8480095897816928 
0.6299999999999469, -0.8437900390449187 
0.6399999999999458, -0.8398959506174736 
0.6499999999999447, -0.8363481157402128 
0.6599999999999436, -0.8330921908578734 
0.6699999999999425, -0.8300652876535827 
0.6799999999999414, -0.827235509682431 
0.6899999999999403, -0.8246139113344636 
0.6999999999999392, -0.8222457810863342 
0.7099999999999381, -0.8201938157803637 
0.719999999999937, -0.8185243256492708 
0.7299999999999359, -0.8172975303695995 
0.7399999999999348, -0.8165539464273793 
0.7499999999999337, -0.8162930715372892 
0.7599999999999326, -0.8164557224382332 
0.7699999999999315, -0.8169281130859183 
0.7799999999999304, -0.8175720001106823 
0.7899999999999293, -0.8182661287724311 
0.7999999999999282, -0.8189402237524203 
0.8099999999999271, -0.8195900943100248 
0.819999999999926, -0.8202681433893376 
0.8299999999999249, -0.8210501319741595 
0.8399999999999238, -0.8219895001730215 
0.8499999999999227, -0.8230751806207637 
0.8599999999999216, -0.8242086540221069 
0.8699999999999205, -0.8252202450938115 
0.8799999999999194, -0.8259336485866505 
0.8899999999999183, -0.8262448452807494 
0.8999999999999172, -0.8261622478334246 
0.9099999999999161, -0.8258025209276921 
0.919999999999915, -0.8253814420832247 
0.9299999999999139, -0.8252197927457731 
0.9399999999999128, -0.825734091006338 
0.9499999999999117, -0.8273611368487451 
0.9599999999999106, -0.8304147273100624 
0.9699999999999095, -0.8349645983258739 
0.9799999999999084, -0.8408416566395995 
0.9899999999999073, -0.847763729685906 
0.9999999999999062, -0.8554799582648075 
1.0099999999999052, -0.8638548135700488 
1.019999999999904, -0.8728847232034888 
1.029999999999903, -0.8826689538624024 
1.039999999999902, -0.8933358659144094 
1.0499999999999008, -0.9048940550733959 
1.0599999999998997, -0.9169911220317027 
1.0699999999998986, -0.9287119845641778 
1.0799999999998975, -0.9387715550759734 
1.0899999999998964, -0.9462099635687953 
1.0999999999998953, -0.9509189189433916 
1.1099999999998942, -0.9534376897257409 
1.119999999999893, -0.9544392514415236 
1.129999999999892, -0.9544574160552107 
1.1399999999998909, -0.9539189181106977 
1.1499999999998898, -0.9533742467304762 
1.1599999999998887, -0.9538545613245084 
1.1699999999998876, -0.9571132693309865 
1.1799999999998865, -0.9651548102326283 
1.1899999999998854, -0.9788568069330792 
1.1999999999998843, -0.9970496927767858 
1.2099999999998832, -1.017377983490349 
1.219999999999882, -1.0378575912993504 
1.229999999999881, -1.0575233938475657 
1.2399999999998799, -1.076168717000679 
1.2499999999998788, -1.0938443682456198 
1.2599999999998777, -1.110437027110307 
1.2699999999998766, -1.1254077884776175 
1.2799999999998755, -1.137857591955734 
1.2899999999998744, -1.1470434465011314 
1.2999999999998733, -1.152930229733455 
1.3099999999998722, -1.1561551650188948 
1.319999999999871, -1.1575507660545088 
1.32999999999987, -1.1578102657786749 
1.3399999999998689, -1.157484104556175 
1.3499999999998678, -1.1571598613904923 
1.3599999999998666, -1.157571810491884 
1.3699999999998655, -1.1593468211185098 
1.3799999999998644, -1.1625138555715888 
1.3899999999998633, -1.1664783396737621 
1.3999999999998622, -1.1705537307329303 
1.4099999999998611, -1.1743462216886325 
1.41999999999986, -1.1777350385079486 
1.429999999999859, -1.180716361763535 
1.4399999999998578, -1.183313416340192 
1.4499999999998567, -1.1855573518678968 
1.4599999999998556, -1.1874785531940224 
1.4699999999998545, -1.1890827646781106 
1.4799999999998534, -1.1903290984450279 
1.4899999999998523, -1.1911379695491493 
1.4999999999998512, -1.1914362706297161 
1.5099999999998501, -1.191212268765947 
1.519999999999849, -1.190544568107743 
1.529999999999848, -1.1895956451294396 
1.5399999999998468, -1.188568278004675 
1.5499999999998457, -1.187622616168533 
1.5599999999998446, -1.1868130335995009 
1.5699999999998435, -1.186133284272798 
1.5799999999998424, -1.185623421255539 
1.5899999999998413, -1.185380027338892 
1.5999999999998402, -1.1854285368082496 
1.6099999999998391, -1.1856188015306577 
1.619999999999838, -1.1856768724084281 
1.629999999999837, -1.1853243044214423 
1.6399999999998358, -1.1843477719645368 
1.6499999999998347, -1.1826313883129707 
1.6599999999998336, -1.1801801221342334 
1.6699999999998325, -1.177102280881513 
1.6799999999998314, -1.1735352424186503 
1.6899999999998303, -1.169567684408091 
1.6999999999998292, -1.1652116138857809 
1.709999999999828, -1.1604197706885266 
1.719999999999827, -1.1551165071337828 
1.729999999999826, -1.1492363694704095 
1.7399999999998248, -1.1428145709937512 
1.7499999999998237, -1.136173439238894 
1.7599999999998226, -1.130091449289464 
1.7699999999998215, -1.1255853524013246 
1.7799999999998204, -1.1231705703011323 
1.7899999999998193, -1.122399718480826 
1.7999999999998182, -1.1223218330134568 
1.809999999999817, -1.1221159322724676 
1.819999999999816, -1.1211949817248676 
1.8299999999998149, -1.1189718582815469 
1.8399999999998138, -1.1146346757846763 
1.8499999999998127, -1.1071584367404312 
1.8599999999998116, -1.0957469314447859 
1.8699999999998105, -1.0805061174778683 
1.8799999999998094, -1.0625359680195585 
1.8899999999998083, -1.043172841884115 
1.8999999999998072, -1.0232712877505763 
1.909999999999806, -1.0031238907100875 
1.919999999999805, -0.9827799326572533 
1.9299999999998039, -0.9624481328163375 
1.9399999999998028, -0.9428600217221236 
1.9499999999998017, -0.9254126117257627 
1.9599999999998006, -0.9117597204352451 
1.9699999999997995, -0.9028541480703532 
1.9799999999997984, -0.8982704563289297 
1.9899999999997973, -0.8965778949725536 
1.9999999999997962, -0.8962684714267677 
2.0099999999998173, -0.8962964950159347 
2.0199999999998384, -0.8960624145204253 
2.0299999999998595, -0.8951866211542816 
2.0399999999998806, -0.8933300793143253 
2.0499999999999017, -0.8901558256122822 
2.059999999999923, -0.885462963698785 
2.069999999999944, -0.8794078994960582 
2.079999999999965, -0.872547467016202 
2.089999999999986, -0.8655639150889751 
2.100000000000007, -0.8589389700345818 
2.1100000000000283, -0.8528606242082002 
2.1200000000000494, -0.8473184721465232 
2.1300000000000705, -0.8422278447816686 
2.1400000000000916, -0.8375106687960784 
2.1500000000001127, -0.8331319725312488 
2.160000000000134, -0.8291088962259184 
2.170000000000155, -0.8255071644129142 
2.180000000000176, -0.822430375744905 
2.190000000000197, -0.8199953566459918 
2.2000000000002182, -0.8182864668662102 
2.2100000000002393, -0.8173021776414373 
2.2200000000002604, -0.8169292021038774 
2.2300000000002815, -0.8169682348105564 
2.2400000000003026, -0.8171947668173143 
2.2500000000003237, -0.8174170828972983 
2.260000000000345, -0.817511664556446 
2.270000000000366, -0.8174389754429402 
2.280000000000387, -0.8172411836117662 
2.290000000000408, -0.8170144502606005 
2.3000000000004293, -0.8168595174051084 
2.3100000000004504, -0.8168331370672067 
2.3200000000004715, -0.8169207781233896 
2.3300000000004926, -0.8170381759721186 
2.3400000000005137, -0.8170641966871937 
2.3500000000005348, -0.8168963912929105 
2.360000000000556, -0.8165013955661301 
2.370000000000577, -0.8159371111711703 
2.380000000000598, -0.8153513168704931 
2.390000000000619, -0.8149687935895864 
2.4000000000006403, -0.8150600046849414 
2.4100000000006614, -0.8158781110230082 
2.4200000000006825, -0.8175806723933692 
2.4300000000007036, -0.8201854487564451 
2.4400000000007247, -0.8235933840989681 
2.450000000000746, -0.8276571826268961 
2.460000000000767, -0.8322474093624814 
2.470000000000788, -0.8372901756220387 
2.480000000000809, -0.8427802032615647 
2.49000000000083, -0.8487788725779044 
2.5000000000008513, -0.8553939402331856 
2.5100000000008724, -0.8627221823120994 
2.5200000000008935, -0.8707303190018585 
2.5300000000009146, -0.8790842349993422 
2.5400000000009357, -0.8870593774829233 
2.550000000000957, -0.893761073394915 
2.560000000000978, -0.8986048065078458 
2.570000000000999, -0.9015753742188721 
2.58000000000102, -0.9030384450820511 
2.5900000000010412, -0.9034315618155873 
2.6000000000010624, -0.903134517105749 
2.6100000000010835, -0.9025483204309447 
2.6200000000011046, -0.9023345674223229 
2.6300000000011257, -0.9037348464351707 
2.6400000000011468, -0.9086673081271395 
2.650000000001168, -0.9190770496756487 
2.660000000001189, -0.9356209299090823 
2.67000000000121, -0.9570144619844703 
2.680000000001231, -0.9809426942962449 
2.6900000000012523, -1.0054610886751614 
2.7000000000012734, -1.0295751292225082 
2.7100000000012945, -1.0529927876425293 
2.7200000000013156, -1.0755876028610623 
2.7300000000013367, -1.096879685206671 
2.740000000001358, -1.1157573195667145 
2.750000000001379, -1.1308149500572588 
2.7600000000014, -1.1412852112560994 
2.770000000001421, -1.1475816833762287 
2.780000000001442, -1.1508333562663704 
2.7900000000014633, -1.1521470261522706 
2.8000000000014844, -1.152312732459202 
2.8100000000015055, -1.1519179146754928 
2.8200000000015266, -1.151619569962474 
2.8300000000015477, -1.1523008250822175 
2.840000000001569, -1.1547471034692018 
2.85000000000159, -1.1589822002667967 
2.860000000001611, -1.164213214006456 
2.870000000001632, -1.1695363713055147 
2.8800000000016532, -1.1744458203347627 
2.8900000000016743, -1.1788046472335445 
2.9000000000016954, -1.182639663487265 
2.9100000000017165, -1.186014485313739 
2.9200000000017377, -1.1889875717410674 
2.9300000000017588, -1.1915912938042876 
2.94000000000178, -1.1938070877032014 
2.950000000001801, -1.1955565083057773 
2.960000000001822, -1.196734437954007 
2.970000000001843, -1.1972757283086477 
2.9800000000018643, -1.1972082782710793 
2.9900000000018854, -1.196662842358133 
3.0000000000019065, -1.1958525269475293 
3.0100000000019276, -1.1950221392454836 
3.0200000000019487, -1.194351827725541 
3.03000000000197, -1.1938824490877231 
3.040000000001991, -1.1935695836991487 
3.050000000002012, -1.1934077321300076 
3.060000000002033, -1.1934508028073318 
3.070000000002054, -1.1936974319878009 
3.0800000000020753, -1.1940006556540623 
3.0900000000020964, -1.1941159887666566 
3.1000000000021175, -1.1938064972127291 
3.1100000000021386, -1.1929071982910684 
3.1200000000021597, -1.1913534846720681 
3.130000000002181, -1.189185453183598 
3.140000000002202, -1.1865085956121049 
3.150000000002223, -1.1834233696987837 
3.160000000002244, -1.1799747619223093 
3.1700000000022652, -1.1761482155122087 
3.1800000000022863, -1.1718934149160958 
3.1900000000023074, -1.1671483836068166 
3.2000000000023285, -1.1618699503942644 
3.2100000000023496, -1.1561242016157844 
3.2200000000023707, -1.1502698720154494 
3.230000000002392, -1.1450829213523677 
3.240000000002413, -1.1414570884271338 
3.250000000002434, -1.1396924221593137 
3.260000000002455, -1.1392257789493265 
3.2700000000024763, -1.139163470323189 
3.2800000000024974, -1.138781430558267 
3.2900000000025185, -1.1375172450996829 
3.3000000000025396, -1.1347263203554596 
3.3100000000025607, -1.1295131354962986 
3.3200000000025818, -1.1208653774858999 
3.330000000002603, -1.1082118413482174 
3.340000000002624, -1.0919757024608288 
3.350000000002645, -1.0733513321928991 
3.360000000002666, -1.0534807767645447 
3.3700000000026873, -1.032957514335501 
3.3800000000027084, -1.011924625516961 
3.3900000000027295, -0.9904558965859452 
3.4000000000027506, -0.9690000674802699 
3.4100000000027717, -0.9487483796091917 
3.420000000002793, -0.931580885682013 
3.430000000002814, -0.9192233665188763 
3.440000000002835, -0.9120769734820122 
3.450000000002856, -0.908981042350417 
3.460000000002877, -0.9081547803897851 
3.4700000000028983, -0.9081578290837349 
3.4800000000029194, -0.9081364617468631 
3.4900000000029405, -0.9076119243569574 
3.5000000000029616, -0.9062186815765212 
3.5100000000029827, -0.9035627096960835 
3.520000000003004, -0.899259976204206 
3.530000000003025, -0.893170868528214 
3.540000000003046, -0.8856500788347059 
3.550000000003067, -0.8774638687203413 
3.5600000000030882, -0.8693741117831018 
3.5700000000031094, -0.8618222802460462 
3.5800000000031305, -0.8549258385408212 
3.5900000000031516, -0.8486267256876905 
3.6000000000031727, -0.8428230027127567 
3.6100000000031938, -0.8374412244782088 
3.620000000003215, -0.8324655505923879 
3.630000000003236, -0.8279445130235212 
3.640000000003257, -0.823985125583975 
3.650000000003278, -0.8207291915594365 
3.6600000000032993, -0.8183019622440032 
3.6700000000033204, -0.8167429497566949 
3.6800000000033415, -0.8159593300484446 
3.6900000000033626, -0.8157404753633483 
3.7000000000033837, -0.8158247925539598 
3.710000000003405, -0.8159716675628571 
3.720000000003426, -0.8160057483111023 
3.730000000003447, -0.8158365495142503 
3.740000000003468, -0.8154649614980919 
3.750000000003489, -0.8149709862904769 
3.7600000000035103, -0.8144726983826285 
3.7700000000035314, -0.814069934370346 
3.7800000000035525, -0.8138016710293948 
3.7900000000035736, -0.8136325867556596 
3.8000000000035947, -0.8134695525746458 
3.810000000003616, -0.813204276565601 
3.820000000003637, -0.8127665553643085 
3.830000000003658, -0.8121623452260464 
3.840000000003679, -0.8114848974810405 
3.8500000000037002, -0.8109065155717309 
3.8600000000037213, -0.8106544971509388 
3.8700000000037424, -0.8109635239686817 
3.8800000000037635, -0.8120092736077211 
3.8900000000037847, -0.8138568336639402 
3.9000000000038058, -0.8164594569866074 
3.910000000003827, -0.8197049838520769 
3.920000000003848, -0.823473887292038 
3.930000000003869, -0.8276795696382159 
3.94000000000389, -0.8322876257144763 
3.9500000000039113, -0.8373227304024242 
3.9600000000039324, -0.842864457159736 
3.9700000000039535, -0.8490202570408483 
3.9800000000039746, -0.8558546900234516 
3.9900000000039957, -0.8632589777049544 
4.000000000004016, -0.870801944948744 
4.010000000003993, -0.8777294226467864 
4.02000000000397, -0.8832741266243858 
4.030000000003946, -0.8870701963717094 
4.040000000003923, -0.889241899074962 
4.0500000000039, -0.8901601616011131 
4.0600000000038765, -0.8902087538886363 
4.070000000003853, -0.8897413969217751 
4.08000000000383, -0.8892193655710411 
4.090000000003807, -0.8894856591667362 
4.100000000003783, -0.8920429871419031 
4.11000000000376, -0.8989370010655209 
4.120000000003737, -0.9118270112634077 
4.130000000003713, -0.9307513932092574 
4.14000000000369, -0.9539821999995312 
4.150000000003667, -0.9792274771211664 
4.1600000000036434, -1.0048257953682775 
4.17000000000362, -1.0300260196039055 
4.180000000003597, -1.0546055456416892 
4.1900000000035735, -1.0782983185985142 
4.20000000000355, -1.100291024649515 
4.210000000003527, -1.1191227361090634 
4.220000000003504, -1.1333786922739026 
4.23000000000348, -1.1427174931573545 
4.240000000003457, -1.1480117551044962 
4.250000000003434, -1.1505621726973918 
4.26000000000341, -1.1514348875558107 
4.270000000003387, -1.1513480267882228 
4.280000000003364, -1.150888635874969 
4.2900000000033405, -1.1508052934870565 
4.300000000003317, -1.152059906474139 
4.310000000003294, -1.155305639867963 
4.320000000003271, -1.1602564170286669 
4.330000000003247, -1.1659380425435935 
4.340000000003224, -1.1714895335631976 
4.350000000003201, -1.1765161289313952 
4.360000000003177, -1.1809525161520686 
4.370000000003154, -1.1848547200130002 
4.380000000003131, -1.1882964090219716 
4.390000000003107, -1.1913346923589916 
4.400000000003084, -1.1939862894135835 
4.410000000003061, -1.196205705152966 
4.4200000000030375, -1.1978925369705828 
4.430000000003014, -1.1989449207207963 
4.440000000002991, -1.1993300458790057 
4.450000000002968, -1.1991207338369372 
4.460000000002944, -1.1984888358102597 
4.470000000002921, -1.1976757067822201 
4.480000000002898, -1.1969257350621596 
4.490000000002874, -1.196380506755695 
4.500000000002851, -1.1960360739837348 
4.510000000002828, -1.1958393464148085 
4.520000000002804, -1.195800333462749 
4.530000000002781, -1.1959639415306917 
4.540000000002758, -1.1962836919962274 
4.5500000000027345, -1.1965736949651347 
4.560000000002711, -1.1965879240904482 
4.570000000002688, -1.1961156191365767 
4.580000000002665, -1.195030181007449 
4.590000000002641, -1.1933089001485921 
4.600000000002618, -1.1910215549135943 
4.610000000002595, -1.18827553360916 
4.620000000002571, -1.1851493345933917 
4.630000000002548, -1.1816611745987267 
4.640000000002525, -1.1777795927194399 
4.6500000000025015, -1.1734490405648779 
4.660000000002478, -1.1686112287072195 
4.670000000002455, -1.1632473432152735 
4.6800000000024315, -1.157502082447987 
4.690000000002408, -1.1518776846907302 
4.700000000002385, -1.147249446587172 
4.710000000002362, -1.1443700747399939 
4.720000000002338, -1.1432048824045054 
4.730000000002315, -1.1429931248591014 
4.740000000002292, -1.1428785983580527 
4.750000000002268, -1.1422202832134412 
4.760000000002245, -1.1404509643259968 
4.770000000002222, -1.1368320375957508 
4.7800000000021985, -1.1303719433029267 
4.790000000002175, -1.1201272519499592 
4.800000000002152, -1.1058561340955066 
4.810000000002129, -1.0883482351784757 
4.820000000002105, -1.0688764252341134 
4.830000000002082, -1.0483971186619239 
4.840000000002059, -1.0272971765099117 
4.850000000002035, -1.0056451475314354 
4.860000000002012, -0.9836242707848702 
4.870000000001989, -0.9619865831822286 
4.880000000001965, -0.9423145837866425 
4.890000000001942, -0.9266424246665729 
4.900000000001919, -0.9163005874767665 
4.9100000000018955, -0.9109625882091381 
4.920000000001872, -0.909007593626276 
4.930000000001849, -0.9086732173500023 
