t, s[1].omega / s[0].omega 
0, -0.5798678504606641 
0.009999999999999995, -0.568380849732357 
0.019999999999999934, -0.5597338414694489 
0.029999999999999874, -0.5531405009523811 
0.04000000000000012, -0.5480148877687896 
0.050000000000000405, -0.543965015177324 
0.06000000000000069, -0.540747865896866 
0.07000000000000098, -0.5382264677883899 
0.08000000000000126, -0.5363349735176823 
0.09000000000000155, -0.5350514429687774 
0.10000000000000184, -0.5343779270373247 
0.11000000000000212, -0.5343275734450621 
0.12000000000000241, -0.5349185093048541 
0.130000000000002, -0.5361744497947257 
0.1400000000000009, -0.5381323323894456 
0.1499999999999998, -0.5408577279125234 
0.1599999999999987, -0.5444692933598818 
0.1699999999999976, -0.5491741582128759 
0.1799999999999965, -0.5553170761559351 
0.1899999999999954, -0.5634462291943099 
0.1999999999999943, -0.5743878682165356 
0.2099999999999932, -0.5892648513109602 
0.2199999999999921, -0.6092206768219988 
0.229999999999991, -0.6343811055780779 
0.2399999999999899, -0.662151131150152 
0.2499999999999888, -0.6872692625238971 
0.2599999999999877, -0.705544720215366 
0.2699999999999866, -0.7166608750805109 
0.2799999999999855, -0.7226250789609481 
0.2899999999999844, -0.7254452730364002 
0.2999999999999833, -0.7263529931906221 
0.3099999999999822, -0.725884634256216 
0.3199999999999811, -0.7240407171788491 
0.32999999999998, -0.7202595658932393 
0.3399999999999789, -0.7130645104541153 
0.3499999999999778, -0.6989943043682699 
0.35999999999997667, -0.6691178208884799 
0.36999999999997557, -0.589840799921603 
0.37999999999997447, -0.15977901534460354 
0.38999999999997337, 1.464723986686646 
0.39999999999997227, 1.6792458877450565 
0.40999999999997117, 1.6966552940635047 
0.41999999999997006, 1.699413742833491 
0.42999999999996896, 1.6984864549089653 
0.43999999999996786, 1.6923352888965275 
0.44999999999996676, 1.6571673469778563 
0.45999999999996566, 1.3517614762632595 
0.46999999999996456, 1.1280728502696085 
0.47999999999996346, 1.2172262677627015 
0.48999999999996235, 1.2398941593634123 
0.49999999999996125, 1.245646068979888 
0.5099999999999602, 1.2469077176496364 
0.519999999999959, 1.2462661795673777 
0.529999999999958, 1.2443639823630477 
0.5399999999999568, 1.2425073952394896 
0.5499999999999557, 1.2463368011509641 
0.5599999999999546, 1.2616584162850617 
0.5699999999999535, 1.2784526448681057 
0.5799999999999524, 1.287839568873848 
0.5899999999999513, 1.2916806886876473 
0.5999999999999502, 1.2926509344845465 
0.6099999999999491, 1.2915375440442358 
0.619999999999948, 1.2864964317219492 
0.6299999999999469, 1.2631182037744675 
0.6399999999999458, 1.001624057343387 
0.6499999999999447, -2.24846507327008 
0.6599999999999436, -2.8196850484720146 
0.6699999999999425, -2.854018458886713 
0.6799999999999414, -2.858890650305635 
0.6899999999999403, -2.859154950728798 
0.6999999999999392, -2.858199969045647 
0.7099999999999381, -2.8562510547986166 
0.719999999999937, -2.8524143746777773 
0.7299999999999359, -2.849924800480957 
0.7399999999999348, -2.8504454377139035 
0.7499999999999337, -2.849399327701287 
0.7599999999999326, -2.8427102186761655 
0.7699999999999315, -2.8347815177325786 
0.7799999999999304, -2.8704428403090905 
0.7899999999999293, -2.891196123239899 
0.7999999999999282, -2.896921770091831 
0.8099999999999271, -2.898370169236788 
0.819999999999926, -2.8976153359052477 
0.8299999999999249, -2.8937864477892843 
0.8399999999999238, -2.881250031330496 
0.8499999999999227, -2.8237716152869563 
0.8599999999999216, -2.208441661346769 
0.8699999999999205, 0.19734440983050516 
0.8799999999999194, 0.6359035191580082 
0.8899999999999183, 0.6955760770900781 
0.8999999999999172, 0.7102391531409268 
0.9099999999999161, 0.715016652560768 
0.919999999999915, 0.7165367112066656 
0.9299999999999139, 0.7165511984439574 
0.9399999999999128, 0.715561583674764 
0.9499999999999117, 0.7136967141146392 
0.9599999999999106, 0.7114265221592675 
0.9699999999999095, 0.7119647158342194 
0.9799999999999084, 0.727018998100541 
0.9899999999999073, 0.7679259670945466 
0.9999999999999062, 0.8110360055317093 
1.0099999999999052, 0.8346161207159968 
1.019999999999904, 0.8444764750560845 
1.029999999999903, 0.8482102349726347 
1.039999999999902, 0.8490848119404797 
1.0499999999999008, 0.8479140883477682 
1.0599999999998997, 0.8436911204086701 
1.0699999999998986, 0.8314789136100857 
1.0799999999998975, 0.7914725545846935 
1.0899999999998964, 0.6616132308234727 
1.0999999999998953, 0.468946154594852 
1.1099999999998942, 0.4059386060459107 
1.119999999999893, 0.4068832295453041 
1.129999999999892, 0.41343746138058624 
1.1399999999998909, 0.41764404183827936 
1.1499999999998898, 0.4198712255658529 
1.1599999999998887, 0.42082037221592844 
1.1699999999998876, 0.4208130644707505 
1.1799999999998865, 0.4198104117801851 
1.1899999999998854, 0.417309823539865 
1.1999999999998843, 0.41179658458730045 
1.2099999999998832, 0.3986088718574741 
1.219999999999882, 0.35993080110956943 
1.229999999999881, 0.19913834099455238 
1.2399999999998799, -0.6957468246334259 
1.2499999999998788, -2.0380834510328305 
1.2599999999998777, -2.3338500575061767 
1.2699999999998766, -2.392473525723922 
1.2799999999998755, -2.408455211395683 
1.2899999999998744, -2.4132912999279843 
1.2999999999998733, -2.4143031107939534 
1.3099999999998722, -2.413625519346529 
1.319999999999871, -2.411849625164953 
1.32999999999987, -2.4084124223755983 
1.3399999999998689, -2.402408370506138 
1.3499999999998678, -2.3974959975774053 
1.3599999999998666, -2.39772793927637 
1.3699999999998655, -2.3983473342978145 
1.3799999999998644, -2.3963844888516665 
1.3899999999998633, -2.3881910128943122 
1.3999999999998622, -2.3769450802257324 
1.4099999999998611, -2.422834761940239 
1.41999999999986, -2.4681457871168453 
1.429999999999859, -2.483950234017382 
1.4399999999998578, -2.489523340585708 
1.4499999999998567, -2.4915015124873245 
1.4599999999998556, -2.4915241064074256 
1.4699999999998545, -2.489736324974093 
1.4799999999998534, -2.4852088860756703 
1.4899999999998523, -2.474331368046973 
1.4999999999998512, -2.4416360149005927 
1.5099999999998501, -2.316961432057558 
1.519999999999849, -2.1269985209538156 
1.529999999999848, -2.1522823338129626 
1.5399999999998468, -2.174366423806639 
1.5499999999998457, -2.179633405817571 
1.5599999999998446, -2.180109628033269 
1.5699999999998435, -2.1788803710619815 
1.5799999999998424, -2.178826813960671 
1.5899999999998413, -2.182596850434525 
1.5999999999998402, -2.1869140569071446 
1.6099999999998391, -2.1893889294399473 
1.619999999999838, -2.1905249712773633 
1.629999999999837, -2.190749082591651 
1.6399999999998358, -2.18972745891039 
1.6499999999998347, -2.186407617357021 
1.6599999999998336, -2.1781676826093177 
1.6699999999998325, -2.157807734146714 
1.6799999999998314, -2.1016508509537184 
1.6899999999998303, -1.909260062239095 
1.6999999999998292, -1.2222897851430754 
1.709999999999828, -0.3610001728089629 
1.719999999999827, -0.05736978276049405 
1.729999999999826, 0.03044687512276304 
1.7399999999998248, 0.06146814165644835 
1.7499999999998237, 0.07455888431541478 
1.7599999999998226, 0.08069339067440669 
1.7699999999998215, 0.08362840849195301 
1.7799999999998204, 0.0848197224485556 
1.7899999999998193, 0.08483040055817034 
1.7999999999998182, 0.0837707476317692 
1.809999999999817, 0.08138351543993719 
1.819999999999816, 0.07688245670488215 
1.8299999999998149, 0.06836283762300763 
1.8399999999998138, 0.050981763043792275 
1.8499999999998127, 0.010717980955217787 
1.8599999999998116, -0.09975024602770953 
1.8699999999998105, -0.44782439980871824 
1.8799999999998094, -1.2156941379432245 
1.8899999999998083, -1.778197270873887 
1.8999999999998072, -1.9622808975851438 
1.909999999999806, -2.0166311336217166 
1.919999999999805, -2.033900805764654 
1.9299999999998039, -2.0395389817974565 
1.9399999999998028, -2.04104636556262 
1.9499999999998017, -2.04090524724404 
1.9599999999998006, -2.04018271901447 
1.9699999999997995, -2.0392763036001678 
1.9799999999997984, -2.037912093542819 
1.9899999999997973, -2.0361029003720126 
1.9999999999997962, -2.034898728861491 
2.0099999999998173, -2.0346703379583424 
2.0199999999998384, -2.0341174213918993 
2.0299999999998595, -2.0313166859388376 
2.0399999999998806, -2.0206659477027693 
2.0499999999999017, -1.9697217240127851 
2.059999999999923, -1.5773519984910638 
2.069999999999944, 0.4515397543193071 
2.079999999999965, 1.0499776221760855 
2.089999999999986, 1.1027630113650917 
2.100000000000007, 1.1126387422102844 
2.1100000000000283, 1.1150115474986386 
2.1200000000000494, 1.1147770501534677 
2.1300000000000705, 1.112366463607953 
2.1400000000000916, 1.106256940127537 
2.1500000000001127, 1.0929205608516828 
2.160000000000134, 1.0707495027010943 
2.170000000000155, 1.0511766372601474 
2.180000000000176, 1.0449704367967714 
2.190000000000197, 1.0457335052333638 
2.2000000000002182, 1.0472317799345114 
2.2100000000002393, 1.0478281983754882 
2.2200000000002604, 1.0471031589058997 
2.2300000000002815, 1.044017535989868 
2.2400000000003026, 1.0342226410831796 
2.2500000000003237, 0.9946195781243683 
2.260000000000345, 0.7597811393629922 
2.270000000000366, 1.0033181155713256 
2.280000000000387, 2.4269425747362914 
2.290000000000408, 2.460733329537391 
2.3000000000004293, 2.4634016714141387 
2.3100000000004504, 2.4611446211923464 
2.3200000000004715, 2.439614550801548 
2.3300000000004926, 1.0187015242489956 
2.3400000000005137, -2.9833112565952646 
2.3500000000005348, -3.104832684809046 
2.360000000000556, -3.1137857366326727 
2.370000000000577, -3.1144608914044967 
2.380000000000598, -3.113688421357991 
2.390000000000619, -3.112161649095019 
2.4000000000006403, -3.108986190859969 
2.4100000000006614, -3.107436403117866 
2.4200000000006825, -3.107691121364431 
2.4300000000007036, -3.105088761459958 
2.4400000000007247, -3.0944908586112954 
2.450000000000746, -3.108620354882833 
2.460000000000767, -3.135153759115104 
2.470000000000788, -3.1422317421597894 
2.480000000000809, -3.143777160164944 
2.49000000000083, -3.142907419240189 
2.5000000000008513, -3.138082059416472 
2.5100000000008724, -3.1172045223821945 
2.5200000000008935, -2.9383896931059605 
2.5300000000009146, 0.04243027523206811 
2.5400000000009357, 1.0584709555376706 
2.550000000000957, 1.1173177043008373 
2.560000000000978, 1.1275426320705761 
2.570000000000999, 1.1301849560552737 
2.58000000000102, 1.1308003154169528 
2.5900000000010412, 1.1307666323130265 
2.6000000000010624, 1.1306482750931883 
2.6100000000010835, 1.130770505646558 
2.6200000000011046, 1.1312581666126065 
2.6300000000011257, 1.1320021545227974 
2.6400000000011468, 1.1327562737280128 
2.650000000001168, 1.1332982795550115 
2.660000000001189, 1.133472831650573 
2.67000000000121, 1.1330781218694215 
2.680000000001231, 1.1315628442219494 
2.6900000000012523, 1.1269245460149098 
2.7000000000012734, 1.1089018259803993 
2.7100000000012945, 0.971009619719071 
2.7200000000013156, -1.6496543973126474 
2.7300000000013367, -3.039201955867276 
2.740000000001358, -3.1081303945002485 
2.750000000001379, -3.117915167217772 
2.7600000000014, -3.1193756843186318 
2.770000000001421, -3.118274149080745 
2.780000000001442, -3.1146664525636973 
2.7900000000014633, -3.1037219919857137 
2.8000000000014844, -3.088443633824929 
2.8100000000015055, -3.092348456545767 
2.8200000000015266, -3.09456037877592 
2.8300000000015477, -3.0931787341771075 
2.840000000001569, -3.0924965194232588 
2.85000000000159, -3.0967573369133747 
2.860000000001611, -3.0991873658955966 
2.870000000001632, -3.0996508841553543 
2.8800000000016532, -3.098915870374706 
2.8900000000016743, -3.0942851270913634 
2.9000000000016954, -3.062458297603791 
2.9100000000017165, -2.307053414953317 
2.9200000000017377, 1.4272281050353126 
2.9300000000017588, 1.5782001974845483 
2.94000000000178, 1.5911483377149058 
2.950000000001801, 1.5932758195976855 
2.960000000001822, 1.5923569901119172 
2.970000000001843, 1.5877051751553066 
2.9800000000018643, 1.5717031330061006 
2.9900000000018854, 1.5249227789186692 
3.0000000000019065, 1.4867310477853963 
3.0100000000019276, 1.4944331607339978 
3.0200000000019487, 1.5015665349735126 
3.03000000000197, 1.503831439085654 
3.040000000001991, 1.5034894645717267 
3.050000000002012, 1.5007598039544956 
3.060000000002033, 1.4951079179065978 
3.070000000002054, 1.4953262026546152 
3.0800000000020753, 1.5230306884752742 
3.0900000000020964, 1.549074330250171 
3.1000000000021175, 1.5590127380977683 
3.1100000000021386, 1.5619179480713556 
3.1200000000021597, 1.561896839373248 
3.130000000002181, 1.5588112041330218 
3.140000000002202, 1.5434521089500062 
3.150000000002223, 1.354637154292093 
3.160000000002244, -2.6958954765881376 
3.1700000000022652, -3.2294435981001 
3.1800000000022863, -3.2529215213448737 
3.1900000000023074, -3.255647454097013 
3.2000000000023285, -3.2550625872694665 
3.2100000000023496, -3.2528626794209528 
3.2200000000023707, -3.2468953523024062 
3.230000000002392, -3.240440881310465 
3.240000000002413, -3.2422812848175084 
3.250000000002434, -3.24238345483843 
3.260000000002455, -3.239195505333478 
3.2700000000024763, -3.241211956828729 
3.2800000000024974, -3.2486213830676705 
3.2900000000025185, -3.2511211110507574 
3.3000000000025396, -3.251375160800241 
3.3100000000025607, -3.2495241877662715 
3.3200000000025818, -3.2389893398153142 
3.330000000002603, -3.1280729548669073 
3.340000000002624, 0.30200025116645735 
3.350000000002645, 1.4354616456099416 
3.360000000002666, 1.4763849506728588 
3.3700000000026873, 1.4824755456593295 
3.3800000000027084, 1.4833491785455422 
3.3900000000027295, 1.481944189862927 
3.4000000000027506, 1.4773447634728947 
3.4100000000027717, 1.4658017629977111 
3.420000000002793, 1.4449467480011238 
3.430000000002814, 1.4303808486579253 
3.440000000002835, 1.430444699832123 
3.450000000002856, 1.4331918105043346 
3.460000000002877, 1.434313977689707 
3.4700000000028983, 1.4334848639494908 
3.4800000000029194, 1.4294329007635627 
3.4900000000029405, 1.4165573774079776 
3.5000000000029616, 1.3919458204170803 
3.5100000000029827, 1.4745249424215712 
3.520000000003004, 1.5665041748749264 
3.530000000003025, 1.58777924192903 
3.540000000003046, 1.5924839630028913 
3.550000000003067, 1.5928585211904225 
3.5600000000030882, 1.5899443673060512 
3.5700000000031094, 1.5752495839985152 
3.5800000000031305, 1.415026277615745 
3.5900000000031516, -1.4606400420481709 
3.6000000000031727, -2.456842195130399 
3.6100000000031938, -2.5188003882911256 
3.620000000003215, -2.5274008965965518 
3.630000000003236, -2.5286457471082926 
3.640000000003257, -2.5282374124639806 
3.650000000003278, -2.5277994836446456 
3.6600000000032993, -2.5271558286984486 
3.6700000000033204, -2.5258281394397297 
3.6800000000033415, -2.5249926926520625 
3.6900000000033626, -2.524733097878079 
3.7000000000033837, -2.5228331181086574 
3.710000000003405, -2.5131047630450927 
3.720000000003426, -2.4467760066663775 
3.730000000003447, -2.150199551523383 
3.740000000003468, -3.382642135561259 
3.750000000003489, -3.523761745395209 
3.7600000000035103, -3.5362156021809064 
3.7700000000035314, -3.538129773547637 
3.7800000000035525, -3.536683704173278 
3.7900000000035736, -3.5297824976729593 
3.8000000000035947, -3.48542434065977 
3.810000000003616, -2.893396911547363 
3.820000000003637, -2.9645070863524774 
3.830000000003658, -3.0189016255996144 
3.840000000003679, -3.0243234317814496 
3.8500000000037002, -3.0243865226436144 
3.8600000000037213, -3.0239180383453834 
3.8700000000037424, -3.023530449353528 
3.8800000000037635, -3.0222338773770976 
3.8900000000037847, -3.0214836994784107 
3.9000000000038058, -3.0209449019013825 
3.910000000003827, -3.0165259459389473 
3.920000000003848, -2.9873096873319565 
3.930000000003869, -2.9965639324309983 
3.94000000000389, -3.1578312588804525 
3.9500000000039113, -3.1850698600675047 
3.9600000000039324, -3.1903886694077483 
3.9700000000039535, -3.1911503335923244 
3.9800000000039746, -3.1892201562841924 
3.9900000000039957, -3.181993957822705 
4.000000000004016, -3.1482236105629116 
4.010000000003993, -2.73882726416051 
4.02000000000397, -1.1648093172505614 
4.030000000003946, -1.0267609598270009 
4.040000000003923, -1.0779819441142695 
4.0500000000039, -1.108804808130069 
4.0600000000038765, -1.1222348733403578 
4.070000000003853, -1.1277578454286366 
4.08000000000383, -1.129670559490512 
4.090000000003807, -1.1294599366173148 
4.100000000003783, -1.1270992323421158 
4.11000000000376, -1.1209121579231893 
4.120000000003737, -1.1054186895234797 
4.130000000003713, -1.0633642996889519 
4.14000000000369, -0.9361186750267387 
4.150000000003667, -0.42398401226139715 
4.1600000000036434, 1.4523162305641937 
4.17000000000362, 1.7241186714038854 
4.180000000003597, 1.7431991036929155 
4.1900000000035735, 1.7460905775665783 
4.20000000000355, 1.7451735673871362 
4.210000000003527, 1.7388699700819472 
4.220000000003504, 1.7008522124448775 
4.23000000000348, 1.352300255080886 
4.240000000003457, 1.1658814274659546 
4.250000000003434, 1.2553431959204293 
4.26000000000341, 1.2758928963681222 
4.270000000003387, 1.280970613399456 
4.280000000003364, 1.281958195867081 
4.2900000000033405, 1.28119216696223 
4.300000000003317, 1.2794086635932866 
4.310000000003294, 1.278474734088418 
4.320000000003271, 1.2839985728491183 
4.330000000003247, 1.2980274138342225 
4.340000000003224, 1.3108212990320278 
4.350000000003201, 1.3175561082941678 
4.360000000003177, 1.320192131404114 
4.370000000003154, 1.3205309737200157 
4.380000000003131, 1.3187001675098007 
4.390000000003107, 1.3113020324878855 
4.400000000003084, 1.2697795711107753 
4.410000000003061, 0.4779893703969645 
4.4200000000030375, -2.8203885859250897 
4.430000000003014, -3.000140228505658 
4.440000000002991, -3.015409972820442 
4.450000000002968, -3.017495790851842 
4.460000000002944, -3.01692767972591 
4.470000000002921, -3.015154584665345 
4.480000000002898, -3.01092373682775 
4.490000000002874, -3.005506489430436 
4.500000000002851, -3.0058211382568585 
4.510000000002828, -3.0062083381231055 
4.520000000002804, -3.0029740293971705 
4.530000000002781, -2.9983824851414957 
4.540000000002758, -3.0126714323898285 
4.5500000000027345, -3.023273066953452 
4.560000000002711, -3.026314706304061 
4.570000000002688, -3.0267329547001864 
4.580000000002665, -3.024892894245697 
4.590000000002641, -3.01708094814964 
4.600000000002618, -2.977828309165879 
4.610000000002595, -2.519895618624955 
4.620000000002571, 0.5701574872891658 
4.630000000002548, 0.982431328059965 
4.640000000002525, 1.0200824576766467 
4.6500000000025015, 1.0280637759063875 
4.660000000002478, 1.0303081827403586 
4.670000000002455, 1.0308218068599322 
4.6800000000024315, 1.0306933485194842 
4.690000000002408, 1.0303687044284187 
4.700000000002385, 1.030111051500476 
4.710000000002362, 1.0300789297009536 
4.720000000002338, 1.0303044543526525 
4.730000000002315, 1.0306927445263903 
4.740000000002292, 1.0310783597494653 
4.750000000002268, 1.031282463012071 
4.760000000002245, 1.031100276326262 
4.770000000002222, 1.03016084131661 
4.7800000000021985, 1.0274266590218588 
4.790000000002175, 1.0188765833044602 
4.800000000002152, 0.9800902701041924 
4.810000000002129, 0.5535837496173036 
4.820000000002105, -2.5299204629684366 
4.830000000002082, -2.966940719425267 
4.840000000002059, -3.002774408978996 
4.850000000002035, -3.0089277440758666 
4.860000000002012, -3.0095769653300737 
4.870000000001989, -3.0081870164743463 
4.880000000001965, -3.0043520179212297 
4.890000000001942, -2.994217907951296 
4.900000000001919, -2.9847481628139727 
4.9100000000018955, -2.9879149724344582 
4.920000000001872, -2.989012251219358 
4.930000000001849, -2.9868729795224396 
4.940000000001826, -2.9861442486126895 
4.950000000001802, -2.992821696724918 
4.960000000001779, -2.9968238902122453 
4.970000000001756, -2.9978912673983817 
4.980000000001732, -2.9975118649424846 
4.990000000001709, -2.9942756849555137 
5.000000000001686, -2.978227916675811 
