t, s[1].omega / s[0].omega 
0, -1.019997547690363 
0.009999999999999995, -1.0197207447065089 
0.019999999999999934, -1.0193507270869095 
0.029999999999999874, -1.018815259905794 
0.04000000000000012, -1.0180490599570937 
0.050000000000000405, -1.0170447548844506 
0.06000000000000069, -1.01587668678259 
0.07000000000000098, -1.01468281243432 
0.08000000000000126, -1.0136091103806597 
0.09000000000000155, -1.0127485910898395 
0.10000000000000184, -1.0121272459716653 
0.11000000000000212, -1.0117483582675562 
0.12000000000000241, -1.011634648478887 
0.130000000000002, -1.0118077566635812 
0.1400000000000009, -1.0122252239544118 
0.1499999999999998, -1.0127538989510516 
0.1599999999999987, -1.013215715557766 
0.1699999999999976, -1.0134623156137441 
0.1799999999999965, -1.0134260900965244 
0.1899999999999954, -1.0131300286396923 
0.1999999999999943, -1.0126566608366727 
0.2099999999999932, -1.012091506911967 
0.2199999999999921, -1.0114736740516574 
0.229999999999991, -1.0107799509852367 
0.2399999999999899, -1.0099471680845036 
0.2499999999999888, -1.0089199419738692 
0.2599999999999877, -1.0076977350164227 
0.2699999999999866, -1.0063536735884764 
0.2799999999999855, -1.0050122159234065 
0.2899999999999844, -1.0037957243286277 
0.2999999999999833, -1.0027780926019787 
0.3099999999999822, -1.0019881021893413 
0.3199999999999811, -1.0014532421253197 
0.32999999999998, -1.0012201335735271 
0.3399999999999789, -1.001311589661717 
0.3499999999999778, -1.0016628894213124 
0.35999999999997667, -1.0021149009985997 
0.36999999999997557, -1.0024765722249012 
0.37999999999997447, -1.0026006864446975 
0.38999999999997337, -1.0024287486730177 
0.39999999999997227, -1.0019953655248317 
0.40999999999997117, -1.0013927615220473 
0.41999999999997006, -1.000711460330294 
0.42999999999996896, -0.9999914036694246 
0.43999999999996786, -0.9992087896795419 
0.44999999999996676, -0.9983008107875764 
0.45999999999996566, -0.9972139271636017 
0.46999999999996456, -0.9959497418063373 
0.47999999999996346, -0.9945820345927331 
0.48999999999996235, -0.9932334181072253 
0.49999999999996125, -0.9920230011599596 
0.5099999999999602, -0.9910227509677222 
0.519999999999959, -0.9902616764456944 
0.529999999999958, -0.9897665046087963 
0.5399999999999568, -0.9895787946597153 
0.5499999999999557, -0.9897138679446493 
0.5599999999999546, -0.9901032784751116 
0.5699999999999535, -0.990591518755096 
0.5799999999999524, -0.9909963525309825 
0.5899999999999513, -0.9911806237519377 
0.5999999999999502, -0.991094187380354 
0.6099999999999491, -0.990775608681775 
0.619999999999948, -0.9903150281495925 
0.6299999999999469, -0.9897960038095628 
0.6399999999999458, -0.9892493831862176 
0.6499999999999447, -0.9886421164634417 
0.6599999999999436, -0.9879032813078856 
0.6699999999999425, -0.9869739568309374 
0.6799999999999414, -0.9858546841515048 
0.6899999999999403, -0.9846238790860588 
0.6999999999999392, -0.983415792730937 
0.7099999999999381, -0.9823662101824693 
0.719999999999937, -0.9815592265978876 
0.7299999999999359, -0.9810190603791403 
0.7399999999999348, -0.9807488925377508 
0.7499999999999337, -0.980762461754134 
0.7599999999999326, -0.9810636067291334 
0.7699999999999315, -0.9815971896466555 
0.7799999999999304, -0.9822349297807627 
0.7899999999999293, -0.9828193950010753 
0.7999999999999282, -0.9832285956912561 
0.8099999999999271, -0.9834178391881793 
0.819999999999926, -0.9834219231217853 
0.8299999999999249, -0.9833195025096643 
0.8399999999999238, -0.9831787696481955 
0.8499999999999227, -0.9830144082236574 
0.8599999999999216, -0.9827769297096385 
0.8699999999999205, -0.982379566618053 
0.8799999999999194, -0.9817515534731251 
0.8899999999999183, -0.9808894551486548 
0.8999999999999172, -0.9798785042685397 
0.9099999999999161, -0.9788737490570412 
0.919999999999915, -0.9780445286647504 
0.9299999999999139, -0.9775058552468361 
0.9399999999999128, -0.9772864598347448 
0.9499999999999117, -0.977360121021493 
0.9599999999999106, -0.9776980034563524 
0.9699999999999095, -0.9782800829128966 
0.9799999999999084, -0.9790614085475287 
0.9899999999999073, -0.9799457823193738 
0.9999999999999062, -0.9808069071535257 
1.0099999999999052, -0.9815407110267544 
1.019999999999904, -0.9821067378337348 
1.029999999999903, -0.9825332234205832 
1.039999999999902, -0.9828850749731114 
1.0499999999999008, -0.9832134776562735 
1.0599999999998997, -0.9835144373627871 
1.0699999999998986, -0.9837176201921043 
1.0799999999998975, -0.9837152460700315 
1.0899999999998964, -0.983421294106026 
1.0999999999998953, -0.9828277232903961 
1.1099999999998942, -0.9820274118527925 
1.119999999999893, -0.9811981503549256 
1.129999999999892, -0.9805492845690427 
1.1399999999998909, -0.9802406052965168 
1.1499999999998898, -0.9803219033455216 
1.1599999999998887, -0.9807473391570112 
1.1699999999998876, -0.9814437033980836 
1.1799999999998865, -0.9823555438518659 
1.1899999999998854, -0.9834327895263263 
1.1999999999998843, -0.98459946847343 
1.2099999999998832, -0.9857550102601609 
1.219999999999882, -0.9868120955222972 
1.229999999999881, -0.9877351107660477 
1.2399999999998799, -0.9885477890073545 
1.2499999999998788, -0.989304621815946 
1.2599999999998777, -0.9900429913020486 
1.2699999999998766, -0.9907420504185012 
1.2799999999998755, -0.9913115489444053 
1.2899999999998744, -0.9916245701084725 
1.2999999999998733, -0.9915837516736529 
1.3099999999998722, -0.9911810318139429 
1.319999999999871, -0.990518968905602 
1.32999999999987, -0.9897946079513595 
1.3399999999998689, -0.9892485321078075 
1.3499999999998678, -0.9890770386419787 
1.3599999999998666, -0.9893508033447634 
1.3699999999998655, -0.9900139207392138 
1.3799999999998644, -0.9909616142270554 
1.3899999999998633, -0.9921092898663879 
1.3999999999998622, -0.9933961041552555 
1.4099999999998611, -0.9947526037345986 
1.41999999999986, -0.9960909550818162 
1.429999999999859, -0.9973335680665777 
1.4399999999998578, -0.9984486906503827 
1.4499999999998567, -0.9994587245157932 
1.4599999999998556, -1.0004129464461369 
1.4699999999998545, -1.001340636787495 
1.4799999999998534, -1.00221066248926 
1.4899999999998523, -1.0029221493665814 
1.4999999999998512, -1.0033413997831009 
1.5099999999998501, -1.0033719321005472 
1.519999999999849, -1.003013633710588 
1.529999999999848, -1.002380388482008 
1.5399999999998468, -1.0016811870114732 
1.5499999999998457, -1.0011666927783731 
1.5599999999998446, -1.0010366654705813 
1.5699999999998435, -1.0013556022296202 
1.5799999999998424, -1.0020566114708773 
1.5899999999998413, -1.003027527557689 
1.5999999999998402, -1.0041825689952972 
1.6099999999998391, -1.0054620139170158 
1.619999999999838, -1.0067959383180851 
1.629999999999837, -1.0080946121969032 
1.6399999999998358, -1.0092794031142795 
1.6499999999998347, -1.0103192524884406 
1.6599999999998336, -1.0112378500809058 
1.6699999999998325, -1.0120847681869756 
1.6799999999998314, -1.0128883179458665 
1.6899999999998303, -1.0136171193694152 
1.6999999999998292, -1.0141743129164338 
1.709999999999828, -1.014436569825482 
1.719999999999827, -1.0143218258991684 
1.729999999999826, -1.0138435521582274 
1.7399999999998248, -1.0131246659421365 
1.7499999999998237, -1.0123737568495204 
1.7599999999998226, -1.0118230237207126 
1.7699999999998215, -1.0116350051323473 
1.7799999999998204, -1.011839601047803 
1.7899999999998193, -1.0123649948354225 
1.7999999999998182, -1.013124415646241 
1.809999999999817, -1.0140620896153734 
1.819999999999816, -1.0151289380612467 
1.8299999999998149, -1.0162441528970902 
1.8399999999998138, -1.017300597574129 
1.8499999999998127, -1.0182093161433026 
1.8599999999998116, -1.0189387973147561 
1.8699999999998105, -1.0195181674725193 
1.8799999999998094, -1.0200037027026991 
1.8899999999998083, -1.0204300446241543 
1.8999999999998072, -1.0207743074325901 
1.909999999999806, -1.0209542847207778 
1.919999999999805, -1.0208673677661437 
1.9299999999998039, -1.0204522157119542 
1.9399999999998028, -1.019736301011659 
1.9499999999998017, -1.018845283447184 
1.9599999999998006, -1.0179712513456503 
1.9699999999997995, -1.0173024316341186 
1.9799999999997984, -1.0169438470145475 
1.9899999999997973, -1.0168946995273829 
1.9999999999997962, -1.0171044780339984 
2.0099999999998173, -1.0175378164674629 
2.0199999999998384, -1.0181752719908486 
2.0299999999998595, -1.0189644770551216 
2.0399999999998806, -1.0197944882154686 
2.0499999999999017, -1.0205295908688012 
2.059999999999923, -1.0210690690317619 
2.069999999999944, -1.0213849984831893 
2.079999999999965, -1.021518143570163 
2.089999999999986, -1.021537852675382 
2.100000000000007, -1.0214903113966898 
2.1100000000000283, -1.021364705469701 
2.1200000000000494, -1.021095239996385 
2.1300000000000705, -1.0205997350348135 
2.1400000000000916, -1.0198354750851348 
2.1500000000001127, -1.0188399530665604 
2.160000000000134, -1.0177337516182015 
2.170000000000155, -1.0166807344116555 
2.180000000000176, -1.0158193287496018 
2.190000000000197, -1.0152109356958952 
2.2000000000002182, -1.0148537077455135 
2.2100000000002393, -1.0147408361157568 
2.2200000000002604, -1.0148864356390739 
2.2300000000002815, -1.0152846084869054 
2.2400000000003026, -1.0158547037039651 
2.2500000000003237, -1.0164446399010778 
2.260000000000345, -1.0168928417778482 
2.270000000000366, -1.017093843905014 
2.280000000000387, -1.0170292486591848 
2.290000000000408, -1.0167558133723198 
2.3000000000004293, -1.0163587313768225 
2.3100000000004504, -1.0158963839539956 
2.3200000000004715, -1.0153680201983724 
2.3300000000004926, -1.0147194019806478 
2.3400000000005137, -1.0138820176083896 
2.3500000000005348, -1.0128251123297818 
2.360000000000556, -1.0115907242784774 
2.370000000000577, -1.0102904914086748 
2.380000000000598, -1.009062345026336 
2.390000000000619, -1.0080112214103802 
2.4000000000006403, -1.0071821863041945 
2.4100000000006614, -1.006591078079032 
2.4200000000006825, -1.0062690563281413 
2.4300000000007036, -1.0062546038638671 
2.4400000000007247, -1.0065313207214166 
2.450000000000746, -1.0069845434568385 
2.460000000000767, -1.0074323390886943 
2.470000000000788, -1.0077016893310775 
2.480000000000809, -1.0076909478585465 
2.49000000000083, -1.0073935891571508 
2.5000000000008513, -1.0068805014319708 
2.5100000000008724, -1.006248328159758 
2.5200000000008935, -1.0055620309305122 
2.5300000000009146, -1.0048243671605763 
2.5400000000009357, -1.0039847416931384 
2.550000000000957, -1.0029797076880806 
2.560000000000978, -1.0017834289314218 
2.570000000000999, -1.0004395782568405 
2.58000000000102, -0.999055112641807 
2.5900000000010412, -0.9977567892847823 
2.6000000000010624, -0.9966381196526457 
2.6100000000010835, -0.9957420495203648 
2.6200000000011046, -0.9950935844973638 
2.6300000000011257, -0.9947345119508298 
2.6400000000011468, -0.9947034939313661 
2.650000000001168, -0.9949726769820634 
2.660000000001189, -0.9954146586600258 
2.67000000000121, -0.9958429754385467 
2.680000000001231, -0.9960888195278932 
2.6900000000012523, -0.9960591587224261 
2.7000000000012734, -0.9957562234154222 
2.7100000000012945, -0.9952563209379603 
2.7200000000013156, -0.9946564154230163 
2.7300000000013367, -0.9940176985095226 
2.740000000001358, -0.9933375043961264 
2.750000000001379, -0.99256024910521 
2.7600000000014, -0.9916192974339232 
2.770000000001421, -0.990488082836541 
2.780000000001442, -0.9892120944374199 
2.7900000000014633, -0.9879028651064712 
2.8000000000014844, -0.9866944638134104 
2.8100000000015055, -0.9856876431714546 
2.8200000000015266, -0.9849261214156734 
2.8300000000015477, -0.9844243738998969 
2.840000000001569, -0.9842058190482236 
2.85000000000159, -0.9842947414900003 
2.860000000001611, -0.9846639170621797 
2.870000000001632, -0.98520110791138 
2.8800000000016532, -0.9857393830593099 
2.8900000000016743, -0.9861255851192116 
2.9000000000016954, -0.9862761668817435 
2.9100000000017165, -0.9861958797392971 
2.9200000000017377, -0.9859558800778887 
2.9300000000017588, -0.9856421394752359 
2.94000000000178, -0.9853025746170448 
2.950000000001801, -0.9849210059331716 
2.960000000001822, -0.9844287653162697 
2.970000000001843, -0.9837483562997015 
2.9800000000018643, -0.9828475444372424 
2.9900000000018854, -0.9817739642803917 
3.0000000000019065, -0.9806517033621086 
3.0100000000019276, -0.97963857652652 
3.0200000000019487, -0.9788616779509726 
3.03000000000197, -0.9783747682004007 
3.040000000001991, -0.9781736027051819 
3.050000000002012, -0.9782444533649836 
3.060000000002033, -0.9785832405249701 
3.070000000002054, -0.9791640206481441 
3.0800000000020753, -0.9799019151462334 
3.0900000000020964, -0.980662709682603 
3.1000000000021175, -0.9813157498262095 
3.1100000000021386, -0.9817868569021257 
3.1200000000021597, -0.9820788622939125 
3.130000000002181, -0.9822520402651808 
3.140000000002202, -0.9823763563168185 
3.150000000002223, -0.9824820837246845 
3.160000000002244, -0.9825343410196238 
3.1700000000022652, -0.982444853661345 
3.1800000000022863, -0.9821191413032713 
3.1900000000023074, -0.9815158558684427 
3.2000000000023285, -0.9806845792437684 
3.2100000000023496, -0.979765159652614 
3.2200000000023707, -0.9789480862111933 
3.230000000002392, -0.9784030487913373 
3.240000000002413, -0.9782118510083132 
3.250000000002434, -0.9783609395942161 
3.260000000002455, -0.9787957721306653 
3.2700000000024763, -0.9794713624299266 
3.2800000000024974, -0.9803492890062836 
3.2900000000025185, -0.9813634869526006 
3.3000000000025396, -0.9824104768628578 
3.3100000000025607, -0.9833830219450773 
3.3200000000025818, -0.9842167609030795 
3.330000000002603, -0.9849125977058545 
3.340000000002624, -0.9855207667585988 
3.350000000002645, -0.9860967629276883 
3.360000000002666, -0.9866538615217368 
3.3700000000026873, -0.9871372226404868 
3.3800000000027084, -0.9874367771864968 
3.3900000000027295, -0.9874402176755682 
3.4000000000027506, -0.9870986038690809 
3.4100000000027717, -0.9864655075028665 
3.420000000002793, -0.9856962975348068 
3.430000000002814, -0.9850118149611194 
3.440000000002835, -0.9846247418073192 
3.450000000002856, -0.9846523879172011 
3.460000000002877, -0.9850839306188831 
3.4700000000028983, -0.9858335178140216 
3.4800000000029194, -0.9868163416861659 
3.4900000000029405, -0.9879724761239357 
3.5000000000029616, -0.9892399548516172 
3.5100000000029827, -0.9905332731942107 
3.520000000003004, -0.9917618282738268 
3.530000000003025, -0.9928695352654413 
3.540000000003046, -0.9938573752293243 
3.550000000003067, -0.9947697865500846 
3.5600000000030882, -0.9956526801851012 
3.5700000000031094, -0.9965067861245991 
3.5800000000031305, -0.9972620449725934 
3.5900000000031516, -0.997793260325931 
3.6000000000031727, -0.9979789381402228 
3.6100000000031938, -0.9977707063186404 
3.620000000003215, -0.9972307164531328 
3.630000000003236, -0.9965280054002104 
3.640000000003257, -0.9959021409322002 
3.650000000003278, -0.995587541109661 
3.6600000000032993, -0.9957162276045365 
3.6700000000033204, -0.9962747786556575 
3.6800000000033415, -0.9971602292132589 
3.6900000000033626, -0.998269318087458 
3.7000000000033837, -0.9995322999258235 
3.710000000003405, -1.0008867805816783 
3.720000000003426, -1.0022514762781571 
3.730000000003447, -1.0035402655834607 
3.740000000003468, -1.0047000224192968 
3.750000000003489, -1.005732734002448 
3.7600000000035103, -1.006681591613894 
3.7700000000035314, -1.007588991188022 
3.7800000000035525, -1.00845075509187 
3.7900000000035736, -1.0091928214038286 
3.8000000000035947, -1.009690297103377 
3.810000000003616, -1.0098282619615186 
3.820000000003637, -1.0095692995736174 
3.830000000003658, -1.008986982269548 
3.840000000003679, -1.0082587013480822 
3.8500000000037002, -1.0076241966003774 
3.8600000000037213, -1.0073039174092586 
3.8700000000037424, -1.0074053556275124 
3.8800000000037635, -1.0078972842980098 
3.8900000000037847, -1.0086792033043481 
3.9000000000038058, -1.0096645404492337 
3.910000000003827, -1.0107971517314278 
3.920000000003848, -1.0120147902955101 
3.930000000003869, -1.0132267016550245 
3.94000000000389, -1.014337774153219 
3.9500000000039113, -1.0152919289847555 
3.9600000000039324, -1.0160933057404258 
3.9700000000039535, -1.0167889182495702 
3.9800000000039746, -1.0174244366484688 
3.9900000000039957, -1.0179994491768114 
4.000000000004016, -1.0184479238924955 
4.010000000003993, -1.0186598920494252 
4.02000000000397, -1.0185395402679023 
4.030000000003946, -1.0180663167436903 
4.040000000003923, -1.0173237074094166 
4.0500000000039, -1.0164874254012224 
4.0600000000038765, -1.0157743452305092 
4.070000000003853, -1.0153575494057674 
4.08000000000383, -1.0152962670324408 
4.090000000003807, -1.0155473212336688 
4.100000000003783, -1.0160420877539897 
4.11000000000376, -1.0167381142918734 
4.120000000003737, -1.0175994467206748 
4.130000000003713, -1.0185514733115313 
4.14000000000369, -1.0194774043061128 
4.150000000003667, -1.0202638334968939 
4.1600000000036434, -1.0208508699763665 
4.17000000000362, -1.0212491214553072 
4.180000000003597, -1.0215158602847336 
4.1900000000035735, -1.0217066279033549 
4.20000000000355, -1.0218309671126875 
4.210000000003527, -1.0218368264606952 
4.220000000003504, -1.0216342148663127 
4.23000000000348, -1.0211490826698497 
4.240000000003457, -1.0203771022761274 
4.250000000003434, -1.0194066776969737 
4.26000000000341, -1.0183999041606466 
4.270000000003387, -1.0175334297234075 
4.280000000003364, -1.0169236829432906 
4.2900000000033405, -1.0165947500647434 
4.300000000003317, -1.0165200469657116 
4.310000000003294, -1.0166835205811477 
4.320000000003271, -1.0170845390713512 
4.330000000003247, -1.0176865175388514 
4.340000000003224, -1.0183808459334265 
4.350000000003201, -1.019015274160814 
4.360000000003177, -1.019459503691417 
4.370000000003154, -1.019655205413554 
4.380000000003131, -1.0196253361287329 
4.390000000003107, -1.0194427839998756 
4.400000000003084, -1.0191768124796312 
4.410000000003061, -1.018848434084425 
4.4200000000030375, -1.0184183622729102 
4.430000000003014, -1.0178128339391552 
4.440000000002991, -1.0169745145414524 
4.450000000002968, -1.0159101638896388 
4.460000000002944, -1.014707224021407 
4.470000000002921, -1.0135079110982745 
4.480000000002898, -1.0124497796499206 
4.490000000002874, -1.0116110779333574 
4.500000000002851, -1.0110101969754892 
4.510000000002828, -1.0106550924593312 
4.520000000002804, -1.0105746690480237 
4.530000000002781, -1.010784278450044 
4.540000000002758, -1.0112231533317764 
4.5500000000027345, -1.0117425337349923 
4.560000000002711, -1.0121627904596926 
4.570000000002688, -1.0123469248872365 
4.580000000002665, -1.0122443246547739 
4.590000000002641, -1.011892707841364 
4.600000000002618, -1.0113805081495533 
4.610000000002595, -1.0107887278217507 
4.620000000002571, -1.0101460324646199 
4.630000000002548, -1.009419929881234 
4.640000000002525, -1.0085450412695542 
4.6500000000025015, -1.0074728401333979 
4.660000000002478, -1.0062154009755389 
4.670000000002455, -1.0048572941917038 
4.6800000000024315, -1.0035263597984645 
4.690000000002408, -1.0023383039101335 
4.700000000002385, -1.0013570741077447 
4.710000000002362, -1.000608074041752 
4.720000000002338, -1.0001225986248985 
4.730000000002315, -0.9999475700067764 
4.740000000002292, -1.0000937958181044 
4.750000000002268, -1.0004778895363873 
4.760000000002245, -1.0009296609741831 
4.770000000002222, -1.0012614523026808 
4.7800000000021985, -1.0013401409985332 
4.790000000002175, -1.0011248962462385 
4.800000000002152, -1.0006641844437854 
4.810000000002129, -1.0000541944863632 
4.820000000002105, -0.9993788299222144 
4.830000000002082, -0.9986660785844792 
4.840000000002059, -0.9978819595039925 
4.850000000002035, -0.9969608249541004 
4.860000000002012, -0.9958554334617451 
4.870000000001989, -0.9945796347200929 
4.880000000001965, -0.9932188652671773 
4.890000000001942, -0.9919003792131272 
4.900000000001919, -0.9907387845857345 
4.9100000000018955, -0.9897975899310796 
4.920000000001872, -0.9891013106674773 
4.930000000001849, -0.9886769542833278 
