t, s[1].omega / s[0].omega 
0, -0.6995496992698004 
0.009999999999999995, -0.6603731833735422 
0.019999999999999934, -0.6311659243969239 
0.029999999999999874, -0.609331468085683 
0.04000000000000012, -0.5928104016250898 
0.050000000000000405, -0.5801993639389991 
0.06000000000000069, -0.5705759311053135 
0.07000000000000098, -0.5633218905642616 
0.08000000000000126, -0.5579963207371021 
0.09000000000000155, -0.554254440266212 
0.10000000000000184, -0.5518016760813186 
0.11000000000000212, -0.550373566367399 
0.12000000000000241, -0.5497327856394209 
0.130000000000002, -0.549675174668808 
0.1400000000000009, -0.5500386221260093 
0.1499999999999998, -0.5507118738389569 
0.1599999999999987, -0.5516429258094939 
0.1699999999999976, -0.5528464925321843 
0.1799999999999965, -0.5544076485539947 
0.1899999999999954, -0.5564780292233352 
0.1999999999999943, -0.5592629151602239 
0.2099999999999932, -0.5629925883634124 
0.2199999999999921, -0.567850348124032 
0.229999999999991, -0.5738163225839229 
0.2399999999999899, -0.5804621369128065 
0.2499999999999888, -0.5869264827754561 
0.2599999999999877, -0.5922919081105216 
0.2699999999999866, -0.596074870329297 
0.2799999999999855, -0.5983132773801962 
0.2899999999999844, -0.5992903994136324 
0.2999999999999833, -0.5992644477890475 
0.3099999999999822, -0.5983456450296094 
0.3199999999999811, -0.5964605187865387 
0.32999999999998, -0.5933393532874817 
0.3399999999999789, -0.588550437712109 
0.3499999999999778, -0.581858720767276 
0.35999999999997667, -0.5753021824676224 
0.36999999999997557, -0.5842260242064256 
0.37999999999997447, -0.7150229779599271 
0.38999999999997337, -3.4801207043193534 
0.39999999999997227, -4.427477491238173 
0.40999999999997117, -4.4419660227419016 
0.41999999999997006, -4.442457262515023 
0.42999999999996896, -4.4374726121587 
0.43999999999996786, -4.372715444812764 
0.44999999999996676, 0.01563865328401045 
0.45999999999996566, 1.5562869867913203 
0.46999999999996456, 1.6159369402769137 
0.47999999999996346, 1.6235196450132687 
0.48999999999996235, 1.6248989333604615 
0.49999999999996125, 1.6249355882948084 
0.5099999999999602, 1.6249188731436792 
0.519999999999959, 1.6253337049175205 
0.529999999999958, 1.6259647228941472 
0.5399999999999568, 1.6263581764381771 
0.5499999999999557, 1.6263983891519966 
0.5599999999999546, 1.626135600556707 
0.5699999999999535, 1.6252692312463286 
0.5799999999999524, 1.622276646669916 
0.5899999999999513, 1.6081433552531206 
0.5999999999999502, 1.4354211843016818 
0.6099999999999491, -3.1555274040862615 
0.619999999999948, -3.7235195912752337 
0.6299999999999469, -3.7446145545249214 
0.6399999999999458, -3.7472765702105115 
0.6499999999999447, -3.745954676953656 
0.6599999999999436, -3.7388805481176632 
0.6699999999999425, -3.6836146953470483 
0.6799999999999414, -3.5087240375065334 
0.6899999999999403, -3.5801347225758997 
0.6999999999999392, -3.5865718192805134 
0.7099999999999381, -3.586398951363891 
0.719999999999937, -3.5858705080470643 
0.7299999999999359, -3.5846267689124454 
0.7399999999999348, -3.5830378608426656 
0.7499999999999337, -3.582794904213793 
0.7599999999999326, -3.579283797951242 
0.7699999999999315, -3.5641087166021315 
0.7799999999999304, -3.5953729416990954 
0.7899999999999293, -3.613116774737081 
0.7999999999999282, -3.61606159670765 
0.8099999999999271, -3.6155837898362106 
0.819999999999926, -3.6104790575366947 
0.8299999999999249, -3.574687449657298 
0.8399999999999238, -2.2808607186156444 
0.8499999999999227, 1.5218616434822214 
0.8599999999999216, 1.6090969281951293 
0.8699999999999205, 1.6180362510740927 
0.8799999999999194, 1.619586638591541 
0.8899999999999183, 1.6191351073277729 
0.8999999999999172, 1.6171131039150037 
0.9099999999999161, 1.6128113458622582 
0.919999999999915, 1.6061653141907595 
0.9299999999999139, 1.6005551861694969 
0.9399999999999128, 1.5990551727452245 
0.9499999999999117, 1.5995029951702548 
0.9599999999999106, 1.599433641390808 
0.9699999999999095, 1.597312875475147 
0.9799999999999084, 1.5885020415351119 
0.9899999999999073, 1.5468440127505392 
0.9999999999999062, 1.5350891870135743 
1.0099999999999052, 1.8186612122040988 
1.019999999999904, 1.8649892031283077 
1.029999999999903, 1.8716680514490966 
1.039999999999902, 1.8721997818190996 
1.0499999999999008, 1.8688509934145485 
1.0599999999998997, 1.8474118260793055 
1.0699999999998986, 1.346319092734306 
1.0799999999998975, -2.4643656899059945 
1.0899999999998964, -2.762792318257813 
1.0999999999998953, -2.7838765560757834 
1.1099999999998942, -2.7867770082725607 
1.119999999999893, -2.786606604723274 
1.129999999999892, -2.7858956652438396 
1.1399999999998909, -2.7846655666533127 
1.1499999999998898, -2.7824222440365194 
1.1599999999998887, -2.7813049263415386 
1.1699999999998876, -2.781221543640861 
1.1799999999998865, -2.778802112346749 
1.1899999999998854, -2.7654077791445353 
1.1999999999998843, -2.7323657205131044 
1.2099999999998832, -2.853494116907412 
1.219999999999882, -2.9102700804752133 
1.229999999999881, -2.9222088270353472 
1.2399999999998799, -2.925378149264022 
1.2499999999998788, -2.9255813988346704 
1.2599999999998777, -2.9233906505186114 
1.2699999999998766, -2.916557601892071 
1.2799999999998755, -2.89165801104219 
1.2899999999998744, -2.72435711590342 
1.2999999999998733, -2.0065544019519166 
1.3099999999998722, -2.0582836147194548 
1.319999999999871, -2.124000201014381 
1.32999999999987, -2.137254509201955 
1.3399999999998689, -2.139872132275904 
1.3499999999998678, -2.1395908359359077 
1.3599999999998666, -2.138793341684403 
1.3699999999998655, -2.1400260002432914 
1.3799999999998644, -2.1430408207119913 
1.3899999999998633, -2.1453243312796 
1.3999999999998622, -2.1464545858580473 
1.4099999999998611, -2.146889440926739 
1.41999999999986, -2.1464891199708016 
1.429999999999859, -2.1444277556815936 
1.4399999999998578, -2.138726999752358 
1.4499999999998567, -2.123995746141493 
1.4599999999998556, -2.0837012199267786 
1.4699999999998545, -1.957146546761064 
1.4799999999998534, -1.5060200950497808 
1.4899999999998523, -0.5805794699492525 
1.4999999999998512, -0.08775787010596729 
1.5099999999998501, 0.052073557784111844 
1.519999999999849, 0.09723730623582426 
1.529999999999848, 0.11511491891633338 
1.5399999999998468, 0.12321679435545425 
1.5499999999998457, 0.1271020652747818 
1.5599999999998446, 0.12882586592126083 
1.5699999999998435, 0.12918410793107188 
1.5799999999998424, 0.12838853084652874 
1.5899999999998413, 0.12622225099723403 
1.5999999999998402, 0.1218784731412671 
1.6099999999998391, 0.1132706386181526 
1.619999999999838, 0.09473239371709098 
1.629999999999837, 0.0483123403495519 
1.6399999999998358, -0.09518485067944238 
1.6499999999998347, -0.6040286899286501 
1.6599999999998336, -1.5404043994459586 
1.6699999999998325, -1.976636720630158 
1.6799999999998314, -2.0965322706427623 
1.6899999999998303, -2.1345576114660902 
1.6999999999998292, -2.148254795219179 
1.709999999999828, -2.1532276223290303 
1.719999999999827, -2.1546171898606574 
1.729999999999826, -2.1543358280431786 
1.7399999999998248, -2.153179138029624 
1.7499999999998237, -2.151261857159728 
1.7599999999998226, -2.1480912548037487 
1.7699999999998215, -2.1440898581414323 
1.7799999999998204, -2.14200133246524 
1.7899999999998193, -2.1421690957108357 
1.7999999999998182, -2.1418752953425826 
1.809999999999817, -2.138773941712137 
1.819999999999816, -2.1257398375607757 
1.8299999999998149, -2.067385480840516 
1.8399999999998138, -2.0505850530378122 
1.8499999999998127, -2.60563412897232 
1.8599999999998116, -2.752884340840702 
1.8699999999998105, -2.7780514916472763 
1.8799999999998094, -2.784871202464053 
1.8899999999998083, -2.786747077152356 
1.8999999999998072, -2.7862446325122585 
1.909999999999806, -2.783428351300459 
1.919999999999805, -2.775688613563743 
1.9299999999998039, -2.749038569400154 
1.9399999999998028, -2.660606541138148 
1.9499999999998017, -2.6385250745569224 
1.9599999999998006, -2.658704292337287 
1.9699999999997995, -2.6629915732652787 
1.9799999999997984, -2.662793301955948 
1.9899999999997973, -2.6619583272666927 
1.9999999999997962, -2.6635987593836674 
2.0099999999998173, -2.665681881640368 
2.0199999999998384, -2.6663884936314606 
2.0299999999998595, -2.6664324221069093 
2.0399999999998806, -2.665495699393927 
2.0499999999999017, -2.6609857926740927 
2.059999999999923, -2.6386659056081383 
2.069999999999944, -2.4339713140190495 
2.079999999999965, 0.014066679458792159 
2.089999999999986, 0.9582524896888513 
2.100000000000007, 1.0244179901842065 
2.1100000000000283, 1.036223427122551 
2.1200000000000494, 1.0392675858249967 
2.1300000000000705, 1.0396637027227253 
2.1400000000000916, 1.0385596231279517 
2.1500000000001127, 1.0359145429904184 
2.160000000000134, 1.0313580890594334 
2.170000000000155, 1.0250393680482652 
2.180000000000176, 1.01853908367267 
2.190000000000197, 1.0140043561458918 
2.2000000000002182, 1.0119588713750705 
2.2100000000002393, 1.0113870831744347 
2.2200000000002604, 1.0111769942430582 
2.2300000000002815, 1.0105454044280813 
2.2400000000003026, 1.0085684620499142 
2.2500000000003237, 1.0026756846755194 
2.260000000000345, 0.9806576852924987 
2.270000000000366, 0.8315349943310938 
2.280000000000387, -1.3768935515815293 
2.290000000000408, -3.0543605198677097 
2.3000000000004293, -3.1385838724236264 
2.3100000000004504, -3.1510918154935577 
2.3200000000004715, -3.153679862628587 
2.3300000000004926, -3.153082360145421 
2.3400000000005137, -3.149627492033663 
2.3500000000005348, -3.137453669413472 
2.360000000000556, -3.085721704634479 
2.370000000000577, -3.0588817256843983 
2.380000000000598, -3.076409865341648 
2.390000000000619, -3.0792836251787437 
2.4000000000006403, -3.078587660219422 
2.4100000000006614, -3.0786626547993463 
2.4200000000006825, -3.0799268252024796 
2.4300000000007036, -3.0800289948536124 
2.4400000000007247, -3.079750645219838 
2.450000000000746, -3.0785034460018297 
2.460000000000767, -3.0707085439456447 
2.470000000000788, -2.987627426200903 
2.480000000000809, -2.0586911035466717 
2.49000000000083, -4.696460588574307 
2.5000000000008513, -4.737347564173939 
2.5100000000008724, -4.739088365719889 
2.5200000000008935, -4.735138877314979 
2.5300000000009146, -4.67729508627316 
2.5400000000009357, 1.856535270315669 
2.550000000000957, 2.4125247715448013 
2.560000000000978, 2.4245278078060153 
2.570000000000999, 2.425654692896933 
2.58000000000102, 2.4249709026809447 
2.5900000000010412, 2.4224608828207383 
2.6000000000010624, 2.417234116812316 
2.6100000000010835, 2.413549336304629 
2.6200000000011046, 2.4141309760792096 
2.6300000000011257, 2.414148366721628 
2.6400000000011468, 2.4107495528656933 
2.650000000001168, 2.4000195881093687 
2.660000000001189, 2.417092510929719 
2.67000000000121, 2.4428412241668993 
2.680000000001231, 2.448649208359251 
2.6900000000012523, 2.4490417090340415 
2.7000000000012734, 2.4456340135210195 
2.7100000000012945, 2.408755799976548 
2.7200000000013156, -3.230055954083224 
2.7300000000013367, -4.428992859595426 
2.740000000001358, -4.4427664266516365 
2.750000000001379, -4.442879081025377 
2.7600000000014, -4.437755277404383 
2.770000000001421, -4.380667123062098 
2.780000000001442, -4.340007744864122 
2.7900000000014633, -4.361183198565703 
2.8000000000014844, -4.361568288629376 
2.8100000000015055, -4.3606441607487625 
2.8200000000015266, -4.358093034659083 
2.8300000000015477, -4.356913183268359 
2.840000000001569, -4.356102789766704 
2.85000000000159, -4.35111787015676 
2.860000000001611, -4.359128501985663 
2.870000000001632, -4.362299792273483 
2.8800000000016532, -4.361910289642342 
2.8900000000016743, -4.355825226711211 
2.9000000000016954, -4.122725151459557 
2.9100000000017165, 4.088549358379877 
2.9200000000017377, 4.190326274387287 
2.9300000000017588, 4.190696533569936 
2.94000000000178, 4.166253861140105 
2.950000000001801, -5.785995697431644 
2.960000000001822, -5.875841011307502 
2.970000000001843, -5.875521772871851 
2.9800000000018643, -5.86129287709634 
2.9900000000018854, -5.823549630622321 
3.0000000000019065, -5.838190332951702 
3.0100000000019276, -5.837113752838836 
3.0200000000019487, -5.833028522749792 
3.03000000000197, -5.8322791243219925 
3.040000000001991, -5.830760301642032 
3.050000000002012, -5.831321984973082 
3.060000000002033, -5.830744442895982 
3.070000000002054, -5.82835783744037 
3.0800000000020753, -5.8111883291111806 
3.0900000000020964, -5.8422439945822155 
3.1000000000021175, -5.8431527767895455 
3.1100000000021386, -5.834405033874885 
3.1200000000021597, 2.7553839555672486 
3.130000000002181, 4.868851736088855 
3.140000000002202, 4.870232810736884 
3.150000000002223, 4.836278869590815 
3.160000000002244, -6.563447503695727 
3.1700000000022652, -6.585792349877684 
3.1800000000022863, -6.582373737914269 
3.1900000000023074, -6.469490180513027 
3.2000000000023285, -6.53570784307622 
3.2100000000023496, -6.535401957224609 
3.2200000000023707, -6.5299691797841515 
3.230000000002392, -6.528787719079854 
3.240000000002413, -6.527904582867967 
3.250000000002434, -6.5272223384995005 
3.260000000002455, -6.525685668817384 
3.2700000000024763, -6.521093116056311 
3.2800000000024974, -6.525331954015135 
3.2900000000025185, -6.526162495103025 
3.3000000000025396, -6.5196577962772295 
3.3100000000025607, -6.537448829208198 
3.3200000000025818, -6.596357282090267 
3.330000000002603, -6.594884600127581 
3.340000000002624, -6.438603557891549 
3.350000000002645, 4.700371237196181 
3.360000000002666, 4.7089587162673405 
3.3700000000026873, 4.70271783790456 
3.3800000000027084, 2.0956378816073604 
3.3900000000027295, 3.7098591705297905 
3.4000000000027506, 3.7200737152996255 
3.4100000000027717, 3.719786221391421 
3.420000000002793, 3.7154786441634036 
3.430000000002814, 3.7036390807527964 
3.440000000002835, 3.7071150968487188 
3.450000000002856, 3.7077893128216566 
3.460000000002877, 3.7064464183061565 
3.4700000000028983, 3.7084881943777974 
3.4800000000029194, 3.709256679275738 
3.4900000000029405, 3.7085531333694015 
3.5000000000029616, 3.7049210317842394 
3.5100000000029827, 3.637739917780346 
3.520000000003004, 3.7763469963155862 
3.530000000003025, 3.793434096628406 
3.540000000003046, 3.7929564912686864 
3.550000000003067, 3.7718311223148597 
3.5600000000030882, -5.602175730900805 
3.5700000000031094, -5.786925917176189 
3.5800000000031305, -5.788027471732271 
3.5900000000031516, -5.778308540754438 
3.6000000000031727, -5.340303748087116 
3.6100000000031938, -5.583827011492521 
3.620000000003215, -5.585566986564318 
3.630000000003236, -5.582730199402827 
3.640000000003257, -5.572839792752933 
3.650000000003278, -5.5766653980835015 
3.6600000000032993, -5.5755141729068995 
3.6700000000033204, -5.575311351165374 
3.6800000000033415, -5.574018739757695 
3.6900000000033626, -5.57149952400445 
3.7000000000033837, -5.566898274495128 
3.710000000003405, -5.57885039046861 
3.720000000003426, -5.578787388961623 
3.730000000003447, -5.568875902393161 
3.740000000003468, -5.031586276767464 
3.750000000003489, -6.208966602324783 
3.7600000000035103, -6.211712144420906 
3.7700000000035314, -6.202260650769086 
3.7800000000035525, 3.4979963776070897 
3.7900000000035736, 4.194056450716257 
3.8000000000035947, 4.1962151256723095 
3.810000000003616, 4.189578589620374 
3.820000000003637, 4.064628676070997 
3.830000000003658, 4.129722775127134 
3.840000000003679, 4.132882258052714 
3.8500000000037002, 4.132303570820904 
3.8600000000037213, 4.129674679650861 
3.8700000000037424, 4.126920396444701 
3.8800000000037635, 4.127329821377994 
3.8900000000037847, 4.124066696999204 
3.9000000000038058, 4.12682314001009 
3.910000000003827, 4.130894510573734 
3.920000000003848, 4.130475225885589 
3.930000000003869, 4.124763149961066 
3.94000000000389, 3.8550423880788935 
3.9500000000039113, 4.31145712998653 
3.9600000000039324, 4.317075914461512 
3.9700000000039535, 4.312009113097647 
3.9800000000039746, -1.0546358238657507 
3.9900000000039957, -6.295099851683056 
4.000000000004016, -6.297914151002826 
4.010000000003993, -6.288424143724959 
4.02000000000397, -6.007615875330112 
4.030000000003946, -6.1345790136041005 
4.040000000003923, -6.134241379649094 
4.0500000000039, -6.127371106096257 
4.0600000000038765, -6.124014724842079 
4.070000000003853, -6.124909969762189 
4.08000000000383, -6.123985298720063 
4.090000000003807, -6.12204380943844 
4.100000000003783, -6.120575895014978 
4.11000000000376, -6.117715113710889 
4.120000000003737, -6.122499603398193 
4.130000000003713, -6.121327784039634 
4.14000000000369, -6.089001182263962 
4.150000000003667, -6.180996124315216 
4.1600000000036434, -6.193138175217536 
4.17000000000362, -6.190035667392154 
4.180000000003597, -5.723121118946731 
4.1900000000035735, 4.266959744704583 
4.20000000000355, 4.2752263160398805 
4.210000000003527, 4.271105011159706 
4.220000000003504, 3.7539669715691644 
4.23000000000348, 3.7872958769967817 
4.240000000003457, 3.8029997998730614 
4.250000000003434, 3.803052513491109 
4.26000000000341, 3.799949368926378 
4.270000000003387, 3.7903493347195587 
4.280000000003364, 3.7921230955891354 
4.2900000000033405, 3.7927461461345118 
4.300000000003317, 3.7910924133338497 
4.310000000003294, 3.793504647139445 
4.320000000003271, 3.7945468869795937 
4.330000000003247, 3.7938273385235624 
4.340000000003224, 3.7894720363605154 
4.350000000003201, 3.6968567330534627 
4.360000000003177, 3.875523976280623 
4.370000000003154, 3.8875544838607135 
4.380000000003131, 3.8862532038397632 
4.390000000003107, 3.840679004656169 
4.400000000003084, -5.829381596271409 
4.410000000003061, -5.8810901928926205 
4.4200000000030375, -5.880455959653041 
4.430000000003014, -5.857537010297307 
4.440000000002991, -5.612032758912038 
4.450000000002968, -5.676902755703507 
4.460000000002944, -5.67659862280372 
4.470000000002921, -5.671451998161522 
4.480000000002898, -5.665509378727636 
4.490000000002874, -5.667768635137141 
4.500000000002851, -5.66678018681356 
4.510000000002828, -5.665861683347054 
4.520000000002804, -5.6648004917364885 
4.530000000002781, -5.658867971475076 
4.540000000002758, -5.665576110145786 
4.5500000000027345, -5.6690075649720395 
4.560000000002711, -5.666975728251577 
4.570000000002688, -5.573921244477714 
4.580000000002665, -6.012053402032995 
4.590000000002641, -6.035426717787074 
4.600000000002618, -6.033609780946349 
4.610000000002595, -5.958665640925643 
4.620000000002571, 3.9997939989854396 
4.630000000002548, 4.0275126088685855 
4.640000000002525, 4.026880913866037 
4.6500000000025015, 4.007091013593711 
4.660000000002478, 3.9107324425291465 
4.670000000002455, 3.9533347556130947 
4.6800000000024315, 3.9545506856808728 
4.690000000002408, 3.953807888438059 
4.700000000002385, 3.95083945186715 
4.710000000002362, 3.9487727299969606 
4.720000000002338, 3.948958421652197 
4.730000000002315, 3.945177166161451 
4.740000000002292, 3.9485575895625673 
4.750000000002268, 3.9537980848691205 
4.760000000002245, 3.953686893748196 
4.770000000002222, 3.949217947779507 
4.7800000000021985, 3.65199677128149 
4.790000000002175, 4.27293378154644 
4.800000000002152, 4.285177014740869 
4.810000000002129, 4.282347176791153 
4.820000000002105, 3.833871522274361 
4.830000000002082, -6.222223306133997 
4.840000000002059, -6.229554003358829 
4.850000000002035, -6.224645819978624 
4.860000000002012, -5.988012166925066 
4.870000000001989, -6.128596907132132 
4.880000000001965, -6.129378079507138 
4.890000000001942, -6.125211158317394 
4.900000000001919, -6.119683057121861 
4.9100000000018955, -6.121216404835918 
4.920000000001872, -6.120285268641169 
4.930000000001849, -6.118785962222453 
4.940000000001826, -6.1174511654912385 
4.950000000001802, -6.111684211749034 
4.960000000001779, -6.119810049489849 
4.970000000001756, -6.119303012435107 
4.980000000001732, -6.103104754189659 
4.990000000001709, -6.199701601109586 
5.000000000001686, -6.238379395191109 
5.0100000000016625, -6.2369787243944 
5.020000000001639, -6.160464394102479 
