t, s[1].omega / s[0].omega 
0, -1.120244889364421 
0.009999999999999995, -1.1432900064625753 
0.019999999999999934, -1.1625685630320106 
0.029999999999999874, -1.1769258567867527 
0.04000000000000012, -1.1862278858852573 
0.050000000000000405, -1.191454937676076 
0.06000000000000069, -1.1939448035396842 
0.07000000000000098, -1.194774308989964 
0.08000000000000126, -1.194672301386556 
0.09000000000000155, -1.194244772591321 
0.10000000000000184, -1.1942323297955642 
0.11000000000000212, -1.1954563735049208 
0.12000000000000241, -1.1982748252874837 
0.130000000000002, -1.2022199113509908 
0.1400000000000009, -1.2064624723973687 
0.1499999999999998, -1.2104329690928135 
0.1599999999999987, -1.2139339882294982 
0.1699999999999976, -1.2169555933014065 
0.1799999999999965, -1.2195295075760322 
0.1899999999999954, -1.2216902524156263 
0.1999999999999943, -1.2234737724742133 
0.2099999999999932, -1.2249028518777845 
0.2199999999999921, -1.2259641349401014 
0.229999999999991, -1.2266045709899376 
0.2399999999999899, -1.2267623469534656 
0.2499999999999888, -1.2264165015189175 
0.2599999999999877, -1.2256223787097464 
0.2699999999999866, -1.2245134138054008 
0.2799999999999855, -1.2232611007761747 
0.2899999999999844, -1.2219978891121932 
0.2999999999999833, -1.2207712529706252 
0.3099999999999822, -1.219610712031821 
0.3199999999999811, -1.2186380080789716 
0.32999999999998, -1.2180370258836257 
0.3399999999999789, -1.217856370672047 
0.3499999999999778, -1.2178862320562323 
0.35999999999997667, -1.2177630712376402 
0.36999999999997557, -1.217122117685109 
0.37999999999997447, -1.2156487287169973 
0.38999999999997337, -1.2130999166188094 
0.39999999999997227, -1.2093689592472245 
0.40999999999997117, -1.2045305038332168 
0.41999999999997006, -1.198772414765213 
0.42999999999996896, -1.1922538412150376 
0.43999999999996786, -1.1850085516389401 
0.44999999999996676, -1.1769345822504491 
0.45999999999996566, -1.1678435164515477 
0.46999999999996456, -1.157582806106139 
0.47999999999996346, -1.1463184782828475 
0.48999999999996235, -1.1349828612948785 
0.49999999999996125, -1.125410662415011 
0.5099999999999602, -1.1193243483957431 
0.519999999999959, -1.1168006733710496 
0.529999999999958, -1.1163868758199222 
0.5399999999999568, -1.116541382325241 
0.5499999999999557, -1.1163211777287132 
0.5599999999999546, -1.1151170187351687 
0.5699999999999535, -1.1121661320428786 
0.5799999999999524, -1.1061214562740902 
0.5899999999999513, -1.0948411473145176 
0.5999999999999502, -1.075985602893455 
0.6099999999999491, -1.0488343600963144 
0.619999999999948, -1.0156119936734995 
0.6299999999999469, -0.9800542616797537 
0.6399999999999458, -0.9449882299754911 
0.6499999999999447, -0.9116854054547232 
0.6599999999999436, -0.8805845730121666 
0.6699999999999425, -0.8520817187234412 
0.6799999999999414, -0.8269158808316914 
0.6899999999999403, -0.8060994469852263 
0.6999999999999392, -0.7904594747460632 
0.7099999999999381, -0.780093647959454 
0.719999999999937, -0.7741995752062827 
0.7299999999999359, -0.7714309114047369 
0.7399999999999348, -0.7704439376343927 
0.7499999999999337, -0.770232359250071 
0.7599999999999326, -0.770164327947729 
0.7699999999999315, -0.7698669309596856 
0.7799999999999304, -0.769106365514445 
0.7899999999999293, -0.7677348380811908 
0.7999999999999282, -0.7657138999109366 
0.8099999999999271, -0.7631651779060944 
0.819999999999926, -0.7603563069162342 
0.8299999999999249, -0.7575882897176347 
0.8399999999999238, -0.7550716976427724 
0.8499999999999227, -0.7528827824742442 
0.8599999999999216, -0.7509927256181462 
0.8699999999999205, -0.7493208996026014 
0.8799999999999194, -0.7477852548109583 
0.8899999999999183, -0.7463411773287381 
0.8999999999999172, -0.7450020427748685 
0.9099999999999161, -0.7438381943564387 
0.919999999999915, -0.7429577848579322 
0.9299999999999139, -0.7424768559773189 
0.9399999999999128, -0.7424887606982836 
0.9499999999999117, -0.7430444447961715 
0.9599999999999106, -0.7441500799156142 
0.9699999999999095, -0.7457786485547618 
0.9799999999999084, -0.7478867793905628 
0.9899999999999073, -0.7504315268268528 
0.9999999999999062, -0.7533874653351689 
1.0099999999999052, -0.7567649114656099 
1.019999999999904, -0.7606251111194312 
1.029999999999903, -0.7650827655429971 
1.039999999999902, -0.7702823220283954 
1.0499999999999008, -0.7763284621920034 
1.0599999999998997, -0.7831509858073473 
1.0699999999998986, -0.7903384770971537 
1.0799999999998975, -0.7971156794420222 
1.0899999999998964, -0.8026540436471252 
1.0999999999998953, -0.8065168012054198 
1.1099999999998942, -0.8087753016133892 
1.119999999999893, -0.8097674224744755 
1.129999999999892, -0.8098466879443608 
1.1399999999998909, -0.8093128992830765 
1.1499999999998898, -0.8085242454552292 
1.1599999999998887, -0.8082086673960166 
1.1699999999998876, -0.8100574629712709 
1.1799999999998865, -0.8175342314266036 
1.1899999999998854, -0.8361504272072535 
1.1999999999998843, -0.8715682599930055 
1.2099999999998832, -0.9250945454269365 
1.219999999999882, -0.9908322996633151 
1.229999999999881, -1.0592961316764278 
1.2399999999998799, -1.123388033653073 
1.2499999999998788, -1.1799678061621655 
1.2599999999998777, -1.227817598314091 
1.2699999999998766, -1.2658285383441472 
1.2799999999998755, -1.2931208961763943 
1.2899999999998744, -1.3103308450737836 
1.2999999999998733, -1.3198401148296193 
1.3099999999998722, -1.3244677150266708 
1.319999999999871, -1.326334305524607 
1.32999999999987, -1.3267094632879128 
1.3399999999998689, -1.3263829698040366 
1.3499999999998678, -1.3260847097343498 
1.3599999999998666, -1.326590774341088 
1.3699999999998655, -1.3282690294478432 
1.3799999999998644, -1.3307198327944931 
1.3899999999998633, -1.333257306352217 
1.3999999999998622, -1.3354934136112222 
1.4099999999998611, -1.3373518243981575 
1.41999999999986, -1.3388306005434099 
1.429999999999859, -1.3398862307581005 
1.4399999999998578, -1.3404624726582068 
1.4499999999998567, -1.3405378080393238 
1.4599999999998556, -1.3401292628865853 
1.4699999999998545, -1.3392639244228302 
1.4799999999998534, -1.337948306471717 
1.4899999999998523, -1.3361591674484372 
1.4999999999998512, -1.3338574193338428 
1.5099999999998501, -1.3310020220561063 
1.519999999999849, -1.3275379866850632 
1.529999999999848, -1.3233849460795644 
1.5399999999998468, -1.3185462528630283 
1.5499999999998457, -1.3134281458782442 
1.5599999999998446, -1.3090675953005062 
1.5699999999998435, -1.306522889501331 
1.5799999999998424, -1.305751318278401 
1.5899999999998413, -1.305725174314889 
1.5999999999998402, -1.3054202156871137 
1.6099999999998391, -1.3040425890508944 
1.619999999999838, -1.3005157927923876 
1.629999999999837, -1.2926613976296044 
1.6399999999998358, -1.2762058034567925 
1.6499999999998347, -1.2445672286745566 
1.6599999999998336, -1.1918307099230623 
1.6699999999998325, -1.1184122635052751 
1.6799999999998314, -1.0321273021361108 
1.6899999999998303, -0.9428729400722167 
1.6999999999998292, -0.8586967745401086 
1.709999999999828, -0.7854574829896716 
1.719999999999827, -0.7268834933912054 
1.729999999999826, -0.6840711508808698 
1.7399999999998248, -0.6555224615908477 
1.7499999999998237, -0.6381399846449041 
1.7599999999998226, -0.6284899211325581 
1.7699999999998215, -0.623653154085635 
1.7799999999998204, -0.6215269770423739 
1.7899999999998193, -0.6207640248162243 
1.7999999999998182, -0.620569274137336 
1.809999999999817, -0.6204950239392858 
1.819999999999816, -0.6202921693626248 
1.8299999999998149, -0.6198288654035207 
1.8399999999998138, -0.6190661883885119 
1.8499999999998127, -0.6180631902514322 
1.8599999999998116, -0.6169684043944904 
1.8699999999998105, -0.6159702706852744 
1.8799999999998094, -0.6152282734346207 
1.8899999999998083, -0.614827536852287 
1.8999999999998072, -0.6147667646416155 
1.909999999999806, -0.6149630912759163 
1.919999999999805, -0.6152704797315344 
1.9299999999998039, -0.6155226531487679 
1.9399999999998028, -0.6155921991259001 
1.9499999999998017, -0.6154331236919914 
1.9599999999998006, -0.6150916676536865 
1.9699999999997995, -0.6147082271111997 
1.9799999999997984, -0.6145438107084089 
1.9899999999997973, -0.6150492743537161 
1.9999999999997962, -0.6169760612639913 
2.0099999999998173, -0.6215047066138807 
2.0199999999998384, -0.6303360142902903 
2.0299999999998595, -0.6456595785210744 
2.0399999999998806, -0.6699165157263488 
2.0499999999999017, -0.7053444067762158 
2.059999999999923, -0.7534320249786574 
2.069999999999944, -0.8145084758070743 
2.079999999999965, -0.8875141698591786 
2.089999999999986, -0.9694844617877866 
2.100000000000007, -1.0541268870855214 
2.1100000000000283, -1.1308337367722587 
2.1200000000000494, -1.1886453060461233 
2.1300000000000705, -1.2242019569710487 
2.1400000000000916, -1.2426942289232057 
2.1500000000001127, -1.2512953846093493 
2.160000000000134, -1.254912666051338 
2.170000000000155, -1.256070721952004 
2.180000000000176, -1.2559667186193093 
2.190000000000197, -1.255364898471079 
2.2000000000002182, -1.2552623690993374 
2.2100000000002393, -1.2570434348679425 
2.2200000000002604, -1.2614975871444258 
2.2300000000002815, -1.2678017635995376 
2.2400000000003026, -1.2743716742968874 
2.2500000000003237, -1.2802126253153787 
2.260000000000345, -1.2850902785185683 
2.270000000000366, -1.2891062130693633 
2.280000000000387, -1.292407595117826 
2.290000000000408, -1.295106529518836 
2.3000000000004293, -1.2972742922798868 
2.3100000000004504, -1.298935403370215 
2.3200000000004715, -1.3000659026814563 
2.3300000000004926, -1.3006186947238816 
2.3400000000005137, -1.3005721862256465 
2.3500000000005348, -1.299971681503133 
2.360000000000556, -1.2989401362229775 
2.370000000000577, -1.2976486756978498 
2.380000000000598, -1.296240442507378 
2.390000000000619, -1.2947664882994814 
2.4000000000006403, -1.293252566373456 
2.4100000000006614, -1.2918588697760078 
2.4200000000006825, -1.2908803111784208 
2.4300000000007036, -1.2904644435064336 
2.4400000000007247, -1.2903819094861981 
2.450000000000746, -1.2901627759779712 
2.460000000000767, -1.2893144282241606 
2.470000000000788, -1.2873400631826848 
2.480000000000809, -1.2836890669583432 
2.49000000000083, -1.2778405115439435 
2.5000000000008513, -1.2695138281917677 
2.5100000000008724, -1.2587585849312588 
2.5200000000008935, -1.245748230380269 
2.5300000000009146, -1.230461102177878 
2.5400000000009357, -1.2125183353570745 
2.550000000000957, -1.191298099440766 
2.560000000000978, -1.166509381509921 
2.570000000000999, -1.1395097298159202 
2.58000000000102, -1.1146259010464183 
2.5900000000010412, -1.0974089663588176 
2.6000000000010624, -1.0895513446084852 
2.6100000000010835, -1.0878272901075492 
2.6200000000011046, -1.0883146653853306 
2.6300000000011257, -1.0888758083761476 
2.6400000000011468, -1.0886733937091377 
2.650000000001168, -1.0871630645537746 
2.660000000001189, -1.083356323256099 
2.67000000000121, -1.0750519372243281 
2.680000000001231, -1.0578682914552044 
2.6900000000012523, -1.0252732702039524 
2.7000000000012734, -0.9729891961177748 
2.7100000000012945, -0.9064681682201915 
2.7200000000013156, -0.8388310058385307 
2.7300000000013367, -0.779823010782337 
2.740000000001358, -0.73207224368564 
2.750000000001379, -0.6944693826120709 
2.7600000000014, -0.6651358079393961 
2.770000000001421, -0.6424707292205956 
2.780000000001442, -0.6252715316047568 
2.7900000000014633, -0.6126038085842646 
2.8000000000014844, -0.6036646556129494 
2.8100000000015055, -0.597705353894775 
2.8200000000015266, -0.5940169064082664 
2.8300000000015477, -0.591955331163695 
2.840000000001569, -0.5909756875052519 
2.85000000000159, -0.590651942913249 
2.860000000001611, -0.5906763547398659 
2.870000000001632, -0.5908459973191703 
2.8800000000016532, -0.5910486506716994 
2.8900000000016743, -0.5912548476236371 
2.9000000000016954, -0.5915115043457524 
2.9100000000017165, -0.5919253560261531 
2.9200000000017377, -0.5926315641373113 
2.9300000000017588, -0.5937557306019982 
2.94000000000178, -0.5953748067872215 
2.950000000001801, -0.5974698259569119 
2.960000000001822, -0.5998762077326847 
2.970000000001843, -0.6022825806001368 
2.9800000000018643, -0.6043321982772767 
2.9900000000018854, -0.6057750151277569 
3.0000000000019065, -0.606538868637977 
3.0100000000019276, -0.6066851287888912 
3.0200000000019487, -0.6063361611965535 
3.03000000000197, -0.6056603356600533 
3.040000000001991, -0.6049652758834159 
3.050000000002012, -0.6049916984805216 
3.060000000002033, -0.6076741086038182 
3.070000000002054, -0.6180630116397061 
3.0800000000020753, -0.6489843129327527 
3.0900000000020964, -0.7301452076249958 
3.1000000000021175, -0.9089127615388428 
3.1100000000021386, -1.1789620111554193 
3.1200000000021597, -1.4164660946780843 
3.130000000002181, -1.5584161924614817 
3.140000000002202, -1.63448350301341 
3.150000000002223, -1.6754645264443213 
3.160000000002244, -1.6974406919275775 
3.1700000000022652, -1.7087111814384315 
3.1800000000022863, -1.7140123900802542 
3.1900000000023074, -1.7160905524552823 
3.2000000000023285, -1.7164601652376466 
3.2100000000023496, -1.715992240120578 
3.2200000000023707, -1.7152763730412666 
3.230000000002392, -1.714558220025409 
3.240000000002413, -1.7136759733657105 
3.250000000002434, -1.7125741754539892 
3.260000000002455, -1.7116938599293199 
3.2700000000024763, -1.7113733255919545 
3.2800000000024974, -1.7111516608716997 
3.2900000000025185, -1.7101059284008877 
3.3000000000025396, -1.7068868934636139 
3.3100000000025607, -1.69835281383127 
3.3200000000025818, -1.6757835205998404 
3.330000000002603, -1.6155357269768 
3.340000000002624, -1.4640155869481832 
3.350000000002645, -1.1592600263849036 
3.360000000002666, -0.7731702831977743 
3.3700000000026873, -0.4900968853810893 
3.3800000000027084, -0.34172752494618697 
3.3900000000027295, -0.26995425486110197 
3.4000000000027506, -0.23392727933986662 
3.4100000000027717, -0.21467956595976206 
3.420000000002793, -0.20380944028159434 
3.430000000002814, -0.19743445780055033 
3.440000000002835, -0.19365596616673925 
3.450000000002856, -0.1915036679378575 
3.460000000002877, -0.19047798020446022 
3.4700000000028983, -0.1903455231417709 
3.4800000000029194, -0.1910526818051353 
3.4900000000029405, -0.19270604641122244 
3.5000000000029616, -0.19560851152969333 
3.5100000000029827, -0.20037117571740687 
3.520000000003004, -0.20817101844597388 
3.530000000003025, -0.2213416736146579 
3.540000000003046, -0.24479600785691003 
3.550000000003067, -0.2895838035951554 
3.5600000000030882, -0.38114610185714864 
3.5700000000031094, -0.5676871815696771 
3.5800000000031305, -0.8642698434488336 
3.5900000000031516, -1.1271899532476106 
3.6000000000031727, -1.255571422814168 
3.6100000000031938, -1.3029444099116583 
3.620000000003215, -1.3197490008680783 
3.630000000003236, -1.3258003708074289 
3.640000000003257, -1.327729677644926 
3.650000000003278, -1.327781488724994 
3.6600000000032993, -1.326899228213168 
3.6700000000033204, -1.3261793600625382 
3.6800000000033415, -1.3278104664430985 
3.6900000000033626, -1.3339975279077614 
3.7000000000033837, -1.3439195835223436 
3.710000000003405, -1.3543900150045634 
3.720000000003426, -1.3633047865945545 
3.730000000003447, -1.3703075907880717 
3.740000000003468, -1.3757460888069257 
3.750000000003489, -1.3800045411029864 
3.7600000000035103, -1.3833417521117812 
3.7700000000035314, -1.385902000330438 
3.7800000000035525, -1.3877423912386353 
3.7900000000035736, -1.3888647938876475 
3.8000000000035947, -1.389264948816207 
3.810000000003616, -1.3889819089725828 
3.820000000003637, -1.388121972583389 
3.830000000003658, -1.3868463621638802 
3.840000000003679, -1.3853078929555687 
3.8500000000037002, -1.3835646185783514 
3.8600000000037213, -1.3816189240070538 
3.8700000000037424, -1.3796404882185793 
3.8800000000037635, -1.3780774936239824 
3.8900000000037847, -1.3772944081035186 
3.9000000000038058, -1.3770958464365184 
3.910000000003827, -1.376861681894534 
3.920000000003848, -1.3759184138991474 
3.930000000003869, -1.3735036888392085 
3.94000000000389, -1.3684535404176659 
3.9500000000039113, -1.3589885267357764 
3.9600000000039324, -1.3429704192772478 
3.9700000000039535, -1.3186811570405719 
3.9800000000039746, -1.2852909872057257 
3.9900000000039957, -1.2422821057607811 
4.000000000004016, -1.1886981299022037 
4.010000000003993, -1.1238940012409226 
4.02000000000397, -1.0508846860089653 
4.030000000003946, -0.9801965647748074 
4.040000000003923, -0.9261688306532015 
4.0500000000039, -0.8951920448209275 
4.0600000000038765, -0.8822471187259755 
4.070000000003853, -0.878758144720204 
4.08000000000383, -0.8787558368156327 
4.090000000003807, -0.8794486375497019 
4.100000000003783, -0.8797991445932525 
4.11000000000376, -0.8793960040013147 
4.120000000003737, -0.8778814001659729 
4.130000000003713, -0.8746778147242844 
4.14000000000369, -0.868902123964823 
4.150000000003667, -0.8596205084037166 
4.1600000000036434, -0.8466097852412101 
4.17000000000362, -0.8310428886240292 
4.180000000003597, -0.8149867375728995 
4.1900000000035735, -0.8001063434148163 
4.20000000000355, -0.7870746845537177 
4.210000000003527, -0.775862203081902 
4.220000000003504, -0.766182272829933 
4.23000000000348, -0.7577468284652829 
4.240000000003457, -0.7503590102582248 
4.250000000003434, -0.7439275630980744 
4.26000000000341, -0.7384486782523597 
4.270000000003387, -0.7339700487508938 
4.280000000003364, -0.7305410942909443 
4.2900000000033405, -0.7281586361241137 
4.300000000003317, -0.7267290271974544 
4.310000000003294, -0.7260678546731227 
4.320000000003271, -0.7259378897534692 
4.330000000003247, -0.7261022792473237 
4.340000000003224, -0.7263675050601258 
4.350000000003201, -0.7266078056802571 
4.360000000003177, -0.7267762366279441 
4.370000000003154, -0.7269039434709341 
4.380000000003131, -0.727080431409113 
4.390000000003107, -0.727413457249865 
4.400000000003084, -0.7279822715430126 
4.410000000003061, -0.728799054951293 
4.4200000000030375, -0.7297857294886977 
4.430000000003014, -0.7307795270798021 
4.440000000002991, -0.7315845066258224 
4.450000000002968, -0.7320522475299962 
4.460000000002944, -0.7321377708639487 
4.470000000002921, -0.73190537560447 
4.480000000002898, -0.7315178556161502 
4.490000000002874, -0.7312516090507699 
4.500000000002851, -0.7315436044480517 
4.510000000002828, -0.7330325955194721 
4.520000000002804, -0.7365271440374029 
4.530000000002781, -0.7428505442149913 
4.540000000002758, -0.7526068454831665 
4.5500000000027345, -0.7660177224380759 
4.560000000002711, -0.7829601266244945 
4.570000000002688, -0.8031806356803944 
4.580000000002665, -0.8265381786364424 
4.590000000002641, -0.853128133216704 
4.600000000002618, -0.8831743013095179 
4.610000000002595, -0.9165341853591518 
4.620000000002571, -0.9517102912167758 
4.630000000002548, -0.9850233915791071 
4.640000000002525, -1.0118312026803362 
4.6500000000025015, -1.0297843426525601 
4.660000000002478, -1.0400308942221617 
4.670000000002455, -1.0451854750561345 
4.6800000000024315, -1.0474021610859157 
4.690000000002408, -1.0479496148053205 
4.700000000002385, -1.0475066135842146 
4.710000000002362, -1.0466095794635524 
4.720000000002338, -1.0462334510402045 
4.730000000002315, -1.0484435955554416 
4.740000000002292, -1.0562007526127952 
4.750000000002268, -1.0711632635129962 
4.760000000002245, -1.0915379269059364 
4.770000000002222, -1.1135227505240821 
4.7800000000021985, -1.134280954386613 
4.790000000002175, -1.1528066935110424 
4.800000000002152, -1.1691673197409975 
4.810000000002129, -1.1836908670087678 
4.820000000002105, -1.1965291477450288 
4.830000000002082, -1.2075079252548517 
4.840000000002059, -1.216236180741385 
4.850000000002035, -1.22244491028605 
4.860000000002012, -1.226274800797132 
4.870000000001989, -1.2282203377830045 
4.880000000001965, -1.2288660327324865 
4.890000000001942, -1.2287343892339697 
4.900000000001919, -1.2283250610840108 
4.9100000000018955, -1.2281809652057532 
4.920000000001872, -1.2287476209691524 
