t, s[1].omega / s[0].omega 
0, -0.2997509603544911 
0.009999999999999995, -0.28053071154828896 
0.019999999999999934, -0.26899511488132477 
0.029999999999999874, -0.2617471284230706 
0.04000000000000012, -0.2569946032981819 
0.050000000000000405, -0.25377140656856334 
0.06000000000000069, -0.25154384657942314 
0.07000000000000098, -0.25002334071277893 
0.08000000000000126, -0.24907918892901018 
0.09000000000000155, -0.248703470497354 
0.10000000000000184, -0.2490125131534156 
0.11000000000000212, -0.2502893384667916 
0.12000000000000241, -0.25309280598004147 
0.130000000000002, -0.2585000715715984 
0.1400000000000009, -0.26864688663462144 
0.1499999999999998, -0.28797914892920257 
0.1599999999999987, -0.32623950015793995 
0.1699999999999976, -0.40523482606392414 
0.1799999999999965, -0.5685632372324031 
0.1899999999999954, -0.860507403073951 
0.1999999999999943, -1.214298902272006 
0.2099999999999932, -1.478160672386116 
0.2199999999999921, -1.620315905582785 
0.229999999999991, -1.6862832392228462 
0.2399999999999899, -1.714702891127322 
0.2499999999999888, -1.726349489563781 
0.2599999999999877, -1.7308082450904663 
0.2699999999999866, -1.7321448972628795 
0.2799999999999855, -1.7320930066037619 
0.2899999999999844, -1.7316055655862677 
0.2999999999999833, -1.7313072658187239 
0.3099999999999822, -1.7312273887165723 
0.3199999999999811, -1.7310098666088911 
0.32999999999998, -1.7306426227812088 
0.3399999999999789, -1.7304441935009585 
0.3499999999999778, -1.7303623013190133 
0.35999999999997667, -1.7297939701016691 
0.36999999999997557, -1.7278183298371217 
0.37999999999997447, -1.7227772795916032 
0.38999999999997337, -1.7109688553763767 
0.39999999999997227, -1.6842404390550763 
0.40999999999997117, -1.6260551399587122 
0.41999999999997006, -1.506130012249542 
0.42999999999996896, -1.282220845244752 
0.43999999999996786, -0.9552475147192029 
0.44999999999996676, -0.6499788482256437 
0.45999999999996566, -0.46553321243502166 
0.46999999999996456, -0.37486334798132603 
0.47999999999996346, -0.33151738500386685 
0.48999999999996235, -0.3100697701583891 
0.49999999999996125, -0.29901595560612027 
0.5099999999999602, -0.29315986022321966 
0.519999999999959, -0.2900475898664087 
0.529999999999958, -0.28846218416495656 
0.5399999999999568, -0.28777789678457655 
0.5499999999999557, -0.2876723155200429 
0.5599999999999546, -0.28799556666199055 
0.5699999999999535, -0.2887143526189101 
0.5799999999999524, -0.2898958989733205 
0.5899999999999513, -0.29171773754001584 
0.5999999999999502, -0.29450321694611703 
0.6099999999999491, -0.29879877434804825 
0.619999999999948, -0.30552594906539904 
0.6299999999999469, -0.3162347870690598 
0.6399999999999458, -0.33334857950733976 
0.6499999999999447, -0.35970977019201955 
0.6599999999999436, -0.39578585178489367 
0.6699999999999425, -0.4353085363258917 
0.6799999999999414, -0.46792582486529444 
0.6899999999999403, -0.48892610852974905 
0.6999999999999392, -0.5005225718712627 
0.7099999999999381, -0.5064329583529521 
0.719999999999937, -0.5091748051760614 
0.7299999999999359, -0.5100135823274841 
0.7399999999999348, -0.5093928414059702 
0.7499999999999337, -0.5071410803284849 
0.7599999999999326, -0.5023629521685449 
0.7699999999999315, -0.4929760900509298 
0.7799999999999304, -0.47507389599612126 
0.7899999999999293, -0.4437144213252573 
0.7999999999999282, -0.3986523924798523 
0.8099999999999271, -0.3504938430915148 
0.819999999999926, -0.31201218048200474 
0.8299999999999249, -0.2865029962405588 
0.8399999999999238, -0.27076994031992474 
0.8499999999999227, -0.26108594491545467 
0.8599999999999216, -0.25496606297227437 
0.8699999999999205, -0.2509698207529566 
0.8799999999999194, -0.24827626058213892 
0.8899999999999183, -0.24640796736119697 
0.8999999999999172, -0.24508811551988696 
0.9099999999999161, -0.24417330152636746 
0.919999999999915, -0.24362624093375299 
0.9299999999999139, -0.24351629628280094 
0.9399999999999128, -0.2440553253912184 
0.9499999999999117, -0.2456991804261263 
0.9599999999999106, -0.24939407759461832 
0.9699999999999095, -0.25718239252785335 
0.9799999999999084, -0.27379383673201924 
0.9899999999999073, -0.31116950045190256 
0.9999999999999062, -0.40176901341133353 
1.0099999999999052, -0.6279228883034393 
1.019999999999904, -1.0714525265423485 
1.029999999999903, -1.503924578769915 
1.039999999999902, -1.7221784206936104 
1.0499999999999008, -1.81424891024746 
1.0599999999998997, -1.8545272852356944 
1.0699999999998986, -1.8726227010108172 
1.0799999999998975, -1.88054674459209 
1.0899999999998964, -1.8836569485933439 
1.0999999999998953, -1.8844219812343108 
1.1099999999998942, -1.8840295202140016 
1.119999999999893, -1.8831468114159815 
1.129999999999892, -1.882011120552291 
1.1399999999998909, -1.8804122439366622 
1.1499999999998898, -1.8784235027827925 
1.1599999999998887, -1.876990714754977 
1.1699999999998876, -1.876631452360074 
1.1799999999998865, -1.8763554514327567 
1.1899999999998854, -1.8746913946049575 
1.1999999999998843, -1.8688783222846777 
1.2099999999998832, -1.8479751394785104 
1.219999999999882, -1.750834102474802 
1.229999999999881, -1.173308490354481 
1.2399999999998799, 0.10089120645401821 
1.2499999999998788, 0.4585018530753411 
1.2599999999998777, 0.52215416571354 
1.2699999999998766, 0.5391233743981365 
1.2799999999998755, 0.544988877014743 
1.2899999999998744, 0.5471534869612273 
1.2999999999998733, 0.5477178122253361 
1.3099999999998722, 0.5474306873785163 
1.319999999999871, 0.5466464056759739 
1.32999999999987, 0.5456237146686409 
1.3399999999998689, 0.5446196798499849 
1.3499999999998678, 0.5438891052722441 
1.3599999999998666, 0.543640944018587 
1.3699999999998655, 0.5439876643305033 
1.3799999999998644, 0.5449037980293593 
1.3899999999998633, 0.546209184821981 
1.3999999999998622, 0.5476063555718603 
1.4099999999998611, 0.5487730515463255 
1.41999999999986, 0.5494424943797106 
1.429999999999859, 0.5493888914546347 
1.4399999999998578, 0.5482758175423031 
1.4499999999998567, 0.5452642894374986 
1.4599999999998556, 0.5378027156166404 
1.4699999999998545, 0.5165126021923028 
1.4799999999998534, 0.43552793716930677 
1.4899999999998523, 0.023457786468209348 
1.4999999999998512, -0.9495567354985264 
1.5099999999998501, -1.3590517646620413 
1.519999999999849, -1.4498519493920936 
1.529999999999848, -1.4731216414721329 
1.5399999999998468, -1.4800867327748732 
1.5499999999998457, -1.4820053483788886 
1.5599999999998446, -1.4818296167036078 
1.5699999999998435, -1.4806485184875573 
1.5799999999998424, -1.4800306366657345 
1.5899999999998413, -1.483081782200286 
1.5999999999998402, -1.4913091000916037 
1.6099999999998391, -1.5015000625311632 
1.619999999999838, -1.5101799558223126 
1.629999999999837, -1.5165429065559506 
1.6399999999998358, -1.5210618066688233 
1.6499999999998347, -1.5242664989111532 
1.6599999999998336, -1.5264796582859312 
1.6699999999998325, -1.5278789013888368 
1.6799999999998314, -1.5285598931548487 
1.6899999999998303, -1.5285617086802117 
1.6999999999998292, -1.5278874188623868 
1.709999999999828, -1.5265301671057503 
1.719999999999827, -1.524484915614456 
1.729999999999826, -1.5217103134111605 
1.7399999999998248, -1.5180554169926277 
1.7499999999998237, -1.5133539739793156 
1.7599999999998226, -1.5079764865861773 
1.7699999999998215, -1.5034350735163686 
1.7799999999998204, -1.5012878144875645 
1.7899999999998193, -1.5010708448631063 
1.7999999999998182, -1.5011457736911509 
1.809999999999817, -1.500277741899099 
1.819999999999816, -1.4971528940484302 
1.8299999999998149, -1.4883432215493522 
1.8399999999998138, -1.4623448207450038 
1.8499999999998127, -1.378093756860144 
1.8599999999998116, -1.11522661671974 
1.8699999999998105, -0.6245040217342512 
1.8799999999998094, -0.2677261171982976 
1.8899999999998083, -0.12338297551857762 
1.8999999999998072, -0.06726499134748391 
1.909999999999806, -0.04252878472052838 
1.919999999999805, -0.030195371204120313 
1.9299999999998039, -0.023442124253445433 
1.9399999999998028, -0.01950090024778894 
1.9499999999998017, -0.01712812222014177 
1.9599999999998006, -0.01573389324882516 
1.9699999999997995, -0.015056803816712889 
1.9799999999997984, -0.015047831599012684 
1.9899999999997973, -0.01586514109100517 
1.9999999999997962, -0.01798557461918658 
2.0099999999998173, -0.022556796778200598 
2.0199999999998384, -0.03244246062720864 
2.0299999999998595, -0.05570033375764433 
2.0399999999998806, -0.11946414448182496 
2.0499999999999017, -0.3384945145631639 
2.059999999999923, -1.19788147433058 
2.069999999999944, -2.25128897871368 
2.079999999999965, -2.458855348271714 
2.089999999999986, -2.4998467014029653 
2.100000000000007, -2.512137330230364 
2.1100000000000283, -2.5163682339032656 
2.1200000000000494, -2.517346516463033 
2.1300000000000705, -2.516459469238361 
2.1400000000000916, -2.513789815353632 
2.1500000000001127, -2.50774114394779 
2.160000000000134, -2.493661180916225 
2.170000000000155, -2.475422965564 
2.180000000000176, -2.47525687399723 
2.190000000000197, -2.4790308268294554 
2.2000000000002182, -2.4793266105266256 
2.2100000000002393, -2.47673422608045 
2.2200000000002604, -2.474613897855551 
2.2300000000002815, -2.4835681964086227 
2.2400000000003026, -2.4938131939672625 
2.2500000000003237, -2.498478622697254 
2.260000000000345, -2.5002160917866627 
2.270000000000366, -2.500376924068755 
2.280000000000387, -2.498753959303621 
2.290000000000408, -2.493753216767056 
2.3000000000004293, -2.4799577012997034 
2.3100000000004504, -2.4345738406020465 
2.3200000000004715, -2.2081209418804546 
2.3300000000004926, -0.935054268906 
2.3400000000005137, 0.11892885254787258 
2.3500000000005348, 0.3161156684142882 
2.360000000000556, 0.36241013330844796 
2.370000000000577, 0.3776805683793864 
2.380000000000598, 0.38375645384130663 
2.390000000000619, 0.38624511506512116 
2.4000000000006403, 0.38691491680886025 
2.4100000000006614, 0.386275416374329 
2.4200000000006825, 0.38415652334056355 
2.4300000000007036, 0.37954577070987316 
2.4400000000007247, 0.3694183559813779 
2.450000000000746, 0.34415130182658793 
2.460000000000767, 0.2680602533001699 
2.470000000000788, 0.015329937970743997 
2.480000000000809, -0.2231752480606593 
2.49000000000083, 3.264006279779436 
2.5000000000008513, 3.3180847040678727 
2.5100000000008724, 3.3195898254673146 
2.5200000000008935, 3.3130083531240198 
2.5300000000009146, 2.694340717971195 
2.5400000000009357, -4.727592995524434 
2.550000000000957, -4.754317818308188 
2.560000000000978, -4.754493140900931 
2.570000000000999, -4.750234993781304 
2.58000000000102, -4.725724017543138 
2.5900000000010412, -4.733153216414468 
2.6000000000010624, -4.734869222988572 
2.6100000000010835, -4.73411691293481 
2.6200000000011046, -4.733333463413292 
2.6300000000011257, -4.732118359218438 
2.6400000000011468, -4.730515776394442 
2.650000000001168, -4.72106956146405 
2.660000000001189, -4.737625207408568 
2.67000000000121, -4.74147953085159 
2.680000000001231, -4.740516131060461 
2.6900000000012523, -4.726027046961115 
2.7000000000012734, -0.44134437491353806 
2.7100000000012945, 3.632368175280071 
2.7200000000013156, 3.6414262523449388 
2.7300000000013367, 3.6392225107442195 
2.740000000001358, 3.566142067415554 
2.750000000001379, -4.624439514949016 
2.7600000000014, -4.744272935353129 
2.770000000001421, -4.746491350012187 
2.780000000001442, -4.744210442374564 
2.7900000000014633, -4.730699777683812 
2.8000000000014844, -4.726622862168475 
2.8100000000015055, -4.730397958841918 
2.8200000000015266, -4.729455315568423 
2.8300000000015477, -4.729361839905897 
2.840000000001569, -4.728105912963442 
2.85000000000159, -4.727133170577015 
2.860000000001611, -4.717697274063162 
2.870000000001632, -4.730384158999608 
2.8800000000016532, -4.740546630181453 
2.8900000000016743, -4.7407413800130325 
2.9000000000016954, -4.734912349899391 
2.9100000000017165, -4.422571593750498 
2.9200000000017377, 3.2568390760813735 
2.9300000000017588, 3.2931562238469683 
2.94000000000178, 3.2939424396406816 
2.950000000001801, 3.2855360988385756 
2.960000000001822, 2.5797901864999564 
2.970000000001843, 0.47409932320000364 
2.9800000000018643, 1.0590328286331283 
2.9900000000018854, 1.131908959987854 
3.0000000000019065, 1.14537288180391 
3.0100000000019276, 1.1488072089649009 
3.0200000000019487, 1.1493789927706983 
3.03000000000197, 1.1487320953072007 
3.040000000001991, 1.1476928538855584 
3.050000000002012, 1.1479802121175902 
3.060000000002033, 1.1529626327737263 
3.070000000002054, 1.1634433787088423 
3.0800000000020753, 1.173908667830682 
3.0900000000020964, 1.180391497297139 
3.1000000000021175, 1.18339041262318 
3.1100000000021386, 1.1841901149601706 
3.1200000000021597, 1.183167798510721 
3.130000000002181, 1.1788082154907795 
3.140000000002202, 1.161087642437878 
3.150000000002223, 1.020884803608808 
3.160000000002244, -1.4369013916332796 
3.1700000000022652, -2.71257880492686 
3.1800000000022863, -2.77926899718626 
3.1900000000023074, -2.788035612220942 
3.2000000000023285, -2.789222098510834 
3.2100000000023496, -2.7885875120269183 
3.2200000000023707, -2.7872100091902317 
3.230000000002392, -2.784321591914648 
3.240000000002413, -2.7807567843120595 
3.250000000002434, -2.780385961585394 
3.260000000002455, -2.780427857657338 
3.2700000000024763, -2.777086604961499 
3.2800000000024974, -2.7642076175412646 
3.2900000000025185, -2.7761806241864235 
3.3000000000025396, -2.8229326004815465 
3.3100000000025607, -2.838506286498355 
3.3200000000025818, -2.84285596840351 
3.330000000002603, -2.843815809031256 
3.340000000002624, -2.842615164631437 
3.350000000002645, -2.8381043788894496 
3.360000000002666, -2.8240410269294727 
3.3700000000026873, -2.7599843992437973 
3.3800000000027084, -2.1450356708768887 
3.3900000000027295, -0.40776619916414625 
3.4000000000027506, 0.06966533410806944 
3.4100000000027717, 0.1773008464770291 
3.420000000002793, 0.2103595184934028 
3.430000000002814, 0.2231083104635317 
3.440000000002835, 0.2287126656502417 
3.450000000002856, 0.23122271742683567 
3.460000000002877, 0.23207507046637127 
3.4700000000028983, 0.2317450798722014 
3.4800000000029194, 0.23018836287984645 
3.4900000000029405, 0.22681294150316647 
3.5000000000029616, 0.21994606353807256 
3.5100000000029827, 0.2048967862934937 
3.520000000003004, 0.16622683152844697 
3.530000000003025, 0.03934688418389602 
3.540000000003046, -0.4773038567806065 
3.550000000003067, -1.5736488301451796 
3.5600000000030882, -2.058093062867013 
3.5700000000031094, -2.1751752963502637 
3.5800000000031305, -2.2086923425854135 
3.5900000000031516, -2.2197079014549015 
3.6000000000031727, -2.223270728983846 
3.6100000000031938, -2.223917078461154 
3.620000000003215, -2.223234262768028 
3.630000000003236, -2.2218000283516437 
3.640000000003257, -2.2193712839555144 
3.650000000003278, -2.2155372467688674 
3.6600000000032993, -2.2121441431368862 
3.6700000000033204, -2.211623714279317 
3.6800000000033415, -2.211850521030888 
3.6900000000033626, -2.210216767117285 
3.7000000000033837, -2.202608877121105 
3.710000000003405, -2.1698958994376505 
3.720000000003426, -2.1246675148158953 
3.730000000003447, -2.4480210184443125 
3.740000000003468, -2.6028926173005713 
3.750000000003489, -2.6340633492362793 
3.7600000000035103, -2.642955102818866 
3.7700000000035314, -2.645886859481764 
3.7800000000035525, -2.646225483007599 
3.7900000000035736, -2.6446181368245183 
3.8000000000035947, -2.6402268459700884 
3.810000000003616, -2.62847489299348 
3.820000000003637, -2.589499539535484 
3.830000000003658, -2.512392837968563 
3.840000000003679, -2.5173281772927885 
3.8500000000037002, -2.5298189705384786 
3.8600000000037213, -2.5322944715254443 
3.8700000000037424, -2.5315414715120363 
3.8800000000037635, -2.5306998548573394 
3.8900000000037847, -2.5333095651964315 
3.9000000000038058, -2.536512055225463 
3.910000000003827, -2.5379333461524527 
3.920000000003848, -2.5383221888517786 
3.930000000003869, -2.5377370871581113 
3.94000000000389, -2.5346974623926086 
3.9500000000039113, -2.5233446463235856 
3.9600000000039324, -2.470318060251854 
3.9700000000039535, -2.0657944758380773 
3.9800000000039746, -0.14620033150290698 
3.9900000000039957, 0.4901529585458359 
4.000000000004016, 0.5751528347529509 
4.010000000003993, 0.5950519480712269 
4.02000000000397, 0.6015757216905702 
4.030000000003946, 0.6040198595754617 
4.040000000003923, 0.6048783115368391 
4.0500000000039, 0.6050492918890232 
4.0600000000038765, 0.6049808686248836 
4.070000000003853, 0.6050171777816353 
4.08000000000383, 0.6055439725452344 
4.090000000003807, 0.6070481399633384 
4.100000000003783, 0.6100285933572261 
4.11000000000376, 0.6146368870779606 
4.120000000003737, 0.6202395953726714 
4.130000000003713, 0.6255884172630821 
4.14000000000369, 0.629666227795981 
4.150000000003667, 0.6321684976496453 
4.1600000000036434, 0.6332269628265921 
4.17000000000362, 0.632930404210643 
4.180000000003597, 0.6308903502637128 
4.1900000000035735, 0.6253873243494199 
4.20000000000355, 0.6100668708733653 
4.210000000003527, 0.5573485809900676 
4.220000000003504, 0.3385530497658944 
4.23000000000348, -0.17887306831049016 
4.240000000003457, -0.48899034198657476 
4.250000000003434, -0.5841898530767026 
4.26000000000341, -0.6162504622893461 
4.270000000003387, -0.629172071969426 
4.280000000003364, -0.6349883916687021 
4.2900000000033405, -0.637611812824454 
4.300000000003317, -0.6384592801233834 
4.310000000003294, -0.6379652743955896 
4.320000000003271, -0.6359985107260828 
4.330000000003247, -0.6319009993749852 
4.340000000003224, -0.6244286080518875 
4.350000000003201, -0.6120168785935587 
4.360000000003177, -0.5940207088062133 
4.370000000003154, -0.5724180147950934 
4.380000000003131, -0.5512453813784179 
4.390000000003107, -0.5335983748002532 
4.400000000003084, -0.5202133620648037 
4.410000000003061, -0.5104135330121802 
4.4200000000030375, -0.5032336011360001 
4.430000000003014, -0.4978807366059225 
4.440000000002991, -0.49380189608998687 
4.450000000002968, -0.4906393950072907 
4.460000000002944, -0.48817897981604 
4.470000000002921, -0.48630995498379975 
4.480000000002898, -0.4849957460428363 
4.490000000002874, -0.4842523106361288 
4.500000000002851, -0.4841332901858861 
4.510000000002828, -0.4847214795215839 
4.520000000002804, -0.48612682910185356 
4.530000000002781, -0.4884922374350166 
4.540000000002758, -0.4920098305960539 
4.5500000000027345, -0.4969524545393143 
4.560000000002711, -0.5037284261321798 
4.570000000002688, -0.5129734880762914 
4.580000000002665, -0.525703482288639 
4.590000000002641, -0.5435589310370632 
4.600000000002618, -0.5691353085088394 
4.610000000002595, -0.6061228175656534 
4.620000000002571, -0.658010707254333 
4.630000000002548, -0.7229647037871124 
4.640000000002525, -0.7879008237905041 
4.6500000000025015, -0.8364421906776949 
4.660000000002478, -0.8646372302691081 
4.670000000002455, -0.8787188805956914 
4.6800000000024315, -0.8852351292948801 
4.690000000002408, -0.8879587199721184 
4.700000000002385, -0.888620413136942 
4.710000000002362, -0.8878501542492202 
4.720000000002338, -0.8856628523210061 
4.730000000002315, -0.8817142607041746 
4.740000000002292, -0.8759559347207431 
4.750000000002268, -0.8721261637620052 
4.760000000002245, -0.8944448830430438 
4.770000000002222, -1.0499019547693087 
4.7800000000021985, -1.5196124677803502 
4.790000000002175, -1.9184666662887764 
4.800000000002152, -2.051050284942205 
4.810000000002129, -2.094774045769502 
4.820000000002105, -2.11240322078645 
4.830000000002082, -2.1202900180600954 
4.840000000002059, -2.1236805854273335 
4.850000000002035, -2.1246570661250828 
4.860000000002012, -2.124147819887961 
4.870000000001989, -2.122532416687837 
4.880000000001965, -2.119652594140203 
4.890000000001942, -2.1146263884220917 
4.900000000001919, -2.1073361917719073 
4.9100000000018955, -2.1022998655305165 
4.920000000001872, -2.1023769034760162 
4.930000000001849, -2.1031720945174888 
4.940000000001826, -2.1020226247401426 
4.950000000001802, -2.096304158214656 
