t, s[1].omega / s[0].omega 
0, -0.09999784287309454 
0.009999999999999995, -0.10003800742018273 
0.019999999999999934, -0.10056747574312097 
0.029999999999999874, -0.10152238987993296 
0.04000000000000012, -0.10277151585126895 
0.050000000000000405, -0.10412052189585638 
0.06000000000000069, -0.10536022787191412 
0.07000000000000098, -0.10632982541178768 
0.08000000000000126, -0.10694545313809622 
0.09000000000000155, -0.10718091174313349 
0.10000000000000184, -0.1070258440126229 
0.11000000000000212, -0.1064464511482079 
0.12000000000000241, -0.10535669345392731 
0.130000000000002, -0.10360278107489881 
0.1400000000000009, -0.10097785447729671 
0.1499999999999998, -0.09730667082614744 
0.1599999999999987, -0.09262344923005061 
0.1699999999999976, -0.08733676114382055 
0.1799999999999965, -0.08214635915248332 
0.1899999999999954, -0.07769029260935792 
0.1999999999999943, -0.07426828649319037 
0.2099999999999932, -0.07186157521074409 
0.2199999999999921, -0.07030053548550522 
0.229999999999991, -0.06939094467049389 
0.2399999999999899, -0.0689582890572567 
0.2499999999999888, -0.06884713679487492 
0.2599999999999877, -0.06891353423889442 
0.2699999999999866, -0.0690274337425474 
0.2799999999999855, -0.06908175602071823 
0.2899999999999844, -0.06899548880965412 
0.2999999999999833, -0.06870311219529551 
0.3099999999999822, -0.06813093323030558 
0.3199999999999811, -0.06716183788375737 
0.32999999999998, -0.06558482356599035 
0.3399999999999789, -0.06302572629889244 
0.3499999999999778, -0.05888601321894497 
0.35999999999997667, -0.05242168001720522 
0.36999999999997557, -0.043222635143241914 
0.37999999999997447, -0.032031185690143286 
0.38999999999997337, -0.02082894237152572 
0.39999999999997227, -0.011514260534681204 
0.40999999999997117, -0.004764437727955268 
0.41999999999997006, -0.0002605498975050863 
0.42999999999996896, 0.0022105739820577758 
0.43999999999996786, 0.0035485834441435827 
0.44999999999996676, 0.004163812027749285 
0.45999999999996566, 0.0043149842306959485 
0.46999999999996456, 0.004190264653978903 
0.47999999999996346, 0.0039350529219833565 
0.48999999999996235, 0.0036635965867914525 
0.49999999999996125, 0.0034662732219446143 
0.5099999999999602, 0.0034223232551647636 
0.519999999999959, 0.0036226125621054315 
0.529999999999958, 0.004205632848822919 
0.5399999999999568, 0.005412419275108873 
0.5499999999999557, 0.007661344265603036 
0.5599999999999546, 0.01159997486035451 
0.5699999999999535, 0.017962027092196298 
0.5799999999999524, 0.02696433381328887 
0.5899999999999513, 0.03751702420954093 
0.5999999999999502, 0.047509772488832876 
0.6099999999999491, 0.05532479508482727 
0.619999999999948, 0.060635256960733075 
0.6299999999999469, 0.06391014701181787 
0.6399999999999458, 0.06575485558486996 
0.6499999999999447, 0.06664005875278531 
0.6599999999999436, 0.06688452062242105 
0.6699999999999425, 0.06670923689896499 
0.6799999999999414, 0.06628558498323892 
0.6899999999999403, 0.06575862988690176 
0.6999999999999392, 0.06525080263689939 
0.7099999999999381, 0.06486097216420142 
0.719999999999937, 0.06467159691234768 
0.7299999999999359, 0.06476729804878656 
0.7399999999999348, 0.0652612352054161 
0.7499999999999337, 0.06632175900472585 
0.7599999999999326, 0.06818107321349787 
0.7699999999999315, 0.07108243526619332 
0.7799999999999304, 0.07511230651420708 
0.7899999999999293, 0.07996909024072725 
0.7999999999999282, 0.0849355039704303 
0.8099999999999271, 0.08923355726935461 
0.819999999999926, 0.09242928171099987 
0.8299999999999249, 0.09448836455094725 
0.8399999999999238, 0.09557885918533675 
0.8499999999999227, 0.09589349545299428 
0.8599999999999216, 0.09558298856835139 
0.8699999999999205, 0.09476612395584258 
0.8799999999999194, 0.09356846448303312 
0.8899999999999183, 0.09215103186233824 
0.8999999999999172, 0.09070198098781293 
0.9099999999999161, 0.08939509086312933 
0.919999999999915, 0.08835135260326658 
0.9299999999999139, 0.08763361581129143 
0.9399999999999128, 0.08726957650411117 
0.9499999999999117, 0.08727963455485835 
0.9599999999999106, 0.08769136023644582 
0.9699999999999095, 0.08853142519413695 
0.9799999999999084, 0.0897920094390913 
0.9899999999999073, 0.09138326123425392 
0.9999999999999062, 0.09310969324488266 
1.0099999999999052, 0.09471096731561221 
1.019999999999904, 0.09595006826554671 
1.029999999999903, 0.09667471104098288 
1.039999999999902, 0.09680887759144648 
1.0499999999999008, 0.09630284032197327 
1.0599999999998997, 0.09509245821256215 
1.0699999999998986, 0.09310254431289555 
1.0799999999998975, 0.09031286775611273 
1.0899999999998964, 0.08686991163988919 
1.0999999999998953, 0.08314735237111306 
1.1099999999998942, 0.07963541621664677 
1.119999999999893, 0.07671297621784395 
1.129999999999892, 0.07451815588545116 
1.1399999999998909, 0.07299886231466776 
1.1499999999998898, 0.0720301090366189 
1.1599999999998887, 0.07149278679888933 
1.1699999999998876, 0.07129779478268647 
1.1799999999998865, 0.0713774806755633 
1.1899999999998854, 0.07166398261588856 
1.1999999999998843, 0.07206780062043516 
1.2099999999998832, 0.07246819564268431 
1.219999999999882, 0.0727209045735105 
1.229999999999881, 0.07267364900186866 
1.2399999999998799, 0.07216919943413733 
1.2499999999998788, 0.07102358823452906 
1.2599999999998777, 0.06898756341512766 
1.2699999999998766, 0.06572477569808326 
1.2799999999998755, 0.06088036596260954 
1.2899999999998744, 0.05434138249005085 
1.2999999999998733, 0.04663148841905361 
1.3099999999998722, 0.03895915817493312 
1.319999999999871, 0.032539634832394776 
1.32999999999987, 0.02787318213387832 
1.3399999999998689, 0.02476999067553811 
1.3499999999998678, 0.0227934405063542 
1.3599999999998666, 0.021558473871817353 
1.3699999999998655, 0.02080568644404346 
1.3799999999998644, 0.020376327546864796 
1.3899999999998633, 0.020169427564383263 
1.3999999999998622, 0.02010537633686923 
1.4099999999998611, 0.020099660286186326 
1.41999999999986, 0.020047715912599372 
1.429999999999859, 0.01982021082312373 
1.4399999999998578, 0.019261667180298203 
1.4499999999998567, 0.01817948880600843 
1.4599999999998556, 0.016314138370602305 
1.4699999999998545, 0.013298618793890073 
1.4799999999998534, 0.008654227108162837 
1.4899999999998523, 0.0019398089047455084 
1.4999999999998512, -0.006483538105601859 
1.5099999999998501, -0.015842419080586687 
1.519999999999849, -0.024519360159555147 
1.529999999999848, -0.031198677385542918 
1.5399999999998468, -0.03564874562794102 
1.5499999999998457, -0.03834144170130997 
1.5599999999998446, -0.03985837506875703 
1.5699999999998435, -0.04063098567823756 
1.5799999999998424, -0.04092412996805348 
1.5899999999998413, -0.04088947382734317 
1.5999999999998402, -0.04061787849609543 
1.6099999999998391, -0.040178822134933644 
1.619999999999838, -0.03964844798541651 
1.629999999999837, -0.03912563875286147 
1.6399999999998358, -0.03873442742349732 
1.6499999999998347, -0.03861746831666849 
1.6599999999998336, -0.038933065835354067 
1.6699999999998325, -0.03986503223500432 
1.6799999999998314, -0.0416374352838194 
1.6899999999998303, -0.04450078005669675 
1.6999999999998292, -0.04863242121120836 
1.709999999999828, -0.05392224577606565 
1.719999999999827, -0.05978530782495377 
1.729999999999826, -0.06531355047806948 
1.7399999999998248, -0.06977110528551002 
1.7499999999998237, -0.0729228760981511 
1.7599999999998226, -0.07492690591271108 
1.7699999999998215, -0.07606647249465129 
1.7799999999998204, -0.07658511948540471 
1.7899999999998193, -0.0766430208628148 
1.7999999999998182, -0.07632997875405399 
1.809999999999817, -0.07569480824535928 
1.819999999999816, -0.07477904537492369 
1.8299999999998149, -0.07365018176654768 
1.8399999999998138, -0.07242285328534778 
1.8499999999998127, -0.07125273774335332 
1.8599999999998116, -0.0703040715609726 
1.8699999999998105, -0.06971621568371264 
1.8799999999998094, -0.06959375020131159 
1.8899999999998083, -0.07001643932844573 
1.8999999999998072, -0.07104316039980314 
1.909999999999806, -0.07268522227019941 
1.919999999999805, -0.07484943805437902 
1.9299999999998039, -0.0772974877225713 
1.9399999999998028, -0.07969171701617712 
1.9499999999998017, -0.08172548748244975 
1.9599999999998006, -0.08323058401579704 
1.9699999999997995, -0.08418020876133274 
1.9799999999997984, -0.0846211748851151 
1.9899999999997973, -0.08460600137329158 
1.9999999999997962, -0.08415511890581981 
2.0099999999998173, -0.08324658945955357 
2.0199999999998384, -0.08182882185598614 
2.0299999999998595, -0.07986105536834054 
2.0399999999998806, -0.07738224441170802 
2.0499999999999017, -0.07457405920436312 
2.059999999999923, -0.0717477401800046 
2.069999999999944, -0.06923151991371447 
2.079999999999965, -0.06724740462135828 
2.089999999999986, -0.06587627530646811 
2.100000000000007, -0.06510245758677993 
2.1100000000000283, -0.06486782986725242 
2.1200000000000494, -0.06509402725587085 
2.1300000000000705, -0.06567551841560895 
2.1400000000000916, -0.06646935097798963 
2.1500000000001127, -0.06730732646028467 
2.160000000000134, -0.06803213290680499 
2.170000000000155, -0.06853043777687626 
2.180000000000176, -0.06873746693821345 
2.190000000000197, -0.06861410302650862 
2.2000000000002182, -0.06811317267977994 
2.2100000000002393, -0.06714698674236441 
2.2200000000002604, -0.06556182163024604 
2.2300000000002815, -0.06313325216642056 
2.2400000000003026, -0.059621924759811415 
2.2500000000003237, -0.054940222247208084 
2.260000000000345, -0.049381172025459705 
2.270000000000366, -0.04365528616523924 
2.280000000000387, -0.03855395928422338 
2.290000000000408, -0.034542892102684415 
2.3000000000004293, -0.031681517284727234 
2.3100000000004504, -0.02980187607004729 
2.3200000000004715, -0.028685160874990158 
2.3300000000004926, -0.028136862987166517 
2.3400000000005137, -0.027992094526260884 
2.3500000000005348, -0.028100422549901007 
2.360000000000556, -0.028319327426846914 
2.370000000000577, -0.028521994245592697 
2.380000000000598, -0.028607699138810228 
2.390000000000619, -0.028500710857609062 
2.4000000000006403, -0.0281336996633893 
2.4100000000006614, -0.027419616440295537 
2.4200000000006825, -0.026215709442254015 
2.4300000000007036, -0.024283274369169904 
2.4400000000007247, -0.0212634508050421 
2.450000000000746, -0.0167391854207884 
2.460000000000767, -0.010498197819873526 
2.470000000000788, -0.0029508838928501385 
2.480000000000809, 0.0045123128762850065 
2.49000000000083, 0.01079152659601304 
2.5000000000008513, 0.015450116089083869 
2.5100000000008724, 0.018529071249879243 
2.5200000000008935, 0.02035505285340955 
2.5300000000009146, 0.021268018181622723 
2.5400000000009357, 0.021533365344581522 
2.550000000000957, 0.02135092366321854 
2.560000000000978, 0.020885368259480706 
2.570000000000999, 0.02028423259675833 
2.58000000000102, 0.019677682518360894 
2.5900000000010412, 0.019171447131744908 
2.6000000000010624, 0.018847715526586064 
2.6100000000010835, 0.018779956773506377 
2.6200000000011046, 0.019058731416781032 
2.6300000000011257, 0.01982321603146443 
2.6400000000011468, 0.021289973030544994 
2.650000000001168, 0.02375225282613432 
2.660000000001189, 0.02748644658899176 
2.67000000000121, 0.03250796922436227 
2.680000000001231, 0.03830884655978968 
2.6900000000012523, 0.04395668335443368 
2.7000000000012734, 0.04862073371882731 
2.7100000000012945, 0.051964606037182545 
2.7200000000013156, 0.054074043643687876 
2.7300000000013367, 0.055194795279542366 
2.740000000001358, 0.0555634674884685 
2.750000000001379, 0.055364006380625316 
2.7600000000014, 0.05474707239053417 
2.770000000001421, 0.053860120503118517 
2.780000000001442, 0.052858753002938796 
2.7900000000014633, 0.05189262880311903 
2.8000000000014844, 0.051082621233995616 
2.8100000000015055, 0.05051222002515784 
2.8200000000015266, 0.0502402753307723 
2.8300000000015477, 0.05032536496751017 
2.840000000001569, 0.05084822639265816 
2.85000000000159, 0.05191938993471312 
2.860000000001611, 0.05365415953033834 
2.870000000001632, 0.05609566841413316 
2.8800000000016532, 0.059103764291306524 
2.8900000000016743, 0.0623101776226363 
2.9000000000016954, 0.06524331480974808 
2.9100000000017165, 0.0675433667764444 
2.9200000000017377, 0.0690668293363544 
2.9300000000017588, 0.06983090742418366 
2.94000000000178, 0.06990943224823273 
2.950000000001801, 0.06937168076741025 
2.960000000001822, 0.06827995512426174 
2.970000000001843, 0.06672569689799598 
2.9800000000018643, 0.0648680143044753 
2.9900000000018854, 0.0629306033495711 
3.0000000000019065, 0.0611426444587422 
3.0100000000019276, 0.059668487879057354 
3.0200000000019487, 0.05858318322417527 
3.03000000000197, 0.05789868014593973 
3.040000000001991, 0.05760532047468703 
3.050000000002012, 0.05769957868232668 
3.060000000002033, 0.058188498166837965 
3.070000000002054, 0.05907027039057992 
3.0800000000020753, 0.060296343192755356 
3.0900000000020964, 0.061736225248115104 
3.1000000000021175, 0.06318110114983573 
3.1100000000021386, 0.064400453039969 
3.1200000000021597, 0.06521058136244715 
3.130000000002181, 0.06549866368360446 
3.140000000002202, 0.06519559201083044 
3.150000000002223, 0.06423555846675662 
3.160000000002244, 0.06254276770481122 
3.1700000000022652, 0.06007159702285936 
3.1800000000022863, 0.056901019901091886 
3.1900000000023074, 0.05331946832665831 
3.2000000000023285, 0.0497796091838499 
3.2100000000023496, 0.04670281621974988 
3.2200000000023707, 0.04430638063931482 
3.230000000002392, 0.04259743739444844 
3.240000000002413, 0.04147568848136228 
3.250000000002434, 0.04082657694010664 
3.260000000002455, 0.04056208547328161 
3.2700000000024763, 0.04062187891609782 
3.2800000000024974, 0.04095417118377141 
3.2900000000025185, 0.04148960382754354 
3.3000000000025396, 0.04212142523880079 
3.3100000000025607, 0.04270581045603504 
3.3200000000025818, 0.04308377491385041 
3.330000000002603, 0.04310518604417816 
3.340000000002624, 0.04263125482633382 
3.350000000002645, 0.04151256817083114 
3.360000000002666, 0.03956461676137499 
3.3700000000026873, 0.03658100085891629 
3.3800000000027084, 0.03243580004879064 
3.3900000000027295, 0.027284121471272776 
3.4000000000027506, 0.021702861097934352 
3.4100000000027717, 0.01650424638788362 
3.420000000002793, 0.012293208132036906 
3.430000000002814, 0.0092293593448986 
3.440000000002835, 0.007154468313011228 
3.450000000002856, 0.005820761962458021 
3.460000000002877, 0.005019681314106886 
3.4700000000028983, 0.00461060672122166 
3.4800000000029194, 0.00450455118448948 
3.4900000000029405, 0.004635591074090452 
3.5000000000029616, 0.004932495799719704 
3.5100000000029827, 0.005298430705135972 
3.520000000003004, 0.005606662811417251 
3.530000000003025, 0.005712480643460652 
3.540000000003046, 0.005467481292693741 
3.550000000003067, 0.00471877329310141 
3.5600000000030882, 0.003290626015876978 
3.5700000000031094, 0.000969088165657546 
3.5800000000031305, -0.0021705809542346788 
3.5900000000031516, -0.006382874391110516 
3.6000000000031727, -0.011561789996000655 
3.6100000000031938, -0.017019139033499504 
3.620000000003215, -0.021902302218656296 
3.630000000003236, -0.025662647942480393 
3.640000000003257, -0.028223129924883468 
3.650000000003278, -0.029791521732603365 
3.6600000000032993, -0.030629421538882557 
3.6700000000033204, -0.030941338416701592 
3.6800000000033415, -0.030858065238319993 
3.6900000000033626, -0.03045763763363073 
3.7000000000033837, -0.029795851737201052 
3.710000000003405, -0.02893695056961772 
3.720000000003426, -0.02797661425089415 
3.730000000003447, -0.02704650076727095 
3.740000000003468, -0.02629729665268357 
3.750000000003489, -0.025875223146413516 
3.7600000000035103, -0.02591343565931578 
3.7700000000035314, -0.02654274728200424 
3.7800000000035525, -0.027901983919990797 
3.7900000000035736, -0.03011391287756136 
3.8000000000035947, -0.03319755972201717 
3.810000000003616, -0.03694166587774191 
3.820000000003637, -0.04086882900657431 
3.830000000003658, -0.044413722583656064 
3.840000000003679, -0.04719491319019524 
3.8500000000037002, -0.04912055387130223 
3.8600000000037213, -0.05029130172188784 
3.8700000000037424, -0.050859987066644984 
3.8800000000037635, -0.05095102035042809 
3.8900000000037847, -0.05063937504209591 
3.9000000000038058, -0.04996142873681793 
3.910000000003827, -0.04894181805076401 
3.920000000003848, -0.047629336383127614 
3.930000000003869, -0.04612889766566237 
3.94000000000389, -0.044606206681637235 
3.9500000000039113, -0.04325282866721754 
3.9600000000039324, -0.042235417493341684 
3.9700000000039535, -0.04166942034024702 
3.9800000000039746, -0.041628246363085486 
3.9900000000039957, -0.042162824993748634 
4.000000000004016, -0.04329970333663194 
4.010000000003993, -0.045003288544192124 
4.02000000000397, -0.04712257654883543 
4.030000000003946, -0.04938243249032093 
4.040000000003923, -0.05146519991268309 
4.0500000000039, -0.05313280595928438 
4.0600000000038765, -0.05428557650145044 
4.070000000003853, -0.054929953714240684 
4.08000000000383, -0.055111227785306485 
4.090000000003807, -0.054862695886331414 
4.100000000003783, -0.054183661178379736 
4.11000000000376, -0.053042256431727865 
4.120000000003737, -0.05140317623137972 
4.130000000003713, -0.0492819766374953 
4.14000000000369, -0.04680640050819816 
4.150000000003667, -0.04423011988431216 
4.1600000000036434, -0.04185816869999651 
4.17000000000362, -0.03993253620004288 
4.180000000003597, -0.038574011507003104 
4.1900000000035735, -0.037804836698730006 
4.20000000000355, -0.03759903711699097 
4.210000000003527, -0.037909742972586445 
4.220000000003504, -0.03866183346007681 
4.23000000000348, -0.03972904886447416 
4.240000000003457, -0.04093001614757656 
4.250000000003434, -0.04206474838762535 
4.26000000000341, -0.0429708212933339 
4.270000000003387, -0.04355419507546364 
4.280000000003364, -0.043776874042134685 
4.2900000000033405, -0.043620764885570304 
4.300000000003317, -0.04305238582620176 
4.310000000003294, -0.042000159476527806 
4.320000000003271, -0.040351389218035306 
4.330000000003247, -0.03798481845001954 
4.340000000003224, -0.03485849853502805 
4.350000000003201, -0.031130904705212865 
4.360000000003177, -0.02720297274961962 
4.370000000003154, -0.023574923031478033 
4.380000000003131, -0.020615961981359766 
4.390000000003107, -0.018460586114375052 
4.400000000003084, -0.01707056029480188 
4.410000000003061, -0.01634035766057245 
4.4200000000030375, -0.016156893910219426 
4.430000000003014, -0.016406782144468578 
4.440000000002991, -0.01696008371327167 
4.450000000002968, -0.01766252609137892 
4.460000000002944, -0.018353087567372733 
4.470000000002921, -0.01889586123254964 
4.480000000002898, -0.019198883749874638 
4.490000000002874, -0.01920605775167223 
4.500000000002851, -0.018870563152065204 
4.510000000002828, -0.01812448954715901 
4.520000000002804, -0.016854771208345394 
4.530000000002781, -0.014897206522376468 
4.540000000002758, -0.01207503452206181 
4.5500000000027345, -0.008315905973496978 
4.560000000002711, -0.003819928658804953 
4.570000000002688, 0.0008042138037866709 
4.580000000002665, 0.0046524919925172515 
4.590000000002641, 0.007647940462726936 
4.600000000002618, 0.00967643884791528 
4.610000000002595, 0.010829078482690501 
4.620000000002571, 0.011259207681326804 
4.630000000002548, 0.011111250117303528 
4.640000000002525, 0.010514815707614544 
4.6500000000025015, 0.00960508519271387 
4.660000000002478, 0.008535152011210936 
4.670000000002455, 0.007463282631318456 
4.6800000000024315, 0.006524734081405452 
4.690000000002408, 0.005813852565972624 
4.700000000002385, 0.0053908216548122605 
4.710000000002362, 0.005306339463872026 
4.720000000002338, 0.005630108099013001 
4.730000000002315, 0.00647204426505352 
4.740000000002292, 0.007982823899586029 
4.750000000002268, 0.010308177743308297 
4.760000000002245, 0.013472865627403064 
4.770000000002222, 0.017239006935671996 
4.7800000000021985, 0.021097190458870558 
4.790000000002175, 0.024486592502109293 
4.800000000002152, 0.027057212402542007 
4.810000000002129, 0.028732332147098427 
