t, s[1].omega / s[0].omega 
0, -0.842092892969435 
0.009999999999999995, -1.0610838339046715 
0.019999999999999934, -1.2451603788118675 
0.029999999999999874, -1.3511264123152733 
0.04000000000000012, -1.398346737025536 
0.050000000000000405, -1.4171787424283573 
0.06000000000000069, -1.4244050579540077 
0.07000000000000098, -1.4269292248412235 
0.08000000000000126, -1.4273860067228266 
0.09000000000000155, -1.4269389518582416 
0.10000000000000184, -1.4265919418263902 
0.11000000000000212, -1.4275798155871033 
0.12000000000000241, -1.4304599483381244 
0.130000000000002, -1.4343426791544425 
0.1400000000000009, -1.4380114823108907 
0.1499999999999998, -1.4409627328132053 
0.1599999999999987, -1.4432123072845675 
0.1699999999999976, -1.4448517853621432 
0.1799999999999965, -1.445900740343658 
0.1899999999999954, -1.4463500566860594 
0.1999999999999943, -1.446206159188014 
0.2099999999999932, -1.4454864207957483 
0.2199999999999921, -1.4441928779290598 
0.229999999999991, -1.4422937573346304 
0.2399999999999899, -1.4397219780884596 
0.2499999999999888, -1.4363715139766953 
0.2599999999999877, -1.4320643854734088 
0.2699999999999866, -1.4265370720530686 
0.2799999999999855, -1.4196714444671796 
0.2899999999999844, -1.4122034665260703 
0.2999999999999833, -1.4062111105653519 
0.3099999999999822, -1.4034434264648135 
0.3199999999999811, -1.4031434984790374 
0.32999999999998, -1.4033920972036036 
0.3399999999999789, -1.4029059920928382 
0.3499999999999778, -1.400669817469779 
0.35999999999997667, -1.3944939893906698 
0.36999999999997557, -1.377808064656966 
0.37999999999997447, -1.3300380034886947 
0.38999999999997337, -1.1941225228007804 
0.39999999999997227, -0.8972958052481435 
0.40999999999997117, -0.5543664525630941 
0.41999999999997006, -0.34676835504456266 
0.42999999999996896, -0.2501954279575138 
0.43999999999996786, -0.20476951685489125 
0.44999999999996676, -0.18151994501169705 
0.45999999999996566, -0.1685866037835222 
0.46999999999996456, -0.16090397441171223 
0.47999999999996346, -0.15613470602140003 
0.48999999999996235, -0.1531275976837067 
0.49999999999996125, -0.15130066614456472 
0.5099999999999602, -0.15038126356695738 
0.519999999999959, -0.1503003949645074 
0.529999999999958, -0.15117070904839353 
0.5399999999999568, -0.15333606348159998 
0.5499999999999557, -0.1575267938626677 
0.5599999999999546, -0.16523446245229706 
0.5699999999999535, -0.17962194577118157 
0.5799999999999524, -0.2078623701477123 
0.5899999999999513, -0.26741409593510357 
0.5999999999999502, -0.40134960227582106 
0.6099999999999491, -0.6904881397268487 
0.619999999999948, -1.1345658919510666 
0.6299999999999469, -1.5015090931425832 
0.6399999999999458, -1.6860055209752693 
0.6499999999999447, -1.7616935886791736 
0.6599999999999436, -1.7909929496469226 
0.6699999999999425, -1.8020883713428695 
0.6799999999999414, -1.806057611257777 
0.6899999999999403, -1.8070932400039408 
0.6999999999999392, -1.8068858276048094 
0.7099999999999381, -1.8063665515507323 
0.719999999999937, -1.8060330386094647 
0.7299999999999359, -1.8057233956052172 
0.7399999999999348, -1.8051543545121582 
0.7499999999999337, -1.8045849855650136 
0.7599999999999326, -1.8043620607452246 
0.7699999999999315, -1.804119625708033 
0.7799999999999304, -1.8029490321852433 
0.7899999999999293, -1.7993579948205667 
0.7999999999999282, -1.7896302213545 
0.8099999999999271, -1.7628879327165674 
0.819999999999926, -1.68733051793407 
0.8299999999999249, -1.483576814748766 
0.8399999999999238, -1.0654704726528814 
0.8499999999999227, -0.6037267564072774 
0.8599999999999216, -0.33662094341521476 
0.8699999999999205, -0.21903806899189351 
0.8799999999999194, -0.16675063230996232 
0.8899999999999183, -0.14138820160258322 
0.8999999999999172, -0.12800177263434967 
0.9099999999999161, -0.12047834177935815 
0.919999999999915, -0.11610942139247322 
0.9299999999999139, -0.11361455084890482 
0.9399999999999128, -0.112377081799186 
0.9499999999999117, -0.11213370061595802 
0.9599999999999106, -0.11285617186339683 
0.9699999999999095, -0.11473797938577672 
0.9799999999999084, -0.11827616550651339 
0.9899999999999073, -0.12450631722657901 
0.9999999999999062, -0.13557929459483922 
1.0099999999999052, -0.1562270993928096 
1.019999999999904, -0.1977535536195057 
1.029999999999903, -0.28920155145323034 
1.039999999999902, -0.5015430449132453 
1.0499999999999008, -0.9197632741468039 
1.0599999999998997, -1.374182689388023 
1.0699999999998986, -1.6098999764169601 
1.0799999999998975, -1.6925529731797315 
1.0899999999998964, -1.7194969166302858 
1.0999999999998953, -1.728467603875859 
1.1099999999998942, -1.7313064414055017 
1.119999999999893, -1.731793837450025 
1.129999999999892, -1.7314240588116327 
1.1399999999998909, -1.7312117379320593 
1.1499999999998898, -1.7316801289598018 
1.1599999999998887, -1.732430173304812 
1.1699999999998876, -1.7329311250341255 
1.1799999999998865, -1.7332020773995325 
1.1899999999998854, -1.7333980290362607 
1.1999999999998843, -1.7332864635338896 
1.2099999999998832, -1.732300247545485 
1.219999999999882, -1.7295932763153217 
1.229999999999881, -1.7237150558159022 
1.2399999999998799, -1.7121010083775583 
1.2499999999998788, -1.6903723228432892 
1.2599999999998777, -1.650674736571054 
1.2699999999998766, -1.577087895779529 
1.2799999999998755, -1.4377797988342194 
1.2899999999998744, -1.20127596270946 
1.2999999999998733, -0.9358912628608321 
1.3099999999998722, -0.7683851172474708 
1.319999999999871, -0.6975087504549146 
1.32999999999987, -0.6730824434130771 
1.3399999999998689, -0.666148938845016 
1.3499999999998678, -0.6650225167191586 
1.3599999999998666, -0.6654737878326855 
1.3699999999998655, -0.6660536719128884 
1.3799999999998644, -0.666268609746418 
1.3899999999998633, -0.665903924689516 
1.3999999999998622, -0.6647819882253042 
1.4099999999998611, -0.6627064540197081 
1.41999999999986, -0.659533386663578 
1.429999999999859, -0.6553339022898184 
1.4399999999998578, -0.6505023904424029 
1.4499999999998567, -0.6456285691629247 
1.4599999999998556, -0.6412097351850048 
1.4699999999998545, -0.6374808589016102 
1.4799999999998534, -0.6344474559095729 
1.4899999999998523, -0.6319951729549065 
1.4999999999998512, -0.6299764084334455 
1.5099999999998501, -0.6282614920516159 
1.519999999999849, -0.6267686214228632 
1.529999999999848, -0.6254784873481264 
1.5399999999998468, -0.6244345259261296 
1.5499999999998457, -0.6237321733670536 
1.5599999999998446, -0.6235014483466065 
1.5699999999998435, -0.6238859887468371 
1.5799999999998424, -0.6250223162151383 
1.5899999999998413, -0.627025217608772 
1.5999999999998402, -0.6299851930482238 
1.6099999999998391, -0.6339807828008316 
1.619999999999838, -0.639104819906825 
1.629999999999837, -0.6455021170423996 
1.6399999999998358, -0.6534167550307292 
1.6499999999998347, -0.6632469298397334 
1.6599999999998336, -0.6755969884629109 
1.6699999999998325, -0.6912798747114948 
1.6799999999998314, -0.7111187496902229 
1.6899999999998303, -0.7352441585259307 
1.6999999999998292, -0.7618322551454328 
1.709999999999828, -0.7866937287493969 
1.719999999999827, -0.8057074029098462 
1.729999999999826, -0.8177863355789174 
1.7399999999998248, -0.8244522988219091 
1.7499999999998237, -0.8276936266441395 
1.7599999999998226, -0.8288837320885968 
1.7699999999998215, -0.8287262425272767 
1.7799999999998204, -0.8274697262672015 
1.7899999999998193, -0.8251357653650485 
1.7999999999998182, -0.8219616099790183 
1.809999999999817, -0.8199868341708603 
1.819999999999816, -0.828944920078567 
1.8299999999998149, -0.8850322832893058 
1.8399999999998138, -1.0805561429624508 
1.8499999999998127, -1.4355732351860744 
1.8599999999998116, -1.6968152107753398 
1.8699999999998105, -1.8105525876115074 
1.8799999999998094, -1.8593296939895332 
1.8899999999998083, -1.8825685443377913 
1.8999999999998072, -1.8942600409226986 
1.909999999999806, -1.8999925231951065 
1.919999999999805, -1.9024228734763944 
1.9299999999998039, -1.9029545144667668 
1.9399999999998028, -1.9023669814191415 
1.9499999999998017, -1.901107193909149 
1.9599999999998006, -1.8992542601158202 
1.9699999999997995, -1.896528497412324 
1.9799999999997984, -1.8931601320173914 
1.9899999999997973, -1.8907885383481626 
1.9999999999997962, -1.8903487161273471 
2.0099999999998173, -1.8903392329800475 
2.0199999999998384, -1.8889899493300664 
2.0299999999998595, -1.883631849564327 
2.0399999999998806, -1.8629383038914238 
2.0499999999999017, -1.7537735548952469 
2.059999999999923, -0.9252644382833749 
2.069999999999944, 1.096879695449534 
2.079999999999965, 1.3346933230240037 
2.089999999999986, 1.3577509177307008 
2.100000000000007, 1.3622100134986093 
2.1100000000000283, 1.3625468655572122 
2.1200000000000494, 1.3601591159695077 
2.1300000000000705, 1.3519368211497556 
2.1400000000000916, 1.323707435354244 
2.1500000000001127, 1.2482405600580602 
2.160000000000134, 1.2011277738461663 
2.170000000000155, 1.2108667680861374 
2.180000000000176, 1.2195477415245186 
2.190000000000197, 1.2228773070062648 
2.2000000000002182, 1.2234421138598743 
2.2100000000002393, 1.2219324102833968 
2.2200000000002604, 1.2172986579128664 
2.2300000000002815, 1.2067704927277791 
2.2400000000003026, 1.2008816706771177 
2.2500000000003237, 1.2630347601015162 
2.260000000000345, 1.3296068095650027 
2.270000000000366, 1.351409488445599 
2.280000000000387, 1.3574464648286244 
2.290000000000408, 1.3587096509305603 
2.3000000000004293, 1.3573226507551868 
2.3100000000004504, 1.3508537360810207 
2.3200000000004715, 1.3176016393300984 
2.3300000000004926, 0.9193615187088044 
2.3400000000005137, -1.1756643997213698 
2.3500000000005348, -1.7527763067021467 
2.360000000000556, -1.833871891824479 
2.370000000000577, -1.8500853335576983 
2.380000000000598, -1.854006424456243 
2.390000000000619, -1.854476503746741 
2.4000000000006403, -1.8537767708319333 
2.4100000000006614, -1.8537071912060992 
2.4200000000006825, -1.855796503415246 
2.4300000000007036, -1.8589550704152895 
2.4400000000007247, -1.8614151385408841 
2.450000000000746, -1.8629065552312452 
2.460000000000767, -1.8637205639257446 
2.470000000000788, -1.8638435062310257 
2.480000000000809, -1.8629399181745439 
2.49000000000083, -1.860445810466936 
2.5000000000008513, -1.8554436119109734 
2.5100000000008724, -1.8463571349999182 
2.5200000000008935, -1.8301363942787154 
2.5300000000009146, -1.799744726149651 
2.5400000000009357, -1.736835687440094 
2.550000000000957, -1.5994078734574406 
2.560000000000978, -1.376310236740537 
2.570000000000999, -1.224664049775304 
2.58000000000102, -1.1945193383216917 
2.5900000000010412, -1.2009902269441395 
2.6000000000010624, -1.2082508230257132 
2.6100000000010835, -1.212012082824136 
2.6200000000011046, -1.2132469428333157 
2.6300000000011257, -1.2125395255559765 
2.6400000000011468, -1.209310535204372 
2.650000000001168, -1.2006671898871097 
2.660000000001189, -1.176595604063732 
2.67000000000121, -1.0991286175288089 
2.680000000001231, -0.7947274150803951 
2.6900000000012523, 0.4456953032457688 
2.7000000000012734, 1.1684171027668895 
2.7100000000012945, 1.2377585628007433 
2.7200000000013156, 1.2491900114015517 
2.7300000000013367, 1.2517143556495027 
2.740000000001358, 1.251286642240046 
2.750000000001379, 1.247936892605178 
2.7600000000014, 1.2374230406151603 
2.770000000001421, 1.2040537409075711 
2.780000000001442, 1.1303308252604354 
2.7900000000014633, 1.0910567254946169 
2.8000000000014844, 1.0978333798891402 
2.8100000000015055, 1.105305158938399 
2.8200000000015266, 1.108558995232678 
2.8300000000015477, 1.109308684200276 
2.840000000001569, 1.1081164764532563 
2.85000000000159, 1.103958451205585 
2.860000000001611, 1.092534732084736 
2.870000000001632, 1.0656059043314916 
2.8800000000016532, 1.0976560431275095 
2.8900000000016743, 1.278034827286851 
2.9000000000016954, 1.3436606073621375 
2.9100000000017165, 1.357847200955399 
2.9200000000017377, 1.3612569906543945 
2.9300000000017588, 1.3612218208931532 
2.94000000000178, 1.3579842876074293 
2.950000000001801, 1.3444977929270876 
2.960000000001822, 1.2578952132558228 
2.970000000001843, 0.5425314388234523 
2.9800000000018643, -0.018111530973827346 
2.9900000000018854, -0.031838189038257844 
3.0000000000019065, -0.013346418991824668 
3.0100000000019276, -0.0029831893132141064 
3.0200000000019487, 0.001943699787916018 
3.03000000000197, 0.00413167037486504 
3.040000000001991, 0.0050717234822027545 
3.050000000002012, 0.005333630941521049 
3.060000000002033, 0.005160062140617086 
3.070000000002054, 0.0046205919665030185 
3.0800000000020753, 0.003662384015185205 
3.0900000000020964, 0.002103604374821713 
3.1000000000021175, -0.00036935293628113426 
3.1100000000021386, -0.004176062021553925 
3.1200000000021597, -0.011223085961348033 
3.130000000002181, -0.025024650820895007 
3.140000000002202, -0.05459623833874526 
3.150000000002223, -0.12518765947856628 
3.160000000002244, -0.30094219614722123 
3.1700000000022652, -0.6297762699308573 
3.1800000000022863, -0.9192049289699165 
3.1900000000023074, -1.0467142072657363 
3.2000000000023285, -1.091237133176082 
3.2100000000023496, -1.107093377166238 
3.2200000000023707, -1.112993298543182 
3.230000000002392, -1.1149382813481932 
3.240000000002413, -1.1148655914508911 
3.250000000002434, -1.1132686073570968 
3.260000000002455, -1.1101755429889297 
3.2700000000024763, -1.1065601149063677 
3.2800000000024974, -1.1089957771097025 
3.2900000000025185, -1.1382285845498834 
3.3000000000025396, -1.2189493958609998 
3.3100000000025607, -1.3309533713715722 
3.3200000000025818, -1.424692741777943 
3.330000000002603, -1.4861940476943616 
3.340000000002624, -1.5248214417654888 
3.350000000002645, -1.5496967638004562 
3.360000000002666, -1.5659225371271022 
3.3700000000026873, -1.5761929837997006 
3.3800000000027084, -1.582202814698823 
3.3900000000027295, -1.5852649439977144 
3.4000000000027506, -1.5864127094929175 
3.4100000000027717, -1.58639866845596 
3.420000000002793, -1.5857885508127338 
3.430000000002814, -1.585022360970506 
3.440000000002835, -1.5842741970286076 
3.450000000002856, -1.5834236008890459 
3.460000000002877, -1.582444179634878 
3.4700000000028983, -1.5816671072815778 
3.4800000000029194, -1.5813630355222124 
3.4900000000029405, -1.5812228814675464 
3.5000000000029616, -1.5805490044004276 
3.5100000000029827, -1.5784601466638404 
3.520000000003004, -1.5734693851188029 
3.530000000003025, -1.5626127305458408 
3.540000000003046, -1.5404433990544617 
3.550000000003067, -1.4985114900736933 
3.5600000000030882, -1.4257395810968887 
3.5700000000031094, -1.3095409273313292 
3.5800000000031305, -1.142179008144079 
3.5900000000031516, -0.9420568517854594 
3.6000000000031727, -0.7628445217611032 
3.6100000000031938, -0.6434453378934311 
3.620000000003215, -0.578257196203076 
3.630000000003236, -0.5461230364746119 
3.640000000003257, -0.5311416931485669 
3.650000000003278, -0.5245027770694788 
3.6600000000032993, -0.5217767874783881 
3.6700000000033204, -0.5208048206127731 
3.6800000000033415, -0.5205416578357902 
3.6900000000033626, -0.52047620822199 
3.7000000000033837, -0.5203521923790551 
3.710000000003405, -0.5200434710207146 
3.720000000003426, -0.5195122227579614 
3.730000000003447, -0.5188061241472101 
3.740000000003468, -0.5180542417265527 
3.750000000003489, -0.5174334389306504 
3.7600000000035103, -0.5171139990042465 
3.7700000000035314, -0.5172170378534929 
3.7800000000035525, -0.5177944437918497 
3.7900000000035736, -0.5188130921508585 
3.8000000000035947, -0.520135712702653 
3.810000000003616, -0.5215283492273979 
3.820000000003637, -0.5227278461699404 
3.830000000003658, -0.523539137998167 
3.840000000003679, -0.5238858023741441 
3.8500000000037002, -0.5237911353553061 
3.8600000000037213, -0.5233403839069941 
3.8700000000037424, -0.5226843159483191 
3.8800000000037635, -0.5221373200381406 
3.8900000000037847, -0.5224817047767465 
3.9000000000038058, -0.5258178742009377 
3.910000000003827, -0.5380327340145113 
3.920000000003848, -0.5763630452834101 
3.930000000003869, -0.6917116562544483 
3.94000000000389, -0.9955400559661255 
3.9500000000039113, -1.449398591168612 
3.9600000000039324, -1.7301414215937805 
3.9700000000039535, -1.8432677864147062 
3.9800000000039746, -1.8905609706092392 
3.9900000000039957, -1.9123939955890799 
4.000000000004016, -1.9228148763938269 
4.010000000003993, -1.9275395802303112 
4.02000000000397, -1.9292626208483104 
4.030000000003946, -1.9293396012337465 
4.040000000003923, -1.9284991702717946 
4.0500000000039, -1.9271062712141405 
4.0600000000038765, -1.9250662230328621 
4.070000000003853, -1.92214953139517 
4.08000000000383, -1.9191813097903438 
4.090000000003807, -1.917858320383218 
4.100000000003783, -1.9178567158839903 
4.11000000000376, -1.9173433047711632 
4.120000000003737, -1.9144234631377444 
4.130000000003713, -1.9035844029205269 
4.14000000000369, -1.854334515330967 
4.150000000003667, -1.5181764051980702 
4.1600000000036434, 0.5072903271727498 
4.17000000000362, 1.3479518314853616 
4.180000000003597, 1.4014521674681626 
4.1900000000035735, 1.409677922912939 
4.20000000000355, 1.411108925518236 
4.210000000003527, 1.4097483125051447 
4.220000000003504, 1.4040257329929726 
4.23000000000348, 1.3834253642171497 
4.240000000003457, 1.3115940164670836 
4.250000000003434, 1.230550661269601 
4.26000000000341, 1.238022272812621 
4.270000000003387, 1.2504080587691 
4.280000000003364, 1.2551182476925562 
4.2900000000033405, 1.2562645140070916 
4.300000000003317, 1.2552898074540448 
4.310000000003294, 1.2517961789395189 
4.320000000003271, 1.2443278989439297 
4.330000000003247, 1.2400656038160711 
4.340000000003224, 1.27870971773959 
4.350000000003201, 1.3305457339121218 
4.360000000003177, 1.351398708166787 
4.370000000003154, 1.3577415436249312 
4.380000000003131, 1.359249420636525 
4.390000000003107, 1.3581815968277993 
4.400000000003084, 1.352716825651364 
4.410000000003061, 1.325789154571059 
4.4200000000030375, 1.0079775522835968 
4.430000000003014, -1.5824665907710285 
4.440000000002991, -2.2070921843877387 
4.450000000002968, -2.264058257592745 
4.460000000002944, -2.273551277298105 
4.470000000002921, -2.2752714072478044 
4.480000000002898, -2.2750219480596052 
4.490000000002874, -2.2747056416122304 
4.500000000002851, -2.274899638278157 
4.510000000002828, -2.2747922081511374 
4.520000000002804, -2.2742810793618013 
4.530000000002781, -2.274008747102152 
4.540000000002758, -2.27350217947821 
4.5500000000027345, -2.271017732764265 
4.560000000002711, -2.2610928959932752 
4.570000000002688, -2.209707643135534 
4.580000000002665, -1.7364627658492182 
4.590000000002641, 0.41955577266502014 
4.600000000002618, 0.8756863804965931 
4.610000000002595, 0.9239154245597095 
4.620000000002571, 0.9342073411680498 
4.630000000002548, 0.9370607178379148 
4.640000000002525, 0.937409707773129 
4.6500000000025015, 0.9362432460783303 
4.660000000002478, 0.9334915566814018 
4.670000000002455, 0.9287674628100081 
4.6800000000024315, 0.9221467893376631 
4.690000000002408, 0.9150606560868452 
4.700000000002385, 0.9096768398209368 
4.710000000002362, 0.9068423851485786 
4.720000000002338, 0.905799104520494 
4.730000000002315, 0.9054709814418583 
4.740000000002292, 0.9050881116452176 
4.750000000002268, 0.904006799587355 
4.760000000002245, 0.9010764500035766 
4.770000000002222, 0.892512825631864 
4.7800000000021985, 0.8588071685862136 
4.790000000002175, 0.5986790871204611 
4.800000000002152, -1.970189790915099 
4.810000000002129, -2.863346657704417 
4.820000000002105, -2.9311028871737235 
4.830000000002082, -2.9436456707823577 
4.840000000002059, -2.946552885360886 
4.850000000002035, -2.946312035980802 
4.860000000002012, -2.943880316939794 
4.870000000001989, -2.9368967368824808 
4.880000000001965, -2.9152400269961705 
4.890000000001942, -2.8938092673576294 
4.900000000001919, -2.9018799714579773 
4.9100000000018955, -2.904899423755548 
4.920000000001872, -2.9040322792572377 
4.930000000001849, -2.9030735849638054 
4.940000000001826, -2.906266446849618 
4.950000000001802, -2.9089057807969656 
