t, s[1].omega / s[0].omega 
0, -1.0600116846822234 
0.009999999999999995, -1.0610993982953256 
0.019999999999999934, -1.061966114524465 
0.029999999999999874, -1.062501579457916 
0.04000000000000012, -1.0626199809882881 
0.050000000000000405, -1.0623140750615314 
0.06000000000000069, -1.0616753607359413 
0.07000000000000098, -1.0608820448999463 
0.08000000000000126, -1.0601579054958168 
0.09000000000000155, -1.0596945863367622 
0.10000000000000184, -1.0595732868939467 
0.11000000000000212, -1.0597623996270058 
0.12000000000000241, -1.0601932033742931 
0.130000000000002, -1.060819131848919 
0.1400000000000009, -1.0615993900179967 
0.1499999999999998, -1.0624521966407598 
0.1599999999999987, -1.0632508464682258 
0.1699999999999976, -1.0638697435525788 
0.1799999999999965, -1.0642339601753552 
0.1899999999999954, -1.0643379689505803 
0.1999999999999943, -1.0642278209043918 
0.2099999999999932, -1.0639589406997156 
0.2199999999999921, -1.0635549513769973 
0.229999999999991, -1.0629924177854004 
0.2399999999999899, -1.0622200395079395 
0.2499999999999888, -1.0612005147410588 
0.2599999999999877, -1.0599494677545427 
0.2699999999999866, -1.0585475811166607 
0.2799999999999855, -1.0571162727917807 
0.2899999999999844, -1.055768650618195 
0.2999999999999833, -1.054575628012696 
0.3099999999999822, -1.053583840468414 
0.3199999999999811, -1.052858604231496 
0.32999999999998, -1.0524777953276778 
0.3399999999999789, -1.0524562770178472 
0.3499999999999778, -1.052681650013887 
0.35999999999997667, -1.0529414368806118 
0.36999999999997557, -1.0530104733661658 
0.37999999999997447, -1.0527217485013902 
0.38999999999997337, -1.0520005374155632 
0.39999999999997227, -1.050871972842284 
0.40999999999997117, -1.0494347785976152 
0.41999999999997006, -1.0478025487077622 
0.42999999999996896, -1.046048145854533 
0.43999999999996786, -1.0441860041583173 
0.44999999999996676, -1.0421939621829654 
0.45999999999996566, -1.0400526790867064 
0.46999999999996456, -1.0377759723705908 
0.47999999999996346, -1.035414568630078 
0.48999999999996235, -1.0330383801399947 
0.49999999999996125, -1.0307267284112873 
0.5099999999999602, -1.0285899963005196 
0.519999999999959, -1.0267952124153348 
0.529999999999958, -1.025526846610228 
0.5399999999999568, -1.0248668531959026 
0.5499999999999557, -1.0246990707990649 
0.5599999999999546, -1.0247474193662571 
0.5699999999999535, -1.0246996116085645 
0.5799999999999524, -1.0242974585219748 
0.5899999999999513, -1.023370784484303 
0.5999999999999502, -1.0218595173619114 
0.6099999999999491, -1.0198293016588775 
0.619999999999948, -1.01744002319325 
0.6299999999999469, -1.0148637763173753 
0.6399999999999458, -1.0122118060583791 
0.6499999999999447, -1.009517150940503 
0.6599999999999436, -1.0067643689916983 
0.6699999999999425, -1.0039332345584806 
0.6799999999999414, -1.0010291162675173 
0.6899999999999403, -0.9980895569419443 
0.6999999999999392, -0.9951790434682198 
0.7099999999999381, -0.9923963683648758 
0.719999999999937, -0.9898973333553039 
0.7299999999999359, -0.9878895783496191 
0.7399999999999348, -0.9865496731158746 
0.7499999999999337, -0.9858961499641531 
0.7599999999999326, -0.9857406115660622 
0.7699999999999315, -0.9857717844204847 
0.7799999999999304, -0.9856797305797048 
0.7899999999999293, -0.9852250473357665 
0.7999999999999282, -0.9842619626021254 
0.8099999999999271, -0.9827583653645873 
0.819999999999926, -0.9808048155377866 
0.8299999999999249, -0.978572513092946 
0.8399999999999238, -0.9762287543827777 
0.8499999999999227, -0.9738716282313152 
0.8599999999999216, -0.9715211833187144 
0.8699999999999205, -0.9691530242699748 
0.8799999999999194, -0.9667432836420868 
0.8899999999999183, -0.9643001044995272 
0.8999999999999172, -0.961869284961425 
0.9099999999999161, -0.9595201404477397 
0.919999999999915, -0.9573334491152602 
0.9299999999999139, -0.9554071004882037 
0.9399999999999128, -0.9538631097433082 
0.9499999999999117, -0.9528179916277522 
0.9599999999999106, -0.9523106068468723 
0.9699999999999095, -0.9522457007992046 
0.9799999999999084, -0.9524148816024143 
0.9899999999999073, -0.9525773000918016 
0.9999999999999062, -0.9525340616168437 
1.0099999999999052, -0.9521681220006102 
1.019999999999904, -0.9514604141899199 
1.029999999999903, -0.9504823831068322 
1.039999999999902, -0.9493535696866594 
1.0499999999999008, -0.948179270510418 
1.0599999999998997, -0.9470064808817913 
1.0699999999998986, -0.945819462447265 
1.0799999999998975, -0.9445689142892801 
1.0899999999998964, -0.9432161253222409 
1.0999999999998953, -0.9417697491251005 
1.1099999999998942, -0.940297155865489 
1.119999999999893, -0.9389053239096027 
1.129999999999892, -0.9377022578281741 
1.1399999999998909, -0.9367644013285155 
1.1499999999998898, -0.9361328302450049 
1.1599999999998887, -0.9358307418524271 
1.1699999999998876, -0.9358691675481691 
1.1799999999998865, -0.9362250621113496 
1.1899999999998854, -0.9368172312754842 
1.1999999999998843, -0.937515527258926 
1.2099999999998832, -0.938183993055963 
1.219999999999882, -0.938728152289138 
1.229999999999881, -0.9391210147590041 
1.2399999999998799, -0.9393982932205572 
1.2499999999998788, -0.9396249358314291 
1.2599999999998777, -0.9398485264709677 
1.2699999999998766, -0.9400630484433533 
1.2799999999998755, -0.9402013431511955 
1.2899999999998744, -0.9401633783988631 
1.2999999999998733, -0.9398695200816285 
1.3099999999998722, -0.9393091766240765 
1.319999999999871, -0.9385610112381408 
1.32999999999987, -0.937784085855521 
1.3399999999998689, -0.9371831204628187 
1.3499999999998678, -0.9369460093630494 
1.3599999999998666, -0.9371757984169713 
1.3699999999998655, -0.937866617305738 
1.3799999999998644, -0.9389412718632244 
1.3899999999998633, -0.9403067790542801 
1.3999999999998622, -0.9418796160930853 
1.4099999999998611, -0.9435812345326251 
1.41999999999986, -0.9453352730967726 
1.429999999999859, -0.947082794058536 
1.4399999999998578, -0.9488023633759488 
1.4499999999998567, -0.9505127346573256 
1.4599999999998556, -0.9522485208827378 
1.4699999999998545, -0.9540168166117601 
1.4799999999998534, -0.955755048342124 
1.4899999999998523, -0.9573185970911947 
1.4999999999998512, -0.9585235267450465 
1.5099999999998501, -0.9592313292842614 
1.519999999999849, -0.9594153054328304 
1.529999999999848, -0.959170116978196 
1.5399999999998468, -0.958692492041784 
1.5499999999998457, -0.9582661346477499 
1.5599999999998446, -0.9582274768434937 
1.5699999999998435, -0.9588681078282753 
1.5799999999998424, -0.9603069969424395 
1.5899999999998413, -0.9624489590354479 
1.5999999999998402, -0.9650753337643334 
1.6099999999998391, -0.9679707670337837 
1.619999999999838, -0.9709856889134991 
1.629999999999837, -0.9740334276441631 
1.6399999999998358, -0.9770716025839933 
1.6499999999998347, -0.9800939977942651 
1.6599999999998336, -0.9831227170377522 
1.6699999999998325, -0.9861820620095905 
1.6799999999998314, -0.9892510585609706 
1.6899999999998303, -0.9922142013913839 
1.6999999999998292, -0.9948527252862437 
1.709999999999828, -0.996915648688159 
1.719999999999827, -0.9982409042628839 
1.729999999999826, -0.9988274102782556 
1.7399999999998248, -0.9988162611451623 
1.7499999999998237, -0.9984467120471476 
1.7599999999998226, -0.9980460778798138 
1.7699999999998215, -0.9980186236073081 
1.7799999999998204, -0.9987468728920372 
1.7899999999998193, -1.0004119661510598 
1.7999999999998182, -1.0029014397293987 
1.809999999999817, -1.0059189415012197 
1.819999999999816, -1.0091723188628032 
1.8299999999998149, -1.0124710262733 
1.8399999999998138, -1.0157183944382502 
1.8499999999998127, -1.018874601448192 
1.8599999999998116, -1.0219361288138453 
1.8699999999998105, -1.0249238933638893 
1.8799999999998094, -1.0278574364476225 
1.8899999999998083, -1.0307108823251538 
1.8999999999998072, -1.0333721331556356 
1.909999999999806, -1.0356455672630347 
1.919999999999805, -1.0373252391962198 
1.9299999999998039, -1.0382991728988025 
1.9399999999998028, -1.0386008644653795 
1.9499999999998017, -1.0383893432018074 
1.9599999999998006, -1.0379171305288155 
1.9699999999997995, -1.0375139137643405 
1.9799999999997984, -1.0375323605996254 
1.9899999999997973, -1.038213110307649 
1.9999999999997962, -1.0395636697558737 
2.0099999999998173, -1.0413947321705437 
2.0199999999998384, -1.043474764149747 
2.0299999999998595, -1.0456377695304897 
2.0399999999998806, -1.0477855451602833 
2.0499999999999017, -1.0498501578379933 
2.059999999999923, -1.0517808179953971 
2.069999999999944, -1.0535557150796615 
2.079999999999965, -1.055186268443772 
2.089999999999986, -1.0566954788980643 
2.100000000000007, -1.0580794451894133 
2.1100000000000283, -1.059277350970752 
2.1200000000000494, -1.0601766473515304 
2.1300000000000705, -1.0606621200813764 
2.1400000000000916, -1.0606808493081803 
2.1500000000001127, -1.0602797775445785 
2.160000000000134, -1.059605318790844 
2.170000000000155, -1.0588782850192646 
2.180000000000176, -1.0583365542772607 
2.190000000000197, -1.0581430928507845 
2.2000000000002182, -1.0583238719840615 
2.2100000000002393, -1.0588049205412635 
2.2200000000002604, -1.059502491178882 
2.2300000000002815, -1.0603618981043943 
2.2400000000003026, -1.0613247967788966 
2.2500000000003237, -1.06229385977046 
2.260000000000345, -1.0631484634315185 
2.270000000000366, -1.063792852185366 
2.280000000000387, -1.0641911031543732 
2.290000000000408, -1.0643667236916245 
2.3000000000004293, -1.064370450334909 
2.3100000000004504, -1.064236598871004 
2.3200000000004715, -1.06395483355941 
2.3300000000004926, -1.063474731189862 
2.3400000000005137, -1.0627412454042142 
2.3500000000005348, -1.0617400209600873 
2.360000000000556, -1.0605251834515328 
2.370000000000577, -1.059212884361143 
2.380000000000598, -1.0579395312858124 
2.390000000000619, -1.0568076367577075 
2.4000000000006403, -1.0558673208626872 
2.4100000000006614, -1.0551530953657404 
2.4200000000006825, -1.0547211353672676 
2.4300000000007036, -1.0546195781400325 
2.4400000000007247, -1.0548113207414227 
2.450000000000746, -1.055143185645397 
2.460000000000767, -1.055401385040367 
2.470000000000788, -1.0553941889595246 
2.480000000000809, -1.0550052966325176 
2.49000000000083, -1.0542141455261356 
2.5000000000008513, -1.053085549060259 
2.5100000000008724, -1.0517245270894473 
2.5200000000008935, -1.0502173553495908 
2.5300000000009146, -1.0485968532572074 
2.5400000000009357, -1.0468484953041235 
2.550000000000957, -1.0449449879379882 
2.560000000000978, -1.0428839581319571 
2.570000000000999, -1.0407048965903947 
2.58000000000102, -1.038477110298442 
2.5900000000010412, -1.0362771083759663 
2.6000000000010624, -1.03418971296236 
2.6100000000010835, -1.032338998243897 
2.6200000000011046, -1.0308962719860173 
2.6300000000011257, -1.0300049987324007 
2.6400000000011468, -1.0296591788190659 
2.650000000001168, -1.0296632220143018 
2.660000000001189, -1.0297194815626178 
2.67000000000121, -1.0295434536492103 
2.680000000001231, -1.0289242282693916 
2.6900000000012523, -1.027749443410798 
2.7000000000012734, -1.0260259765678996 
2.7100000000012945, -1.0238731602093722 
2.7200000000013156, -1.0214607891840244 
2.7300000000013367, -1.0189266362130567 
2.740000000001358, -1.0163335185638736 
2.750000000001379, -1.013681104374488 
2.7600000000014, -1.0109465632604429 
2.770000000001421, -1.0081227254547378 
2.780000000001442, -1.0052345392738058 
2.7900000000014633, -1.0023354288686641 
2.8000000000014844, -0.9995059966550135 
2.8100000000015055, -0.9968733858124612 
2.8200000000015266, -0.9946282081628821 
2.8300000000015477, -0.9929798511156731 
2.840000000001569, -0.9920346768895906 
2.85000000000159, -0.9916936343424958 
2.860000000001611, -0.9916811048824202 
2.870000000001632, -0.9916700637955274 
2.8800000000016532, -0.9913820878928981 
2.8900000000016743, -0.9906244864510978 
2.9000000000016954, -0.9893088425509756 
2.9100000000017165, -0.9874712792058638 
2.9200000000017377, -0.9852578710701984 
2.9300000000017588, -0.9828522784024463 
2.94000000000178, -0.9803920166360882 
2.950000000001801, -0.9779325109907113 
2.960000000001822, -0.975465621968387 
2.970000000001843, -0.9729635046945591 
2.9800000000018643, -0.9704181893171901 
2.9900000000018854, -0.967858624883473 
3.0000000000019065, -0.9653438852413107 
3.0100000000019276, -0.9629502335451543 
3.0200000000019487, -0.9607730008183901 
3.03000000000197, -0.9589380854840842 
3.040000000001991, -0.9575856277546844 
3.050000000002012, -0.9568014303936232 
3.060000000002033, -0.9565388821382417 
3.070000000002054, -0.9566106863955991 
3.0800000000020753, -0.9567626641442624 
3.0900000000020964, -0.9567616718634773 
3.1000000000021175, -0.9564476436493361 
3.1100000000021386, -0.9557567573827909 
3.1200000000021597, -0.9547268977062835 
3.130000000002181, -0.9534713691554002 
3.140000000002202, -0.9521185261800982 
3.150000000002223, -0.9507521810491589 
3.160000000002244, -0.9493884007748321 
3.1700000000022652, -0.947992687568601 
3.1800000000022863, -0.9465206155929993 
3.1900000000023074, -0.9449596347390401 
3.2000000000023285, -0.9433513787795709 
3.2100000000023496, -0.9417840460655515 
3.2200000000023707, -0.9403607661043484 
3.230000000002392, -0.9391660896057061 
3.240000000002413, -0.9382555581665791 
3.250000000002434, -0.9376688300668427 
3.260000000002455, -0.9374366390965184 
3.2700000000024763, -0.9375586360024821 
3.2800000000024974, -0.9379709816129281 
3.2900000000025185, -0.938544841393175 
3.3000000000025396, -0.9391268701042923 
3.3100000000025607, -0.9395928998501454 
3.3200000000025818, -0.9398844567497902 
3.330000000002603, -0.9400160595565861 
3.340000000002624, -0.9400515533227007 
3.350000000002645, -0.9400587819074803 
3.360000000002666, -0.9400653068488397 
3.3700000000026873, -0.9400374874513364 
3.3800000000027084, -0.9398936116876065 
3.3900000000027295, -0.9395473506133947 
3.4000000000027506, -0.9389597471775206 
3.4100000000027717, -0.938171860902284 
3.420000000002793, -0.9373070351335218 
3.430000000002814, -0.9365450833796409 
3.440000000002835, -0.9360694031336795 
3.450000000002856, -0.9360021673685974 
3.460000000002877, -0.9363693701442154 
3.4700000000028983, -0.9371222838722831 
3.4800000000029194, -0.9381862278545372 
3.4900000000029405, -0.9394881341422284 
3.5000000000029616, -0.9409533527918341 
3.5100000000029827, -0.9424999446117655 
3.520000000003004, -0.9440526336233054 
3.530000000003025, -0.9455682640422092 
3.540000000003046, -0.9470492162149957 
3.550000000003067, -0.9485299152640625 
3.5600000000030882, -0.9500393604579329 
3.5700000000031094, -0.9515564195910834 
3.5800000000031305, -0.952982164537245 
3.5900000000031516, -0.9541557109105062 
3.6000000000031727, -0.954920446711492 
3.6100000000031938, -0.9552011555963829 
3.620000000003215, -0.9550390433509663 
3.630000000003236, -0.9545835927118617 
3.640000000003257, -0.9540757251494426 
3.650000000003278, -0.9538224876402387 
3.6600000000032993, -0.9541245090744008 
3.6700000000033204, -0.955157869870596 
3.6800000000033415, -0.9569007288018468 
3.6900000000033626, -0.9591810565929023 
3.7000000000033837, -0.9617930634385401 
3.710000000003405, -0.9645769223712548 
3.720000000003426, -0.9674312946615965 
3.730000000003447, -0.970297958485682 
3.740000000003468, -0.9731538499913149 
3.750000000003489, -0.9760091536438897 
3.7600000000035103, -0.9788920210897063 
3.7700000000035314, -0.9818099424540432 
3.7800000000035525, -0.9846980156290128 
3.7900000000035736, -0.987386244703665 
3.8000000000035947, -0.989631125124521 
3.810000000003616, -0.9912204852763612 
3.820000000003637, -0.992077124085883 
3.830000000003658, -0.9922794242426344 
3.840000000003679, -0.9920210801920671 
3.8500000000037002, -0.9915853467560363 
3.8600000000037213, -0.9913432592621827 
3.8700000000037424, -0.9917019907053197 
3.8800000000037635, -0.9929514728031675 
3.8900000000037847, -0.995111615501744 
3.9000000000038058, -0.9979512289771806 
3.910000000003827, -1.0011610193592568 
3.920000000003848, -1.0045015489593114 
3.930000000003869, -1.0078372505947208 
3.94000000000389, -1.0111058960615258 
3.9500000000039113, -1.0142897123556949 
3.9600000000039324, -1.0174018559488727 
3.9700000000039535, -1.02046779736825 
3.9800000000039746, -1.0234871003654469 
3.9900000000039957, -1.026385447202228 
4.000000000004016, -1.0289913299090632 
4.010000000003993, -1.031079082765853 
4.02000000000397, -1.032473908303938 
4.030000000003946, -1.0331395129246987 
4.040000000003923, -1.0331844441752236 
4.0500000000039, -1.0328237026029705 
4.0600000000038765, -1.0323576120574178 
4.070000000003853, -1.0321510075656732 
4.08000000000383, -1.032539361695898 
4.090000000003807, -1.0336718771174231 
4.100000000003783, -1.0354448630338993 
4.11000000000376, -1.0376129826119922 
4.120000000003737, -1.0399499935982532 
4.130000000003713, -1.0423135857002601 
4.14000000000369, -1.0446212431571724 
4.150000000003667, -1.046817506977691 
4.1600000000036434, -1.0488709059790993 
4.17000000000362, -1.050781671960459 
4.180000000003597, -1.0525713603067859 
4.1900000000035735, -1.0542493526456478 
4.20000000000355, -1.0557748769489301 
4.210000000003527, -1.0570435621264562 
4.220000000003504, -1.057920562227703 
4.23000000000348, -1.058308994085645 
4.240000000003457, -1.0582065627645059 
4.250000000003434, -1.0577191760024323 
4.26000000000341, -1.0570451446128575 
4.270000000003387, -1.0564392823803483 
4.280000000003364, -1.0561362787435555 
4.2900000000033405, -1.0562517188260103 
4.300000000003317, -1.0567514093271708 
4.310000000003294, -1.0575269029505054 
4.320000000003271, -1.0584854453709416 
4.330000000003247, -1.0595642016273792 
4.340000000003224, -1.0606901185393918 
4.350000000003201, -1.061760786826799 
4.360000000003177, -1.0626732629023263 
4.370000000003154, -1.0633663151045893 
4.380000000003131, -1.0638377530927796 
4.390000000003107, -1.0641265050488868 
4.400000000003084, -1.0642723656491333 
4.410000000003061, -1.0642788089765225 
4.4200000000030375, -1.0641023239154643 
4.430000000003014, -1.0636766629377195 
4.440000000002991, -1.0629590949508625 
4.450000000002968, -1.0619706580146944 
4.460000000002944, -1.0608075494358506 
4.470000000002921, -1.0596156776964825 
4.480000000002898, -1.058534576164782 
4.490000000002874, -1.0576459248449883 
4.500000000002851, -1.0569764794821475 
4.510000000002828, -1.0565485236628904 
4.520000000002804, -1.0564031603489827 
4.530000000002781, -1.0565519306928177 
4.540000000002758, -1.056911657931468 
4.5500000000027345, -1.0573071787586255 
4.560000000002711, -1.0575409197590602 
4.570000000002688, -1.0574635159167438 
4.580000000002665, -1.0570109165099242 
4.590000000002641, -1.0562086634513503 
4.600000000002618, -1.0551421982960432 
4.610000000002595, -1.0539024203913818 
4.620000000002571, -1.0525391429712392 
4.630000000002548, -1.0510499755224705 
4.640000000002525, -1.0494047063782754 
4.6500000000025015, -1.0475851464306067 
4.660000000002478, -1.0456144005480603 
4.670000000002455, -1.0435572213750686 
4.6800000000024315, -1.041494987833893 
4.690000000002408, -1.0395054973952502 
4.700000000002385, -1.037678129420488 
4.710000000002362, -1.0361458910333867 
4.720000000002338, -1.0350663056764304 
4.730000000002315, -1.0345209009791174 
4.740000000002292, -1.034418316216778 
4.750000000002268, -1.0345125967918958 
4.760000000002245, -1.0345126269811444 
4.770000000002222, -1.0341737809009954 
4.7800000000021985, -1.0333379725005756 
4.790000000002175, -1.0319558310263903 
4.800000000002152, -1.030095435209244 
4.810000000002129, -1.0279055908219148 
4.820000000002105, -1.025538156628903 
4.830000000002082, -1.023084896714026 
4.840000000002059, -1.0205667603015383 
4.850000000002035, -1.0179648789856912 
4.860000000002012, -1.0152623723403067 
4.870000000001989, -1.0124711350494373 
4.880000000001965, -1.0096344009743035 
4.890000000001942, -1.00681949087716 
4.900000000001919, -1.0041269295145068 
4.9100000000018955, -1.0017162489123361 
4.920000000001872, -0.9997991757949116 
4.930000000001849, -0.9985488380790141 
