t, s[1].omega / s[0].omega 
0, -0.3202143231178668 
0.009999999999999995, -0.34844793257760276 
0.019999999999999934, -0.39465942307224233 
0.029999999999999874, -0.4605719507204985 
0.04000000000000012, -0.5313849782758358 
0.050000000000000405, -0.5847325129693132 
0.06000000000000069, -0.6151243551016592 
0.07000000000000098, -0.63019126427898 
0.08000000000000126, -0.6373075036109159 
0.09000000000000155, -0.6404705164300156 
0.10000000000000184, -0.6414562802254806 
0.11000000000000212, -0.6408672413957548 
0.12000000000000241, -0.638527681057645 
0.130000000000002, -0.6333110923058738 
0.1400000000000009, -0.6221523705877887 
0.1499999999999998, -0.5973636961966061 
0.1599999999999987, -0.5419434561810166 
0.1699999999999976, -0.43496439334023773 
0.1799999999999965, -0.2964702539303271 
0.1899999999999954, -0.18971962160823808 
0.1999999999999943, -0.13143372224407895 
0.2099999999999932, -0.10253054368763678 
0.2199999999999921, -0.08772931954494326 
0.229999999999991, -0.07964366081465953 
0.2399999999999899, -0.07495582620995096 
0.2499999999999888, -0.07211169616616654 
0.2599999999999877, -0.07032596437092006 
0.2699999999999866, -0.06917160449433649 
0.2799999999999855, -0.06840971713991884 
0.2899999999999844, -0.06791900578872787 
0.2999999999999833, -0.06766999399351252 
0.3099999999999822, -0.06772972106269028 
0.3199999999999811, -0.06830914111530681 
0.32999999999998, -0.06989971455253233 
0.3399999999999789, -0.07361784040011785 
0.3499999999999778, -0.08196956540548309 
0.35999999999997667, -0.09915922026511305 
0.36999999999997557, -0.1076023890457076 
0.37999999999997447, 0.3113476843000752 
0.38999999999997337, 1.3634647007763692 
0.39999999999997227, 1.4902063383313184 
0.40999999999997117, 1.5051452977315036 
0.41999999999997006, 1.5079298698365644 
0.42999999999996896, 1.507281970362186 
0.43999999999996786, 1.5025665003934316 
0.44999999999996676, 1.4818129744136277 
0.45999999999996566, 1.356232880891621 
0.46999999999996456, 1.088434190000658 
0.47999999999996346, 1.1251012079397307 
0.48999999999996235, 1.1555234689940506 
0.49999999999996125, 1.1645049078127 
0.5099999999999602, 1.1670664710123344 
0.519999999999959, 1.1671017623867899 
0.529999999999958, 1.1653547031189988 
0.5399999999999568, 1.1616180346873783 
0.5499999999999557, 1.157634123624776 
0.5599999999999546, 1.1674811157205904 
0.5699999999999535, 1.2026135607364314 
0.5799999999999524, 1.2311558338629296 
0.5899999999999513, 1.2431336539413003 
0.5999999999999502, 1.2472470351111498 
0.6099999999999491, 1.2480604415647765 
0.619999999999948, 1.2465068940641135 
0.6299999999999469, 1.2400347485699368 
0.6399999999999458, 1.2090965009177257 
0.6499999999999447, 0.8724723380625965 
0.6599999999999436, -1.5017613308193212 
0.6699999999999425, -2.117287520832486 
0.6799999999999414, -2.178947903288526 
0.6899999999999403, -2.1896492768410707 
0.6999999999999392, -2.1917608709819882 
0.7099999999999381, -2.191630696841581 
0.719999999999937, -2.1912625890919886 
0.7299999999999359, -2.191579962913145 
0.7399999999999348, -2.191904375955007 
0.7499999999999337, -2.1917157538451173 
0.7599999999999326, -2.1914981789916337 
0.7699999999999315, -2.191236548523859 
0.7799999999999304, -2.18980568958722 
0.7899999999999293, -2.1844950874195397 
0.7999999999999282, -2.1640965205719156 
0.8099999999999271, -2.0581954318049656 
0.819999999999926, -1.311190795138224 
0.8299999999999249, 0.12426348178254405 
0.8399999999999238, 0.4356519752029773 
0.8499999999999227, 0.4917791287261921 
0.8599999999999216, 0.5074431209249796 
0.8699999999999205, 0.5130629495486597 
0.8799999999999194, 0.5152518382270865 
0.8899999999999183, 0.5159855415881118 
0.8999999999999172, 0.5160239427130497 
0.9099999999999161, 0.515757233088886 
0.919999999999915, 0.5154694478303515 
0.9299999999999139, 0.5154346342292806 
0.9399999999999128, 0.5159528323954858 
0.9499999999999117, 0.517339646823598 
0.9599999999999106, 0.5198300973085176 
0.9699999999999095, 0.5233737668137606 
0.9799999999999084, 0.5274693402724091 
0.9899999999999073, 0.5313235592824843 
0.9999999999999062, 0.5342854907546609 
1.0099999999999052, 0.5360901681281184 
1.019999999999904, 0.5367193911577308 
1.029999999999903, 0.536092817737105 
1.039999999999902, 0.5336792513227716 
1.0499999999999008, 0.5276399957588158 
1.0599999999998997, 0.5117948150285402 
1.0699999999998986, 0.4626917916449269 
1.0799999999998975, 0.294693037589276 
1.0899999999998964, -0.05680557031956694 
1.0999999999998953, -0.29233519348873543 
1.1099999999998942, -0.3710562740502601 
1.119999999999893, -0.397339114934925 
1.129999999999892, -0.4078688408106593 
1.1399999999998909, -0.4127446518306225 
1.1499999999998898, -0.4151240712655283 
1.1599999999998887, -0.41614470418334665 
1.1699999999998876, -0.41623097219855854 
1.1799999999998865, -0.41549815808447643 
1.1899999999998854, -0.4139155852776694 
1.1999999999998843, -0.41143129685605084 
1.2099999999998832, -0.4081213680363714 
1.219999999999882, -0.404305791340364 
1.229999999999881, -0.40049392835887804 
1.2399999999998799, -0.3971609483575049 
1.2499999999998788, -0.3945679066389708 
1.2599999999998777, -0.39275899004403075 
1.2699999999998766, -0.39165262519328536 
1.2799999999998755, -0.39111198572122696 
1.2899999999998744, -0.3909696836880546 
1.2999999999998733, -0.39103839537019613 
1.3099999999998722, -0.39113737109668556 
1.319999999999871, -0.39113081666866234 
1.32999999999987, -0.39095226971173636 
1.3399999999998689, -0.3906060108080878 
1.3499999999998678, -0.3901664047342707 
1.3599999999998666, -0.38981146618718376 
1.3699999999998655, -0.38994734462651237 
1.3799999999998644, -0.391565791549599 
1.3899999999998633, -0.3972874888204043 
1.3999999999998622, -0.41472813047762414 
1.4099999999998611, -0.4689603646912663 
1.41999999999986, -0.653861501629575 
1.429999999999859, -1.2394241780713897 
1.4399999999998578, -1.9206991226379322 
1.4499999999998567, -2.1362587420552854 
1.4599999999998556, -2.1945666103438994 
1.4699999999998545, -2.2150687912576794 
1.4799999999998534, -2.2234125080027005 
1.4899999999998523, -2.2267120960867497 
1.4999999999998512, -2.2274923575943815 
1.5099999999998501, -2.2267609445251604 
1.519999999999849, -2.2248253018845423 
1.529999999999848, -2.2212277794215503 
1.5399999999998468, -2.214652002696377 
1.5499999999998457, -2.20609725936371 
1.5599999999998446, -2.202752901742699 
1.5699999999998435, -2.2040494342126626 
1.5799999999998424, -2.2044375795157114 
1.5899999999998413, -2.202017337839519 
1.5999999999998402, -2.1931983425047603 
1.6099999999998391, -2.180406199619924 
1.619999999999838, -2.2289151849786846 
1.629999999999837, -2.292865681896263 
1.6399999999998358, -2.318211609612828 
1.6499999999998347, -2.3276036274595433 
1.6599999999998336, -2.331490996278926 
1.6699999999998325, -2.332874507410099 
1.6799999999998314, -2.332601230025248 
1.6899999999998303, -2.3307088121793518 
1.6999999999998292, -2.3264768862850964 
1.709999999999828, -2.317308874936885 
1.719999999999827, -2.29416904636676 
1.729999999999826, -2.2350828247012053 
1.7399999999998248, -2.179477566802207 
1.7499999999998237, -2.1889583731947826 
1.7599999999998226, -2.1979629493649537 
1.7699999999998215, -2.200100279003691 
1.7799999999998204, -2.199232707119532 
1.7899999999998193, -2.1971212599088625 
1.7999999999998182, -2.1989924049757974 
1.809999999999817, -2.2068688121083904 
1.819999999999816, -2.2133324765506517 
1.8299999999998149, -2.216613055571418 
1.8399999999998138, -2.2180657400795534 
1.8499999999998127, -2.218296193016376 
1.8599999999998116, -2.2171049601484247 
1.8699999999998105, -2.213658860942733 
1.8799999999998094, -2.205898453126389 
1.8899999999998083, -2.188270039688376 
1.8999999999998072, -2.14201849194143 
1.909999999999806, -1.9846305043133188 
1.919999999999805, -1.4418847187654111 
1.9299999999998039, -0.8243128230694687 
1.9399999999998028, -0.6146391007730425 
1.9499999999998017, -0.5604715540403336 
1.9599999999998006, -0.5468023740969961 
1.9699999999997995, -0.5440860161689638 
1.9799999999997984, -0.5442661933176084 
1.9899999999997973, -0.5449864112094883 
1.9999999999997962, -0.5455340343934265 
2.0099999999998173, -0.5456770046550276 
2.0199999999998384, -0.545304020341872 
2.0299999999998595, -0.5443204224415509 
2.0399999999998806, -0.542653273635423 
2.0499999999999017, -0.5403223691147353 
2.059999999999923, -0.5375180819936797 
2.069999999999944, -0.5345867329021371 
2.079999999999965, -0.5318942933539931 
2.089999999999986, -0.52968367293691 
2.100000000000007, -0.5280353522944037 
2.1100000000000283, -0.5269086291368786 
2.1200000000000494, -0.5261919739122384 
2.1300000000000705, -0.5257375305356475 
2.1400000000000916, -0.5253932697479018 
2.1500000000001127, -0.5250407474081294 
2.160000000000134, -0.5246263279199349 
2.170000000000155, -0.5241759752328891 
2.180000000000176, -0.5238045708022762 
2.190000000000197, -0.5237426243826735 
2.2000000000002182, -0.524401113632659 
2.2100000000002393, -0.5264919345543695 
2.2200000000002604, -0.5312225319393262 
2.2300000000002815, -0.5405819127161634 
2.2400000000003026, -0.5577114587824938 
2.2500000000003237, -0.5872573823071496 
2.260000000000345, -0.6353352808209813 
2.270000000000366, -0.7082797338913777 
2.280000000000387, -0.8092984719818794 
2.290000000000408, -0.933949943197477 
2.3000000000004293, -1.0682281086658425 
2.3100000000004504, -1.1920285219590023 
2.3200000000004715, -1.2872708249336207 
2.3300000000004926, -1.3474122787931726 
2.3400000000005137, -1.3791922011244755 
2.3500000000005348, -1.3939927474171596 
2.360000000000556, -1.400320203591551 
2.370000000000577, -1.402693244430839 
2.380000000000598, -1.4031845382392163 
2.390000000000619, -1.4028319133050193 
2.4000000000006403, -1.4025160378153299 
2.4100000000006614, -1.4032079912634257 
2.4200000000006825, -1.4053199209255018 
2.4300000000007036, -1.4082218111442348 
2.4400000000007247, -1.4110287590382211 
2.450000000000746, -1.413347096094775 
2.460000000000767, -1.4151622282831702 
2.470000000000788, -1.4165041929298365 
2.480000000000809, -1.417334394817519 
2.49000000000083, -1.4175972216652972 
2.5000000000008513, -1.4172699744463197 
2.5100000000008724, -1.4163615284886055 
2.5200000000008935, -1.4148819176469412 
2.5300000000009146, -1.4128120746633939 
2.5400000000009357, -1.4100914599868521 
2.550000000000957, -1.406615172234942 
2.560000000000978, -1.4022136111229822 
2.570000000000999, -1.3966331384554411 
2.58000000000102, -1.389683486980712 
2.5900000000010412, -1.381809725458144 
2.6000000000010624, -1.3747779373442928 
2.6100000000010835, -1.3707423499955778 
2.6200000000011046, -1.3697533188743742 
2.6300000000011257, -1.3699885295295793 
2.6400000000011468, -1.369908197196182 
2.650000000001168, -1.3685682537947743 
2.660000000001189, -1.3645862469990813 
2.67000000000121, -1.3542417038637495 
2.680000000001231, -1.3266662307878323 
2.6900000000012523, -1.2520774496156855 
2.7000000000012734, -1.075026264494675 
2.7100000000012945, -0.7955601716999217 
2.7200000000013156, -0.5490424684367093 
2.7300000000013367, -0.4048984803275702 
2.740000000001358, -0.33048429113732974 
2.750000000001379, -0.29115211750337433 
2.7600000000014, -0.2690501493847962 
2.770000000001421, -0.25587204684325554 
2.780000000001442, -0.24764218365372176 
2.7900000000014633, -0.242351571828463 
2.8000000000014844, -0.23893551000264113 
2.8100000000015055, -0.23681679055333923 
2.8200000000015266, -0.23569315652875109 
2.8300000000015477, -0.2354383731688913 
2.840000000001569, -0.23606371454140745 
2.85000000000159, -0.23772102365360034 
2.860000000001611, -0.24074874977511337 
2.870000000001632, -0.24578349619184942 
2.8800000000016532, -0.25399723495545323 
2.8900000000016743, -0.2676058193723413 
2.9000000000016954, -0.2910038489121308 
2.9100000000017165, -0.33337474962917335 
2.9200000000017377, -0.41439495807620136 
2.9300000000017588, -0.5720549896314735 
2.94000000000178, -0.842525542194994 
2.950000000001801, -1.1521905438868152 
2.960000000001822, -1.3508981499752666 
2.970000000001843, -1.4346022068278057 
2.9800000000018643, -1.464868420740984 
2.9900000000018854, -1.4756611185061308 
3.0000000000019065, -1.479408732900756 
3.0100000000019276, -1.4803395623552744 
3.0200000000019487, -1.48003545655984 
3.03000000000197, -1.47953850831036 
3.040000000001991, -1.4801300956299681 
3.050000000002012, -1.4826204183854144 
3.060000000002033, -1.4862656634320595 
3.070000000002054, -1.4897572904527627 
3.0800000000020753, -1.4925165388945496 
3.0900000000020964, -1.4945627209976489 
3.1000000000021175, -1.4959978462435704 
3.1100000000021386, -1.4968255886844841 
3.1200000000021597, -1.4970058478965607 
3.130000000002181, -1.4965144401497863 
3.140000000002202, -1.4953451070456352 
3.150000000002223, -1.4934803246869257 
3.160000000002244, -1.490858689100849 
3.1700000000022652, -1.4873492598736326 
3.1800000000022863, -1.482714176143737 
3.1900000000023074, -1.4765428058584136 
3.2000000000023285, -1.4682816287348817 
3.2100000000023496, -1.4578091130406476 
3.2200000000023707, -1.4469291728495606 
3.230000000002392, -1.4395855673968723 
3.240000000002413, -1.4374256538589774 
3.250000000002434, -1.437874969126473 
3.260000000002455, -1.4383127911447111 
3.2700000000024763, -1.4375484978551485 
3.2800000000024974, -1.4343736079526557 
3.2900000000025185, -1.4251540192833398 
3.3000000000025396, -1.3963979581337653 
3.3100000000025607, -1.2907941044013187 
3.3200000000025818, -0.8857001919844901 
3.330000000002603, -0.1390397368230097 
3.340000000002624, 0.1978118163261179 
3.350000000002645, 0.2835736235008822 
3.360000000002666, 0.3096548423659741 
3.3700000000026873, 0.31946968355160876 
3.3800000000027084, 0.3236382568665773 
3.3900000000027295, 0.3254193454649198 
3.4000000000027506, 0.3260324524390576 
3.4100000000027717, 0.32603583415903714 
3.420000000002793, 0.3257572470510502 
3.430000000002814, 0.32544754774354767 
3.440000000002835, 0.32534705080703835 
3.450000000002856, 0.3257375342381195 
3.460000000002877, 0.3270085719131078 
3.4700000000028983, 0.3297161722465612 
3.4800000000029194, 0.33450741662661865 
3.4900000000029405, 0.3416790084827614 
3.5000000000029616, 0.3504594608819849 
3.5100000000029827, 0.35901355242573046 
3.520000000003004, 0.36570108953117836 
3.530000000003025, 0.37003301258255794 
3.540000000003046, 0.37233801874213723 
3.550000000003067, 0.3730601260162848 
3.5600000000030882, 0.37236611591501817 
3.5700000000031094, 0.3699422172995023 
3.5800000000031305, 0.364689129504782 
3.5900000000031516, 0.35414761064905576 
3.6000000000031727, 0.3342142686011939 
3.6100000000031938, 0.3023034417687655 
3.620000000003215, 0.26564139590783886 
3.630000000003236, 0.23794801120640313 
3.640000000003257, 0.2230215713000938 
3.650000000003278, 0.21622378862907352 
3.6600000000032993, 0.21323021530955075 
3.6700000000033204, 0.21185755605221895 
3.6800000000033415, 0.2111661276669091 
3.6900000000033626, 0.21073760148245352 
3.7000000000033837, 0.21033909861591749 
3.710000000003405, 0.2097751808129486 
3.720000000003426, 0.20880369204604685 
3.730000000003447, 0.2070405769150462 
3.740000000003468, 0.20375716204325145 
3.750000000003489, 0.1973257634885338 
3.7600000000035103, 0.18347102344340788 
3.7700000000035314, 0.1487804833157355 
3.7800000000035525, 0.042748803287838213 
3.7900000000035736, -0.31284905023912224 
3.8000000000035947, -0.9542248237897162 
3.810000000003616, -1.289542614723093 
3.820000000003637, -1.3832053067279915 
3.830000000003658, -1.409693014320132 
3.840000000003679, -1.4180696405961304 
3.8500000000037002, -1.4206511916370679 
3.8600000000037213, -1.420884865908992 
3.8700000000037424, -1.4199564405971625 
3.8800000000037635, -1.4190276767072176 
3.8900000000037847, -1.4205608743744909 
3.9000000000038058, -1.426986929129245 
3.910000000003827, -1.4369051715620647 
3.920000000003848, -1.4466386584119146 
3.930000000003869, -1.4543529660477608 
3.94000000000389, -1.460064868438237 
3.9500000000039113, -1.4642731573103729 
3.9600000000039324, -1.4673717140219706 
3.9700000000039535, -1.4695948953000815 
3.9800000000039746, -1.471073305139147 
3.9900000000039957, -1.471868236746709 
4.000000000004016, -1.4719962670632725 
4.010000000003993, -1.471463008997421 
4.02000000000397, -1.4702965600294995 
4.030000000003946, -1.4685553924601682 
4.040000000003923, -1.4662827701527312 
4.0500000000039, -1.4634359502913492 
4.0600000000038765, -1.4599690935864813 
4.070000000003853, -1.4562161625818724 
4.08000000000383, -1.453164811729978 
4.090000000003807, -1.4516916283610266 
4.100000000003783, -1.451443294110529 
4.11000000000376, -1.4513112894230575 
4.120000000003737, -1.4503040363169082 
4.130000000003713, -1.4472544990549254 
4.14000000000369, -1.4395767920089377 
4.150000000003667, -1.4206557642340303 
4.1600000000036434, -1.3749235406661895 
4.17000000000362, -1.2751080161551107 
4.180000000003597, -1.10270790904752 
4.1900000000035735, -0.8909507381392772 
4.20000000000355, -0.7048205179566247 
4.210000000003527, -0.5743790920507446 
4.220000000003504, -0.49235908397616884 
4.23000000000348, -0.44249770318124143 
4.240000000003457, -0.412178016836366 
4.250000000003434, -0.39354215195903625 
4.26000000000341, -0.38197887691149873 
4.270000000003387, -0.37479279111023206 
4.280000000003364, -0.3703831403485932 
4.2900000000033405, -0.36777980985038966 
4.300000000003317, -0.36638555708684944 
4.310000000003294, -0.36583221413912786 
4.320000000003271, -0.36590069529285885 
4.330000000003247, -0.36647875000912034 
4.340000000003224, -0.3675433816355325 
4.350000000003201, -0.36916170839144363 
4.360000000003177, -0.371508338437449 
4.370000000003154, -0.374902709502177 
4.380000000003131, -0.37987872360860486 
4.390000000003107, -0.3873055902262284 
4.400000000003084, -0.3985519464805035 
4.410000000003061, -0.4155245739370305 
4.4200000000030375, -0.4399472021570999 
4.430000000003014, -0.47096625182882645 
4.440000000002991, -0.5028272383689962 
4.450000000002968, -0.52820219661647 
4.460000000002944, -0.5444517820403731 
4.470000000002921, -0.553494401194252 
4.480000000002898, -0.5580876578151621 
4.490000000002874, -0.5600899282748356 
4.500000000002851, -0.5604142334135819 
4.510000000002828, -0.5592830362520052 
4.520000000002804, -0.5562705716318085 
4.530000000002781, -0.5499305443369655 
4.540000000002758, -0.5366050719662206 
4.5500000000027345, -0.5077293378502876 
4.560000000002711, -0.4475020100998659 
4.570000000002688, -0.3468299605593664 
4.580000000002665, -0.23765856385972683 
4.590000000002641, -0.1621023765440803 
4.600000000002618, -0.1212967671526665 
4.610000000002595, -0.1003601013232085 
4.620000000002571, -0.08920679930387929 
4.630000000002548, -0.08291944543685566 
4.640000000002525, -0.07919756551665016 
4.6500000000025015, -0.07691292282091435 
4.660000000002478, -0.07546802631844754 
4.670000000002455, -0.07452370482855616 
4.6800000000024315, -0.073884843147779 
4.690000000002408, -0.07345276957220713 
4.700000000002385, -0.07320804361690854 
4.710000000002362, -0.07321651430001991 
4.720000000002338, -0.07367100342475016 
4.730000000002315, -0.07500225314795958 
4.740000000002292, -0.07810590607602783 
4.750000000002268, -0.08444310563851691 
4.760000000002245, -0.0915702079601389 
4.770000000002222, -0.029013030424046737 
4.7800000000021985, 0.622961704381009 
4.790000000002175, 1.172424341365913 
4.800000000002152, 1.2424501877336618 
4.810000000002129, 1.2545119838384897 
4.820000000002105, 1.2572285971049812 
4.830000000002082, 1.2568746778962487 
4.840000000002059, 1.2534917241387142 
4.850000000002035, 1.2421487971791352 
4.860000000002012, 1.200566963172137 
4.870000000001989, 1.08644071758439 
4.880000000001965, 1.024820821416468 
4.890000000001942, 1.0384821737168894 
4.900000000001919, 1.0493634131257168 
4.9100000000018955, 1.053755616600598 
4.920000000001872, 1.0550196539583137 
4.930000000001849, 1.0543231019227397 
4.940000000001826, 1.051243291491218 
