t, s[1].omega / s[0].omega 
0, -1.2899973718041025 
0.009999999999999995, -1.2895587100324377 
0.019999999999999934, -1.288748921904766 
0.029999999999999874, -1.2875195945983644 
0.04000000000000012, -1.2858401933039096 
0.050000000000000405, -1.2837226675586773 
0.06000000000000069, -1.2811889415662276 
0.07000000000000098, -1.2782086914092687 
0.08000000000000126, -1.2747363109406666 
0.09000000000000155, -1.2709428764986401 
0.10000000000000184, -1.2674614021752506 
0.11000000000000212, -1.2651336107761715 
0.12000000000000241, -1.2641865714674785 
0.130000000000002, -1.2639562559607747 
0.1400000000000009, -1.2635062601742857 
0.1499999999999998, -1.261995918713943 
0.1599999999999987, -1.2584537666783233 
0.1699999999999976, -1.251473737717973 
0.1799999999999965, -1.2393856378580081 
0.1899999999999954, -1.2212070065604994 
0.1999999999999943, -1.1975389045037435 
0.2099999999999932, -1.1699721968244379 
0.2199999999999921, -1.1396269402436905 
0.229999999999991, -1.1065096999381014 
0.2399999999999899, -1.0698860752917405 
0.2499999999999888, -1.0292634163532997 
0.2599999999999877, -0.98598078345651 
0.2699999999999866, -0.9447159330616064 
0.2799999999999855, -0.9122397860564175 
0.2899999999999844, -0.892491134287626 
0.2999999999999833, -0.8836913489043369 
0.3099999999999822, -0.8811664339260764 
0.3199999999999811, -0.8810713095674092 
0.32999999999998, -0.8813650696182563 
0.3399999999999789, -0.881146023866098 
0.3499999999999778, -0.8799000370148311 
0.35999999999997667, -0.8770723581733775 
0.36999999999997557, -0.8719526830158466 
0.37999999999997447, -0.8639526839645898 
0.38999999999997337, -0.8532445172144012 
0.39999999999997227, -0.841068726486575 
0.40999999999997117, -0.8290375603876845 
0.41999999999997006, -0.8181895616248699 
0.42999999999996896, -0.8087937577914095 
0.43999999999996786, -0.8006837784873582 
0.44999999999996676, -0.7935762735817933 
0.45999999999996566, -0.7872245648676436 
0.46999999999996456, -0.7814669061416941 
0.47999999999996346, -0.7762309908231068 
0.48999999999996235, -0.7715245371746485 
0.49999999999996125, -0.7674209838569416 
0.5099999999999602, -0.764034719561924 
0.519999999999959, -0.7614755886428399 
0.529999999999958, -0.7597872796622317 
0.5399999999999568, -0.7588998459053267 
0.5499999999999557, -0.758631076127036 
0.5599999999999546, -0.7587389016088156 
0.5699999999999535, -0.7589914298644367 
0.5799999999999524, -0.7592218526636089 
0.5899999999999513, -0.7593588448305495 
0.5999999999999502, -0.7594320125643013 
0.6099999999999491, -0.7595468365531816 
0.619999999999948, -0.759832929393019 
0.6299999999999469, -0.7603881095485862 
0.6399999999999458, -0.7612360138449499 
0.6499999999999447, -0.762298744791606 
0.6599999999999436, -0.7633960558291398 
0.6699999999999425, -0.7642987833096494 
0.6799999999999414, -0.7648279667674489 
0.6899999999999403, -0.7649333886936159 
0.6999999999999392, -0.7647108379792313 
0.7099999999999381, -0.764394221270896 
0.719999999999937, -0.7643669159177924 
0.7299999999999359, -0.7651753717151684 
0.7399999999999348, -0.7674732093144783 
0.7499999999999337, -0.7718451025400554 
0.7599999999999326, -0.7785807946571185 
0.7699999999999315, -0.7875749742844977 
0.7799999999999304, -0.7984485999306632 
0.7899999999999293, -0.8107932392604255 
0.7999999999999282, -0.8243741038817248 
0.8099999999999271, -0.8392222565044021 
0.819999999999926, -0.8556385266473818 
0.8299999999999249, -0.8741257887742598 
0.8399999999999238, -0.8951723186524072 
0.8499999999999227, -0.9186936561136875 
0.8599999999999216, -0.9431241742282893 
0.8699999999999205, -0.9651709430984028 
0.8799999999999194, -0.9816774479726706 
0.8899999999999183, -0.9919366843071336 
0.8999999999999172, -0.9973697519840276 
0.9099999999999161, -0.9997544899024943 
0.919999999999915, -1.00032865703631 
0.9299999999999139, -0.9998434402767407 
0.9399999999999128, -0.9990189689857228 
0.9499999999999117, -0.9992695489862304 
0.9599999999999106, -1.0034197620192562 
0.9699999999999095, -1.014994039987545 
0.9799999999999084, -1.0350577394066733 
0.9899999999999073, -1.0603131173760487 
0.9999999999999062, -1.0860123887574984 
1.0099999999999052, -1.109385960193895 
1.019999999999904, -1.1299104984058697 
1.029999999999903, -1.1481097565010094 
1.039999999999902, -1.1646481129900061 
1.0499999999999008, -1.179885105414611 
1.0599999999998997, -1.1936528721546618 
1.0699999999998986, -1.2052706458054705 
1.0799999999998975, -1.2139861514514547 
1.0899999999998964, -1.219603897226066 
1.0999999999998953, -1.2226199734961392 
1.1099999999998942, -1.2238173445032505 
1.119999999999893, -1.2239260416770157 
1.129999999999892, -1.2236225362575102 
1.1399999999998909, -1.2236436916538214 
1.1499999999998898, -1.2246147531253515 
1.1599999999998887, -1.226601149870239 
1.1699999999998876, -1.2290888781865237 
1.1799999999998865, -1.231524476550641 
1.1899999999998854, -1.2336667493983313 
1.1999999999998843, -1.2355010816061123 
1.2099999999998832, -1.2370353237170955 
1.219999999999882, -1.238223916196549 
1.229999999999881, -1.2390168377648385 
1.2399999999998799, -1.2394140309719661 
1.2499999999998788, -1.2394619716933677 
1.2599999999998777, -1.2392092310072855 
1.2699999999998766, -1.23866475974311 
1.2799999999998755, -1.2377911684797709 
1.2899999999998744, -1.2365374641386118 
1.2999999999998733, -1.2348863147543265 
1.3099999999998722, -1.2328729252251063 
1.319999999999871, -1.230546223712126 
1.32999999999987, -1.227910037570317 
1.3399999999998689, -1.224958313210056 
1.3499999999998678, -1.2218571355630155 
1.3599999999998666, -1.2190965431834992 
1.3699999999998655, -1.2172670670802603 
1.3799999999998644, -1.2164953848095215 
1.3899999999998633, -1.216268283036038 
1.3999999999998622, -1.2158432234480334 
1.4099999999998611, -1.2145380133336925 
1.41999999999986, -1.2116636297501773 
1.429999999999859, -1.2064581739371245 
1.4399999999998578, -1.1983276849964069 
1.4499999999998567, -1.1872810862593044 
1.4599999999998556, -1.1739815706456365 
1.4699999999998545, -1.159206537928983 
1.4799999999998534, -1.1433152032798368 
1.4899999999998523, -1.1261386730991203 
1.4999999999998512, -1.1071488299211723 
1.5099999999998501, -1.0857827945284795 
1.519999999999849, -1.0620745230215864 
1.529999999999848, -1.0376770099113137 
1.5399999999998468, -1.0163469590461536 
1.5499999999998457, -1.0019672591110884 
1.5599999999998446, -0.9951846652539393 
1.5699999999998435, -0.9933483237644307 
1.5799999999998424, -0.9934243451632929 
1.5899999999998413, -0.9936050735764141 
1.5999999999998402, -0.9930166023968303 
1.6099999999998391, -0.991004067540436 
1.619999999999838, -0.9866276568835366 
1.629999999999837, -0.9784831229842492 
1.6399999999998358, -0.9651934589943469 
1.6499999999998347, -0.9467654939254994 
1.6599999999998336, -0.9253871521309636 
1.6699999999998325, -0.9040104422736668 
1.6799999999998314, -0.8844413940393689 
1.6899999999998303, -0.8670730292356194 
1.6999999999998292, -0.851588241746631 
1.709999999999828, -0.8375341024155623 
1.719999999999827, -0.824580127917631 
1.729999999999826, -0.8126122232147228 
1.7399999999998248, -0.8017607197087585 
1.7499999999998237, -0.7923662275788252 
1.7599999999998226, -0.7848453495208741 
1.7699999999998215, -0.7794654881202868 
1.7799999999998204, -0.7761506993885878 
1.7899999999998193, -0.774471510975542 
1.7999999999998182, -0.7738223073173888 
1.809999999999817, -0.7736292849859647 
1.819999999999816, -0.773458505085008 
1.8299999999998149, -0.7730275280600488 
1.8399999999998138, -0.7721925713453567 
1.8499999999998127, -0.7709532910187138 
1.8599999999998116, -0.7694497565685492 
1.8699999999998105, -0.7679036290670436 
1.8799999999998094, -0.7665180435556158 
1.8899999999998083, -0.765405139160031 
1.8999999999998072, -0.7645716578845162 
1.909999999999806, -0.7639401621329341 
1.919999999999805, -0.7633869893542855 
1.9299999999998039, -0.762795135295445 
1.9399999999998028, -0.762109789666688 
1.9499999999998017, -0.7613724081569135 
1.9599999999998006, -0.7607232629867452 
1.9699999999997995, -0.7603774483452181 
1.9799999999997984, -0.7605765611945545 
1.9899999999997973, -0.7615214385778186 
1.9999999999997962, -0.7633127267977908 
2.0099999999998173, -0.7659352723638138 
2.0199999999998384, -0.7692945304663519 
2.0299999999998595, -0.7732763254654116 
2.0399999999998806, -0.7777963539750778 
2.0499999999999017, -0.7828288402302094 
2.059999999999923, -0.7884227524041215 
2.069999999999944, -0.7947136060666924 
2.079999999999965, -0.8019262914157279 
2.089999999999986, -0.8103466748344059 
2.100000000000007, -0.8202110181704787 
2.1100000000000283, -0.8314401846952586 
2.1200000000000494, -0.8432644569134174 
2.1300000000000705, -0.8541751916336613 
2.1400000000000916, -0.8626829839698742 
2.1500000000001127, -0.8682483536765553 
2.160000000000134, -0.8712842551455813 
2.170000000000155, -0.8725133027539643 
2.180000000000176, -0.8725416256512475 
2.190000000000197, -0.871855177206097 
2.2000000000002182, -0.8711396958795085 
2.2100000000002393, -0.8719475909493081 
2.2200000000002604, -0.8776058276427113 
2.2300000000002815, -0.8932638901691948 
2.2400000000003026, -0.9230360293841103 
2.2500000000003237, -0.9653815020304066 
2.260000000000345, -1.0131902975796738 
2.270000000000366, -1.0595295203387085 
2.280000000000387, -1.1013495358684058 
2.290000000000408, -1.1386171220874206 
2.3000000000004293, -1.1722241771577175 
2.3100000000004504, -1.2025567744355636 
2.3200000000004715, -1.228827586426471 
2.3300000000004926, -1.2494299366037478 
2.3400000000005137, -1.2634081983368204 
2.3500000000005348, -1.271503152512606 
2.360000000000556, -1.2754863593820027 
2.370000000000577, -1.2769995132992014 
2.380000000000598, -1.2771679849347433 
2.390000000000619, -1.2768515759806114 
2.4000000000006403, -1.2769711554511665 
2.4100000000006614, -1.2783353876099772 
2.4200000000006825, -1.2809754090310288 
2.4300000000007036, -1.2841328701871704 
2.4400000000007247, -1.2870768991445625 
2.450000000000746, -1.2895442921219207 
2.460000000000767, -1.2915604609947333 
2.470000000000788, -1.2931676397541771 
2.480000000000809, -1.2943435875190625 
2.49000000000083, -1.2950596123400115 
2.5000000000008513, -1.2953314685267487 
2.5100000000008724, -1.2952079074087084 
2.5200000000008935, -1.294726246828151 
2.5300000000009146, -1.2938806881003444 
2.5400000000009357, -1.292628780148599 
2.550000000000957, -1.2909289740961376 
2.560000000000978, -1.2887728698122707 
2.570000000000999, -1.2861685609408695 
2.58000000000102, -1.2830813719403025 
2.5900000000010412, -1.2794441085645754 
2.6000000000010624, -1.2753651070752823 
2.6100000000010835, -1.2714294535336628 
2.6200000000011046, -1.2685838139588743 
2.6300000000011257, -1.267287822829838 
2.6400000000011468, -1.266981620902244 
2.650000000001168, -1.2666666660262902 
2.660000000001189, -1.265448974758196 
2.67000000000121, -1.262368321910854 
2.680000000001231, -1.2559846752517356 
2.6900000000012523, -1.2443170052092751 
2.7000000000012734, -1.2256993973924508 
2.7100000000012945, -1.2001774443285764 
2.7200000000013156, -1.169522874618408 
2.7300000000013367, -1.1355205740508914 
2.740000000001358, -1.0987336890812665 
2.750000000001379, -1.0586912073364352 
2.7600000000014, -1.0149186369045595 
2.770000000001421, -0.9685121003943173 
2.780000000001442, -0.9236764928329443 
2.7900000000014633, -0.8869822955718758 
2.8000000000014844, -0.8630415041855246 
2.8100000000015055, -0.8510944430552163 
2.8200000000015266, -0.8468161924495166 
2.8300000000015477, -0.8460257138913002 
2.840000000001569, -0.8462268909704809 
2.85000000000159, -0.8462524244873928 
2.860000000001611, -0.8455352461083002 
2.870000000001632, -0.8436298201604459 
2.8800000000016532, -0.8400286239388837 
2.8900000000016743, -0.8342821689740598 
2.9000000000016954, -0.8264058994834077 
2.9100000000017165, -0.8171833779414499 
2.9200000000017377, -0.8078207674219839 
2.9300000000017588, -0.7992401452857051 
2.94000000000178, -0.79178474385928 
2.950000000001801, -0.7853941008983695 
2.960000000001822, -0.779858985986256 
2.970000000001843, -0.7749711811042121 
2.9800000000018643, -0.7705821295268453 
2.9900000000018854, -0.7666144461386877 
3.0000000000019065, -0.7630519146637685 
3.0100000000019276, -0.7599229571112653 
3.0200000000019487, -0.7572853897397649 
3.03000000000197, -0.7552101576434765 
3.040000000001991, -0.7537561984554506 
3.050000000002012, -0.7529365244851262 
3.060000000002033, -0.7526916757112974 
3.070000000002054, -0.7528915986549028 
3.0800000000020753, -0.7533703825823568 
3.0900000000020964, -0.7539767414404126 
3.1000000000021175, -0.7546182122490988 
3.1100000000021386, -0.7552848272379438 
3.1200000000021597, -0.756044318940125 
3.130000000002181, -0.7570089700330331 
3.140000000002202, -0.7582868140386678 
3.150000000002223, -0.7599303175404618 
3.160000000002244, -0.7618853146152801 
3.1700000000022652, -0.7639561758634232 
3.1800000000022863, -0.765837982669526 
3.1900000000023074, -0.7672401862869095 
3.2000000000023285, -0.7680182655445885 
3.2100000000023496, -0.7682106631771289 
3.2200000000023707, -0.768005320992989 
3.230000000002392, -0.7677341321199751 
3.240000000002413, -0.7679382416742051 
3.250000000002434, -0.7694506506404347 
3.260000000002455, -0.7733573388594526 
3.2700000000024763, -0.7807034628306052 
3.2800000000024974, -0.792029595096734 
3.2900000000025185, -0.8071066449819144 
3.3000000000025396, -0.8251448256893795 
3.3100000000025607, -0.8452977507062858 
3.3200000000025818, -0.8670718873844528 
3.330000000002603, -0.8904649767096264 
3.340000000002624, -0.9158792702577581 
3.350000000002645, -0.9438254076135315 
3.360000000002666, -0.9742525222006806 
3.3700000000026873, -1.0054367633103412 
3.3800000000027084, -1.0334943043244325 
3.3900000000027295, -1.054475737239426 
3.4000000000027506, -1.0674388206463223 
3.4100000000027717, -1.0742621356273836 
3.420000000002793, -1.0773153630027452 
3.430000000002814, -1.0782281760927994 
3.440000000002835, -1.0779483823980658 
3.450000000002856, -1.0772677176553451 
3.460000000002877, -1.0775073397101314 
3.4700000000028983, -1.0809090555033636 
3.4800000000029194, -1.0895242555547777 
3.4900000000029405, -1.1029414561249218 
3.5000000000029616, -1.118340480994294 
3.5100000000029827, -1.1330758760829474 
3.520000000003004, -1.1460557542362704 
3.530000000003025, -1.157301933604593 
3.540000000003046, -1.1672187298113026 
3.550000000003067, -1.1762002451729718 
3.5600000000030882, -1.1844755064490522 
3.5700000000031094, -1.192029348284246 
3.5800000000031305, -1.1985825244617918 
3.5900000000031516, -1.2037265631540788 
3.6000000000031727, -1.2072064465328707 
3.6100000000031938, -1.2091050615477477 
3.620000000003215, -1.209769464444943 
3.630000000003236, -1.209657028250648 
3.640000000003257, -1.209287440862686 
3.650000000003278, -1.2092070873598364 
3.6600000000032993, -1.2097727372757756 
3.6700000000033204, -1.2109183581817287 
3.6800000000033415, -1.2122935511322932 
3.6900000000033626, -1.2136204454015556 
3.7000000000033837, -1.2148276224100374 
3.710000000003405, -1.2159231030860314 
3.720000000003426, -1.216848173919619 
3.730000000003447, -1.2174732511762003 
3.740000000003468, -1.21768680667463 
3.750000000003489, -1.2174590686295652 
3.7600000000035103, -1.2168384881370238 
3.7700000000035314, -1.2159004876105937 
3.7800000000035525, -1.214690538904291 
3.7900000000035736, -1.2132001905023069 
3.8000000000035947, -1.2113861802745725 
3.810000000003616, -1.2092114953826243 
3.820000000003637, -1.206668926904999 
3.830000000003658, -1.2037592892265991 
3.840000000003679, -1.2004581614845264 
3.8500000000037002, -1.1967712211072767 
3.8600000000037213, -1.1929231369220599 
3.8700000000037424, -1.1895039978006792 
3.8800000000037635, -1.1872081323174477 
3.8900000000037847, -1.186202553402359 
3.9000000000038058, -1.1859325152185143 
3.910000000003827, -1.1855923157702069 
3.920000000003848, -1.1844704153192738 
3.930000000003869, -1.181877144342564 
3.94000000000389, -1.177022832240176 
3.9500000000039113, -1.1692006161621291 
3.9600000000039324, -1.1582751982995332 
3.9700000000039535, -1.1449085447945135 
3.9800000000039746, -1.1300733727222663 
3.9900000000039957, -1.114389398899429 
4.000000000004016, -1.0979124478836597 
4.010000000003993, -1.0802938538015858 
4.02000000000397, -1.0610638068984812 
4.030000000003946, -1.0400568091724067 
4.040000000003923, -1.0180950183911806 
4.0500000000039, -0.9975952482949045 
4.0600000000038765, -0.9818879351915856 
4.070000000003853, -0.9728055029764653 
4.08000000000383, -0.9692265091622783 
4.090000000003807, -0.9685530189533378 
4.100000000003783, -0.9686950288877322 
4.11000000000376, -0.968516148865238 
4.120000000003737, -0.9673672424580184 
4.130000000003713, -0.9645981071914129 
4.14000000000369, -0.9593232669974805 
4.150000000003667, -0.9506108174364389 
4.1600000000036434, -0.938227133012606 
4.17000000000362, -0.9233025752252624 
4.180000000003597, -0.9077855850557561 
4.1900000000035735, -0.8931730778146754 
4.20000000000355, -0.8800075858132773 
4.210000000003527, -0.8681984701500776 
4.220000000003504, -0.8574432328614152 
4.23000000000348, -0.8474608948428919 
4.240000000003457, -0.8380886028529149 
4.250000000003434, -0.8293246578405373 
4.26000000000341, -0.8213469068225621 
4.270000000003387, -0.8144834519618704 
4.280000000003364, -0.8090947511011157 
4.2900000000033405, -0.8053816628561179 
4.300000000003317, -0.8032370014365096 
4.310000000003294, -0.8022665566515093 
4.320000000003271, -0.8019564142753633 
4.330000000003247, -0.8018408978572108 
4.340000000003224, -0.8015791323056469 
4.350000000003201, -0.8009653405278387 
4.360000000003177, -0.7999325420647886 
4.370000000003154, -0.7985591437386714 
4.380000000003131, -0.7970357672969827 
4.390000000003107, -0.7955763188933411 
4.400000000003084, -0.794328243043562 
4.410000000003061, -0.7933355337806435 
4.4200000000030375, -0.7925495270038623 
4.430000000003014, -0.7918634293274713 
4.440000000002991, -0.7911624754151905 
4.450000000002968, -0.7903802433915438 
4.460000000002944, -0.7895382887773257 
4.470000000002921, -0.7887532496956468 
4.480000000002898, -0.7882124024641752 
4.490000000002874, -0.7881231265823592 
4.500000000002851, -0.7886480846324244 
4.510000000002828, -0.7898555654857999 
4.520000000002804, -0.7917151393690307 
4.530000000002781, -0.7941365673677099 
4.540000000002758, -0.7970194283598354 
4.5500000000027345, -0.8002859814002129 
4.560000000002711, -0.8038958491179207 
4.570000000002688, -0.807855659091036 
4.580000000002665, -0.8122303474359386 
4.590000000002641, -0.8171487149566256 
4.600000000002618, -0.8227868560850888 
4.610000000002595, -0.8293055431560312 
4.620000000002571, -0.836708795809445 
4.630000000002548, -0.8446315927455388 
4.640000000002525, -0.8522379947156274 
4.6500000000025015, -0.8585260385767187 
4.660000000002478, -0.8629050830508949 
4.670000000002455, -0.8654190626319747 
4.6800000000024315, -0.866472925213124 
4.690000000002408, -0.8665231998439493 
4.700000000002385, -0.866027091068986 
4.710000000002362, -0.8656582660967171 
4.720000000002338, -0.8667278797168022 
4.730000000002315, -0.8715499584322277 
4.740000000002292, -0.8830085155807815 
4.750000000002268, -0.9027781707555949 
4.760000000002245, -0.9296183997358962 
4.770000000002222, -0.9600952655411735 
4.7800000000021985, -0.9910009044633469 
4.790000000002175, -1.0207498787582823 
4.800000000002152, -1.0491587540265086 
4.810000000002129, -1.0766425844138099 
4.820000000002105, -1.1034386984767293 
4.830000000002082, -1.1289119868890363 
4.840000000002059, -1.151247945278228 
4.850000000002035, -1.168321465086975 
4.860000000002012, -1.179380827777206 
4.870000000001989, -1.1854679916066977 
4.880000000001965, -1.188266998333447 
4.890000000001942, -1.1891331846530373 
4.900000000001919, -1.1889864531487868 
4.9100000000018955, -1.1886644498657115 
4.920000000001872, -1.189239928242754 
4.930000000001849, -1.191716181509769 
