t, s[1].omega / s[0].omega 
0, -0.15999784675954784 
0.009999999999999995, -0.1601188055379366 
0.019999999999999934, -0.1608906990229234 
0.029999999999999874, -0.1622460971656683 
0.04000000000000012, -0.1640196983358363 
0.050000000000000405, -0.16593876294344354 
0.06000000000000069, -0.1676930039527045 
0.07000000000000098, -0.16904106170435815 
0.08000000000000126, -0.16986008602573235 
0.09000000000000155, -0.1701092639634446 
0.10000000000000184, -0.16975143291655417 
0.11000000000000212, -0.16867036223522547 
0.12000000000000241, -0.16658004690010525 
0.130000000000002, -0.16290619327879874 
0.1400000000000009, -0.1566721268605798 
0.1499999999999998, -0.1466298520165143 
0.1599999999999987, -0.13216651428249376 
0.1699999999999976, -0.11483775956758917 
0.1799999999999965, -0.09822630945756121 
0.1899999999999954, -0.08519571910829053 
0.1999999999999943, -0.07626862852405776 
0.2099999999999932, -0.07057017974729037 
0.2199999999999921, -0.0670519395922304 
0.229999999999991, -0.06493926141110655 
0.2399999999999899, -0.0637308054263493 
0.2499999999999888, -0.06309720502145472 
0.2599999999999877, -0.0628008072329841 
0.2699999999999866, -0.06265598168248344 
0.2799999999999855, -0.06251678942722552 
0.2899999999999844, -0.06227010220918947 
0.2999999999999833, -0.06181748640681354 
0.3099999999999822, -0.061036857141906375 
0.3199999999999811, -0.05970919043486346 
0.32999999999998, -0.057364529557144925 
0.3399999999999789, -0.052932668850112385 
0.3499999999999778, -0.04401277250786551 
0.35999999999997667, -0.025988832321545884 
0.36999999999997557, 0.006126409139572524 
0.37999999999997447, 0.048686993812043666 
0.38999999999997337, 0.08737764595440531 
0.39999999999997227, 0.1128373578081348 
0.40999999999997117, 0.12694033984104575 
0.41999999999997006, 0.13431207681110913 
0.42999999999996896, 0.13808453974123794 
0.43999999999996786, 0.13990157636836326 
0.44999999999996676, 0.14058587426881522 
0.45999999999996566, 0.14057474781822724 
0.46999999999996456, 0.14014324730709635 
0.47999999999996346, 0.1395053623723131 
0.48999999999996235, 0.13884728114558773 
0.49999999999996125, 0.1383312046569698 
0.5099999999999602, 0.1381016488926315 
0.519999999999959, 0.13831102136121246 
0.529999999999958, 0.1391633524621129 
0.5399999999999568, 0.1409589939931294 
0.5499999999999557, 0.1440912545059205 
0.5599999999999546, 0.14889019201941806 
0.5699999999999535, 0.15524339998342387 
0.5799999999999524, 0.16227919738817337 
0.5899999999999513, 0.1686987461934574 
0.5999999999999502, 0.17358890965475604 
0.6099999999999491, 0.1767653450645306 
0.619999999999948, 0.1784731937744924 
0.6299999999999469, 0.1790073465807769 
0.6399999999999458, 0.1785344416772095 
0.6499999999999447, 0.1770698276997725 
0.6599999999999436, 0.1745424300740756 
0.6699999999999425, 0.17094240609525985 
0.6799999999999414, 0.16651865956848638 
0.6899999999999403, 0.16185261252821329 
0.6999999999999392, 0.15763501803985205 
0.7099999999999381, 0.15431950976202585 
0.719999999999937, 0.15200487215514333 
0.7299999999999359, 0.1505690645798779 
0.7399999999999348, 0.14983565344188435 
0.7499999999999337, 0.14965302605328107 
0.7599999999999326, 0.1498976958233352 
0.7699999999999315, 0.15044399812020431 
0.7799999999999304, 0.1511344944829327 
0.7899999999999293, 0.15177478161824792 
0.7999999999999282, 0.15215433136091794 
0.8099999999999271, 0.1520641969455327 
0.819999999999926, 0.15127237300142288 
0.8299999999999249, 0.14943281584530935 
0.8399999999999238, 0.1459099764482455 
0.8499999999999227, 0.13949504212375385 
0.8599999999999216, 0.1281049734567251 
0.8699999999999205, 0.10919334941992906 
0.8799999999999194, 0.0826098523035844 
0.8899999999999183, 0.054383799814852696 
0.8999999999999172, 0.032654203048447406 
0.9099999999999161, 0.01959645278820514 
0.919999999999915, 0.012633955232744729 
0.9299999999999139, 0.00898086437517508 
0.9399999999999128, 0.006995735123774954 
0.9499999999999117, 0.005872032341143673 
0.9599999999999106, 0.005225849130141414 
0.9699999999999095, 0.0048605900396065755 
0.9799999999999084, 0.004649675122394273 
0.9899999999999073, 0.004476430956820311 
0.9999999999999062, 0.004202617250204716 
1.0099999999999052, 0.0036516904430218674 
1.019999999999904, 0.0025902573469314266 
1.029999999999903, 0.0006816595042231769 
1.039999999999902, -0.00229784171575127 
1.0499999999999008, -0.007517694887093971 
1.0599999999998997, -0.016738851936807186 
1.0699999999998986, -0.03233392053803947 
1.0799999999998975, -0.056034643319891365 
1.0899999999998964, -0.08530816607271897 
1.0999999999998953, -0.11243678582762615 
1.1099999999998942, -0.13147296073321083 
1.119999999999893, -0.14256086352926572 
1.129999999999892, -0.14849395810610527 
1.1399999999998909, -0.15157366744230855 
1.1499999999998898, -0.153101021050879 
1.1599999999998887, -0.15372178497987982 
1.1699999999998876, -0.15373975481126756 
1.1799999999998865, -0.15329553499885978 
1.1899999999998854, -0.15246820864026192 
1.1999999999998843, -0.15134349491948584 
1.2099999999998832, -0.1500573222317759 
1.219999999999882, -0.14880113555348543 
1.229999999999881, -0.14778620712673626 
1.2399999999998799, -0.14719924150975508 
1.2499999999998788, -0.14718844627354621 
1.2599999999998777, -0.1478815886072679 
1.2699999999998766, -0.14940044120086424 
1.2799999999998755, -0.15182771295208974 
1.2899999999998744, -0.15510560089454656 
1.2999999999998733, -0.1589220753030829 
1.3099999999998722, -0.16273452098268526 
1.319999999999871, -0.16599738180490536 
1.32999999999987, -0.16839934595409228 
1.3399999999998689, -0.16989317423742872 
1.3499999999998678, -0.1705626935906405 
1.3599999999998666, -0.17048281789991315 
1.3699999999998655, -0.1696343008805952 
1.3799999999998644, -0.16785632283283458 
1.3899999999998633, -0.16482514649465702 
1.3999999999998622, -0.16010789216284863 
1.4099999999998611, -0.15341115863884097 
1.41999999999986, -0.1450429267836986 
1.429999999999859, -0.13614749325997158 
1.4399999999998578, -0.1281550292457689 
1.4499999999998567, -0.12192463540697078 
1.4599999999998556, -0.11753854036129545 
1.4699999999998545, -0.11466848021700667 
1.4799999999998534, -0.11292509342766947 
1.4899999999998523, -0.11199126630590317 
1.4999999999998512, -0.11162295268578366 
1.5099999999998501, -0.11161457038935593 
1.519999999999849, -0.11177821556593297 
1.529999999999848, -0.11194758209428761 
1.5399999999998468, -0.11199042829927801 
1.5499999999998457, -0.11180691417175641 
1.5599999999998446, -0.11130377253689114 
1.5699999999998435, -0.1103426634393033 
1.5799999999998424, -0.10864748445966547 
1.5899999999998413, -0.10561580697399167 
1.5999999999998402, -0.09991496988319559 
1.6099999999998391, -0.08875601443002032 
1.619999999999838, -0.06751323100207703 
1.629999999999837, -0.03302959699704647 
1.6399999999998358, 0.008128583752937088 
1.6499999999998347, 0.042247152579392086 
1.6599999999998336, 0.06399332553704849 
1.6699999999998325, 0.07612034571456472 
1.6799999999998314, 0.0826004394500117 
1.6899999999998303, 0.08599681522775968 
1.6999999999998292, 0.08767440029618181 
1.709999999999828, 0.08834387505842657 
1.719999999999827, 0.08840480235046794 
1.729999999999826, 0.08811938810771161 
1.7399999999998248, 0.08768825428932472 
1.7499999999998237, 0.0872764907680427 
1.7599999999998226, 0.08702557458047291 
1.7699999999998215, 0.08707561058453164 
1.7799999999998204, 0.08761042400659215 
1.7899999999998193, 0.0889324150448342 
1.7999999999998182, 0.09156620748170265 
1.809999999999817, 0.0963321664804653 
1.819999999999816, 0.10414560861742309 
1.8299999999998149, 0.11516228629433053 
1.8399999999998138, 0.1277385259615526 
1.8499999999998127, 0.1390838871784798 
1.8599999999998116, 0.14741877626344912 
1.8699999999998105, 0.15269292714677518 
1.8799999999998094, 0.1556563910476237 
1.8899999999998083, 0.1570356402568505 
1.8999999999998072, 0.15729399847909364 
1.909999999999806, 0.15667274639733328 
1.919999999999805, 0.1553007298085408 
1.9299999999998039, 0.15331140166000173 
1.9399999999998028, 0.15093152036324692 
1.9499999999998017, 0.14848512761331822 
1.9599999999998006, 0.1462998241904436 
1.9699999999997995, 0.14460091769823777 
1.9799999999997984, 0.14348576944515123 
1.9899999999997973, 0.14297202620276342 
1.9999999999997962, 0.14305505563473825 
2.0099999999998173, 0.1437300473307339 
2.0199999999998384, 0.1449681251031462 
2.0299999999998595, 0.14666082570437558 
2.0399999999998806, 0.1485786639386442 
2.0499999999999017, 0.15040251504031837 
2.059999999999923, 0.15182505068452842 
2.069999999999944, 0.15263196127721465 
2.079999999999965, 0.15268905005581562 
2.089999999999986, 0.15185217894885708 
2.100000000000007, 0.14985132838453297 
2.1100000000000283, 0.14618296208095832 
2.1200000000000494, 0.14008415612700964 
2.1300000000000705, 0.13082770352293602 
2.1400000000000916, 0.11862376474235711 
2.1500000000001127, 0.10547459386436972 
2.160000000000134, 0.09418919978744797 
2.170000000000155, 0.08621366936586636 
2.180000000000176, 0.08123670751391238 
2.190000000000197, 0.07831137748913289 
2.2000000000002182, 0.07664001089255656 
2.2100000000002393, 0.07572430955318879 
2.2200000000002604, 0.07527931533956511 
2.2300000000002815, 0.07513064827989385 
2.2400000000003026, 0.07514216468887604 
2.2500000000003237, 0.07517295618604966 
2.260000000000345, 0.0750573827907631 
2.270000000000366, 0.07459604341326238 
2.280000000000387, 0.07353345808469398 
2.290000000000408, 0.07148906065951025 
2.3000000000004293, 0.06780137423109754 
2.3100000000004504, 0.06123619971495022 
2.3200000000004715, 0.04957401546641899 
2.3300000000004926, 0.029609913894005403 
2.3400000000005137, -0.00046360433067719326 
2.3500000000005348, -0.03522139501138431 
2.360000000000556, -0.0644344536897017 
2.370000000000577, -0.08283085308329105 
2.380000000000598, -0.09265550367063011 
2.390000000000619, -0.09761762082711414 
2.4000000000006403, -0.10010074475680004 
2.4100000000006614, -0.10129959437543656 
2.4200000000006825, -0.1017728742357596 
2.4300000000007036, -0.10178283714547834 
2.4400000000007247, -0.1014644284785223 
2.450000000000746, -0.10091313466100257 
2.460000000000767, -0.1002353173053355 
2.470000000000788, -0.09957185492567437 
2.480000000000809, -0.09909614957440657 
2.49000000000083, -0.09899916626386293 
2.5000000000008513, -0.09948660613053473 
2.5100000000008724, -0.10080337448049763 
2.5200000000008935, -0.10327136167369289 
2.5300000000009146, -0.10728807697269924 
2.5400000000009357, -0.11318509569969774 
2.550000000000957, -0.12086291398198686 
2.560000000000978, -0.12942098294076468 
2.570000000000999, -0.13739550920299648 
2.58000000000102, -0.14364800309563158 
2.5900000000010412, -0.1478993547627652 
2.6000000000010624, -0.15046487038085482 
2.6100000000010835, -0.15178603665014723 
2.6200000000011046, -0.1521893243662243 
2.6300000000011257, -0.1518400246600596 
2.6400000000011468, -0.15076991299103987 
2.650000000001168, -0.14893101206636022 
2.660000000001189, -0.14628316813429934 
2.67000000000121, -0.1429194316137637 
2.680000000001231, -0.13916070711843712 
2.6900000000012523, -0.13549653157651428 
2.7000000000012734, -0.13237594964333005 
2.7100000000012945, -0.13004210334292376 
2.7200000000013156, -0.12853718656361862 
2.7300000000013367, -0.12780127946324463 
2.740000000001358, -0.12774821036819323 
2.750000000001379, -0.12827959633974043 
2.7600000000014, -0.1292574288829497 
2.770000000001421, -0.13048022595026593 
2.780000000001442, -0.13170459923725752 
2.7900000000014633, -0.13270850585818303 
2.8000000000014844, -0.13334167775161002 
2.8100000000015055, -0.13352072736886658 
2.8200000000015266, -0.1331776664721002 
2.8300000000015477, -0.13218735210287091 
2.840000000001569, -0.13027634971867993 
2.85000000000159, -0.12689417895853744 
2.860000000001611, -0.12105705965131452 
2.870000000001632, -0.11136131725968816 
2.8800000000016532, -0.09676093734792003 
2.8900000000016743, -0.07837097338723718 
2.9000000000016954, -0.06001691025529652 
2.9100000000017165, -0.04533342267649034 
2.9200000000017377, -0.03527654000735857 
2.9300000000017588, -0.028934429930783045 
2.94000000000178, -0.02508374168258961 
2.950000000001801, -0.022815960041360904 
2.960000000001822, -0.021558193855337325 
2.970000000001843, -0.02094925752578527 
2.9800000000018643, -0.020735751496029336 
2.9900000000018854, -0.020716651900680914 
3.0000000000019065, -0.02072593538147629 
3.0100000000019276, -0.020629521361288088 
3.0200000000019487, -0.020313631935174017 
3.03000000000197, -0.01965192458113154 
3.040000000001991, -0.018442349788667982 
3.050000000002012, -0.01629083452309448 
3.060000000002033, -0.012395249884475379 
3.070000000002054, -0.005214500865668741 
3.0800000000020753, 0.007406230443360262 
3.0900000000020964, 0.02725246571292684 
3.1000000000021175, 0.0520642685167436 
3.1100000000021386, 0.0750068580431362 
3.1200000000021597, 0.09135785781884491 
3.130000000002181, 0.1012678414727441 
3.140000000002202, 0.106804769398631 
3.150000000002223, 0.10971926950347366 
3.160000000002244, 0.11106673663699654 
3.1700000000022652, 0.11142526793826299 
3.1800000000022863, 0.11112631183825732 
3.1900000000023074, 0.11040254685080202 
3.2000000000023285, 0.10946195925879998 
3.2100000000023496, 0.10850411014673741 
3.2200000000023707, 0.10770558607544631 
3.230000000002392, 0.10721057089994605 
3.240000000002413, 0.10714777663397068 
3.250000000002434, 0.10767001345349522 
3.260000000002455, 0.10899750892211438 
3.2700000000024763, 0.11143019310724016 
3.2800000000024974, 0.11525965238160238 
3.2900000000025185, 0.12051000691384062 
3.3000000000025396, 0.1266328566420855 
3.3100000000025607, 0.1325867250306309 
3.3200000000025818, 0.1374275952132545 
3.330000000002603, 0.14077306047458688 
3.340000000002624, 0.14271291505568556 
3.350000000002645, 0.14348505297243003 
3.360000000002666, 0.1432623846237388 
3.3700000000026873, 0.1420927347411703 
3.3800000000027084, 0.13993684606891085 
3.3900000000027295, 0.1367849794062046 
3.4000000000027506, 0.13282590393077626 
3.4100000000027717, 0.12853819420401616 
3.420000000002793, 0.12454229438737438 
3.430000000002814, 0.12130292923578918 
3.440000000002835, 0.11897970712248378 
3.450000000002856, 0.11750989724805297 
3.460000000002877, 0.11675777493983466 
3.4700000000028983, 0.11660164744543322 
3.4800000000029194, 0.11694697562590792 
3.4900000000029405, 0.11769638732723472 
3.5000000000029616, 0.11870918389212101 
3.5100000000029827, 0.11978389912572478 
3.520000000003004, 0.1206842916846258 
3.530000000003025, 0.12118724125247897 
3.540000000003046, 0.12110026653635271 
3.550000000003067, 0.12021741480171899 
3.5600000000030882, 0.11821963903379096 
3.5700000000031094, 0.11453740273689947 
3.5800000000031305, 0.10822449936491743 
3.5900000000031516, 0.09807052475184645 
3.6000000000031727, 0.08349930706830996 
3.6100000000031938, 0.06624064782996945 
3.620000000003215, 0.05027398476553444 
3.630000000003236, 0.038584988222167244 
3.640000000003257, 0.031293447550741246 
3.650000000003278, 0.02707445389369293 
3.6600000000032993, 0.02468218781127735 
3.6700000000033204, 0.023338744179629372 
3.6800000000033415, 0.022621461127202272 
3.6900000000033626, 0.02230234293846666 
3.7000000000033837, 0.02223857394886664 
3.710000000003405, 0.022306656814223023 
3.720000000003426, 0.022366736820859757 
3.730000000003447, 0.02224977790943177 
3.740000000003468, 0.021754566214957038 
3.750000000003489, 0.020629821392282092 
3.7600000000035103, 0.01851371136091926 
3.7700000000035314, 0.014810555063378911 
3.7800000000035525, 0.00850857317040312 
3.7900000000035736, -0.0018680606735577247 
3.8000000000035947, -0.017601848146786815 
3.810000000003616, -0.03876901127992612 
3.820000000003637, -0.06119408156148094 
3.830000000003658, -0.07933705805119748 
3.840000000003679, -0.09112057957035244 
3.8500000000037002, -0.09784203668283277 
3.8600000000037213, -0.10144888362673979 
3.8700000000037424, -0.10329096983078952 
3.8800000000037635, -0.10410804053393777 
3.8900000000037847, -0.10427012969033259 
3.9000000000038058, -0.10395813702225606 
3.910000000003827, -0.10327367988946727 
3.920000000003848, -0.1023103688545349 
3.930000000003869, -0.10119876112968104 
3.94000000000389, -0.1001174273190929 
3.9500000000039113, -0.09926839098899598 
3.9600000000039324, -0.09884309560536111 
3.9700000000039535, -0.09901438765264886 
3.9800000000039746, -0.09996110952400727 
3.9900000000039957, -0.10189529792968104 
4.000000000004016, -0.10503896021471848 
4.010000000003993, -0.10949076136297424 
4.02000000000397, -0.11499281022030332 
4.030000000003946, -0.12081525334031187 
4.040000000003923, -0.1260388873918393 
4.0500000000039, -0.13005094194588765 
4.0600000000038765, -0.1327319885790238 
4.070000000003853, -0.13426261277228346 
4.08000000000383, -0.1348718154186363 
4.090000000003807, -0.1347046249575746 
4.100000000003783, -0.13378755817266874 
4.11000000000376, -0.13204249277844532 
4.120000000003737, -0.1293443855529125 
4.130000000003713, -0.12564809235078858 
4.14000000000369, -0.12116214315349849 
4.150000000003667, -0.11641534824859948 
4.1600000000036434, -0.11206114287613929 
4.17000000000362, -0.1085637582730133 
4.180000000003597, -0.10607319353782478 
4.1900000000035735, -0.10452612769584399 
4.20000000000355, -0.10378986579676383 
4.210000000003527, -0.10373380399552701 
4.220000000003504, -0.10422779385192908 
4.23000000000348, -0.10510953134460468 
4.240000000003457, -0.10616875894455476 
4.250000000003434, -0.10717677781051285 
4.26000000000341, -0.1079413509306973 
4.270000000003387, -0.1083361733893917 
4.280000000003364, -0.10828021843203531 
4.2900000000033405, -0.10768135525432927 
4.300000000003317, -0.10636045203023951 
4.310000000003294, -0.10394995764942727 
4.320000000003271, -0.09975646389508594 
4.330000000003247, -0.09265749078538929 
4.340000000003224, -0.08138114390453577 
4.350000000003201, -0.06574100397844469 
4.360000000003177, -0.048114199339064086 
4.370000000003154, -0.032360578233216745 
4.380000000003131, -0.020736588769397844 
4.390000000003107, -0.013125344122121296 
4.400000000003084, -0.008433427117195805 
4.410000000003061, -0.005647039695992244 
4.4200000000030375, -0.004084544537030785 
4.430000000003014, -0.003322120554344146 
4.440000000002991, -0.0030776855400145233 
4.450000000002968, -0.0031321876529524944 
4.460000000002944, -0.0032968694784993964 
4.470000000002921, -0.0034109715605724774 
4.480000000002898, -0.0033431923716315455 
4.490000000002874, -0.0029754630221374965 
4.500000000002851, -0.0021606446864080925 
4.510000000002828, -0.0006480133161034167 
4.520000000002804, 0.0017337881207175158 
4.530000000002781, 0.006043068273443469 
4.540000000002758, 0.013804102476140964 
4.5500000000027345, 0.026408050819067868 
4.560000000002711, 0.04345441852566497 
4.570000000002688, 0.061405914634400205 
4.580000000002665, 0.07607402219349203 
4.590000000002641, 0.08595892530086194 
4.600000000002618, 0.09187864188715339 
4.610000000002595, 0.09514745841668858 
4.620000000002571, 0.09674220187790779 
4.630000000002548, 0.09724609620449626 
4.640000000002525, 0.0969945252644982 
4.6500000000025015, 0.09621250390446853 
4.660000000002478, 0.09510351803167513 
4.670000000002455, 0.09388132793925924 
4.6800000000024315, 0.09275303379696982 
4.690000000002408, 0.09188880949621975 
4.700000000002385, 0.09141670925541978 
4.710000000002362, 0.09145128405483292 
4.720000000002338, 0.09213814723137123 
4.730000000002315, 0.09368760304572454 
4.740000000002292, 0.09635671156515932 
4.750000000002268, 0.10031704016205556 
4.760000000002245, 0.10539744332045124 
4.770000000002222, 0.11091791047529165 
4.7800000000021985, 0.11594370348909755 
4.790000000002175, 0.119806059435324 
4.800000000002152, 0.12232580119338224 
4.810000000002129, 0.12363166955157737 
4.820000000002105, 0.1239031895482032 
4.830000000002082, 0.12323483011398328 
4.840000000002059, 0.12161753432741282 
4.850000000002035, 0.1190061469145264 
