t, s[1].omega / s[0].omega 
0, -0.6599385800345048 
0.009999999999999995, -0.6543770628608507 
0.019999999999999934, -0.6498450563968927 
0.029999999999999874, -0.6461257564799956 
0.04000000000000012, -0.6430212059508442 
0.050000000000000405, -0.640391411002134 
0.06000000000000069, -0.6381632233090676 
0.07000000000000098, -0.6363228291129865 
0.08000000000000126, -0.6348985162118361 
0.09000000000000155, -0.6339397756138133 
0.10000000000000184, -0.633498169802723 
0.11000000000000212, -0.6336137739351765 
0.12000000000000241, -0.6343089825921053 
0.130000000000002, -0.6355896941072989 
0.1400000000000009, -0.6374530780880445 
0.1499999999999998, -0.6399013550453335 
0.1599999999999987, -0.6429612630138213 
0.1699999999999976, -0.6467080718422659 
0.1799999999999965, -0.6512910445936064 
0.1899999999999954, -0.6569543729439121 
0.1999999999999943, -0.6640403702319381 
0.2099999999999932, -0.6729382055976335 
0.2199999999999921, -0.683894970201704 
0.229999999999991, -0.6966090407302772 
0.2399999999999899, -0.7098110738359908 
0.2499999999999888, -0.721535655784649 
0.2599999999999877, -0.7302936121655563 
0.2699999999999866, -0.7358687243562559 
0.2799999999999855, -0.7389168723493265 
0.2899999999999844, -0.7402129167149735 
0.2999999999999833, -0.7402837100793123 
0.3099999999999822, -0.7393719057990142 
0.3199999999999811, -0.7375251344511031 
0.32999999999998, -0.7348119610011208 
0.3399999999999789, -0.7320622178023465 
0.3499999999999778, -0.7337523230043593 
0.35999999999997667, -0.7593502533602055 
0.36999999999997557, -0.8850853365744944 
0.37999999999997447, -1.2945702994233952 
0.38999999999997337, -1.7897345040457702 
0.39999999999997227, -1.988466461942285 
0.40999999999997117, -2.052471986465549 
0.41999999999997006, -2.077265322754176 
0.42999999999996896, -2.088226592522601 
0.43999999999996786, -2.093126542747248 
0.44999999999996676, -2.0949365022880757 
0.45999999999996566, -2.0949762798849223 
0.46999999999996456, -2.0938587571053264 
0.47999999999996346, -2.0917364932590496 
0.48999999999996235, -2.088126684349967 
0.49999999999996125, -2.0823939182086075 
0.5099999999999602, -2.076623448511886 
0.519999999999959, -2.0750569915716612 
0.529999999999958, -2.0758214616728785 
0.5399999999999568, -2.075509687420575 
0.5499999999999557, -2.0720613326999997 
0.5599999999999546, -2.058847474754713 
0.5699999999999535, -2.0184196381369643 
0.5799999999999524, -2.088864250328931 
0.5899999999999513, -2.3385795925692867 
0.5999999999999502, -2.421287279003079 
0.6099999999999491, -2.4435093480573493 
0.619999999999948, -2.4512844757714665 
0.6299999999999469, -2.4542238554111457 
0.6399999999999458, -2.4548039557069004 
0.6499999999999447, -2.4536640466745396 
0.6599999999999436, -2.4505016920073768 
0.6699999999999425, -2.4433288550636534 
0.6799999999999414, -2.424855324636428 
0.6899999999999403, -2.3831338019516193 
0.6999999999999392, -2.3616414156105363 
0.7099999999999381, -2.371133779437379 
0.719999999999937, -2.3753753901039025 
0.7299999999999359, -2.375417361100905 
0.7399999999999348, -2.373339605879192 
0.7499999999999337, -2.37337952335376 
0.7599999999999326, -2.380057649236539 
0.7699999999999315, -2.386197673299232 
0.7799999999999304, -2.389100388016737 
0.7899999999999293, -2.3902090671612894 
0.7999999999999282, -2.3900744692647544 
0.8099999999999271, -2.3881553594458 
0.819999999999926, -2.382553493032952 
0.8299999999999249, -2.3672905029636917 
0.8399999999999238, -2.3192483555373813 
0.8499999999999227, -2.1098136070154556 
0.8599999999999216, -1.0704798806369202 
0.8699999999999205, 0.010086375062673719 
0.8799999999999194, 0.24779496029544731 
0.8899999999999183, 0.3039757783174347 
0.8999999999999172, 0.3224143243862562 
0.9099999999999161, 0.32979922343783036 
0.919999999999915, 0.33296114040974756 
0.9299999999999139, 0.33407986617283053 
0.9399999999999128, 0.333869579428451 
0.9499999999999117, 0.3323616455525515 
0.9599999999999106, 0.328938358899553 
0.9699999999999095, 0.32169263127026876 
0.9799999999999084, 0.3049125436961099 
0.9899999999999073, 0.25854106169629193 
0.9999999999999062, 0.09651947202705982 
1.0099999999999052, -0.6042928451062093 
1.019999999999904, -3.4094222733947825 
1.029999999999903, -3.69743911816544 
1.039999999999902, -3.713212077970938 
1.0499999999999008, -3.7152993069962386 
1.0599999999998997, -3.7137017298111656 
1.0699999999998986, -3.705528796862702 
1.0799999999998975, -3.634329110319915 
1.0899999999998964, -3.031602941666546 
1.0999999999998953, -3.250699080449725 
1.1099999999998942, -3.2716232599967063 
1.119999999999893, -3.273353745547856 
1.129999999999892, -3.272809161480024 
1.1399999999998909, -3.272191153844883 
1.1499999999998898, -3.270500500051223 
1.1599999999998887, -3.2691704578701333 
1.1699999999998876, -3.2689583847469983 
1.1799999999998865, -3.2655241232180456 
1.1899999999998854, -3.2477154558535637 
1.1999999999998843, -3.275533336394627 
1.2099999999998832, -3.3151684389740574 
1.219999999999882, -3.3229697503489755 
1.229999999999881, -3.3243667365118768 
1.2399999999998799, -3.3230164334235837 
1.2499999999998788, -3.316407136890143 
1.2599999999998777, -3.281169655339771 
1.2699999999998766, -2.66305537683848 
1.2799999999998755, 1.0327516949558473 
1.2899999999998744, 1.2641373746999387 
1.2999999999998733, 1.285257545143557 
1.3099999999998722, 1.2896063065998835 
1.319999999999871, 1.2906077239298392 
1.32999999999987, 1.2906374159171388 
1.3399999999998689, 1.2904183504832019 
1.3499999999998678, 1.2902456545756382 
1.3599999999998666, 1.2901849971680845 
1.3699999999998655, 1.29017327106907 
1.3799999999998644, 1.2901471149782011 
1.3899999999998633, 1.2900616454629332 
1.3999999999998622, 1.2897850829505626 
1.4099999999998611, 1.2889378695371965 
1.41999999999986, 1.2863843360282607 
1.429999999999859, 1.2772429459884802 
1.4399999999998578, 1.2221580139664459 
1.4499999999998567, -0.028969160835444808 
1.4599999999998556, -3.15392602646053 
1.4699999999998545, -3.28150748635381 
1.4799999999998534, -3.295653712803824 
1.4899999999998523, -3.2980472718808294 
1.4999999999998512, -3.297155054824677 
1.5099999999998501, -3.2930691736942577 
1.519999999999849, -3.276987480116228 
1.529999999999848, -3.23189893297342 
1.5399999999998468, -3.2405275539679246 
1.5499999999998457, -3.2471330215487044 
1.5599999999998446, -3.2471143535345868 
1.5699999999998435, -3.246480895069209 
1.5799999999998424, -3.247791559558445 
1.5899999999998413, -3.2481777735690853 
1.5999999999998402, -3.2478812755362947 
1.6099999999998391, -3.2468926113165724 
1.619999999999838, -3.2401898617582092 
1.629999999999837, -3.164147292491857 
1.6399999999998358, -3.088513838060072 
1.6499999999998347, -3.9835374380239075 
1.6599999999998336, -4.011309097439263 
1.6699999999998325, -4.014062176397316 
1.6799999999998314, -4.012449528796152 
1.6899999999998303, -4.002296028086098 
1.6999999999998292, -3.8416839305366124 
1.709999999999828, -0.27838874656589346 
1.719999999999827, 0.805735197029963 
1.729999999999826, 0.927982045513307 
1.7399999999998248, 0.9499798963380478 
1.7499999999998237, 0.9559299235067913 
1.7599999999998226, 0.9575742411945807 
1.7699999999998215, 0.9574564992767141 
1.7799999999998204, 0.9562617776569764 
1.7899999999998193, 0.9544467324067536 
1.7999999999998182, 0.9539059657559079 
1.809999999999817, 0.9608916378307697 
1.819999999999816, 0.9811916274926107 
1.8299999999998149, 1.0042020052837288 
1.8399999999998138, 1.018277204110845 
1.8499999999998127, 1.024656586418296 
1.8599999999998116, 1.027008254527121 
1.8699999999998105, 1.027097554244264 
1.8799999999998094, 1.0248984580810128 
1.8899999999998083, 1.0173647956498435 
1.8999999999998072, 0.9866017187149072 
1.909999999999806, 0.7701109291321047 
1.919999999999805, -0.4758421655416146 
1.9299999999998039, -1.2307610428047961 
1.9399999999998028, -1.384975234167139 
1.9499999999998017, -1.421571820524944 
1.9599999999998006, -1.4321634337605171 
1.9699999999997995, -1.4353505311306503 
1.9799999999997984, -1.4356940291218772 
1.9899999999997973, -1.434420455673718 
1.9999999999997962, -1.4323418022837608 
2.0099999999998173, -1.4324827209664412 
2.0199999999998384, -1.4412367965319322 
2.0299999999998595, -1.4598887485787397 
2.0399999999998806, -1.4801620579425174 
2.0499999999999017, -1.496031239243631 
2.059999999999923, -1.507172616081749 
2.069999999999944, -1.5149734304807962 
2.079999999999965, -1.5205632174642019 
2.089999999999986, -1.5245952016970306 
2.100000000000007, -1.5274080981042222 
2.1100000000000283, -1.5291695783915866 
2.1200000000000494, -1.5299761833947803 
2.1300000000000705, -1.5299228579722122 
2.1400000000000916, -1.5291370921414298 
2.1500000000001127, -1.527774899521898 
2.160000000000134, -1.5259578342503977 
2.170000000000155, -1.5236762873754877 
2.180000000000176, -1.5208787098127348 
2.190000000000197, -1.5178855354417662 
2.2000000000002182, -1.5156011884661955 
2.2100000000002393, -1.5146612178348098 
2.2200000000002604, -1.5145353252017042 
2.2300000000002815, -1.5141624240131901 
2.2400000000003026, -1.5125290548214214 
2.2500000000003237, -1.5080119058320707 
2.260000000000345, -1.4964951377408044 
2.270000000000366, -1.4669935880618181 
2.280000000000387, -1.3935776283696248 
2.290000000000408, -1.2359393794165645 
2.3000000000004293, -0.9898493219780535 
2.3100000000004504, -0.7386745140793499 
2.3200000000004715, -0.5588232051702324 
2.3300000000004926, -0.45153672911279685 
2.3400000000005137, -0.39065302492513715 
2.3500000000005348, -0.35572148080393806 
2.360000000000556, -0.33509424720271286 
2.370000000000577, -0.322569666782444 
2.380000000000598, -0.31482203497548394 
2.390000000000619, -0.3100148813081293 
2.4000000000006403, -0.3071019274051029 
2.4100000000006614, -0.305473951039215 
2.4200000000006825, -0.3047771147755619 
2.4300000000007036, -0.30481923385935933 
2.4400000000007247, -0.3055247130080818 
2.450000000000746, -0.3069207162251494 
2.460000000000767, -0.30914926623044464 
2.470000000000788, -0.3125095789384808 
2.480000000000809, -0.3175484697805796 
2.49000000000083, -0.325242850338455 
2.5000000000008513, -0.33736729734906296 
2.5100000000008724, -0.35719874559164505 
2.5200000000008935, -0.3905719730686795 
2.5300000000009146, -0.44583332564279077 
2.5400000000009357, -0.5265243829496511 
2.550000000000957, -0.615076952380585 
2.560000000000978, -0.681757654997699 
2.570000000000999, -0.7188306568648442 
2.58000000000102, -0.7365759496049483 
2.5900000000010412, -0.7446790728853664 
2.6000000000010624, -0.7481981033637729 
2.6100000000010835, -0.7493177577719974 
2.6200000000011046, -0.7487972884878237 
2.6300000000011257, -0.7465268635568989 
2.6400000000011468, -0.7413897013389591 
2.650000000001168, -0.7300792910922606 
2.660000000001189, -0.7027543837834221 
2.67000000000121, -0.6265064580643658 
2.680000000001231, -0.39386395110250816 
2.6900000000012523, 0.07153668809186113 
2.7000000000012734, 0.361012336598313 
2.7100000000012945, 0.44381140161662946 
2.7200000000013156, 0.46806447938932483 
2.7300000000013367, 0.47659280438117485 
2.740000000001358, 0.4798509480502613 
2.750000000001379, 0.4808499669269898 
2.7600000000014, 0.4805790445444241 
2.770000000001421, 0.47939082588911364 
2.780000000001442, 0.47747154124323793 
2.7900000000014633, 0.47506000197032483 
2.8000000000014844, 0.47251999906094316 
2.8100000000015055, 0.470261149542518 
2.8200000000015266, 0.46859023517573073 
2.8300000000015477, 0.46762924953834134 
2.840000000001569, 0.46733435548217583 
2.85000000000159, 0.46755116928766205 
2.860000000001611, 0.4680585558565883 
2.870000000001632, 0.4686026255076028 
2.8800000000016532, 0.4689260869023825 
2.8900000000016743, 0.46876844732956247 
2.9000000000016954, 0.4677881355393774 
2.9100000000017165, 0.46531291545508224 
2.9200000000017377, 0.4595882537047065 
2.9300000000017588, 0.44500094296788956 
2.94000000000178, 0.3986079486093692 
2.950000000001801, 0.1967369797767961 
2.960000000001822, -0.5854232866292777 
2.970000000001843, -1.2848442848002182 
2.9800000000018643, -1.4627181796914386 
2.9900000000018854, -1.5043973434246312 
3.0000000000019065, -1.5161080649215366 
3.0100000000019276, -1.519604087312369 
3.0200000000019487, -1.5201664505313484 
3.03000000000197, -1.5193965161618164 
3.040000000001991, -1.5185297903106876 
3.050000000002012, -1.5198722691296636 
3.060000000002033, -1.525229928414063 
3.070000000002054, -1.5327984504189718 
3.0800000000020753, -1.5396274206517533 
3.0900000000020964, -1.5447054129971978 
3.1000000000021175, -1.5482840520995316 
3.1100000000021386, -1.5507593128816393 
3.1200000000021597, -1.5523605453892908 
3.130000000002181, -1.5532028240895277 
3.140000000002202, -1.553351250185933 
3.150000000002223, -1.5528330220441522 
3.160000000002244, -1.5516335265316716 
3.1700000000022652, -1.5496990965565327 
3.1800000000022863, -1.5469340375083702 
3.1900000000023074, -1.543154074045417 
3.2000000000023285, -1.5380111255908573 
3.2100000000023496, -1.53114052442697 
3.2200000000023707, -1.5230236743183483 
3.230000000002392, -1.516123125199375 
3.240000000002413, -1.5130581574850743 
3.250000000002434, -1.512975144654035 
3.260000000002455, -1.5133793890074885 
3.2700000000024763, -1.5127903037191321 
3.2800000000024974, -1.5099654417361494 
3.2900000000025185, -1.5014545806035 
3.3000000000025396, -1.474000441500081 
3.3100000000025607, -1.367103232733501 
3.3200000000025818, -0.911584467813691 
3.330000000002603, -0.03413996835286216 
3.340000000002624, 0.31045946686178405 
3.350000000002645, 0.38743784421634 
3.360000000002666, 0.40949882148179295 
3.3700000000026873, 0.4174821735600817 
3.3800000000027084, 0.4206928757531022 
3.3900000000027295, 0.4218786833509762 
3.4000000000027506, 0.422040765436477 
3.4100000000027717, 0.421638700594941 
3.420000000002793, 0.4209651888838457 
3.430000000002814, 0.42027346266865173 
3.440000000002835, 0.4198125253462407 
3.450000000002856, 0.4198301738283778 
3.460000000002877, 0.4205653583114534 
3.4700000000028983, 0.422211860845235 
3.4800000000029194, 0.4248169532274849 
3.4900000000029405, 0.42814106560492277 
3.5000000000029616, 0.43163589880792097 
3.5100000000029827, 0.4346679735394255 
3.520000000003004, 0.4368092796557714 
3.530000000003025, 0.4379017737708505 
3.540000000003046, 0.43788118486105077 
3.550000000003067, 0.4364988083066289 
3.5600000000030882, 0.43289026700407707 
3.5700000000031094, 0.4244877474972629 
3.5800000000031305, 0.40351554509732634 
3.5900000000031516, 0.34632301575437546 
3.6000000000031727, 0.2062623705918492 
3.6100000000031938, 0.01917813407899757 
3.620000000003215, -0.08619339148846455 
3.630000000003236, -0.12302762980946884 
3.640000000003257, -0.1354842809415988 
3.650000000003278, -0.14029519644328203 
3.6600000000032993, -0.14241732314510555 
3.6700000000033204, -0.1433981847968638 
3.6800000000033415, -0.14378039270442647 
3.6900000000033626, -0.14378111395294663 
3.7000000000033837, -0.14351154448433806 
3.710000000003405, -0.1430669918721022 
3.720000000003426, -0.14257233835086755 
3.730000000003447, -0.14219887938373205 
3.740000000003468, -0.14215875492134272 
3.750000000003489, -0.14269936131425667 
3.7600000000035103, -0.14412932448752863 
3.7700000000035314, -0.14689134878139667 
3.7800000000035525, -0.15166127269156796 
3.7900000000035736, -0.15937170047197652 
3.8000000000035947, -0.17087510191957933 
3.810000000003616, -0.1859161210000708 
3.820000000003637, -0.20212596556464976 
3.830000000003658, -0.21610622521526843 
3.840000000003679, -0.22599488426711245 
3.8500000000037002, -0.2320483535225662 
3.8600000000037213, -0.2353463946791917 
3.8700000000037424, -0.23680410394950244 
3.8800000000037635, -0.23692746427037453 
3.8900000000037847, -0.23585986678542273 
3.9000000000038058, -0.23346008920809927 
3.910000000003827, -0.22939975826211242 
3.920000000003848, -0.22339449921846946 
3.930000000003869, -0.21563707987850447 
3.94000000000389, -0.20711241575293293 
3.9500000000039113, -0.1992155011092271 
3.9600000000039324, -0.19291629614546524 
3.9700000000039535, -0.18842615711133087 
3.9800000000039746, -0.18549189416163314 
3.9900000000039957, -0.1837577404609095 
4.000000000004016, -0.18292378251483998 
4.010000000003993, -0.1827530988947419 
4.02000000000397, -0.18302838717007075 
4.030000000003946, -0.18352335524251315 
4.040000000003923, -0.1840155628853295 
4.0500000000039, -0.18432221867006393 
4.0600000000038765, -0.18431633997539415 
4.070000000003853, -0.18390093742251526 
4.08000000000383, -0.1829440848509866 
4.090000000003807, -0.18116026054532416 
4.100000000003783, -0.1778370391341071 
4.11000000000376, -0.17104279593898356 
4.120000000003737, -0.15509818023616656 
4.130000000003713, -0.11333302284849238 
4.14000000000369, -0.011848319669069202 
4.150000000003667, 0.14208743061766166 
4.1600000000036434, 0.25422019459197176 
4.17000000000362, 0.3038367518906444 
4.180000000003597, 0.32349001453090176 
4.1900000000035735, 0.3316450299419409 
4.20000000000355, 0.33511302630485706 
4.210000000003527, 0.33635279590683537 
4.220000000003504, 0.3362897093488734 
4.23000000000348, 0.3352898989272029 
4.240000000003457, 0.3335533974140484 
4.250000000003434, 0.3313126112248395 
4.26000000000341, 0.32890455352861897 
4.270000000003387, 0.3267131179880677 
4.280000000003364, 0.32505053800482253 
4.2900000000033405, 0.3240919837496475 
4.300000000003317, 0.32389191541037393 
4.310000000003294, 0.32442023363153377 
4.320000000003271, 0.32556434598653317 
4.330000000003247, 0.3271062809866724 
4.340000000003224, 0.32873051473993903 
4.350000000003201, 0.33009548156528223 
4.360000000003177, 0.3309172571401572 
4.370000000003154, 0.3309747463460056 
4.380000000003131, 0.3299953471118646 
4.390000000003107, 0.3273944435131376 
4.400000000003084, 0.3216809988940252 
4.410000000003061, 0.30879577402093333 
4.4200000000030375, 0.2771038853367042 
4.430000000003014, 0.19648693839356865 
4.440000000002991, 0.0369480289072169 
4.450000000002968, -0.1225661030473543 
4.460000000002944, -0.20226785582461346 
4.470000000002921, -0.23250347366494886 
4.480000000002898, -0.2443580836863422 
4.490000000002874, -0.24956087002368776 
4.500000000002851, -0.25202543026265234 
4.510000000002828, -0.2531419369917648 
4.520000000002804, -0.2534423820225288 
4.530000000002781, -0.253135453262426 
4.540000000002758, -0.2523105143658764 
4.5500000000027345, -0.2510471263219284 
4.560000000002711, -0.2494886937618918 
4.570000000002688, -0.24786620970282375 
4.580000000002665, -0.24645324167642696 
4.590000000002641, -0.24549024879043962 
4.600000000002618, -0.24514773497566905 
4.610000000002595, -0.24554558242137398 
4.620000000002571, -0.246783039808414 
4.630000000002548, -0.24892303837609023 
4.640000000002525, -0.2519042583805003 
4.6500000000025015, -0.25542916512484387 
4.660000000002478, -0.2589711776584688 
4.670000000002455, -0.26198191923450287 
4.6800000000024315, -0.26412534377350205 
4.690000000002408, -0.26531431076281853 
4.700000000002385, -0.265571863701461 
4.710000000002362, -0.2648595516345712 
4.720000000002338, -0.262911366292318 
4.730000000002315, -0.2589847404687333 
4.740000000002292, -0.2513461180683617 
4.750000000002268, -0.23632024001734853 
4.760000000002245, -0.2077194864733208 
4.770000000002222, -0.16127133660939028 
4.7800000000021985, -0.1062221237455051 
4.790000000002175, -0.06124561699125804 
4.800000000002152, -0.03322594805325637 
4.810000000002129, -0.017694662940259023 
4.820000000002105, -0.009223491222642467 
4.830000000002082, -0.004522302334644204 
4.840000000002059, -0.0018994485652916392 
4.850000000002035, -0.0004919431934327539 
4.860000000002012, 0.000021981085427768428 
4.870000000001989, 9.51165659205859e-9 
4.880000000001965, -3.365567216524303e-7 
4.890000000001942, -6.489869982111419e-7 
4.900000000001919, 5.507408063812746e-7 
4.9100000000018955, 0.00011972653550042793 
4.920000000001872, 0.000774552476739385 
4.930000000001849, 0.002432785248351685 
