t, s[1].omega / s[0].omega 
0, -1.0199154878905679 
0.009999999999999995, -1.0114280624540286 
0.019999999999999934, -1.0029557091395958 
0.029999999999999874, -0.994506288517603 
0.04000000000000012, -0.9860212288068121 
0.050000000000000405, -0.9774809969760729 
0.06000000000000069, -0.9690061809918463 
0.07000000000000098, -0.9609528756168648 
0.08000000000000126, -0.9539262643086281 
0.09000000000000155, -0.9485832550311682 
0.10000000000000184, -0.9452471354283611 
0.11000000000000212, -0.9436636742519419 
0.12000000000000241, -0.9431712522031704 
0.130000000000002, -0.9430725590253906 
0.1400000000000009, -0.942841707914685 
0.1499999999999998, -0.9421105546524018 
0.1599999999999987, -0.9405905647555282 
0.1699999999999976, -0.9380627946741807 
0.1799999999999965, -0.9344682150644881 
0.1899999999999954, -0.9300029015009409 
0.1999999999999943, -0.9250638210379913 
0.2099999999999932, -0.9200513481083629 
0.2199999999999921, -0.9152123402793292 
0.229999999999991, -0.9106246754324239 
0.2399999999999899, -0.9062661689475247 
0.2499999999999888, -0.9020887599091905 
0.2599999999999877, -0.8980655106268465 
0.2699999999999866, -0.8942100867830133 
0.2799999999999855, -0.890581657035065 
0.2899999999999844, -0.8872874469548249 
0.2999999999999833, -0.8844784946005131 
0.3099999999999822, -0.882316313064227 
0.3199999999999811, -0.8809004657624679 
0.32999999999998, -0.8801949262350771 
0.3399999999999789, -0.8800171878288754 
0.3499999999999778, -0.8801040459369235 
0.35999999999997667, -0.8801988867330547 
0.36999999999997557, -0.8801084096210608 
0.37999999999997447, -0.8797274511197737 
0.38999999999997337, -0.8790493221706152 
0.39999999999997227, -0.8781567252477636 
0.40999999999997117, -0.8771785238475328 
0.41999999999997006, -0.876226791360889 
0.42999999999996896, -0.8753512734949098 
0.43999999999996786, -0.8745312198153654 
0.44999999999996676, -0.8737000997466347 
0.45999999999996566, -0.8727896974492582 
0.46999999999996456, -0.8717746530470267 
0.47999999999996346, -0.8706978694946328 
0.48999999999996235, -0.8696681532953268 
0.49999999999996125, -0.8688321060537065 
0.5099999999999602, -0.8683284798263531 
0.519999999999959, -0.8682446360203097 
0.529999999999958, -0.8686004080509079 
0.5399999999999568, -0.869364735925075 
0.5499999999999557, -0.8704825661522653 
0.5599999999999546, -0.871889041819926 
0.5699999999999535, -0.8735119434071003 
0.5799999999999524, -0.8752785802009123 
0.5899999999999513, -0.8771344442587731 
0.5999999999999502, -0.8790632488230903 
0.6099999999999491, -0.8810912926725306 
0.619999999999948, -0.8832663928286163 
0.6299999999999469, -0.8856138580804924 
0.6399999999999458, -0.8880824112145971 
0.6499999999999447, -0.890507150523623 
0.6599999999999436, -0.8926329253418068 
0.6699999999999425, -0.894215568896036 
0.6799999999999414, -0.8951346256299173 
0.6899999999999403, -0.8954274287697185 
0.6999999999999392, -0.8952525379668238 
0.7099999999999381, -0.8948619964988609 
0.719999999999937, -0.8946188122889097 
0.7299999999999359, -0.8950115317902394 
0.7399999999999348, -0.8965716498054507 
0.7499999999999337, -0.8996662414162024 
0.7599999999999326, -0.9043104488779115 
0.7699999999999315, -0.9101896560924022 
0.7799999999999304, -0.9168693822189885 
0.7899999999999293, -0.9239984975547652 
0.7999999999999282, -0.9313895892383389 
0.8099999999999271, -0.939001793196585 
0.819999999999926, -0.946885144230208 
0.8299999999999249, -0.9551056475477294 
0.8399999999999238, -0.9636360700103888 
0.8499999999999227, -0.9722126585303394 
0.8599999999999216, -0.9802485761487997 
0.8699999999999205, -0.986985610182613 
0.8799999999999194, -0.9918909591903893 
0.8899999999999183, -0.9949293199787386 
0.8999999999999172, -0.9964449717795256 
0.9099999999999161, -0.9968842060337645 
0.919999999999915, -0.9966613714105288 
0.9299999999999139, -0.9962225237593637 
0.9399999999999128, -0.9962134819239769 
0.9499999999999117, -0.9975564621078418 
0.9599999999999106, -1.001158516390619 
0.9699999999999095, -1.0073043471489203 
0.9799999999999084, -1.015397933324927 
0.9899999999999073, -1.0244238962334529 
0.9999999999999062, -1.0335625841844194 
1.0099999999999052, -1.042411736169668 
1.019999999999904, -1.050885232047263 
1.029999999999903, -1.0590420615582155 
1.039999999999902, -1.0669492712192252 
1.0499999999999008, -1.0745698113622397 
1.0599999999998997, -1.08167247456345 
1.0699999999998986, -1.0878337103668894 
1.0799999999998975, -1.0926140229171828 
1.0899999999998964, -1.0958161718973882 
1.0999999999998953, -1.0975750973208211 
1.1099999999998942, -1.0982254083282377 
1.119999999999893, -1.0981508437071958 
1.129999999999892, -1.0977629947423853 
1.1399999999998909, -1.0975614060902008 
1.1499999999998898, -1.098097528810457 
1.1599999999998887, -1.0997222216239186 
1.1699999999998876, -1.102339727885959 
1.1799999999998865, -1.1055168543643314 
1.1899999999998854, -1.1088188220871362 
1.1999999999998843, -1.1119943010619597 
1.2099999999998832, -1.1149451434276845 
1.219999999999882, -1.1176401866094845 
1.229999999999881, -1.1200740518512824 
1.2399999999998799, -1.12226127366112 
1.2499999999998788, -1.1242244430768529 
1.2599999999998777, -1.1259638891295765 
1.2699999999998766, -1.127428474430636 
1.2799999999998755, -1.128517232280703 
1.2899999999998744, -1.1291248863101295 
1.2999999999998733, -1.1292057963182969 
1.3099999999998722, -1.1288123319222598 
1.319999999999871, -1.128094684786101 
1.32999999999987, -1.1272728567528252 
1.3399999999998689, -1.1265715953277156 
1.3499999999998678, -1.1261259037800735 
1.3599999999998666, -1.1259406970918446 
1.3699999999998655, -1.12596121667343 
1.3799999999998644, -1.1261641181571376 
1.3899999999998633, -1.1265523845051058 
1.3999999999998622, -1.1270748386554372 
1.4099999999998611, -1.1275877564095789 
1.41999999999986, -1.127905457139801 
1.429999999999859, -1.1278766561535225 
1.4399999999998578, -1.1274295620960142 
1.4499999999998567, -1.1265788905786207 
1.4599999999998556, -1.1253976314691854 
1.4699999999998545, -1.1239651655399014 
1.4799999999998534, -1.1223239438887753 
1.4899999999998523, -1.1204712793864924 
1.4999999999998512, -1.1183842591486264 
1.5099999999998501, -1.1160543325866237 
1.519999999999849, -1.1135047396953273 
1.529999999999848, -1.1107815124781513 
1.5399999999998468, -1.1079441345531218 
1.5499999999998457, -1.1050996308390322 
1.5599999999998446, -1.1024705144796059 
1.5699999999998435, -1.100387936884681 
1.5799999999998424, -1.0991100393791253 
1.5899999999998413, -1.098592322696217 
1.5999999999998402, -1.0984832119541923 
1.6099999999998391, -1.0983315017100614 
1.619999999999838, -1.0977400726120878 
1.629999999999837, -1.0963812395545967 
1.6399999999998358, -1.093993381957857 
1.6499999999998347, -1.0904501674217801 
1.6599999999998336, -1.08584757378885 
1.6699999999998325, -1.0804720662859055 
1.6799999999998314, -1.0746386253033513 
1.6899999999998303, -1.0685476622004872 
1.6999999999998292, -1.0622567085204477 
1.709999999999828, -1.0557307737835964 
1.719999999999827, -1.0489104127849327 
1.729999999999826, -1.0417842361706142 
1.7399999999998248, -1.0344894116697272 
1.7499999999998237, -1.027435241586918 
1.7599999999998226, -1.0213287358782976 
1.7699999999998215, -1.016904573631597 
1.7799999999998204, -1.0144276710701978 
1.7899999999998193, -1.0134799356551072 
1.7999999999998182, -1.0132904825905575 
1.809999999999817, -1.013163893074862 
1.819999999999816, -1.0126041005035362 
1.8299999999998149, -1.011215921016424 
1.8399999999998138, -1.0086108935326474 
1.8499999999998127, -1.004455626028105 
1.8599999999998116, -0.9986704160578153 
1.8699999999998105, -0.991582802036052 
1.8799999999998094, -0.9837929090340042 
1.8899999999998083, -0.9758476539888588 
1.8999999999998072, -0.968044698063674 
1.909999999999806, -0.960455257465118 
1.919999999999805, -0.9530375058469864 
1.9299999999998039, -0.9457387218390501 
1.9399999999998028, -0.9385691960935942 
1.9499999999998017, -0.9316632309259992 
1.9599999999998006, -0.9253215730293289 
1.9699999999997995, -0.9199804368579361 
1.9799999999997984, -0.9160452988632363 
1.9899999999997973, -0.9136473123942119 
1.9999999999997962, -0.912530691538441 
2.0099999999998173, -0.9121895076912448 
2.0199999999998384, -0.9121027841324809 
2.0299999999998595, -0.9118647498204311 
2.0399999999998806, -0.9111881257472625 
2.0499999999999017, -0.9098776701680332 
2.059999999999923, -0.9078482001754257 
2.069999999999944, -0.9051738804872068 
2.079999999999965, -0.9020838297838807 
2.089999999999986, -0.8988597700362169 
2.100000000000007, -0.8957125965044936 
2.1100000000000283, -0.8927323236237686 
2.1200000000000494, -0.8899146716222776 
2.1300000000000705, -0.8872166823152545 
2.1400000000000916, -0.8846058828412998 
2.1500000000001127, -0.8820871217071005 
2.160000000000134, -0.8797037995542067 
2.170000000000155, -0.877522598494538 
2.180000000000176, -0.875618223764645 
2.190000000000197, -0.8740675538128672 
2.2000000000002182, -0.8729444309708582 
2.2100000000002393, -0.8722983855939688 
2.2200000000002604, -0.8721189749121084 
2.2300000000002815, -0.8723143135228562 
2.2400000000003026, -0.8727295849450101 
2.2500000000003237, -0.8731969126213853 
2.260000000000345, -0.8735861088422763 
2.270000000000366, -0.8738362415940703 
2.280000000000387, -0.8739623460175183 
2.290000000000408, -0.8740343646037536 
2.3000000000004293, -0.8741332064938121 
2.3100000000004504, -0.8743033881385882 
2.3200000000004715, -0.8745236014711801 
2.3300000000004926, -0.8747076609675972 
2.3400000000005137, -0.8747399052995372 
2.3500000000005348, -0.8745323422788284 
2.360000000000556, -0.8740723596807577 
2.370000000000577, -0.8734401669041436 
2.380000000000598, -0.8728018967345017 
2.390000000000619, -0.8723851200334491 
2.4000000000006403, -0.8724274878493681 
2.4100000000006614, -0.8731012168858232 
2.4200000000006825, -0.8744549300320065 
2.4300000000007036, -0.876418180742907 
2.4400000000007247, -0.8788599178660267 
2.450000000000746, -0.8816495435679966 
2.460000000000767, -0.8846875310406613 
2.470000000000788, -0.8879123529597914 
2.480000000000809, -0.8913025462039542 
2.49000000000083, -0.8948777395862312 
2.5000000000008513, -0.8986868908234852 
2.5100000000008724, -0.9027704190211054 
2.5200000000008935, -0.9070927925804522 
2.5300000000009146, -0.9114659119174531 
2.5400000000009357, -0.9155288484888942 
2.550000000000957, -0.9188618103103 
2.560000000000978, -0.9211899397769283 
2.570000000000999, -0.9224933272543512 
2.58000000000102, -0.9229463227657793 
2.5900000000010412, -0.9228117749610754 
2.6000000000010624, -0.9224187915877918 
2.6100000000010835, -0.9222336774211394 
2.6200000000011046, -0.9229293906774279 
2.6300000000011257, -0.9252872504140741 
2.6400000000011468, -0.9298519302447106 
2.650000000001168, -0.9365895343832754 
2.660000000001189, -0.9449289754759042 
2.67000000000121, -0.9541468015393082 
2.680000000001231, -0.9637079486459463 
2.6900000000012523, -0.9733620093483066 
2.7000000000012734, -0.983073598243833 
2.7100000000012945, -0.9929035804461084 
2.7200000000013156, -1.002875743630155 
2.7300000000013367, -1.0128201707144484 
2.740000000001358, -1.0222399415291217 
2.750000000001379, -1.0303692644087943 
2.7600000000014, -1.0365380738122725 
2.770000000001421, -1.0405642739976266 
2.780000000001442, -1.04275765806808 
2.7900000000014633, -1.0436213257787033 
2.8000000000014844, -1.0436294138606468 
2.8100000000015055, -1.0432283882728903 
2.8200000000015266, -1.0429839043702749 
2.8300000000015477, -1.0436864384350195 
2.840000000001569, -1.0461439275206021 
2.85000000000159, -1.0506502121983867 
2.860000000001611, -1.056719696205405 
2.870000000001632, -1.0634846020168922 
2.8800000000016532, -1.0702489924395326 
2.8900000000016743, -1.0766787332419165 
2.9000000000016954, -1.0827015664456303 
2.9100000000017165, -1.0883625795880352 
2.9200000000017377, -1.0937289273354713 
2.9300000000017588, -1.098825259590344 
2.94000000000178, -1.1035761896893563 
2.950000000001801, -1.107778466858225 
2.960000000001822, -1.1111575926422288 
2.970000000001843, -1.1135103151257353 
2.9800000000018643, -1.1148210853320617 
2.9900000000018854, -1.1152542268879735 
3.0000000000019065, -1.1150784033423775 
3.0100000000019276, -1.1146298496259586 
3.0200000000019487, -1.1143085961769421 
3.03000000000197, -1.1144981697732963 
3.040000000001991, -1.1153806032225146 
3.050000000002012, -1.1168409398915735 
3.060000000002033, -1.1186074767834875 
3.070000000002054, -1.1204546247368508 
3.0800000000020753, -1.1222632593820179 
3.0900000000020964, -1.123964040824398 
3.1000000000021175, -1.1254882274489786 
3.1100000000021386, -1.126775376076247 
3.1200000000021597, -1.1278011256856497 
3.130000000002181, -1.1285813258775943 
3.140000000002202, -1.1291454427752035 
3.150000000002223, -1.1294999469714182 
3.160000000002244, -1.129609140740881 
3.1700000000022652, -1.1294100073031137 
3.1800000000022863, -1.12885486890124 
3.1900000000023074, -1.1279548496308451 
3.2000000000023285, -1.1267973886271385 
3.2100000000023496, -1.125525336008049 
3.2200000000023707, -1.1242796742082617 
3.230000000002392, -1.1231432860372024 
3.240000000002413, -1.1221496068215395 
3.250000000002434, -1.1213518710937715 
3.260000000002455, -1.1208501023289714 
3.2700000000024763, -1.1207068468538697 
3.2800000000024974, -1.120836863934709 
3.2900000000025185, -1.1210100987518474 
3.3000000000025396, -1.1209553176312983 
3.3100000000025607, -1.1204493948046879 
3.3200000000025818, -1.1193585912043948 
3.330000000002603, -1.1176608051098802 
3.340000000002624, -1.1154416606819164 
3.350000000002645, -1.1128406254457741 
3.360000000002666, -1.1099748967446579 
3.3700000000026873, -1.1068970182319848 
3.3800000000027084, -1.1036033522735251 
3.3900000000027295, -1.1000683669341655 
3.4000000000027506, -1.0962737826121267 
3.4100000000027717, -1.0922241267850932 
3.420000000002793, -1.087974472485772 
3.430000000002814, -1.0837021161063467 
3.440000000002835, -1.0797834573772103 
3.450000000002856, -1.0767279235751839 
3.460000000002877, -1.0748765024902416 
3.4700000000028983, -1.0741113519680314 
3.4800000000029194, -1.0739324734280382 
3.4900000000029405, -1.0737725090759758 
3.5000000000029616, -1.073169016926476 
3.5100000000029827, -1.0717359989306519 
3.520000000003004, -1.0691137648046634 
3.530000000003025, -1.0650356447255889 
3.540000000003046, -1.0594928937540218 
3.550000000003067, -1.052803927202412 
3.5600000000030882, -1.045445532698866 
3.5700000000031094, -1.0377997066644213 
3.5800000000031305, -1.0300414195891268 
3.5900000000031516, -1.0221808974501594 
3.6000000000031727, -1.0141595514370834 
3.6100000000031938, -1.005945951922824 
3.620000000003215, -0.997639469760856 
3.630000000003236, -0.9895861227912919 
3.640000000003257, -0.9824270408491722 
3.650000000003278, -0.9769132440836186 
3.6600000000032993, -0.973466313023126 
3.6700000000033204, -0.9718591828374169 
3.6800000000033415, -0.971387349051359 
3.6900000000033626, -0.9713000521446352 
3.7000000000033837, -0.9710376727564178 
3.710000000003405, -0.9702049621659619 
3.720000000003426, -0.9684695991360481 
3.730000000003447, -0.9655432936229278 
3.740000000003468, -0.9612955944575848 
3.750000000003489, -0.9559019470975694 
3.7600000000035103, -0.9498185188834389 
3.7700000000035314, -0.9435469694981155 
3.7800000000035525, -0.9374175090034523 
3.7900000000035736, -0.9315497779528104 
3.8000000000035947, -0.9259315845852077 
3.810000000003616, -0.9205097907321393 
3.820000000003637, -0.9152507414149957 
3.830000000003658, -0.9101737463324809 
3.840000000003679, -0.9053733006113294 
3.8500000000037002, -0.9010327518029129 
3.8600000000037213, -0.897404003962983 
3.8700000000037424, -0.8947204178318285 
3.8800000000037635, -0.8930646989160671 
3.8900000000037847, -0.8922914796782656 
3.9000000000038058, -0.8920807787974232 
3.910000000003827, -0.8920696580076666 
3.920000000003848, -0.8919523977479169 
3.930000000003869, -0.8915142146303536 
3.94000000000389, -0.890638685030158 
3.9500000000039113, -0.8893218530040489 
3.9600000000039324, -0.8876737298408652 
3.9700000000039535, -0.8858708165268467 
3.9800000000039746, -0.8840741752544157 
3.9900000000039957, -0.8823701648162652 
4.000000000004016, -0.8807632090715691 
4.010000000003993, -0.8792069799302527 
4.02000000000397, -0.8776501411309695 
4.030000000003946, -0.8760768184204972 
4.040000000003923, -0.8745260831696905 
4.0500000000039, -0.8730839516543976 
4.0600000000038765, -0.8718540089159097 
4.070000000003853, -0.870923621925814 
4.08000000000383, -0.8703454952750016 
4.090000000003807, -0.8701405392115852 
4.100000000003783, -0.870307108090507 
4.11000000000376, -0.8708191841842842 
4.120000000003737, -0.8716164095440405 
4.130000000003713, -0.8726054167721762 
4.14000000000369, -0.8736832703297702 
4.150000000003667, -0.8747723391891657 
4.1600000000036434, -0.8758462218187191 
4.17000000000362, -0.8769319049389146 
4.180000000003597, -0.8780848216968404 
4.1900000000035735, -0.8793456989795094 
4.20000000000355, -0.8806958117494676 
4.210000000003527, -0.8820310520837197 
4.220000000003504, -0.8831789851656644 
4.23000000000348, -0.8839669616327693 
4.240000000003457, -0.8843024372939512 
4.250000000003434, -0.8842102805346256 
4.26000000000341, -0.8838250053149318 
4.270000000003387, -0.8833782537041056 
4.280000000003364, -0.883193325940748 
4.2900000000033405, -0.883647119253728 
4.300000000003317, -0.885062110486953 
4.310000000003294, -0.887573123906064 
4.320000000003271, -0.8910817567283372 
4.330000000003247, -0.8953426922356039 
4.340000000003224, -0.900099070551652 
4.350000000003201, -0.905169467822598 
4.360000000003177, -0.9104680321468228 
4.370000000003154, -0.9159899130237884 
4.380000000003131, -0.9217849599978605 
4.390000000003107, -0.9279151227228223 
4.400000000003084, -0.9343784368696888 
4.410000000003061, -0.9409990389012848 
4.4200000000030375, -0.9473454657102982 
4.430000000003014, -0.9528129943464265 
4.440000000002991, -0.9569104642572208 
4.450000000002968, -0.9595102665725005 
4.460000000002944, -0.9608178443959459 
4.470000000002921, -0.9611740194047342 
4.480000000002898, -0.9609354054775539 
4.490000000002874, -0.9605140574640076 
4.500000000002851, -0.9605148576322557 
4.510000000002828, -0.9618072928555712 
4.520000000002804, -0.965293467237435 
4.530000000002781, -0.9713739994459537 
4.540000000002758, -0.9796334829997269 
4.5500000000027345, -0.9891554086116369 
4.560000000002711, -0.999094602524808 
4.570000000002688, -1.0089707850268754 
4.580000000002665, -1.0186362913745353 
4.590000000002641, -1.028124291475535 
4.600000000002618, -1.0374983386077377 
4.610000000002595, -1.046711515458171 
4.620000000002571, -1.0554778068365749 
4.630000000002548, -1.063245981881371 
4.640000000002525, -1.0694077990925912 
4.6500000000025015, -1.0736521274853135 
4.660000000002478, -1.0761143967866567 
4.670000000002455, -1.0772019548135163 
4.6800000000024315, -1.0773649566633177 
4.690000000002408, -1.0770352695263732 
4.700000000002385, -1.0767167458973232 
4.710000000002362, -1.077059537101172 
4.720000000002338, -1.0786895290834566 
4.730000000002315, -1.081806049950685 
4.740000000002292, -1.0860198343968646 
4.750000000002268, -1.09068682638246 
4.760000000002245, -1.095313975111299 
4.770000000002222, -1.099671543878309 
4.7800000000021985, -1.1037028536617246 
4.790000000002175, -1.1074236743006876 
4.800000000002152, -1.1108721637800936 
4.810000000002129, -1.114080546138606 
4.820000000002105, -1.1170402234454113 
4.830000000002082, -1.1196688434899458 
4.840000000002059, -1.1218142690496933 
4.850000000002035, -1.1233185984562815 
4.860000000002012, -1.1241077074770935 
4.870000000001989, -1.1242362850512682 
4.880000000001965, -1.1238738306545266 
4.890000000001942, -1.1232760812726872 
4.900000000001919, -1.1227480754637558 
4.9100000000018955, -1.12255169322788 
4.920000000001872, -1.1227836765866104 
4.930000000001849, -1.1233606803452059 
