t, s[1].omega / s[0].omega 
0, -1.196542037971553 
0.009999999999999995, -0.8291473334121591 
0.019999999999999934, -0.5380275795683079 
0.029999999999999874, -0.37681458628414854 
0.04000000000000012, -0.29720058245422704 
0.050000000000000405, -0.2571745594820369 
0.06000000000000069, -0.2359288769228384 
0.07000000000000098, -0.22404499954326043 
0.08000000000000126, -0.2171450318643548 
0.09000000000000155, -0.21308602937081442 
0.10000000000000184, -0.21076970519597538 
0.11000000000000212, -0.20962175347203296 
0.12000000000000241, -0.20935611509547733 
0.130000000000002, -0.20986998401878387 
0.1400000000000009, -0.21120819105202848 
0.1499999999999998, -0.21357723403697912 
0.1599999999999987, -0.2174157926611071 
0.1699999999999976, -0.2235619443471814 
0.1799999999999965, -0.2336273176450129 
0.1899999999999954, -0.2508622915617412 
0.1999999999999943, -0.28222420577496343 
0.2099999999999932, -0.3430895561208242 
0.2199999999999921, -0.46385747135488253 
0.229999999999991, -0.6713795073559414 
0.2399999999999899, -0.9004948862928014 
0.2499999999999888, -1.041965079659495 
0.2599999999999877, -1.1020403549107132 
0.2699999999999866, -1.124934953540593 
0.2799999999999855, -1.1337042429984314 
0.2899999999999844, -1.1369431879938063 
0.2999999999999833, -1.1376704519361656 
0.3099999999999822, -1.136903633733064 
0.3199999999999811, -1.135025008692958 
0.32999999999998, -1.1329138651095925 
0.3399999999999789, -1.13425929339656 
0.3499999999999778, -1.1481834118911032 
0.35999999999997667, -1.1835762682541089 
0.36999999999997557, -1.2343809533207595 
0.37999999999997447, -1.2840440902265795 
0.38999999999997337, -1.323643696212886 
0.39999999999997227, -1.3532385794608157 
0.40999999999997117, -1.3753980547825928 
0.41999999999997006, -1.3921651318223043 
0.42999999999996896, -1.40465911503878 
0.43999999999996786, -1.4134594874941981 
0.44999999999996676, -1.4190761504633143 
0.45999999999996566, -1.4221754928486359 
0.46999999999996456, -1.4234916083966473 
0.47999999999996346, -1.423667641667409 
0.48999999999996235, -1.4232394904784518 
0.49999999999996125, -1.4226952822306735 
0.5099999999999602, -1.4223864600521998 
0.519999999999959, -1.4223367017637485 
0.529999999999958, -1.4223494069294458 
0.5399999999999568, -1.422345232139456 
0.5499999999999557, -1.4224266778628076 
0.5599999999999546, -1.4226136180546114 
0.5699999999999535, -1.4226708013897338 
0.5799999999999524, -1.4222172776898634 
0.5899999999999513, -1.420848730669168 
0.5999999999999502, -1.418154054237315 
0.6099999999999491, -1.4137487890712161 
0.619999999999948, -1.4073481480552568 
0.6299999999999469, -1.398750835619441 
0.6399999999999458, -1.3876597057206044 
0.6499999999999447, -1.3734199068312283 
0.6599999999999436, -1.354801486682494 
0.6699999999999425, -1.3301058919634419 
0.6799999999999414, -1.2985744763975262 
0.6899999999999403, -1.2643378345040637 
0.6999999999999392, -1.2381748136393806 
0.7099999999999381, -1.2269225209167582 
0.719999999999937, -1.22563283208131 
0.7299999999999359, -1.227105615724026 
0.7399999999999348, -1.2281725645028483 
0.7499999999999337, -1.2280188148834144 
0.7599999999999326, -1.2260594555964415 
0.7699999999999315, -1.2205579878034547 
0.7799999999999304, -1.2060096221280123 
0.7899999999999293, -1.1643868752985944 
0.7999999999999282, -1.038050749204523 
0.8099999999999271, -0.71956072260712 
0.819999999999926, -0.32454566746228186 
0.8299999999999249, -0.11467480178438834 
0.8399999999999238, -0.03440763556085177 
0.8499999999999227, -0.0019321540979389796 
0.8599999999999216, 0.012636718858732115 
0.8699999999999205, 0.019905899525040373 
0.8799999999999194, 0.023772950866859238 
0.8899999999999183, 0.025874065273312985 
0.8999999999999172, 0.026979871524474546 
0.9099999999999161, 0.027476805413426057 
0.919999999999915, 0.02755119167782738 
0.9299999999999139, 0.027257898022574473 
0.9399999999999128, 0.02652978866244913 
0.9499999999999117, 0.025131715019306267 
0.9599999999999106, 0.02252474344443952 
0.9699999999999095, 0.017582071861452102 
0.9799999999999084, 0.008441824750664576 
0.9899999999999073, -0.001938219333706864 
0.9999999999999062, 0.06839350565457995 
1.0099999999999052, 0.6756714998228646 
1.019999999999904, 1.1041667685653453 
1.029999999999903, 1.1657826770939188 
1.039999999999902, 1.1775063790797673 
1.0499999999999008, 1.1803118895260094 
1.0599999999998997, 1.180104171253281 
1.0699999999998986, 1.1771370690439025 
1.0799999999998975, 1.167754044914484 
1.0899999999998964, 1.1370349434140015 
1.0999999999998953, 1.0537961183075737 
1.1099999999998942, 0.9831680179992613 
1.119999999999893, 0.9843152955204625 
1.129999999999892, 0.9941862823130713 
1.1399999999998909, 0.9991128652566074 
1.1499999999998898, 1.0009002312631137 
1.1599999999998887, 1.000748584152384 
1.1699999999998876, 0.9985307768269577 
1.1799999999998865, 0.9921804382888835 
1.1899999999998854, 0.9740199896635534 
1.1999999999998843, 0.9275713904785021 
1.2099999999998832, 1.0165195772655147 
1.219999999999882, 1.311153151707566 
1.229999999999881, 1.3789467790670273 
1.2399999999998799, 1.3914019124662065 
1.2499999999998788, 1.3941333931315918 
1.2599999999998777, 1.393634545969435 
1.2699999999998766, 1.38941472504241 
1.2799999999998755, 1.3712902565015337 
1.2899999999998744, 1.2488173216126648 
1.2999999999998733, 0.6624118178868474 
1.3099999999998722, 0.5509320263440828 
1.319999999999871, 0.6125621079588692 
1.32999999999987, 0.6380243093541905 
1.3399999999998689, 0.6476006302728379 
1.3499999999998678, 0.6513923213975282 
1.3599999999998666, 0.6526244811779023 
1.3699999999998655, 0.652230171478009 
1.3799999999998644, 0.6500436946497558 
1.3899999999998633, 0.6445202319985297 
1.3999999999998622, 0.6301085058639546 
1.4099999999998611, 0.583979295819897 
1.41999999999986, 0.3982227234000046 
1.429999999999859, 0.10976073323158386 
1.4399999999998578, 2.4990313011894942 
1.4499999999998567, 2.603995638314021 
1.4599999999998556, 2.609253563122205 
1.4699999999998545, 2.6080679888191067 
1.4799999999998534, 2.594175586614627 
1.4899999999998523, 1.792966163339837 
1.4999999999998512, -3.2754577104918106 
1.5099999999998501, -3.397415284389448 
1.519999999999849, -3.4046717947123213 
1.529999999999848, -3.4048387291097457 
1.5399999999998468, -3.403622061598201 
1.5499999999998457, -3.4004824340803106 
1.5599999999998446, -3.395846106678293 
1.5699999999998435, -3.3963031109448627 
1.5799999999998424, -3.3959586499524597 
1.5899999999998413, -3.3914696110920497 
1.5999999999998402, -3.3945371639848423 
1.6099999999998391, -3.4050644316815166 
1.619999999999838, -3.4080481659142343 
1.629999999999837, -3.4082390423178075 
1.6399999999998358, -3.40575808803728 
1.6499999999998347, -3.3905955308143683 
1.6599999999998336, -3.1557547252720304 
1.6699999999998325, 1.1493476513439052 
1.6799999999998314, 1.5306543977901081 
1.6899999999998303, 1.551911146985125 
1.6999999999998292, 1.555432031814103 
1.709999999999828, 1.5554550801986546 
1.719999999999827, 1.5531853266875173 
1.729999999999826, 1.5467349646752 
1.7399999999998248, 1.5318370383344946 
1.7499999999998237, 1.512470910509667 
1.7599999999998226, 1.5066164721351065 
1.7699999999998215, 1.5092073608333516 
1.7799999999998204, 1.511134272193448 
1.7899999999998193, 1.5111239563708285 
1.7999999999998182, 1.508578410186476 
1.809999999999817, 1.5001156604197428 
1.819999999999816, 1.480167897526576 
1.8299999999998149, 1.5171885553783422 
1.8399999999998138, 1.6045762681182965 
1.8499999999998127, 1.6302148923738105 
1.8599999999998116, 1.6360399851765206 
1.8699999999998105, 1.6368606201474614 
1.8799999999998094, 1.6346097624803448 
1.8899999999998083, 1.6230436741722563 
1.8999999999998072, 1.5059856380798244 
1.909999999999806, -1.6953866862268103 
1.919999999999805, -2.836874568797418 
1.9299999999998039, -2.883780411391114 
1.9399999999998028, -2.8894761251487577 
1.9499999999998017, -2.8898506975285887 
1.9599999999998006, -2.889038760711943 
1.9699999999997995, -2.887501755132745 
1.9799999999997984, -2.884418274691703 
1.9899999999997973, -2.882358688381312 
1.9999999999997962, -2.8826394732771154 
2.0099999999998173, -2.881220743302644 
2.0199999999998384, -2.872911425713432 
2.0299999999998595, -2.8625434728034267 
2.0399999999998806, -2.9113808060227124 
2.0499999999999017, -2.935620076433042 
2.059999999999923, -2.941790359483298 
2.069999999999944, -2.9432967975304836 
2.079999999999965, -2.9424939408826942 
2.089999999999986, -2.938527664793132 
2.100000000000007, -2.925371776629498 
2.1100000000000283, -2.8608752381448666 
2.1200000000000494, -2.0893169374028977 
2.1300000000000705, 0.1699950542729522 
2.1400000000000916, 0.5625740488132737 
2.1500000000001127, 0.6237039844450551 
2.160000000000134, 0.6396409835709523 
2.170000000000155, 0.645053991593697 
2.180000000000176, 0.6468900759331294 
2.190000000000197, 0.6470117657415234 
2.2000000000002182, 0.6458619114471099 
2.2100000000002393, 0.643212474419101 
2.2200000000002604, 0.6383009425406714 
2.2300000000002815, 0.6308852135994893 
2.2400000000003026, 0.6317350007856948 
2.2500000000003237, 0.695827112821984 
2.260000000000345, 0.8202973778072083 
2.270000000000366, 0.8860089814056964 
2.280000000000387, 0.907158731972201 
2.290000000000408, 0.9139570072574379 
2.3000000000004293, 0.9159497202586386 
2.3100000000004504, 0.9155758170569014 
2.3200000000004715, 0.9127163102619587 
2.3300000000004926, 0.9045356199192401 
2.3400000000005137, 0.8806016533524655 
2.3500000000005348, 0.8124960529756743 
2.360000000000556, 0.7044008142432278 
2.370000000000577, 0.6582021763659698 
2.380000000000598, 0.6589624015862012 
2.390000000000619, 0.6649194803821007 
2.4000000000006403, 0.6686402923332763 
2.4100000000006614, 0.6704068356921419 
2.4200000000006825, 0.6707941616156631 
2.4300000000007036, 0.669868237518382 
2.4400000000007247, 0.6669278517458954 
2.450000000000746, 0.6593179681396751 
2.460000000000767, 0.6364280260507109 
2.470000000000788, 0.5372106850672921 
2.480000000000809, -0.22175817096232878 
2.49000000000083, -2.622003757159559 
2.5000000000008513, -2.9540079888430073 
2.5100000000008724, -2.9880191259525377 
2.5200000000008935, -2.9954356168646887 
2.5300000000009146, -2.996993803129034 
2.5400000000009357, -2.995980443561415 
2.550000000000957, -2.9920815373599163 
2.560000000000978, -2.9793129443008604 
2.570000000000999, -2.9309984708736625 
2.58000000000102, -2.9005871792791145 
2.5900000000010412, -2.9174613512346226 
2.6000000000010624, -2.9210940237353156 
2.6100000000010835, -2.9205583001579116 
2.6200000000011046, -2.9201363287516653 
2.6300000000011257, -2.9219824796332623 
2.6400000000011468, -2.923036904271732 
2.650000000001168, -2.923075722768025 
2.660000000001189, -2.922576664492806 
2.67000000000121, -2.9194505932323134 
2.680000000001231, -2.9005048254181593 
2.6900000000012523, -2.6197506205016095 
2.7000000000012734, 1.5211928674285868 
2.7100000000012945, 1.9822376641215076 
2.7200000000013156, 1.9998334997942826 
2.7300000000013367, 2.0018783648096288 
2.740000000001358, 2.0000446404252834 
2.750000000001379, 1.988948210744773 
2.7600000000014, 1.8868379781853144 
2.770000000001421, 1.4950379813059462 
2.780000000001442, 1.6159879937843762 
2.7900000000014633, 1.6434529277824734 
2.8000000000014844, 1.6484894636264342 
2.8100000000015055, 1.6491484755617278 
2.8200000000015266, 1.6485318378857585 
2.8300000000015477, 1.648334829818562 
2.840000000001569, 1.6505523717066997 
2.85000000000159, 1.6547423339627572 
2.860000000001611, 1.6581641296595837 
2.870000000001632, 1.659831220223428 
2.8800000000016532, 1.6601220043589973 
2.8900000000016743, 1.6590646324938354 
2.9000000000016954, 1.6545444426515405 
2.9100000000017165, 1.6276601009745932 
2.9200000000017377, 0.8888057510609407 
2.9300000000017588, -3.526053018584814 
2.94000000000178, -3.6468786449536807 
2.950000000001801, -3.656765542076677 
2.960000000001822, -3.657587986847667 
2.970000000001843, -3.6552140174669283 
2.9800000000018643, -3.644670330872271 
2.9900000000018854, -3.589289994746976 
3.0000000000019065, -3.589731865229777 
3.0100000000019276, -3.6003332262098473 
3.0200000000019487, -3.6006825344548234 
3.03000000000197, -3.600177827860022 
3.040000000001991, -3.6003746359122095 
3.050000000002012, -3.5995005923500707 
3.060000000002033, -3.599004061265318 
3.070000000002054, -3.596650794144002 
3.0800000000020753, -3.576785713662377 
3.0900000000020964, -3.5876247620108423 
3.1000000000021175, -3.673469265343763 
3.1100000000021386, -3.684356767654669 
3.1200000000021597, -3.6857688939266424 
3.130000000002181, -3.683824881669705 
3.140000000002202, -3.6732882632089883 
3.150000000002223, -3.563540231414124 
3.160000000002244, 0.753099067496442 
3.1700000000022652, 1.617253335334683 
3.1800000000022863, 1.6463896380983354 
3.1900000000023074, 1.6506899348201476 
3.2000000000023285, 1.6513692547163565 
3.2100000000023496, 1.6509542547679892 
3.2200000000023707, 1.649782668281868 
3.230000000002392, 1.6477487125153119 
3.240000000002413, 1.6451726433190401 
3.250000000002434, 1.6431808821775153 
3.260000000002455, 1.6424022538762504 
3.2700000000024763, 1.6420692230338012 
3.2800000000024974, 1.640814108016107 
3.2900000000025185, 1.6355412422684403 
3.3000000000025396, 1.6062092085822663 
3.3100000000025607, 1.28902892379044 
3.3200000000025818, 2.282355814989649 
3.330000000002603, 2.542608249021942 
3.340000000002624, 2.552368085004555 
3.350000000002645, 2.5524224728506826 
3.360000000002666, 2.5454975244408216 
3.3700000000026873, 2.3957660354309107 
3.3800000000027084, -3.2598840374075833 
3.3900000000027295, -3.580614828164875 
3.4000000000027506, -3.591801494053434 
3.4100000000027717, -3.5923128585455393 
3.420000000002793, -3.5909375640768415 
3.430000000002814, -3.5869070834122825 
3.440000000002835, -3.5806102595778073 
3.450000000002856, -3.581906432506745 
3.460000000002877, -3.5817567939706096 
3.4700000000028983, -3.5786429347045776 
3.4800000000029194, -3.5826194895609085 
3.4900000000029405, -3.5870818610501813 
3.5000000000029616, -3.587854518073521 
3.5100000000029827, -3.5869521915786486 
3.520000000003004, -3.5800360063976653 
3.530000000003025, -3.4788434506876493 
3.540000000003046, 1.743974343406356 
3.550000000003067, 2.3863677598676123 
3.5600000000030882, 2.399942140108529 
3.5700000000031094, 2.4007340422591534 
3.5800000000031305, 2.3964884567100753 
3.5900000000031516, 2.355534756461933 
3.6000000000031727, 1.6043581383292864 
3.6100000000031938, 1.8176565368304505 
3.620000000003215, 1.868271257141386 
3.630000000003236, 1.8746327821353563 
3.640000000003257, 1.8754845838204186 
3.650000000003278, 1.8752804124987488 
3.6600000000032993, 1.8755320138753717 
3.6700000000033204, 1.8766087439249497 
3.6800000000033415, 1.8776252253510628 
3.6900000000033626, 1.8779864630731802 
3.7000000000033837, 1.8778216912465795 
3.710000000003405, 1.8770488454712564 
3.720000000003426, 1.8741316660271115 
3.730000000003447, 1.8577934537130727 
3.740000000003468, 1.529617611328277 
3.750000000003489, -3.97003088608597 
3.7600000000035103, -4.168168171985128 
3.7700000000035314, -4.176789746392399 
3.7800000000035525, -4.176776050629377 
3.7900000000035736, -4.17166706769261 
3.8000000000035947, -4.120789532759797 
3.810000000003616, -3.352648348230099 
3.820000000003637, -3.6725612608651743 
3.830000000003658, -3.6881020927619184 
3.840000000003679, -3.6887836766199933 
3.8500000000037002, -3.6879016245160563 
3.8600000000037213, -3.6857760173119716 
3.8700000000037424, -3.682603502651007 
3.8800000000037635, -3.6828677145186957 
3.8900000000037847, -3.6812424178276593 
3.9000000000038058, -3.6751951990504805 
3.910000000003827, -3.6860937929425504 
3.920000000003848, -3.6934899042262854 
3.930000000003869, -3.6946629091163694 
3.94000000000389, -3.6934062651474706 
3.9500000000039113, -3.684096391098771 
3.9600000000039324, -3.530798561134264 
3.9700000000039535, 1.5742304818482455 
3.9800000000039746, 1.925196871543251 
3.9900000000039957, 1.9396992867379061 
4.000000000004016, 1.9414423407709425 
4.010000000003993, 1.9398437495718617 
4.02000000000397, 1.9320403521818175 
4.030000000003946, 1.8958588104473961 
4.040000000003923, 1.8208037084321937 
4.0500000000039, 1.8332561905333595 
4.0600000000038765, 1.8448971821664604 
4.070000000003853, 1.847543117190495 
4.08000000000383, 1.8471418299730282 
4.090000000003807, 1.8453710423692435 
4.100000000003783, 1.8454915058091952 
4.11000000000376, 1.8519932116554212 
4.120000000003737, 1.85937113247006 
4.130000000003713, 1.8629869065759082 
4.14000000000369, 1.8639523022483064 
4.150000000003667, 1.863155155522628 
4.1600000000036434, 1.8587283676983606 
4.17000000000362, 1.827234406309336 
4.180000000003597, 0.15580397785537228 
4.1900000000035735, -3.798243424965986 
4.20000000000355, -3.8551628449901743 
4.210000000003527, -3.8602209899723072 
4.220000000003504, -3.8596280341720566 
4.23000000000348, -3.854749653741076 
4.240000000003457, -3.8237043213016326 
4.250000000003434, -3.769930324167279 
4.26000000000341, -3.7955217345927545 
4.270000000003387, -3.7978795901247606 
4.280000000003364, -3.7972177613211686 
4.2900000000033405, -3.7970312397154915 
4.300000000003317, -3.7957643703748714 
4.310000000003294, -3.7951256686814743 
4.320000000003271, -3.7934380985521137 
4.330000000003247, -3.7800844526508777 
4.340000000003224, -3.7944062190538412 
4.350000000003201, -3.8269683346365873 
4.360000000003177, -3.831679987356222 
4.370000000003154, -3.8316000382353232 
4.380000000003131, -3.8270432952450464 
4.390000000003107, -3.7901222728945116 
4.400000000003084, -1.5456507876569863 
4.410000000003061, 1.7825144698524074 
4.4200000000030375, 1.8317771801549096 
4.430000000003014, 1.8370953945261377 
4.440000000002991, 1.8375696408651385 
4.450000000002968, 1.8359624425014833 
4.460000000002944, 1.8311075025349168 
4.470000000002921, 1.820342859829129 
4.480000000002898, 1.80875473181699 
4.490000000002874, 1.8073728225201027 
4.500000000002851, 1.8094913924156473 
4.510000000002828, 1.8100392635690679 
4.520000000002804, 1.808106149343671 
4.530000000002781, 1.8009381871489363 
4.540000000002758, 1.7889865753736616 
4.5500000000027345, 1.8260586128140912 
4.560000000002711, 1.8656061468699736 
4.570000000002688, 1.8761862958596214 
4.580000000002665, 1.8783918310743761 
4.590000000002641, 1.877467427218821 
4.600000000002618, 1.8708716341282272 
4.610000000002595, 1.8085796144281137 
4.620000000002571, -2.1808905467354505 
4.630000000002548, -3.664517633939348 
4.640000000002525, -3.6917652552590603 
4.6500000000025015, -3.6940939340119305 
4.660000000002478, -3.6929084166073514 
4.670000000002455, -3.6882312938966457 
4.6800000000024315, -3.672586761883584 
4.690000000002408, -3.6709844045665934 
4.700000000002385, -3.6746961560741576 
4.710000000002362, -3.6737279212013254 
4.720000000002338, -3.6737687022258867 
4.730000000002315, -3.675606546730171 
4.740000000002292, -3.6756456457352433 
4.750000000002268, -3.6750275971093194 
4.760000000002245, -3.6703769626830605 
4.770000000002222, -3.6080229691939296 
4.7800000000021985, -3.7551370999391636 
4.790000000002175, -4.05190046095334 
4.800000000002152, -4.065005242795747 
4.810000000002129, -4.066030632633299 
4.820000000002105, -4.0628470165779484 
4.830000000002082, -4.041009699131949 
4.840000000002059, -2.991033141243212 
4.850000000002035, 1.6446370686472798 
4.860000000002012, 1.7581966243257683 
4.870000000001989, 1.7679200267509418 
4.880000000001965, 1.769535756850047 
4.890000000001942, 1.7695884143927345 
4.900000000001919, 1.769227649799196 
4.9100000000018955, 1.768559910462964 
4.920000000001872, 1.7674635863588821 
4.930000000001849, 1.7662495917024892 
4.940000000001826, 1.7654734472820528 
4.950000000001802, 1.764985265183644 
4.960000000001779, 1.7637011231203785 
4.970000000001756, 1.7582857930067823 
4.980000000001732, 1.7229689498186365 
4.990000000001709, 1.1085307015323125 
