t, s[1].omega / s[0].omega 
0, -0.47995004665923346 
0.009999999999999995, -0.475640905495945 
0.019999999999999934, -0.4724649586163111 
0.029999999999999874, -0.4701083788317508 
0.04000000000000012, -0.4683168069013566 
0.050000000000000405, -0.4669054546558252 
0.06000000000000069, -0.4657628025094585 
0.07000000000000098, -0.46485303799925004 
0.08000000000000126, -0.46421712208224947 
0.09000000000000155, -0.46397720773946016 
0.10000000000000184, -0.4643511839044474 
0.11000000000000212, -0.4656824835096499 
0.12000000000000241, -0.46848930727593413 
0.130000000000002, -0.47353940615858814 
0.1400000000000009, -0.48196164299467686 
0.1499999999999998, -0.49541285052965006 
0.1599999999999987, -0.5163245045827984 
0.1699999999999976, -0.5482444987075652 
0.1799999999999965, -0.5962160385961799 
0.1899999999999954, -0.6668468921179592 
0.1999999999999943, -0.7668548961228733 
0.2099999999999932, -0.8972843379481578 
0.2199999999999921, -1.0422736446331728 
0.229999999999991, -1.1674446924990505 
0.2399999999999899, -1.2478890712600403 
0.2499999999999888, -1.288501505552997 
0.2599999999999877, -1.3063705702743014 
0.2699999999999866, -1.3137327944237496 
0.2799999999999855, -1.3164881091216691 
0.2899999999999844, -1.3171078218505703 
0.2999999999999833, -1.3166880509373953 
0.3099999999999822, -1.3161028518734599 
0.3199999999999811, -1.3166697954565378 
0.32999999999998, -1.3197512404356986 
0.3399999999999789, -1.3252473830720748 
0.3499999999999778, -1.3315551427896986 
0.35999999999997667, -1.3372841328708114 
0.36999999999997557, -1.3419848003328094 
0.37999999999997447, -1.3457313094142411 
0.38999999999997337, -1.3486918850812453 
0.39999999999997227, -1.3509916092533085 
0.40999999999997117, -1.3527144518733487 
0.41999999999997006, -1.3539118361430649 
0.42999999999996896, -1.3545969864399223 
0.43999999999996786, -1.3547506423308513 
0.44999999999996676, -1.354350772061192 
0.45999999999996566, -1.3534110053631345 
0.46999999999996456, -1.3520004116502944 
0.47999999999996346, -1.3502204599452585 
0.48999999999996235, -1.3481388455955101 
0.49999999999996125, -1.3457663667349595 
0.5099999999999602, -1.3432001826668585 
0.519999999999959, -1.3408359737808886 
0.529999999999958, -1.3392487590623459 
0.5399999999999568, -1.3386207293412333 
0.5499999999999557, -1.338481610408551 
0.5599999999999546, -1.3381157535510155 
0.5699999999999535, -1.336839677713177 
0.5799999999999524, -1.3338088470306106 
0.5899999999999513, -1.32766998905139 
0.5999999999999502, -1.3164321078983336 
0.6099999999999491, -1.2979541964014742 
0.619999999999948, -1.27094262293072 
0.6299999999999469, -1.2353214890284072 
0.6399999999999458, -1.1914089798023235 
0.6499999999999447, -1.139176488547963 
0.6599999999999436, -1.0790264962084284 
0.6699999999999425, -1.0143363777676309 
0.6799999999999414, -0.9536153008611613 
0.6899999999999403, -0.9073021276228411 
0.6999999999999392, -0.879916806456152 
0.7099999999999381, -0.8677293297563831 
0.719999999999937, -0.8640032704528695 
0.7299999999999359, -0.8636795377916447 
0.7399999999999348, -0.864184315161024 
0.7499999999999337, -0.8644697588965318 
0.7599999999999326, -0.8640953947821547 
0.7699999999999315, -0.8627171568305412 
0.7799999999999304, -0.8598476975979373 
0.7899999999999293, -0.8548140851652162 
0.7999999999999282, -0.8470107365184909 
0.8099999999999271, -0.8364692618326621 
0.819999999999926, -0.8242160870996788 
0.8299999999999249, -0.8117719840570015 
0.8399999999999238, -0.8002734158503001 
0.8499999999999227, -0.7901523456584202 
0.8599999999999216, -0.7813657151680174 
0.8699999999999205, -0.7736996243172196 
0.8799999999999194, -0.7669440618897931 
0.8899999999999183, -0.7609588667615745 
0.8999999999999172, -0.7556851787962808 
0.9099999999999161, -0.7511333208930691 
0.919999999999915, -0.747358123127576 
0.9299999999999139, -0.7444230445198885 
0.9399999999999128, -0.7423561299428255 
0.9499999999999117, -0.7411117217286004 
0.9599999999999106, -0.7405586307503558 
0.9699999999999095, -0.7405040418311561 
0.9799999999999084, -0.7407397059280568 
0.9899999999999073, -0.7410867241990559 
0.9999999999999062, -0.7414255778712187 
1.0099999999999052, -0.7417113484555986 
1.019999999999904, -0.7419741331578961 
1.029999999999903, -0.7422990793939005 
1.039999999999902, -0.7427866006705482 
1.0499999999999008, -0.7435061801596092 
1.0599999999998997, -0.7444574872431388 
1.0699999999998986, -0.7455477207241492 
1.0799999999998975, -0.7466021591371447 
1.0899999999998964, -0.7474235485113152 
1.0999999999998953, -0.7478750974091469 
1.1099999999998942, -0.747930074155968 
1.119999999999893, -0.7476711231020382 
1.129999999999892, -0.7472796685897192 
1.1399999999998909, -0.7470547148595472 
1.1499999999998898, -0.7474575730610672 
1.1599999999998887, -0.7491344480243853 
1.1699999999998876, -0.7528477964171454 
1.1799999999998865, -0.7592896606539095 
1.1899999999998854, -0.7688624837362563 
1.1999999999998843, -0.7815873924239986 
1.2099999999998832, -0.7972180542909172 
1.219999999999882, -0.8154747076014429 
1.229999999999881, -0.8362464636546735 
1.2399999999998799, -0.8596589004856534 
1.2499999999998788, -0.885937944170108 
1.2599999999998777, -0.9149524653498071 
1.2699999999998766, -0.9453704882432831 
1.2799999999998755, -0.9740308623484306 
1.2899999999998744, -0.9970585903969507 
1.2999999999998733, -1.012541932310857 
1.3099999999998722, -1.0214453972192419 
1.319999999999871, -1.0259416694648136 
1.32999999999987, -1.0278406340420516 
1.3399999999998689, -1.0282270820760853 
1.3499999999998678, -1.0277053775546392 
1.3599999999998666, -1.02680893490882 
1.3699999999998655, -1.0265699973178277 
1.3799999999998644, -1.029155077981796 
1.3899999999998633, -1.0376220788359864 
1.3999999999998622, -1.0536827653449818 
1.4099999999998611, -1.0755285470095965 
1.41999999999986, -1.0992379561797336 
1.429999999999859, -1.121805001370407 
1.4399999999998578, -1.142104004495654 
1.4499999999998567, -1.160150787399797 
1.4599999999998556, -1.1762474329283756 
1.4699999999998545, -1.1904990739873327 
1.4799999999998534, -1.202648531532957 
1.4899999999998523, -1.2122246470937734 
1.4999999999998512, -1.218950877631411 
1.5099999999998501, -1.223047701165089 
1.519999999999849, -1.2251151516760626 
1.529999999999848, -1.2258128659287064 
1.5399999999998468, -1.2257010332570408 
1.5499999999998457, -1.2253002646284785 
1.5599999999998446, -1.2251837905374936 
1.5699999999998435, -1.2258444509070192 
1.5799999999998424, -1.227367839420624 
1.5899999999998413, -1.229397688827695 
1.5999999999998402, -1.2315056840535759 
1.6099999999998391, -1.2334625422728713 
1.619999999999838, -1.2351988391517978 
1.629999999999837, -1.2366707823350287 
1.6399999999998358, -1.2378143253914748 
1.6499999999998347, -1.2385784807040303 
1.6599999999998336, -1.2389556605801344 
1.6699999999998325, -1.2389734442905058 
1.6799999999998314, -1.2386614564116936 
1.6899999999998303, -1.2380227495692286 
1.6999999999998292, -1.2370320230959106 
1.709999999999828, -1.235661610828612 
1.719999999999827, -1.2339141695848126 
1.729999999999826, -1.2318326082128679 
1.7399999999998248, -1.2294731128621288 
1.7499999999998237, -1.2268762806786035 
1.7599999999998226, -1.2241163967947803 
1.7699999999998215, -1.2214363778323098 
1.7799999999998204, -1.2192841940415946 
1.7899999999998193, -1.2180330008586178 
1.7999999999998182, -1.2176009003196255 
1.809999999999817, -1.2174864818678162 
1.819999999999816, -1.2171073131061472 
1.8299999999998149, -1.2159411473633437 
1.8399999999998138, -1.2134327290741862 
1.8499999999998127, -1.2089262212441507 
1.8599999999998116, -1.2018165874096438 
1.8699999999998105, -1.1918767391127494 
1.8799999999998094, -1.1793988929945558 
1.8899999999998083, -1.1649038473566988 
1.8999999999998072, -1.148719951057287 
1.909999999999806, -1.1308186954144996 
1.919999999999805, -1.110959026904513 
1.9299999999998039, -1.0891066490481751 
1.9399999999998028, -1.0661612297943712 
1.9499999999998017, -1.044646099968597 
1.9599999999998006, -1.0280967001487469 
1.9699999999997995, -1.018542184466456 
1.9799999999997984, -1.0148510925963756 
1.9899999999997973, -1.0142657143803244 
1.9999999999997962, -1.0145879100947774 
2.0099999999998173, -1.0146878312446952 
2.0199999999998384, -1.0140026062418193 
2.0299999999998595, -1.0119962179783895 
2.0399999999998806, -1.0077851819006496 
2.0499999999999017, -0.9999463883570167 
2.059999999999923, -0.9868175036777945 
2.069999999999944, -0.9676813771585365 
2.079999999999965, -0.943989095115457 
2.089999999999986, -0.9187079552220763 
2.100000000000007, -0.894334713172394 
2.1100000000000283, -0.871979693812053 
2.1200000000000494, -0.8517809851142415 
2.1300000000000705, -0.8335539832675785 
2.1400000000000916, -0.8171791455685758 
2.1500000000001127, -0.8027496315750333 
2.160000000000134, -0.7905566772922856 
2.170000000000155, -0.7809418864417873 
2.180000000000176, -0.7740692910540142 
2.190000000000197, -0.7697495494067423 
2.2000000000002182, -0.7674498691242018 
2.2100000000002393, -0.7664789963209858 
2.2200000000002604, -0.7661968106550922 
2.2300000000002815, -0.7661223612502162 
2.2400000000003026, -0.76593514103755 
2.2500000000003237, -0.7654357329742183 
2.260000000000345, -0.764524335989473 
2.270000000000366, -0.7632108502981643 
2.280000000000387, -0.7616212511738382 
2.290000000000408, -0.7599541104914748 
2.3000000000004293, -0.7583958222408274 
2.3100000000004504, -0.7570536422975233 
2.3200000000004715, -0.7559400448890985 
2.3300000000004926, -0.7549948869454969 
2.3400000000005137, -0.7541249656609074 
2.3500000000005348, -0.7532498880583249 
2.360000000000556, -0.7523412705827973 
2.370000000000577, -0.751442444534626 
2.380000000000598, -0.7506668307555013 
2.390000000000619, -0.7501795819311076 
2.4000000000006403, -0.7501644552159903 
2.4100000000006614, -0.7507803849562644 
2.4200000000006825, -0.7521234376721331 
2.4300000000007036, -0.7542137007880455 
2.4400000000007247, -0.7570125770370594 
2.450000000000746, -0.7604574306336549 
2.460000000000767, -0.7644964225021724 
2.470000000000788, -0.7691156851808799 
2.480000000000809, -0.774359030680183 
2.49000000000083, -0.7803388949079125 
2.5000000000008513, -0.7872283414911541 
2.5100000000008724, -0.7952100487733491 
2.5200000000008935, -0.8043421792131911 
2.5300000000009146, -0.814322000364653 
2.5400000000009357, -0.8242847065395928 
2.550000000000957, -0.8329943879986883 
2.560000000000978, -0.8395106013207629 
2.570000000000999, -0.8436707596023629 
2.58000000000102, -0.8458988229982065 
2.5900000000010412, -0.846747367498458 
2.6000000000010624, -0.8466505300740412 
2.6100000000010835, -0.8459377414350732 
2.6200000000011046, -0.845041864001294 
2.6300000000011257, -0.8449572073473763 
2.6400000000011468, -0.8480560631222636 
2.650000000001168, -0.8589716535628442 
2.660000000001189, -0.8840801780063027 
2.67000000000121, -0.9276432779108974 
2.680000000001231, -0.9867131277983185 
2.6900000000012523, -1.0519194158781089 
2.7000000000012734, -1.114367140035142 
2.7100000000012945, -1.1697358650701453 
2.7200000000013156, -1.216957396432181 
2.7300000000013367, -1.2556899717159504 
2.740000000001358, -1.2853155673759997 
2.750000000001379, -1.3056447426839923 
2.7600000000014, -1.3179004403505332 
2.770000000001421, -1.3243939559377198 
2.780000000001442, -1.3273672800565053 
2.7900000000014633, -1.3283605606007958 
2.8000000000014844, -1.3283059030176192 
2.8100000000015055, -1.3279016313941416 
2.8200000000015266, -1.3278885348774447 
2.8300000000015477, -1.3288685109029905 
2.840000000001569, -1.3308083953700858 
2.85000000000159, -1.3331209458185307 
2.860000000001611, -1.3352901602138936 
2.870000000001632, -1.337138044910712 
2.8800000000016532, -1.33865108430595 
2.8900000000016743, -1.3397941314621884 
2.9000000000016954, -1.3404918639616474 
2.9100000000017165, -1.3406873514423006 
2.9200000000017377, -1.340371920901017 
2.9300000000017588, -1.3395703126598062 
2.94000000000178, -1.3383055396549408 
2.950000000001801, -1.336572362082885 
2.960000000001822, -1.3343359978599705 
2.970000000001843, -1.3315467201960571 
2.9800000000018643, -1.3281421246506222 
2.9900000000018854, -1.3240302886251825 
3.0000000000019065, -1.3191317136559566 
3.0100000000019276, -1.313621585429431 
3.0200000000019487, -1.3083106698039817 
3.03000000000197, -1.3045071105796668 
3.040000000001991, -1.302848068284296 
3.050000000002012, -1.3026039849386968 
3.060000000002033, -1.3025765614201612 
3.070000000002054, -1.3018644792950569 
3.0800000000020753, -1.2996143310599173 
3.0900000000020964, -1.2942839259114833 
3.1000000000021175, -1.28259582092443 
3.1100000000021386, -1.2584389507676081 
3.1200000000021597, -1.2137186608223165 
3.130000000002181, -1.1440610948276229 
3.140000000002202, -1.0550029247750794 
3.150000000002223, -0.9589396409124594 
3.160000000002244, -0.8672177924071038 
3.1700000000022652, -0.7870747965087104 
3.1800000000022863, -0.7222215178973284 
3.1900000000023074, -0.6735451824314611 
3.2000000000023285, -0.6396537134926378 
3.2100000000023496, -0.61774144636649 
3.2200000000023707, -0.6045862811028447 
3.230000000002392, -0.5972839315485172 
3.240000000002413, -0.5935856379884205 
3.250000000002434, -0.5919308999170575 
3.260000000002455, -0.5913231411774653 
3.2700000000024763, -0.5911630705376258 
3.2800000000024974, -0.5911035945601758 
3.2900000000025185, -0.5909511618493013 
3.3000000000025396, -0.5906159211098245 
3.3100000000025607, -0.5900983350198084 
3.3200000000025818, -0.5894853178929079 
3.330000000002603, -0.588925661397073 
3.340000000002624, -0.58857965806676 
3.350000000002645, -0.5885687531371475 
3.360000000002666, -0.5889454041398665 
3.3700000000026873, -0.5896766823510096 
3.3800000000027084, -0.5906355411005962 
3.3900000000027295, -0.5916192843815007 
3.4000000000027506, -0.5924136769602891 
3.4100000000027717, -0.5928723798504667 
3.420000000002793, -0.5929555826386456 
3.430000000002814, -0.5927202468637415 
3.440000000002835, -0.5923087370650477 
3.450000000002856, -0.5919874639925199 
3.460000000002877, -0.5922780773822031 
3.4700000000028983, -0.5942390554612484 
3.4800000000029194, -0.5999908094961393 
3.4900000000029405, -0.6135855018852798 
3.5000000000029616, -0.6421365253789177 
3.5100000000029827, -0.696234140518526 
3.520000000003004, -0.7864879835296712 
3.530000000003025, -0.9129067168729957 
3.540000000003046, -1.056311433408948 
3.550000000003067, -1.1898818510909086 
3.5600000000030882, -1.2973313126443329 
3.5700000000031094, -1.3746269625002585 
3.5800000000031305, -1.4242904868237705 
3.5900000000031516, -1.4524855541735353 
3.6000000000031727, -1.466731740213059 
3.6100000000031938, -1.4732352720744983 
3.620000000003215, -1.4758199364873577 
3.630000000003236, -1.4764627590471675 
3.640000000003257, -1.4762096283867658 
3.650000000003278, -1.4758598439322248 
3.6600000000032993, -1.476120011528857 
3.6700000000033204, -1.4771585492075903 
3.6800000000033415, -1.4785033463959354 
3.6900000000033626, -1.4796946220549638 
3.7000000000033837, -1.480639672541265 
3.710000000003405, -1.4813748495274512 
3.720000000003426, -1.4817995645706081 
3.730000000003447, -1.481685767011954 
3.740000000003468, -1.4807907209917386 
3.750000000003489, -1.4789099887635084 
3.7600000000035103, -1.4758918952506614 
3.7700000000035314, -1.4716200843710596 
3.7800000000035525, -1.4659371109365045 
3.7900000000035736, -1.458518965410763 
3.8000000000035947, -1.4487197029793477 
3.810000000003616, -1.4354213941995915 
3.820000000003637, -1.4172068980565986 
3.830000000003658, -1.3939919424100706 
3.840000000003679, -1.3708454643824173 
3.8500000000037002, -1.3568836278166176 
3.8600000000037213, -1.353656235675643 
3.8700000000037424, -1.3548370583025737 
3.8800000000037635, -1.3560455483040612 
3.8900000000037847, -1.3560109046741986 
3.9000000000038058, -1.3540494730884558 
3.910000000003827, -1.3481019149135498 
3.920000000003848, -1.330751846490727 
3.930000000003869, -1.2720530133339645 
3.94000000000389, -1.034582815399533 
3.9500000000039113, -0.2588841838662979 
3.9600000000039324, 0.36399634650343543 
3.9700000000039535, 0.5030793606192261 
3.9800000000039746, 0.5355195334406561 
3.9900000000039957, 0.545669350328198 
4.000000000004016, 0.549353738664293 
4.010000000003993, 0.550524383336771 
4.02000000000397, 0.5503957165639839 
4.030000000003946, 0.549396915240405 
4.040000000003923, 0.5477457934336476 
4.0500000000039, 0.5456798197528878 
4.0600000000038765, 0.5435289419447737 
4.070000000003853, 0.5416535612454374 
4.08000000000383, 0.5403200960600718 
4.090000000003807, 0.5396250742399391 
4.100000000003783, 0.5395031470166132 
4.11000000000376, 0.5397766121729485 
4.120000000003737, 0.5402080221130546 
4.130000000003713, 0.5405431303709893 
4.14000000000369, 0.5405266101780428 
4.150000000003667, 0.5398528521086697 
4.1600000000036434, 0.5379770199964625 
4.17000000000362, 0.5335342330520687 
4.180000000003597, 0.5221955406300258 
4.1900000000035735, 0.485972481754827 
4.20000000000355, 0.31555192923356723 
4.210000000003527, -0.636159556995225 
4.220000000003504, -1.6788039298006563 
4.23000000000348, -1.8768132988460748 
4.240000000003457, -1.9129229097167202 
4.250000000003434, -1.9215745649497529 
4.26000000000341, -1.9236552869070516 
4.270000000003387, -1.9236459788240459 
4.280000000003364, -1.9232193714630124 
4.2900000000033405, -1.9235370771835771 
4.300000000003317, -1.9245122250698838 
4.310000000003294, -1.9252422995780496 
4.320000000003271, -1.925544524062424 
4.330000000003247, -1.9256939959503547 
4.340000000003224, -1.9255090514881978 
4.350000000003201, -1.9242577318349583 
4.360000000003177, -1.920570807245254 
4.370000000003154, -1.9112274406763934 
4.380000000003131, -1.8878882480277688 
4.390000000003107, -1.8283852297062624 
4.400000000003084, -1.6726291413686893 
4.410000000003061, -1.292039987994344 
4.4200000000030375, -0.7150189949877468 
4.430000000003014, -0.3351427980066411 
4.440000000002991, -0.18181877786573059 
4.450000000002968, -0.12141041985450625 
4.460000000002944, -0.09480707846379686 
4.470000000002921, -0.08176176448879269 
4.480000000002898, -0.07485446061080277 
4.490000000002874, -0.07106233304888075 
4.500000000002851, -0.06904838402804139 
4.510000000002828, -0.06820823580235287 
4.520000000002804, -0.06831181000889831 
4.530000000002781, -0.06937957678306689 
4.540000000002758, -0.07168456231396539 
4.5500000000027345, -0.07587812081594508 
4.560000000002711, -0.0833404038131526 
4.570000000002688, -0.09708723160015163 
4.580000000002665, -0.12427631009870192 
4.590000000002641, -0.18373347863984688 
4.600000000002618, -0.3283038789969541 
4.610000000002595, -0.675636526323539 
4.620000000002571, -1.2092248829250452 
4.630000000002548, -1.5542959709038144 
4.640000000002525, -1.6755083751149478 
4.6500000000025015, -1.712582825247333 
4.660000000002478, -1.7243472794460435 
4.670000000002455, -1.7280767974372886 
4.6800000000024315, -1.728889457560547 
4.690000000002408, -1.7285934706170487 
4.700000000002385, -1.728303055583801 
4.710000000002362, -1.7287674743790045 
4.720000000002338, -1.7297402999144436 
4.730000000002315, -1.7305387947293007 
4.740000000002292, -1.7310109248373107 
4.750000000002268, -1.7313270649552988 
4.760000000002245, -1.7313781632537935 
4.770000000002222, -1.7307018040045836 
4.7800000000021985, -1.728604527816178 
4.790000000002175, -1.723986684074191 
4.800000000002152, -1.7150028822005936 
4.810000000002129, -1.698632441262917 
4.820000000002105, -1.6696509972475255 
4.830000000002082, -1.6175865773224065 
4.840000000002059, -1.5199791906111986 
4.850000000002035, -1.3419330347019778 
4.860000000002012, -1.101051902145599 
4.870000000001989, -0.9210072213902516 
4.880000000001965, -0.8446514270183834 
4.890000000001942, -0.8232226488626951 
4.900000000001919, -0.8202517253965536 
4.9100000000018955, -0.8216836719909845 
4.920000000001872, -0.8233713178518981 
4.930000000001849, -0.8243399928801354 
