t, s[1].omega / s[0].omega 
0, -1.3600011309358568 
0.009999999999999995, -1.3598811767819838 
0.019999999999999934, -1.3592858478281167 
0.029999999999999874, -1.358189424656312 
0.04000000000000012, -1.356583759069506 
0.050000000000000405, -1.354490372969454 
0.06000000000000069, -1.3519306946765557 
0.07000000000000098, -1.348886339643657 
0.08000000000000126, -1.345375761092383 
0.09000000000000155, -1.3417179045340917 
0.10000000000000184, -1.3386895575472841 
0.11000000000000212, -1.3370133640805366 
0.12000000000000241, -1.3365498282504351 
0.130000000000002, -1.336456913379421 
0.1400000000000009, -1.335884752846621 
0.1499999999999998, -1.3340443543516538 
0.1599999999999987, -1.32972069521459 
0.1699999999999976, -1.3205942963081647 
0.1799999999999965, -1.3027444418864302 
0.1899999999999954, -1.2713766229533192 
0.1999999999999943, -1.2235021203935281 
0.2099999999999932, -1.1601412702321547 
0.2199999999999921, -1.08519904588552 
0.229999999999991, -1.0034798786281867 
0.2399999999999899, -0.9208907733256335 
0.2499999999999888, -0.8451714477153086 
0.2599999999999877, -0.7840106454772595 
0.2699999999999866, -0.7412457628077378 
0.2799999999999855, -0.71540889213102 
0.2899999999999844, -0.7018803545573478 
0.2999999999999833, -0.6957979790354943 
0.3099999999999822, -0.6935672481479425 
0.3199999999999811, -0.6930210374373258 
0.32999999999998, -0.6930126633108515 
0.3399999999999789, -0.6929711318546677 
0.3499999999999778, -0.6925965939878004 
0.35999999999997667, -0.6917025604055813 
0.36999999999997557, -0.6901742092363379 
0.37999999999997447, -0.6880085976599931 
0.38999999999997337, -0.6853692523146645 
0.39999999999997227, -0.6825591239587291 
0.40999999999997117, -0.6798935761362881 
0.41999999999997006, -0.6775775128946742 
0.42999999999996896, -0.6756726538459046 
0.43999999999996786, -0.6741335964005468 
0.44999999999996676, -0.6728595161874696 
0.45999999999996566, -0.6717408945402095 
0.46999999999996456, -0.6706996247277327 
0.47999999999996346, -0.6697171266533752 
0.48999999999996235, -0.6688450697609085 
0.49999999999996125, -0.6682011989422693 
0.5099999999999602, -0.6679550570100476 
0.519999999999959, -0.66830442697313 
0.529999999999958, -0.669443551760689 
0.5399999999999568, -0.6715313639841543 
0.5499999999999557, -0.6746736303889437 
0.5599999999999546, -0.6789289882127101 
0.5699999999999535, -0.6843379852216603 
0.5799999999999524, -0.6909662746626056 
0.5899999999999513, -0.6989529341599983 
0.5999999999999502, -0.7085578954793887 
0.6099999999999491, -0.7201992325271805 
0.619999999999948, -0.734447634842049 
0.6299999999999469, -0.7518792542149824 
0.6399999999999458, -0.7725918857373928 
0.6499999999999447, -0.7953219332847807 
0.6599999999999436, -0.8169960926663411 
0.6699999999999425, -0.8342093092279412 
0.6799999999999414, -0.8456089946591738 
0.6899999999999403, -0.8521164914971765 
0.6999999999999392, -0.8553619033269271 
0.7099999999999381, -0.8566040339086687 
0.719999999999937, -0.8565481758730764 
0.7299999999999359, -0.8555155474320131 
0.7399999999999348, -0.8537126978188956 
0.7499999999999337, -0.851789774835652 
0.7599999999999326, -0.8524251613830544 
0.7699999999999315, -0.8644392475034641 
0.7799999999999304, -0.9097600887278008 
0.7899999999999293, -1.0202282722527187 
0.7999999999999282, -1.1909508622388976 
0.8099999999999271, -1.352497294627327 
0.819999999999926, -1.4620068540667128 
0.8299999999999249, -1.5285312570689094 
0.8399999999999238, -1.5688920974829954 
0.8499999999999227, -1.5933887010519074 
0.8599999999999216, -1.6077025001944378 
0.8699999999999205, -1.6154386497400917 
0.8799999999999194, -1.619133961513547 
0.8899999999999183, -1.6204857609357266 
0.8999999999999172, -1.620541894355626 
0.9099999999999161, -1.6199996231560951 
0.919999999999915, -1.6193768922312188 
0.9299999999999139, -1.6188610971435335 
0.9399999999999128, -1.6182804744532735 
0.9499999999999117, -1.6175648475282838 
0.9599999999999106, -1.6170104530207905 
0.9699999999999095, -1.6168248970538577 
0.9799999999999084, -1.6166571330555617 
0.9899999999999073, -1.6158045396377703 
0.9999999999999062, -1.613326347608388 
1.0099999999999052, -1.607539130814569 
1.019999999999904, -1.595095846619439 
1.029999999999903, -1.569943638056791 
1.039999999999902, -1.5225894270893414 
1.0499999999999008, -1.4396177830381642 
1.0599999999998997, -1.304148756058992 
1.0699999999998986, -1.107467785485746 
1.0799999999998975, -0.8836712497484734 
1.0899999999998964, -0.7039512580914378 
1.0999999999998953, -0.5970127669992046 
1.1099999999998942, -0.543008221998496 
1.119999999999893, -0.517565107139733 
1.129999999999892, -0.5060142722247283 
1.1399999999998909, -0.5009919707422512 
1.1499999999998898, -0.4989714210908901 
1.1599999999998887, -0.4982730753956247 
1.1699999999998876, -0.4980895000388805 
1.1799999999998865, -0.4980243102438976 
1.1899999999998854, -0.4978793468246643 
1.1999999999998843, -0.49756581111312465 
1.2099999999998832, -0.4970790971004875 
1.219999999999882, -0.4964968848436122 
1.229999999999881, -0.49596537821990394 
1.2399999999998799, -0.49565942689265235 
1.2499999999998788, -0.4957354785932327 
1.2599999999998777, -0.49630102900409884 
1.2699999999998766, -0.4973951221966185 
1.2799999999998755, -0.4989592766102642 
1.2899999999998744, -0.500806863726536 
1.2999999999998733, -0.5026422231163361 
1.3099999999998722, -0.5041608235935994 
1.319999999999871, -0.5051650420074667 
1.32999999999987, -0.5055987428185654 
1.3399999999998689, -0.505499207078609 
1.3499999999998678, -0.5049388749679389 
1.3599999999998666, -0.5040145615042055 
1.3699999999998655, -0.5029268306534218 
1.3799999999998644, -0.5022678969693364 
1.3899999999998633, -0.5039583410263037 
1.3999999999998622, -0.5145589029677 
1.4099999999998611, -0.5587599807353969 
1.41999999999986, -0.7437089164057333 
1.429999999999859, -1.437893086204429 
1.4399999999998578, -2.1602206069496552 
1.4499999999998567, -2.329063317148821 
1.4599999999998556, -2.3692347574583508 
1.4699999999998545, -2.382592869527458 
1.4799999999998534, -2.387660317139705 
1.4899999999998523, -2.389237317124503 
1.4999999999998512, -2.3888875613071026 
1.5099999999998501, -2.3870239349290094 
1.519999999999849, -2.383072081439301 
1.529999999999848, -2.37460485568285 
1.5399999999998468, -2.3597483515881597 
1.5499999999998457, -2.3516075375372703 
1.5599999999998446, -2.3543502583961895 
1.5699999999998435, -2.3560028760772744 
1.5799999999998424, -2.3547541730692716 
1.5899999999998413, -2.3501248482185084 
1.5999999999998402, -2.349294287438282 
1.6099999999998391, -2.3677795224965896 
1.619999999999838, -2.3838208726560084 
1.629999999999837, -2.3907580774454145 
1.6399999999998358, -2.3935355810268146 
1.6499999999998347, -2.3943317473185455 
1.6599999999998336, -2.393531261350062 
1.6699999999998325, -2.390641422346778 
1.6799999999998314, -2.383898186564937 
1.6899999999998303, -2.3675585385868887 
1.6999999999998292, -2.317470372102974 
1.709999999999828, -2.104363678146353 
1.719999999999827, -1.5604602483143988 
1.729999999999826, -1.3996729834786037 
1.7399999999998248, -1.434646788427779 
1.7499999999998237, -1.457584871375142 
1.7599999999998226, -1.4661648616685832 
1.7699999999998215, -1.4688774060309098 
1.7799999999998204, -1.4688579724406488 
1.7899999999998193, -1.4666652772458824 
1.7999999999998182, -1.4618524899766203 
1.809999999999817, -1.4567478096959898 
1.819999999999816, -1.4695135989946462 
1.8299999999998149, -1.5246838945399572 
1.8399999999998138, -1.5931086367834622 
1.8499999999998127, -1.6399276869240627 
1.8599999999998116, -1.666881629099351 
1.8699999999998105, -1.682740791688003 
1.8799999999998094, -1.6926007700249588 
1.8899999999998083, -1.6988637359662893 
1.8999999999998072, -1.7026829851259548 
1.909999999999806, -1.704696635174182 
1.919999999999805, -1.7053396648858996 
1.9299999999998039, -1.7049536711581794 
1.9399999999998028, -1.7038190438657153 
1.9499999999998017, -1.7021131482973129 
1.9599999999998006, -1.6997826735603816 
1.9699999999997995, -1.6966666624194322 
1.9799999999997984, -1.6932044550558563 
1.9899999999997973, -1.6908113979745139 
1.9999999999997962, -1.6901893867100717 
2.0099999999998173, -1.6901947850280532 
2.0199999999998384, -1.6893824499885313 
2.0299999999998595, -1.686160451141117 
2.0399999999998806, -1.6760354079689719 
2.0499999999999017, -1.6403488536737398 
2.059999999999923, -1.4844960908010847 
2.069999999999944, -0.8224787717738774 
2.079999999999965, 0.02855613393810803 
2.089999999999986, 0.2735327406926179 
2.100000000000007, 0.3316363218365291 
2.1100000000000283, 0.349949659593371 
2.1200000000000494, 0.3570441450045159 
2.1300000000000705, 0.360060455484854 
2.1400000000000916, 0.36128647298388816 
2.1500000000001127, 0.3616250829860936 
2.160000000000134, 0.36152241385131345 
2.170000000000155, 0.36126798483622713 
2.180000000000176, 0.361109818790391 
2.190000000000197, 0.36131913706090724 
2.2000000000002182, 0.36225584034033753 
2.2100000000002393, 0.364434194376586 
2.2200000000002604, 0.3684965678634959 
2.2300000000002815, 0.37487758581642555 
2.2400000000003026, 0.3831102235881867 
2.2500000000003237, 0.3915693178738951 
2.260000000000345, 0.3984963615060301 
2.270000000000366, 0.40315329445545345 
2.280000000000387, 0.40573734412735574 
2.290000000000408, 0.406684854499222 
2.3000000000004293, 0.4062050695906721 
2.3100000000004504, 0.4040333096376397 
2.3200000000004715, 0.3990743766577563 
2.3300000000004926, 0.3885913285923338 
2.3400000000005137, 0.3670386715847652 
2.3500000000005348, 0.32814166753513135 
2.360000000000556, 0.2780823483403828 
2.370000000000577, 0.23876491254676946 
2.380000000000598, 0.2186451499856325 
2.390000000000619, 0.21037891258400623 
2.4000000000006403, 0.207130736537574 
2.4100000000006614, 0.20578048892144746 
2.4200000000006825, 0.2051345615967024 
2.4300000000007036, 0.20472388676957695 
2.4400000000007247, 0.20431821459901006 
2.450000000000746, 0.20373788035129156 
2.460000000000767, 0.20275956248144902 
2.470000000000788, 0.20102154681317314 
2.480000000000809, 0.19783379946305185 
2.49000000000083, 0.191669119813133 
2.5000000000008513, 0.17857603656021473 
2.5100000000008724, 0.1463390612761742 
2.5200000000008935, 0.04898210642774184 
2.5300000000009146, -0.29046108727257935 
2.5400000000009357, -0.9940694836083456 
2.550000000000957, -1.3929841502909617 
2.560000000000978, -1.4998505570516814 
2.570000000000999, -1.528344421201793 
2.58000000000102, -1.5369399232980359 
2.5900000000010412, -1.5394835160783134 
2.6000000000010624, -1.5397131029019087 
2.6100000000010835, -1.5389945083460028 
2.6200000000011046, -1.5386917240562776 
2.6300000000011257, -1.5406354739874832 
2.6400000000011468, -1.5451304124040595 
2.650000000001168, -1.550257787005101 
2.660000000001189, -1.5544670931503022 
2.67000000000121, -1.5575133060268078 
2.680000000001231, -1.5596323564585275 
2.6900000000012523, -1.560987897052297 
2.7000000000012734, -1.561621498248409 
2.7100000000012945, -1.5615378356339786 
2.7200000000013156, -1.5607375166502668 
2.7300000000013367, -1.5592015005363515 
2.740000000001358, -1.5568627228347762 
2.750000000001379, -1.5535774551763084 
2.7600000000014, -1.549075160546433 
2.770000000001421, -1.5428584940782222 
2.780000000001442, -1.5341797820779797 
2.7900000000014633, -1.522682091733285 
2.8000000000014844, -1.5104419592852498 
2.8100000000015055, -1.5025161634420878 
2.8200000000015266, -1.5007243092660905 
2.8300000000015477, -1.5015425985131523 
2.840000000001569, -1.5020326407507245 
2.85000000000159, -1.5010477341424564 
2.860000000001611, -1.497125022117075 
2.870000000001632, -1.4850936964571644 
2.8800000000016532, -1.4428968923942906 
2.8900000000016743, -1.2542877784121833 
2.9000000000016954, -0.3679563748321691 
2.9100000000017165, 0.6438423572029637 
2.9200000000017377, 0.8126259978055869 
2.9300000000017588, 0.8415349787581166 
2.94000000000178, 0.849107323698379 
2.950000000001801, 0.8512890305736986 
2.960000000001822, 0.851276041621231 
2.970000000001843, 0.8496386472687212 
2.9800000000018643, 0.8460170373187708 
2.9900000000018854, 0.8396820142099684 
3.0000000000019065, 0.8305643225482731 
3.0100000000019276, 0.820709054362674 
3.0200000000019487, 0.8133323205181334 
3.03000000000197, 0.8095547817519237 
3.040000000001991, 0.8082046388517041 
3.050000000002012, 0.8078513170652828 
3.060000000002033, 0.8076084289268822 
3.070000000002054, 0.8069091644752884 
3.0800000000020753, 0.8050321490696929 
3.0900000000020964, 0.8001283742703065 
3.1000000000021175, 0.7851271027564481 
3.1100000000021386, 0.7174854166643584 
3.1200000000021597, 0.06869285988103344 
3.130000000002181, -2.4017803972379124 
3.140000000002202, -2.769019856887307 
3.150000000002223, -2.8124708070822915 
3.160000000002244, -2.8221406045987534 
3.1700000000022652, -2.824402421585357 
3.1800000000022863, -2.823963766592396 
3.1900000000023074, -2.821582669504568 
3.2000000000023285, -2.815350344325065 
3.2100000000023496, -2.7992288650199124 
3.2200000000023707, -2.7859521800425493 
3.230000000002392, -2.7907740096913214 
3.240000000002413, -2.792840614160562 
3.250000000002434, -2.791501460029205 
3.260000000002455, -2.7896984616951923 
3.2700000000024763, -2.7945388411574883 
3.2800000000024974, -2.799782036404953 
3.2900000000025185, -2.8017291297761453 
3.3000000000025396, -2.8020928717475515 
3.3100000000025607, -2.800890272583281 
3.3200000000025818, -2.7954427801366917 
3.330000000002603, -2.7706241093748893 
3.340000000002624, -2.5743489603284324 
3.350000000002645, -0.3950106482279706 
3.360000000002666, 0.7351784245275856 
3.3700000000026873, 0.8281753902681481 
3.3800000000027084, 0.8453673210382109 
3.3900000000027295, 0.8502626632725996 
3.4000000000027506, 0.8517887406307402 
3.4100000000027717, 0.8520474579597022 
3.420000000002793, 0.8517357520553739 
3.430000000002814, 0.8511903801767817 
3.440000000002835, 0.850657633008727 
3.450000000002856, 0.8503452903220161 
3.460000000002877, 0.8503815181344276 
3.4700000000028983, 0.8507570254770112 
3.4800000000029194, 0.8513231388532546 
3.4900000000029405, 0.8518585790547227 
3.5000000000029616, 0.8521387117230719 
3.5100000000029827, 0.8519277216184766 
3.520000000003004, 0.8508296233475166 
3.530000000003025, 0.8477870773311457 
3.540000000003046, 0.8390013021315893 
3.550000000003067, 0.804765469042905 
3.5600000000030882, 0.5467828002442433 
3.5700000000031094, -1.7906623771198074 
3.5800000000031305, -2.6599659608577193 
3.5900000000031516, -2.728266263611248 
3.6000000000031727, -2.739109459672577 
3.6100000000031938, -2.741041891777953 
3.620000000003215, -2.740593053309318 
3.630000000003236, -2.7390725253380657 
3.640000000003257, -2.7358207043891047 
3.650000000003278, -2.730417821012904 
3.6600000000032993, -2.7283806761937224 
3.6700000000033204, -2.7293229591261126 
3.6800000000033415, -2.7282409855089815 
3.6900000000033626, -2.7220520326110753 
3.7000000000033837, -2.7169021387370433 
3.710000000003405, -2.746339055703028 
3.720000000003426, -2.7653052338847313 
3.730000000003447, -2.7711816315770967 
3.740000000003468, -2.7728834305145265 
3.750000000003489, -2.772499870107578 
3.7600000000035103, -2.7696015487189505 
3.7700000000035314, -2.7608885928795024 
3.7800000000035525, -2.7301162290469425 
3.7900000000035736, -2.5386883116387433 
3.8000000000035947, -0.9330470041054563 
3.810000000003616, 0.2572030863240872 
3.820000000003637, 0.44020429139413314 
3.830000000003658, 0.48042501344150706 
3.840000000003679, 0.4932053080282137 
3.8500000000037002, 0.49807683568008876 
3.8600000000037213, 0.49985935053531866 
3.8700000000037424, 0.49998617545289187 
3.8800000000037635, 0.4987380117313071 
3.8900000000037847, 0.49562388100025123 
3.9000000000038058, 0.4888842897345883 
3.910000000003827, 0.4733952095649322 
3.920000000003848, 0.43484438309346657 
3.930000000003869, 0.3704789467511289 
3.94000000000389, 0.766562146154665 
3.9500000000039113, 1.3410246427715262 
3.9600000000039324, 1.412119006623588 
3.9700000000039535, 1.4231641986348027 
3.9800000000039746, 1.4253414550084096 
3.9900000000039957, 1.4244284987529814 
4.000000000004016, 1.4192882715177197 
4.010000000003993, 1.3974358999171126 
4.02000000000397, 1.271850002850743 
4.030000000003946, 0.9906647280518254 
4.040000000003923, 1.0101628453743172 
4.0500000000039, 1.0429786760044841 
4.0600000000038765, 1.0536972906093844 
4.070000000003853, 1.0571050846020373 
4.08000000000383, 1.0576733553789341 
4.090000000003807, 1.0563925697594838 
4.100000000003783, 1.0528207115909822 
4.11000000000376, 1.0457858343086355 
4.120000000003737, 1.0404596292955248 
4.130000000003713, 1.0745348029860455 
4.14000000000369, 1.142737915427833 
4.150000000003667, 1.1771942316876365 
4.1600000000036434, 1.1884149072708152 
4.17000000000362, 1.1918132916125426 
4.180000000003597, 1.1921152931465613 
4.1900000000035735, 1.1898035161867402 
4.20000000000355, 1.1810791030813224 
4.210000000003527, 1.139374496730224 
4.220000000003504, 0.7866818341721176 
4.23000000000348, -0.33196671664823507 
4.240000000003457, -0.7002520034782524 
4.250000000003434, -0.7917603002675524 
4.26000000000341, -0.8233813952812298 
4.270000000003387, -0.8362720544587392 
4.280000000003364, -0.8419082932634232 
4.2900000000033405, -0.8442255009162137 
4.300000000003317, -0.8446267692565053 
4.310000000003294, -0.8433735169580114 
4.320000000003271, -0.839800787680054 
4.330000000003247, -0.8317091230898083 
4.340000000003224, -0.8133866151886885 
4.350000000003201, -0.7714237087885599 
4.360000000003177, -0.6835612556450549 
4.370000000003154, -0.5469150962914917 
4.380000000003131, -0.413912641139684 
4.390000000003107, -0.32711005988952835 
4.400000000003084, -0.27951417262781436 
4.410000000003061, -0.25371125192904836 
4.4200000000030375, -0.23901870754303384 
4.430000000003014, -0.23014767798604546 
4.440000000002991, -0.22451129709660353 
4.450000000002968, -0.2207910027232456 
4.460000000002944, -0.21828677052305948 
4.470000000002921, -0.21662666881718792 
4.480000000002898, -0.21563592688165484 
4.490000000002874, -0.21528294843408494 
4.500000000002851, -0.2156734631930442 
4.510000000002828, -0.21709277179323494 
4.520000000002804, -0.22012326416376649 
4.530000000002781, -0.22591441886965521 
4.540000000002758, -0.23680504028839694 
4.5500000000027345, -0.2578253779533478 
4.560000000002711, -0.30047099611748485 
4.570000000002688, -0.39175258102827104 
4.580000000002665, -0.5871476406624185 
4.590000000002641, -0.9325450389224578 
4.600000000002618, -1.3119574520779937 
4.610000000002595, -1.5596013192038087 
4.620000000002571, -1.6807598974560154 
4.630000000002548, -1.7339713583318743 
4.640000000002525, -1.7561937309618518 
4.6500000000025015, -1.7650943702740567 
4.660000000002478, -1.7683492076810232 
4.670000000002455, -1.769132354869465 
4.6800000000024315, -1.7688445008478848 
4.690000000002408, -1.7683243466888072 
4.700000000002385, -1.7679995286063979 
4.710000000002362, -1.7676860820365463 
4.720000000002338, -1.767135874287837 
4.730000000002315, -1.7666091656923275 
4.740000000002292, -1.766411879967503 
4.750000000002268, -1.7661831278314453 
4.760000000002245, -1.7650704128615498 
4.770000000002222, -1.7617273820741979 
4.7800000000021985, -1.7530441536070172 
4.790000000002175, -1.7307673559333494 
4.800000000002152, -1.6735964285552227 
4.810000000002129, -1.5333884181266657 
4.820000000002105, -1.2413822739128315 
4.830000000002082, -0.8318871765853079 
4.840000000002059, -0.5068857007572631 
4.850000000002035, -0.3363022562383998 
4.860000000002012, -0.2568939454235326 
4.870000000001989, -0.21869988093371423 
4.880000000001965, -0.19904143322459836 
4.890000000001942, -0.18828604534528398 
4.900000000001919, -0.18215341293609516 
4.9100000000018955, -0.1786182617594164 
4.920000000001872, -0.1766738268039224 
4.930000000001849, -0.17581460611584038 
4.940000000001826, -0.17581212946792363 
4.950000000001802, -0.1766229819469458 
