t, s[1].omega / s[0].omega 
0, -0.9405258492612221 
0.009999999999999995, -0.993606458411555 
0.019999999999999934, -1.04305386617904 
0.029999999999999874, -1.081688912263725 
0.04000000000000012, -1.1065041584280952 
0.050000000000000405, -1.120031805961606 
0.06000000000000069, -1.1265902870703273 
0.07000000000000098, -1.1293938411344935 
0.08000000000000126, -1.1302032590168225 
0.09000000000000155, -1.1299005669478386 
0.10000000000000184, -1.1291093433966324 
0.11000000000000212, -1.1288265047805308 
0.12000000000000241, -1.1309026270554061 
0.130000000000002, -1.137387583864072 
0.1400000000000009, -1.1484965145775474 
0.1499999999999998, -1.1620288946898247 
0.1599999999999987, -1.1754413990373835 
0.1699999999999976, -1.1874398055177111 
0.1799999999999965, -1.19782355966712 
0.1899999999999954, -1.206829637028288 
0.1999999999999943, -1.2147272231262423 
0.2099999999999932, -1.2216564966129844 
0.2199999999999921, -1.2275829938160037 
0.229999999999991, -1.2323390049056706 
0.2399999999999899, -1.235761238636648 
0.2499999999999888, -1.23784395347616 
0.2599999999999877, -1.238774723277424 
0.2699999999999866, -1.2388566007222794 
0.2799999999999855, -1.2384426046771593 
0.2899999999999844, -1.237924471608731 
0.2999999999999833, -1.2376702087195075 
0.3099999999999822, -1.2378540616516145 
0.3199999999999811, -1.238379493688093 
0.32999999999998, -1.2390497376169518 
0.3399999999999789, -1.239761529154443 
0.3499999999999778, -1.2404962679719154 
0.35999999999997667, -1.2411938435939134 
0.36999999999997557, -1.241704147377233 
0.37999999999997447, -1.2418507323420918 
0.38999999999997337, -1.2415064678308807 
0.39999999999997227, -1.2406261941228434 
0.40999999999997117, -1.2392393828705495 
0.41999999999997006, -1.2374102964043394 
0.42999999999996896, -1.235187622039223 
0.43999999999996786, -1.2325770852087419 
0.44999999999996676, -1.2295479692179154 
0.45999999999996566, -1.2260536694309812 
0.46999999999996456, -1.2220416171091653 
0.47999999999996346, -1.2174652955245164 
0.48999999999996235, -1.21237002941876 
0.49999999999996125, -1.2071023775888785 
0.5099999999999602, -1.2024643038738756 
0.519999999999959, -1.199365505914912 
0.529999999999958, -1.1980239497797405 
0.5399999999999568, -1.19776470581912 
0.5499999999999557, -1.197669328231946 
0.5599999999999546, -1.1970228998923884 
0.5699999999999535, -1.1951837290531508 
0.5799999999999524, -1.1912462505838086 
0.5899999999999513, -1.1838114936814288 
0.5999999999999502, -1.1711940332675643 
0.6099999999999491, -1.1523276614928135 
0.619999999999948, -1.127690707230936 
0.6299999999999469, -1.0989542735006306 
0.6399999999999458, -1.0677094604599353 
0.6499999999999447, -1.0348124265947312 
0.6599999999999436, -1.0007187868349838 
0.6699999999999425, -0.9662840575972174 
0.6799999999999414, -0.933505093486797 
0.6899999999999403, -0.9055011148389195 
0.6999999999999392, -0.8851192539396779 
0.7099999999999381, -0.8730447163599188 
0.719999999999937, -0.8674929827800032 
0.7299999999999359, -0.8657296595743516 
0.7399999999999348, -0.8655580067649222 
0.7499999999999337, -0.8657103386489604 
0.7599999999999326, -0.8655552341163666 
0.7699999999999315, -0.8647219329197011 
0.7799999999999304, -0.8628640412924126 
0.7899999999999293, -0.8595929363945505 
0.7999999999999282, -0.8546068879373176 
0.8099999999999271, -0.8479724077164285 
0.819999999999926, -0.8402739974378364 
0.8299999999999249, -0.8323533078887145 
0.8399999999999238, -0.8248690482777494 
0.8499999999999227, -0.8181095528398131 
0.8599999999999216, -0.8120857081382313 
0.8699999999999205, -0.8066909519308731 
0.8799999999999194, -0.8018101254176366 
0.8899999999999183, -0.7973695784635153 
0.8999999999999172, -0.793350183199894 
0.9099999999999161, -0.7897818202692695 
0.919999999999915, -0.7867301034628108 
0.9299999999999139, -0.7842767407969025 
0.9399999999999128, -0.7824894869952032 
0.9499999999999117, -0.7813843230215014 
0.9599999999999106, -0.780897340495587 
0.9699999999999095, -0.7808873988067291 
0.9799999999999084, -0.7811718571579502 
0.9899999999999073, -0.7815752214109363 
0.9999999999999062, -0.7819689902859314 
1.0099999999999052, -0.782294763006228 
1.019999999999904, -0.7825692055199137 
1.029999999999903, -0.7828666089263939 
1.039999999999902, -0.7832797168315528 
1.0499999999999008, -0.7838726296946288 
1.0599999999998997, -0.7846423165344586 
1.0699999999998986, -0.7855002645503554 
1.0799999999998975, -0.7862887311978712 
1.0899999999998964, -0.7868395196413583 
1.0999999999998953, -0.7870474458923526 
1.1099999999998942, -0.786911350114869 
1.119999999999893, -0.7865347826380564 
1.129999999999892, -0.7861203014323861 
1.1399999999998909, -0.7859785888127723 
1.1499999999998898, -0.7865302269895328 
1.1599999999998887, -0.7882526742298691 
1.1699999999998876, -0.7915540773778443 
1.1799999999998865, -0.7966346993510698 
1.1899999999998854, -0.8034410881854951 
1.1999999999998843, -0.811751609688321 
1.2099999999998832, -0.8213255027211774 
1.219999999999882, -0.8320235038028352 
1.229999999999881, -0.8438605439626142 
1.2399999999998799, -0.8569921398777881 
1.2499999999998788, -0.8716238814542754 
1.2599999999998777, -0.8877892474886876 
1.2699999999998766, -0.9049529990913783 
1.2799999999998755, -0.9216577826894883 
1.2899999999998744, -0.9358617796472115 
1.2999999999998733, -0.9461454353988461 
1.3099999999998722, -0.9525124762449353 
1.319999999999871, -0.9559061684127265 
1.32999999999987, -0.9573489780347787 
1.3399999999998689, -0.957561362673163 
1.3499999999998678, -0.9570133135551858 
1.3599999999998666, -0.9561939034968259 
1.3699999999998655, -0.9560741248895356 
1.3799999999998644, -0.9586880927324511 
1.3899999999998633, -0.9671502949211987 
1.3999999999998622, -0.9839930222424499 
1.4099999999998611, -1.008678399678708 
1.41999999999986, -1.0376207297689137 
1.429999999999859, -1.066967168322635 
1.4399999999998578, -1.0945726229126944 
1.4499999999998567, -1.119863473992519 
1.4599999999998556, -1.1429000739333468 
1.4699999999998545, -1.1636147878776835 
1.4799999999998534, -1.1814543325301634 
1.4899999999998523, -1.195560175717059 
1.4999999999998512, -1.2054402754129132 
1.5099999999998501, -1.211463634063837 
1.519999999999849, -1.214607192526835 
1.529999999999848, -1.2158790913946826 
1.5399999999998468, -1.2160390533447665 
1.5499999999998457, -1.2156775554386008 
1.5599999999998446, -1.2154263469163393 
1.5699999999998435, -1.215993064964611 
1.5799999999998424, -1.2177926858989794 
1.5899999999998413, -1.2205821689972791 
1.5999999999998402, -1.2237268089219202 
1.6099999999998391, -1.2267319277767557 
1.619999999999838, -1.2294029378944002 
1.629999999999837, -1.2317044466246647 
1.6399999999998358, -1.2336271830638805 
1.6499999999998347, -1.2351619956531619 
1.6599999999998336, -1.2363181638195069 
1.6699999999998325, -1.2371222961987134 
1.6799999999998314, -1.2375928203464486 
1.6899999999998303, -1.237716914777925 
1.6999999999998292, -1.2374540277293433 
1.709999999999828, -1.2367682441022456 
1.719999999999827, -1.2356680472049235 
1.729999999999826, -1.2342246623065034 
1.7399999999998248, -1.2325490967397594 
1.7499999999998237, -1.2307346443260085 
1.7599999999998226, -1.2288303633760531 
1.7699999999998215, -1.2269187705493951 
1.7799999999998204, -1.2252282274139703 
1.7899999999998193, -1.2240724302043953 
1.7999999999998182, -1.2235680898577557 
1.809999999999817, -1.2234609498903846 
1.819999999999816, -1.223286087175884 
1.8299999999998149, -1.2225788852539494 
1.8399999999998138, -1.220904255762423 
1.8499999999998127, -1.2178246468732705 
1.8599999999998116, -1.2129767174037485 
1.8699999999998105, -1.2062427337869281 
1.8799999999998094, -1.1978090199105076 
1.8899999999998083, -1.1879855866315765 
1.8999999999998072, -1.1769552381623098 
1.909999999999806, -1.164659753423742 
1.919999999999805, -1.1508508162358484 
1.9299999999998039, -1.1352966624385599 
1.9399999999998028, -1.1182345911774143 
1.9499999999998017, -1.101058002415654 
1.9599999999998006, -1.0865135255664147 
1.9699999999997995, -1.0771630525659568 
1.9799999999997984, -1.0731296565737494 
1.9899999999997973, -1.0723298257068117 
1.9999999999997962, -1.072597715746016 
2.0099999999998173, -1.072693101340279 
2.0199999999998384, -1.0719807273471886 
2.0299999999998595, -1.0698501048486413 
2.0399999999998806, -1.065237511447306 
2.0499999999999017, -1.0562649685093517 
2.059999999999923, -1.0403791647123162 
2.069999999999944, -1.0158099644112775 
2.079999999999965, -0.9837782096224268 
2.089999999999986, -0.9483379378368199 
2.100000000000007, -0.9134539116586529 
2.1100000000000283, -0.8811563007121123 
2.1200000000000494, -0.8519498663975306 
2.1300000000000705, -0.8258059006777458 
2.1400000000000916, -0.802769194717379 
2.1500000000001127, -0.7831381772050721 
2.160000000000134, -0.7673453163341198 
2.170000000000155, -0.7556604094742166 
2.180000000000176, -0.7479092053528592 
2.190000000000197, -0.7434181207267068 
2.2000000000002182, -0.7412264091597768 
2.2100000000002393, -0.7403897186686673 
2.2200000000002604, -0.7401745645016895 
2.2300000000002815, -0.7400913608584178 
2.2400000000003026, -0.7398358925750331 
2.2500000000003237, -0.7392249566994118 
2.260000000000345, -0.7381728007951981 
2.270000000000366, -0.7367063431509001 
2.280000000000387, -0.7349724537578055 
2.290000000000408, -0.733188131887853 
2.3000000000004293, -0.7315492925992488 
2.3100000000004504, -0.7301639932886388 
2.3200000000004715, -0.7290411078051771 
2.3300000000004926, -0.7281154408238428 
2.3400000000005137, -0.7272874763180456 
2.3500000000005348, -0.7264686611150094 
2.360000000000556, -0.7256210885868879 
2.370000000000577, -0.7247789644522195 
2.380000000000598, -0.7240500731289348 
2.390000000000619, -0.723602748730704 
2.4000000000006403, -0.7236396457548225 
2.4100000000006614, -0.7243579467944617 
2.4200000000006825, -0.725905761233233 
2.4300000000007036, -0.7283550294814598 
2.4400000000007247, -0.7317058785421457 
2.450000000000746, -0.7359186739508631 
2.460000000000767, -0.7409570151816322 
2.470000000000788, -0.7468273541468166 
2.480000000000809, -0.7536098423311071 
2.49000000000083, -0.7614778007272127 
2.5000000000008513, -0.7706944701857921 
2.5100000000008724, -0.7815523076861477 
2.5200000000008935, -0.7941840331231438 
2.5300000000009146, -0.8081895609564557 
2.5400000000009357, -0.8222782100733159 
2.550000000000957, -0.8345512357458811 
2.560000000000978, -0.8436096437114708 
2.570000000000999, -0.8493152269562007 
2.58000000000102, -0.8523971715646397 
2.5900000000010412, -0.8536981978693504 
2.6000000000010624, -0.8538154123474417 
2.6100000000010835, -0.85310957012512 
2.6200000000011046, -0.851909030034611 
2.6300000000011257, -0.8509646038462975 
2.6400000000011468, -0.8524602249902266 
2.650000000001168, -0.8618202500451246 
2.660000000001189, -0.8890991652752446 
2.67000000000121, -0.9451746200654559 
2.680000000001231, -1.0294557068042542 
2.6900000000012523, -1.123924113201647 
2.7000000000012734, -1.208892342197201 
2.7100000000012945, -1.2768202124315235 
2.7200000000013156, -1.3286335921389218 
2.7300000000013367, -1.366922480795866 
2.740000000001358, -1.3936549240319007 
2.750000000001379, -1.410676210632442 
2.7600000000014, -1.4203516102107767 
2.770000000001421, -1.4252053745723963 
2.780000000001442, -1.427230118315606 
2.7900000000014633, -1.4276948768330215 
2.8000000000014844, -1.427405142684679 
2.8100000000015055, -1.4270366556443865 
2.8200000000015266, -1.4271650219045358 
2.8300000000015477, -1.4279193583267384 
2.840000000001569, -1.428940532618398 
2.85000000000159, -1.429878379720448 
2.860000000001611, -1.4306645968911094 
2.870000000001632, -1.4313229631220465 
2.8800000000016532, -1.4317432915086326 
2.8900000000016743, -1.4316931401647757 
2.9000000000016954, -1.4309300637569256 
2.9100000000017165, -1.42925995618423 
2.9200000000017377, -1.4265571265136963 
2.9300000000017588, -1.422756109455527 
2.94000000000178, -1.4177906117608226 
2.950000000001801, -1.4114953635805152 
2.960000000001822, -1.4035039639494409 
2.970000000001843, -1.39315730073649 
2.9800000000018643, -1.3795371644203511 
2.9900000000018854, -1.362122457908034 
3.0000000000019065, -1.3428214555854199 
3.0100000000019276, -1.3274711339836183 
3.0200000000019487, -1.320687645117129 
3.03000000000197, -1.320092576745132 
3.040000000001991, -1.321133194051839 
3.050000000002012, -1.3215890079018098 
3.060000000002033, -1.3206658525931008 
3.070000000002054, -1.3172536633328646 
3.0800000000020753, -1.3078818190383186 
3.0900000000020964, -1.280651457585034 
3.1000000000021175, -1.191618095464869 
3.1100000000021386, -0.9014899705999688 
3.1200000000021597, -0.36174127662275246 
3.130000000002181, -0.027051745598002004 
3.140000000002202, 0.08417183281709796 
3.150000000002223, 0.1221664888215547 
3.160000000002244, 0.13746133325449567 
3.1700000000022652, 0.14445259019567802 
3.1800000000022863, 0.1478790769005363 
3.1900000000023074, 0.14957186449201015 
3.2000000000023285, 0.15034966962089252 
3.2100000000023496, 0.15063140241122855 
3.2200000000023707, 0.15065997271067938 
3.230000000002392, 0.15059967202929983 
3.240000000002413, 0.15060464116676126 
3.250000000002434, 0.1509251313123302 
3.260000000002455, 0.1521795108366613 
3.2700000000024763, 0.15616725771532733 
3.2800000000024974, 0.16815175825511527 
3.2900000000025185, 0.2004923009737763 
3.3000000000025396, 0.2640429852319416 
3.3100000000025607, 0.33520389115161003 
3.3200000000025818, 0.38061340010497385 
3.330000000002603, 0.40202406252015405 
3.340000000002624, 0.4113782981113469 
3.350000000002645, 0.41537419001360154 
3.360000000002666, 0.4167729114905184 
3.3700000000026873, 0.4165816105757359 
3.3800000000027084, 0.4150263498649773 
3.3900000000027295, 0.41195495714607844 
3.4000000000027506, 0.4071455936676231 
3.4100000000027717, 0.40075045224956896 
3.420000000002793, 0.39366833729132145 
3.430000000002814, 0.38724441530922504 
3.440000000002835, 0.38240859515517156 
3.450000000002856, 0.37928382457777116 
3.460000000002877, 0.37750661441630806 
3.4700000000028983, 0.37662925850650464 
3.4800000000029194, 0.37628222604244727 
3.4900000000029405, 0.3761762175450475 
3.5000000000029616, 0.3760608803033413 
3.5100000000029827, 0.375680812664885 
3.520000000003004, 0.37471025834985733 
3.530000000003025, 0.3725955767543118 
3.540000000003046, 0.3681056000806466 
3.550000000003067, 0.3578471506564331 
3.5600000000030882, 0.3302065944399978 
3.5700000000031094, 0.23344886992746955 
3.5800000000031305, -0.19137073083102163 
3.5900000000031516, -1.1057750264709614 
3.6000000000031727, -1.5001218569416372 
3.6100000000031938, -1.5873077770218136 
3.620000000003215, -1.6091112801096628 
3.630000000003236, -1.6154241305127175 
3.640000000003257, -1.6170454024127914 
3.650000000003278, -1.6168456169609875 
3.6600000000032993, -1.6161388864786272 
3.6700000000033204, -1.6165652292912092 
3.6800000000033415, -1.6193866048259646 
3.6900000000033626, -1.6235631618888333 
3.7000000000033837, -1.6272883004191523 
3.710000000003405, -1.6299696277126696 
3.720000000003426, -1.6317768453908315 
3.730000000003447, -1.6328717912432436 
3.740000000003468, -1.6332398509872157 
3.750000000003489, -1.632794627300294 
3.7600000000035103, -1.6314432498458813 
3.7700000000035314, -1.6290792029813115 
3.7800000000035525, -1.6255321781267114 
3.7900000000035736, -1.620475035821444 
3.8000000000035947, -1.6132554349099224 
3.810000000003616, -1.6026011485497738 
3.820000000003637, -1.586413234332158 
3.830000000003658, -1.563231736149038 
3.840000000003679, -1.5384610632052858 
3.8500000000037002, -1.5251524610797496 
3.8600000000037213, -1.5242678345059713 
3.8700000000037424, -1.5265137913316904 
3.8800000000037635, -1.52765115840756 
3.8900000000037847, -1.5269492135301541 
3.9000000000038058, -1.5233206450194672 
3.910000000003827, -1.5122209296143052 
3.920000000003848, -1.4761637699828043 
3.930000000003869, -1.3581047863888527 
3.94000000000389, -1.2314997904118754 
3.9500000000039113, -3.338764268779292 
3.9600000000039324, -3.741696263645951 
3.9700000000039535, -3.759929435156464 
3.9800000000039746, -3.7622700795509822 
3.9900000000039957, -3.7607737545899527 
4.000000000004016, -3.7527152098430676 
4.010000000003993, -3.6792987690416012 
4.02000000000397, -2.853748266012674 
4.030000000003946, -3.1428617742871627 
4.040000000003923, -3.1720399953514615 
4.0500000000039, -3.1747370401256827 
4.0600000000038765, -3.1743332325243574 
4.070000000003853, -3.173783756289814 
4.08000000000383, -3.172462715662509 
4.090000000003807, -3.170759533533304 
4.100000000003783, -3.170554963369408 
4.11000000000376, -3.168776415474523 
4.120000000003737, -3.1571201454304134 
4.130000000003713, -3.1455776601393084 
4.14000000000369, -3.217799090419212 
4.150000000003667, -3.2376996717209807 
4.1600000000036434, -3.2417246552178947 
4.17000000000362, -3.2420116801006422 
4.180000000003597, -3.2394039651454696 
4.1900000000035735, -3.229036577409506 
4.20000000000355, -3.166960496854493 
4.210000000003527, -1.8221166864689138 
4.220000000003504, 0.9382477035696548 
4.23000000000348, 1.0985646239578029 
4.240000000003457, 1.118779542298418 
4.250000000003434, 1.1235146822575932 
4.26000000000341, 1.1247216364058867 
4.270000000003387, 1.124825163016958 
4.280000000003364, 1.1247406890596567 
4.2900000000033405, 1.1251733108599444 
4.300000000003317, 1.1267121380700542 
4.310000000003294, 1.1293617804096456 
4.320000000003271, 1.1323319599103985 
4.330000000003247, 1.134718609926687 
4.340000000003224, 1.1361341281491186 
4.350000000003201, 1.1365627067359954 
4.360000000003177, 1.135886867619304 
4.370000000003154, 1.1331825978297272 
4.380000000003131, 1.123885364499564 
4.390000000003107, 1.0749545660257471 
4.400000000003084, 0.3035393026352812 
4.410000000003061, -2.8272443615366902 
4.4200000000030375, -3.0411289051124744 
4.430000000003014, -3.0606395528574253 
4.440000000002991, -3.06370669035575 
4.450000000002968, -3.0633498857236994 
4.460000000002944, -3.0613119222378544 
4.470000000002921, -3.055885074824404 
4.480000000002898, -3.0459424559391364 
4.490000000002874, -3.045256222694098 
4.500000000002851, -3.0472738681007914 
4.510000000002828, -3.04592820833511 
4.520000000002804, -3.0429627897984135 
4.530000000002781, -3.0488669972970297 
4.540000000002758, -3.0552289900842085 
4.5500000000027345, -3.057186640682643 
4.560000000002711, -3.057301834637514 
4.570000000002688, -3.055241486231862 
4.580000000002665, -3.045222225310042 
4.590000000002641, -2.972019638273774 
4.600000000002618, -1.3564777815285245 
4.610000000002595, 1.0149724743631747 
4.620000000002571, 1.1310407384169188 
4.630000000002548, 1.1465267790586027 
4.640000000002525, 1.1501639694726673 
4.6500000000025015, 1.1508301654754862 
4.660000000002478, 1.1501327326185913 
4.670000000002455, 1.1482854512156644 
4.6800000000024315, 1.1451823289673446 
4.690000000002408, 1.1410316224402597 
4.700000000002385, 1.1368501191237124 
4.710000000002362, 1.1339239856474135 
4.720000000002338, 1.132570916718477 
4.730000000002315, 1.1321192987505908 
4.740000000002292, 1.1317177431796035 
4.750000000002268, 1.13052264740177 
4.760000000002245, 1.1268554456885822 
4.770000000002222, 1.1138066043327364 
4.7800000000021985, 1.0374613194959013 
4.790000000002175, -0.24743345438093772 
4.800000000002152, -3.1675596172237324 
4.810000000002129, -3.302911355384044 
4.820000000002105, -3.317580269140167 
4.830000000002082, -3.320288622110733 
4.840000000002059, -3.3195610532607334 
4.850000000002035, -3.3154434762902776 
4.860000000002012, -3.2982170565030557 
4.870000000001989, -3.206289360082735 
4.880000000001965, -3.1939981443969563 
4.890000000001942, -3.2138771501752688 
4.900000000001919, -3.216050898184249 
4.9100000000018955, -3.215411117218789 
4.920000000001872, -3.215601770320587 
4.930000000001849, -3.2156971922926987 
4.940000000001826, -3.215016454950902 
4.950000000001802, -3.2145811111400713 
