t, s[1].omega / s[0].omega 
0, -0.6199386005647867 
0.009999999999999995, -0.6144417229245939 
0.019999999999999934, -0.6100626172285264 
0.029999999999999874, -0.6065458047856408 
0.04000000000000012, -0.6036684390868852 
0.050000000000000405, -0.6012732229450798 
0.06000000000000069, -0.5992748509724369 
0.07000000000000098, -0.5976532868302276 
0.08000000000000126, -0.5964388200595273 
0.09000000000000155, -0.5956933036922727 
0.10000000000000184, -0.5954916736343414 
0.11000000000000212, -0.5959070689541854 
0.12000000000000241, -0.5970022267691099 
0.130000000000002, -0.598828955732951 
0.1400000000000009, -0.6014363670340274 
0.1499999999999998, -0.6048878185135136 
0.1599999999999987, -0.6092865565976144 
0.1699999999999976, -0.614810375717037 
0.1799999999999965, -0.6217554061579025 
0.1899999999999954, -0.6305862500897293 
0.1999999999999943, -0.6419746185147779 
0.2099999999999932, -0.6567529664602076 
0.2199999999999921, -0.675578543744697 
0.229999999999991, -0.6980297042925787 
0.2399999999999899, -0.7215191386447546 
0.2499999999999888, -0.7419106731347618 
0.2599999999999877, -0.7564183676639359 
0.2699999999999866, -0.7651655793060861 
0.2799999999999855, -0.7698064966819954 
0.2899999999999844, -0.7718948907950416 
0.2999999999999833, -0.7723699409199898 
0.3099999999999822, -0.7716302998367542 
0.3199999999999811, -0.7696808828630192 
0.32999999999998, -0.7662475962665926 
0.3399999999999789, -0.7610942280807923 
0.3499999999999778, -0.7557385542203332 
0.35999999999997667, -0.7625286441386417 
0.36999999999997557, -0.8539467485625218 
0.37999999999997447, -1.3766587175461118 
0.38999999999997337, -2.1905976967273877 
0.39999999999997227, -2.3975154660474267 
0.40999999999997117, -2.441117688200032 
0.41999999999997006, -2.4546049325878845 
0.42999999999996896, -2.4595323725688614 
0.43999999999996786, -2.460985832676032 
0.44999999999996676, -2.4604938022260865 
0.45999999999996566, -2.458339944800468 
0.46999999999996456, -2.4535763470234935 
0.47999999999996346, -2.4425576240618296 
0.48999999999996235, -2.422413123747459 
0.49999999999996125, -2.4139724898448276 
0.5099999999999602, -2.4184100095670074 
0.519999999999959, -2.4202367487284473 
0.529999999999958, -2.4189657717248823 
0.5399999999999568, -2.4153671425370975 
0.5499999999999557, -2.4179194879207944 
0.5599999999999546, -2.4306701850461123 
0.5699999999999535, -2.4391381842253415 
0.5799999999999524, -2.4426686118236547 
0.5899999999999513, -2.443928639180516 
0.5999999999999502, -2.443672629990833 
0.6099999999999491, -2.4414624303492856 
0.619999999999948, -2.43550106095501 
0.6299999999999469, -2.419979776175422 
0.6399999999999458, -2.370897050464769 
0.6499999999999447, -2.1384693091078484 
0.6599999999999436, -1.0552654625953988 
0.6699999999999425, -0.1702587938014759 
0.6799999999999414, 0.04786030799681666 
0.6899999999999403, 0.10836975601513794 
0.6999999999999392, 0.13008896146104693 
0.7099999999999381, 0.13934164758848616 
0.719999999999937, 0.14363007893790353 
0.7299999999999359, 0.14554302143378248 
0.7399999999999348, 0.14606033543822802 
0.7499999999999337, 0.14549203326203713 
0.7599999999999326, 0.143732864514508 
0.7699999999999315, 0.1401988908776487 
0.7799999999999304, 0.13337457526474114 
0.7899999999999293, 0.11932551862213618 
0.7999999999999282, 0.08642663467172822 
0.8099999999999271, -0.006756175719002266 
0.819999999999926, -0.32712886718038325 
0.8299999999999249, -1.170954117185732 
0.8399999999999238, -1.8323152031271899 
0.8499999999999227, -2.032778404305873 
0.8599999999999216, -2.0888175730998766 
0.8699999999999205, -2.106293402873534 
0.8799999999999194, -2.1119621613742967 
0.8899999999999183, -2.1134561911125416 
0.8999999999999172, -2.1132638108321826 
0.9099999999999161, -2.112407083616576 
0.919999999999915, -2.1111774182629848 
0.9299999999999139, -2.1092304619958298 
0.9399999999999128, -2.1068063800574888 
0.9499999999999117, -2.1054702904750995 
0.9599999999999106, -2.105378665178632 
0.9699999999999095, -2.1047013625898594 
0.9799999999999084, -2.101060733277262 
0.9899999999999073, -2.0857896566474436 
0.9999999999999062, -1.9979894680243586 
1.0099999999999052, -1.3053816531310427 
1.019999999999904, 1.9542760156000927 
1.029999999999903, 2.3021825044305753 
1.039999999999902, 2.3148120536655856 
1.0499999999999008, 2.3156569506948217 
1.0599999999998997, 2.3116115440015745 
1.0699999999998986, 2.272814792819347 
1.0799999999998975, 0.7541492851151709 
1.0899999999998964, -0.33445494985205815 
1.0999999999998953, -0.29765810873203646 
1.1099999999998942, -0.2700912602150532 
1.119999999999893, -0.25976841617041996 
1.129999999999892, -0.25614967022924306 
1.1399999999998909, -0.2549740074566413 
1.1499999999998898, -0.2546745151067079 
1.1599999999998887, -0.25465206845026317 
1.1699999999998876, -0.254664786241686 
1.1799999999998865, -0.2546137413160209 
1.1899999999998854, -0.2544708858604761 
1.1999999999998843, -0.2542625751976392 
1.2099999999998832, -0.25407281262167997 
1.219999999999882, -0.2540449480152662 
1.229999999999881, -0.25437343093074005 
1.2399999999998799, -0.2552967377058141 
1.2499999999998788, -0.2571113553957084 
1.2599999999998777, -0.26020765826347225 
1.2699999999998766, -0.26508215680778696 
1.2799999999998755, -0.27220773238201623 
1.2899999999998744, -0.2816116727084954 
1.2999999999998733, -0.2923176328463318 
1.3099999999998722, -0.30245952110820945 
1.319999999999871, -0.31043036032277227 
1.32999999999987, -0.31576442697890456 
1.3399999999998689, -0.3188511430408607 
1.3499999999998678, -0.320255579850333 
1.3599999999998666, -0.320339754210399 
1.3699999999998655, -0.31914241665091125 
1.3799999999998644, -0.31629744167928125 
1.3899999999998633, -0.31087162813115704 
1.3999999999998622, -0.30118538333605926 
1.4099999999998611, -0.2851614918222377 
1.41999999999986, -0.2622999406306996 
1.429999999999859, -0.23631292358450703 
1.4399999999998578, -0.2133285998546921 
1.4499999999998567, -0.19664458146308522 
1.4599999999998556, -0.18579850756387545 
1.4699999999998545, -0.17903226900373176 
1.4799999999998534, -0.17484442065661 
1.4899999999998523, -0.1722595800979412 
1.4999999999998512, -0.17068052126031538 
1.5099999999998501, -0.16972514990906068 
1.519999999999849, -0.16912970808804964 
1.529999999999848, -0.1687079912850991 
1.5399999999998468, -0.1683386754919051 
1.5499999999998457, -0.16795844669994286 
1.5599999999998446, -0.1675545752579759 
1.5699999999998435, -0.16716377683750822 
1.5799999999998424, -0.16688937322528713 
1.5899999999998413, -0.1669454521995554 
1.5999999999998402, -0.1676691979158806 
1.6099999999998391, -0.16874417034222858 
1.619999999999838, -0.15993984178157244 
1.629999999999837, -0.026349971267518868 
1.6399999999998358, 0.7120558979702809 
1.6499999999998347, 1.1122317586402861 
1.6599999999998336, 1.1658708017566246 
1.6699999999998325, 1.1763000287499614 
1.6799999999998314, 1.1787595944524454 
1.6899999999998303, 1.1783625086158973 
1.6999999999998292, 1.1751225377817482 
1.709999999999828, 1.1650716550491427 
1.719999999999827, 1.1330169865663475 
1.729999999999826, 1.0536938365543664 
1.7399999999998248, 0.9954016815004294 
1.7499999999998237, 0.9978836007982013 
1.7599999999998226, 1.0065765222926988 
1.7699999999998215, 1.010897760531472 
1.7799999999998204, 1.0123921105423532 
1.7899999999998193, 1.0120152397963955 
1.7999999999998182, 1.0094355144441607 
1.809999999999817, 1.002103847633218 
1.819999999999816, 0.9806217485592921 
1.8299999999998149, 0.9297741880479455 
1.8399999999998138, 1.0790160129015842 
1.8499999999998127, 1.3472542238749436 
1.8599999999998116, 1.3986732851897303 
1.8699999999998105, 1.4084214138768278 
1.8799999999998094, 1.410434996631461 
1.8899999999998083, 1.4094456725279776 
1.8999999999998072, 1.4039958959322076 
1.909999999999806, 1.3788607079634718 
1.919999999999805, 1.187040206635711 
1.9299999999998039, 0.5645322989986414 
1.9399999999998028, 0.5485802117910885 
1.9499999999998017, 0.6046074884560068 
1.9599999999998006, 0.6260928670369226 
1.9699999999997995, 0.6342897509508569 
1.9799999999997984, 0.6375418015644492 
1.9899999999997973, 0.6384980992833366 
1.9999999999997962, 0.6378801968284822 
2.0099999999998173, 0.6353738631202172 
2.0199999999998384, 0.6291455547847192 
2.0299999999998595, 0.612605766047786 
2.0399999999998806, 0.5575824963959645 
2.0499999999999017, 0.32288078899443956 
2.059999999999923, -0.20869324885003354 
2.069999999999944, 3.250625953853144 
2.079999999999965, 3.342587595196812 
2.089999999999986, 3.3449347086979335 
2.100000000000007, 3.339823279956799 
2.1100000000000283, 3.0361568520996096 
2.1200000000000494, -4.760044537037939 
2.1300000000000705, -4.796527639497818 
2.1400000000000916, -4.797034217736384 
2.1500000000001127, -4.793099578518263 
2.160000000000134, -4.768235128264413 
2.170000000000155, -4.774659173845752 
2.180000000000176, -4.77677275965525 
2.190000000000197, -4.775986293335803 
2.2000000000002182, -4.775121092761097 
2.2100000000002393, -4.7738384384277115 
2.2200000000002604, -4.772311309826219 
2.2300000000002815, -4.7638046591761665 
2.2400000000003026, -4.778689743385678 
2.2500000000003237, -4.7819208144774645 
2.260000000000345, -4.780760227525854 
2.270000000000366, -4.762967108798645 
2.280000000000387, 0.9432158916801578 
2.290000000000408, 3.9353539846617354 
2.3000000000004293, 3.9414783196385854 
2.3100000000004504, 3.937346631044644 
2.3200000000004715, 3.337888606180777 
2.3300000000004926, -5.389768219684138 
2.3400000000005137, -5.403530878278135 
2.3500000000005348, -5.4020272323647 
2.360000000000556, -5.385683415847915 
2.370000000000577, -5.370858814186151 
2.380000000000598, -5.37842630407871 
2.390000000000619, -5.377513394750001 
2.4000000000006403, -5.375411926283319 
2.4100000000006614, -5.373890481582666 
2.4200000000006825, -5.372274319086705 
2.4300000000007036, -5.371665903492046 
2.4400000000007247, -5.37470222396348 
2.450000000000746, -5.3739494569043345 
2.460000000000767, -5.3633776175837955 
2.470000000000788, -5.367744435655302 
2.480000000000809, -5.459115502125977 
2.49000000000083, -5.460852623124984 
2.5000000000008513, -5.454548184178158 
2.5100000000008724, -4.472642553401626 
2.5200000000008935, 3.4665098799118197 
2.5300000000009146, 3.4801950110781954 
2.5400000000009357, 3.4793944780865536 
2.550000000000957, 3.462838906314262 
2.560000000000978, 3.227871460039643 
2.570000000000999, 3.3435969189735077 
2.58000000000102, 3.3495477164350156 
2.5900000000010412, 3.3495299211861878 
2.6000000000010624, 3.3486552702533325 
2.6100000000010835, 3.3459619360350814 
2.6200000000011046, 3.344234136767695 
2.6300000000011257, 3.3442866446867514 
2.6400000000011468, 3.340839343968735 
2.650000000001168, 3.3348576303124817 
2.660000000001189, 3.3531846976898514 
2.67000000000121, 3.358221269944116 
2.680000000001231, 3.3578609785479068 
2.6900000000012523, 3.350682749282222 
2.7000000000012734, 2.3790963671652983 
2.7100000000012945, -5.587219410902127 
2.7200000000013156, -5.601698002237639 
2.7300000000013367, -5.599978283760237 
2.740000000001358, -5.561741048964031 
2.750000000001379, 2.857741349301649 
2.7600000000014, 3.146117532953475 
2.770000000001421, 3.1509994451017955 
2.780000000001442, 3.150526745093439 
2.7900000000014633, 3.1465088410267805 
2.8000000000014844, 3.1344652849630035 
2.8100000000015055, 3.133784292150676 
2.8200000000015266, 3.136410564127581 
2.8300000000015477, 3.13525686953923 
2.840000000001569, 3.134203480892951 
2.85000000000159, 3.1385072887515766 
2.860000000001611, 3.1406065029558805 
2.870000000001632, 3.1403793660577026 
2.8800000000016532, 3.137947782864387 
2.8900000000016743, 3.1055454293254523 
2.9000000000016954, 3.106661486701026 
2.9100000000017165, 3.683412424738362 
2.9200000000017377, 3.688948454278288 
2.9300000000017588, 3.685621081526213 
2.94000000000178, 3.489490108579622 
2.950000000001801, -5.475726040666183 
2.960000000001822, -5.498216026233047 
2.970000000001843, -5.4971102435224415 
2.9800000000018643, -5.480226724837594 
2.9900000000018854, -5.437358783387974 
3.0000000000019065, -5.455180215839801 
3.0100000000019276, -5.454493998934503 
3.0200000000019487, -5.451803732940906 
3.03000000000197, -5.449275966740457 
3.040000000001991, -5.44892162555707 
3.050000000002012, -5.447789538210672 
3.060000000002033, -5.44931623022744 
3.070000000002054, -5.448454813794916 
3.0800000000020753, -5.440168561966373 
3.0900000000020964, -5.445773194539763 
3.1000000000021175, -5.479864274127916 
3.1100000000021386, -5.480334688224378 
3.1200000000021597, -5.470555727218153 
3.130000000002181, 0.9831844371537528 
3.140000000002202, 3.6918348964497647 
3.150000000002223, 3.697708746633947 
3.160000000002244, 3.6944174530864218 
3.1700000000022652, 3.5625097105437065 
3.1800000000022863, 2.91020718856882 
3.1900000000023074, 3.0211007922861675 
3.2000000000023285, 3.0249566292286962 
3.2100000000023496, 3.02477502756404 
3.2200000000023707, 3.022968859865065 
3.230000000002392, 3.0182007687176307 
3.240000000002413, 3.0156285155353073 
3.250000000002434, 3.0165771753746617 
3.260000000002455, 3.015104212064407 
3.2700000000024763, 3.0094245081778235 
3.2800000000024974, 3.018023042711886 
3.2900000000025185, 3.027856274698304 
3.3000000000025396, 3.0295063092815946 
3.3100000000025607, 3.0281725749449517 
3.3200000000025818, 3.014651336523758 
3.330000000002603, -0.15233521087076957 
3.340000000002624, -5.214151389391359 
3.350000000002645, -5.226513811567909 
3.360000000002666, -5.22528214767747 
3.3700000000026873, -5.205717669486887 
3.3800000000027084, -1.2147648365858632 
3.3900000000027295, 1.8106658834150189 
3.4000000000027506, 1.9071818269306928 
3.4100000000027717, 1.915486786012136 
3.420000000002793, 1.91670718394836 
3.430000000002814, 1.9166650377913381 
3.440000000002835, 1.9164685421291918 
3.450000000002856, 1.9161127181368804 
3.460000000002877, 1.9153428231209915 
3.4700000000028983, 1.9144678485780076 
3.4800000000029194, 1.913906749047347 
3.4900000000029405, 1.9131666931780213 
3.5000000000029616, 1.9102680883089047 
3.5100000000029827, 1.8939777532476998 
3.520000000003004, 1.666146559635585 
3.530000000003025, 2.472835376671232 
3.540000000003046, 2.9262006827414355 
3.550000000003067, 2.9352512442331378 
3.5600000000030882, 2.9345441513261568 
3.5700000000031094, 2.9206854490384586 
3.5800000000031305, 0.6855249154773893 
3.5900000000031516, -4.267958364213913 
3.6000000000031727, -4.292326593374383 
3.6100000000031938, -4.293056345693056 
3.620000000003215, -4.290597268821097 
3.630000000003236, -4.278971949636055 
3.640000000003257, -4.272901340160002 
3.650000000003278, -4.277306771370621 
3.6600000000032993, -4.276349905054911 
3.6700000000033204, -4.27672791488 
3.6800000000033415, -4.276633715386677 
3.6900000000033626, -4.275970337890525 
3.7000000000033837, -4.2731994851528645 
3.710000000003405, -4.244702161528933 
3.720000000003426, -4.300575050401211 
3.730000000003447, -4.321968995604883 
3.740000000003468, -4.3236447618464675 
3.750000000003489, -4.321022765320774 
3.7600000000035103, -4.295417454668032 
3.7700000000035314, -0.9036196850282714 
3.7800000000035525, 2.3082738775977076 
3.7900000000035736, 2.3329240043514288 
3.8000000000035947, 2.335053470332693 
3.810000000003616, 2.333616323326109 
3.820000000003637, 2.3259945173025045 
3.830000000003658, 2.29400247880435 
3.840000000003679, 2.270566540948109 
3.8500000000037002, 2.2827686276828887 
3.8600000000037213, 2.286322174489615 
3.8700000000037424, 2.285987124391754 
3.8800000000037635, 2.28448574650517 
3.8900000000037847, 2.2861751056359525 
3.9000000000038058, 2.291205666436234 
3.910000000003827, 2.2940762371126526 
3.920000000003848, 2.2946701641632687 
3.930000000003869, 2.2937810032498964 
3.94000000000389, 2.288851518406283 
3.9500000000039113, 2.231394933792369 
3.9600000000039324, -3.5058174679613052 
3.9700000000039535, -4.446961187317052 
3.9800000000039746, -4.459936306599895 
3.9900000000039957, -4.460141310275949 
4.000000000004016, -4.4546137249975235 
4.010000000003993, -4.373005279568702 
4.02000000000397, -3.7330318859828955 
4.030000000003946, -3.946088302301869 
4.040000000003923, -3.953174072210075 
4.0500000000039, -3.9528582122044 
4.0600000000038765, -3.9512933571904325 
4.070000000003853, -3.946998422165406 
4.08000000000383, -3.9458176103379436 
4.090000000003807, -3.9459994767394493 
4.100000000003783, -3.9423795533455417 
4.11000000000376, -3.9460741215165926 
4.120000000003737, -3.950865288539395 
4.130000000003713, -3.9513892658115326 
4.14000000000369, -3.949754694986877 
4.150000000003667, -3.934131430036717 
4.1600000000036434, -2.9190350541146057 
4.17000000000362, 3.2207198377399715 
4.180000000003597, 3.2587678074363695 
4.1900000000035735, 3.259758684412089 
4.20000000000355, 3.252058980097497 
4.210000000003527, 2.4942392947461682 
4.220000000003504, -4.270166766738031 
4.23000000000348, -4.312366182293737 
4.240000000003457, -4.313811982472425 
4.250000000003434, -4.311905457057881 
4.26000000000341, -4.303389987582523 
4.270000000003387, -4.296051758557754 
4.280000000003364, -4.300214313299237 
4.2900000000033405, -4.299209698197592 
4.300000000003317, -4.299598746401163 
4.310000000003294, -4.299900402294648 
4.320000000003271, -4.299277223977752 
4.330000000003247, -4.296706248132358 
4.340000000003224, -4.266379238791732 
4.350000000003201, -4.327132285549242 
4.360000000003177, -4.356467069733521 
4.370000000003154, -4.358693003150793 
4.380000000003131, -4.356438336019499 
4.390000000003107, -4.335300240293963 
4.400000000003084, -1.9498018255329324 
4.410000000003061, 2.3308667300079997 
4.4200000000030375, 2.3597649446196174 
4.430000000003014, 2.3621642881869627 
4.440000000002991, 2.3609527168256847 
4.450000000002968, 2.35435806349778 
4.460000000002944, 2.328135540148899 
4.470000000002921, 2.3067793452040855 
4.480000000002898, 2.3168812528932694 
4.490000000002874, 2.3201861060763926 
4.500000000002851, 2.31973398627933 
4.510000000002828, 2.3180302574933624 
4.520000000002804, 2.3199588940262803 
4.530000000002781, 2.3255256778957745 
4.540000000002758, 2.3285152746487783 
4.5500000000027345, 2.329075233073953 
4.560000000002711, 2.3280429593828305 
4.570000000002688, 2.3221289153830176 
4.580000000002665, 2.2365820493102664 
4.590000000002641, -4.060874022543379 
4.600000000002618, -4.471541221066479 
4.610000000002595, -4.480686101164741 
4.620000000002571, -4.480257760191759 
4.630000000002548, -4.472871344896098 
4.640000000002525, -4.318468382502273 
4.6500000000025015, -3.87351147939212 
4.660000000002478, -3.9848750091143095 
4.670000000002455, -3.9890771150309527 
4.6800000000024315, -3.988433605791742 
4.690000000002408, -3.9864467352509623 
4.700000000002385, -3.981788147012152 
4.710000000002362, -3.9818160937668017 
4.720000000002338, -3.981264693902144 
4.730000000002315, -3.9777769823201714 
4.740000000002292, -3.983458896439587 
4.750000000002268, -3.9864926514137564 
4.760000000002245, -3.9864871030614224 
4.770000000002222, -3.98354368360975 
4.7800000000021985, -3.9460869907380536 
4.790000000002175, -0.04434536948458514 
4.800000000002152, 3.5857758167396225 
4.810000000002129, 3.597491120614438 
4.820000000002105, 3.5959417564245264 
4.830000000002082, 3.551345482450587 
4.840000000002059, -4.878283146001348 
4.850000000002035, -5.01944705328236 
4.860000000002012, -5.021359197466134 
4.870000000001989, -5.018158255709364 
4.880000000001965, -4.992942617752162 
4.890000000001942, -4.997109866158713 
4.900000000001919, -4.999840483510122 
4.9100000000018955, -4.9989932616201695 
4.920000000001872, -4.997580073299635 
4.930000000001849, -4.996330043901308 
4.940000000001826, -4.994394312335848 
4.950000000001802, -4.990667405896318 
4.960000000001779, -4.99976540269643 
4.970000000001756, -5.000399320895135 
4.980000000001732, -4.997115563488897 
4.990000000001709, -4.864234366999849 
5.000000000001686, -5.582867035267917 
