t, s[1].omega / s[0].omega 
0, -0.8601869496716528 
0.009999999999999995, -0.8796747714584642 
0.019999999999999934, -0.8996374588136817 
0.029999999999999874, -0.9176621125675757 
0.04000000000000012, -0.9314817446819635 
0.050000000000000405, -0.9404589614161537 
0.06000000000000069, -0.9454972134814079 
0.07000000000000098, -0.9479068151105186 
0.08000000000000126, -0.9486839035375387 
0.09000000000000155, -0.9484277936006406 
0.10000000000000184, -0.9475558204592142 
0.11000000000000212, -0.9467011777810009 
0.12000000000000241, -0.9473904026533339 
0.130000000000002, -0.9528191885828861 
0.1400000000000009, -0.9674572622184145 
0.1499999999999998, -0.9939721641265065 
0.1599999999999987, -1.0299129769476925 
0.1699999999999976, -1.0692485997428296 
0.1799999999999965, -1.1069609541140577 
0.1899999999999954, -1.140947861972131 
0.1999999999999943, -1.1709777418550265 
0.2099999999999932, -1.1972152576241588 
0.2199999999999921, -1.2194091909806952 
0.229999999999991, -1.2368788579523495 
0.2399999999999899, -1.2491859972360313 
0.2499999999999888, -1.2567815614736142 
0.2599999999999877, -1.260843000220404 
0.2699999999999866, -1.2626165811857126 
0.2799999999999855, -1.2630332907754132 
0.2899999999999844, -1.2627555758213784 
0.2999999999999833, -1.262410838632606 
0.3099999999999822, -1.2626902321657694 
0.3199999999999811, -1.2640410716155905 
0.32999999999998, -1.266284819875823 
0.3399999999999789, -1.2688408491163843 
0.3499999999999778, -1.2712572150036212 
0.35999999999997667, -1.2733716953019618 
0.36999999999997557, -1.2751563945591478 
0.37999999999997447, -1.2765798857152884 
0.38999999999997337, -1.2775968789491943 
0.39999999999997227, -1.27818729914214 
0.40999999999997117, -1.278367925441363 
0.41999999999997006, -1.278169120570169 
0.42999999999996896, -1.2776036600633345 
0.43999999999996786, -1.276655032416906 
0.44999999999996676, -1.2752943944456123 
0.45999999999996566, -1.273511266399911 
0.46999999999996456, -1.2713284591436793 
0.47999999999996346, -1.2687805967667218 
0.48999999999996235, -1.2658851205729165 
0.49999999999996125, -1.2626973059847733 
0.5099999999999602, -1.2594841543754147 
0.519999999999959, -1.2568124341285938 
0.529999999999958, -1.2552170100700826 
0.5399999999999568, -1.2546592991897367 
0.5499999999999557, -1.2545389856235485 
0.5599999999999546, -1.2541591635975489 
0.5699999999999535, -1.2529039818726297 
0.5799999999999524, -1.2500534552117175 
0.5899999999999513, -1.244568892769811 
0.5999999999999502, -1.2351543506906826 
0.6099999999999491, -1.2207847368964728 
0.619999999999948, -1.201340231384964 
0.6299999999999469, -1.177520806832875 
0.6399999999999458, -1.1500618774149682 
0.6499999999999447, -1.1191937381614259 
0.6599999999999436, -1.0848539379716338 
0.6699999999999425, -1.0476079410552326 
0.6799999999999414, -1.00999145107812 
0.6899999999999403, -0.9769901896852321 
0.6999999999999392, -0.9536425393757121 
0.7099999999999381, -0.9411532303250969 
0.719999999999937, -0.9365132601380249 
0.7299999999999359, -0.9357166364173473 
0.7399999999999348, -0.9360850161841491 
0.7499999999999337, -0.936357724021527 
0.7599999999999326, -0.9359816620069218 
0.7699999999999315, -0.9345421638341996 
0.7799999999999304, -0.9314370710169426 
0.7899999999999293, -0.9257444750023934 
0.7999999999999282, -0.9164318681569295 
0.8099999999999271, -0.9031019510434651 
0.819999999999926, -0.8867594214563083 
0.8299999999999249, -0.869437068935687 
0.8399999999999238, -0.8529062651322624 
0.8499999999999227, -0.8379824822492601 
0.8599999999999216, -0.8247440942316944 
0.8699999999999205, -0.8129754227843584 
0.8799999999999194, -0.8024472550977475 
0.8899999999999183, -0.7930341190538226 
0.8999999999999172, -0.7847434641430606 
0.9099999999999161, -0.7776938626898233 
0.919999999999915, -0.7720478320304627 
0.9299999999999139, -0.767908815259323 
0.9399999999999128, -0.7652246869115056 
0.9499999999999117, -0.7637588462836405 
0.9599999999999106, -0.7631507957183421 
0.9699999999999095, -0.763019803111821 
0.9799999999999084, -0.7630449512272093 
0.9899999999999073, -0.7629965878821834 
0.9999999999999062, -0.7627394633832278 
1.0099999999999052, -0.7622338722312463 
1.019999999999904, -0.7615349495614757 
1.029999999999903, -0.760768143500316 
1.039999999999902, -0.7600741475610625 
1.0499999999999008, -0.7595506599143754 
1.0599999999998997, -0.7592201070715132 
1.0699999999998986, -0.7590278479916011 
1.0799999999998975, -0.7588659455993318 
1.0899999999998964, -0.7586189131089187 
1.0999999999998953, -0.7582159470971128 
1.1099999999998942, -0.7576653015407937 
1.119999999999893, -0.7570634942613507 
1.129999999999892, -0.7565910181349081 
1.1399999999998909, -0.7564994665100848 
1.1499999999998898, -0.7570782346095817 
1.1599999999998887, -0.7585926933014158 
1.1699999999998876, -0.7612143168684885 
1.1799999999998865, -0.7649850791807388 
1.1899999999998854, -0.7698407520781854 
1.1999999999998843, -0.775675954427528 
1.2099999999998832, -0.7824134248024113 
1.219999999999882, -0.79005320518052 
1.229999999999881, -0.7986970916864348 
1.2399999999998799, -0.8085458588259513 
1.2499999999998788, -0.8198471736321855 
1.2599999999998777, -0.8327378003384744 
1.2699999999998766, -0.8469208445862095 
1.2799999999998755, -0.8613004762980999 
1.2899999999998744, -0.8740987367740827 
1.2999999999998733, -0.8838082459098059 
1.3099999999998722, -0.8900872644129342 
1.319999999999871, -0.8935736712859399 
1.32999999999987, -0.8951388266077895 
1.3399999999998689, -0.895448054117265 
1.3499999999998678, -0.8949286968724053 
1.3599999999998666, -0.8939659421059296 
1.3699999999998655, -0.8933160536397791 
1.3799999999998644, -0.8948618777655106 
1.3899999999998633, -0.9025180910642959 
1.3999999999998622, -0.9219195130384616 
1.4099999999998611, -0.9569503046293226 
1.41999999999986, -1.0051574514979924 
1.429999999999859, -1.0586321136526282 
1.4399999999998578, -1.1100440283588222 
1.4499999999998567, -1.1559833033441074 
1.4599999999998556, -1.1958006969340584 
1.4699999999998545, -1.2294752828105509 
1.4799999999998534, -1.256550937485152 
1.4899999999998523, -1.2764185797089258 
1.4999999999998512, -1.2893091315475298 
1.5099999999998501, -1.2966344573821353 
1.519999999999849, -1.300248156151961 
1.529999999999848, -1.3016542686033208 
1.5399999999998468, -1.3018293138541832 
1.5499999999998457, -1.3014601086931428 
1.5599999999998446, -1.3012384062314402 
1.5699999999998435, -1.301851394846175 
1.5799999999998424, -1.3035335565998818 
1.5899999999998413, -1.3058582665538307 
1.5999999999998402, -1.3082284857945723 
1.6099999999998391, -1.3103314896280376 
1.619999999999838, -1.3121051594285391 
1.629999999999837, -1.3135326508239251 
1.6399999999998358, -1.314559235373641 
1.6499999999998347, -1.3151283991814404 
1.6599999999998336, -1.31522349447814 
1.6699999999998325, -1.31486607094179 
1.6799999999998314, -1.3140851172222268 
1.6899999999998303, -1.312887279901477 
1.6999999999998292, -1.3112507738276409 
1.709999999999828, -1.3091433544711018 
1.719999999999827, -1.306540993871856 
1.729999999999826, -1.3034199954555412 
1.7399999999998248, -1.2997382021045212 
1.7499999999998237, -1.2955028802272976 
1.7599999999998226, -1.2910105803654999 
1.7699999999998215, -1.2870584909763294 
1.7799999999998204, -1.2845624568197023 
1.7899999999998193, -1.2836507402978985 
1.7999999999998182, -1.283540564205232 
1.809999999999817, -1.2832988523751028 
1.819999999999816, -1.2821806100210025 
1.8299999999998149, -1.2793115309619596 
1.8399999999998138, -1.2731410743425304 
1.8499999999998127, -1.2609589928259388 
1.8599999999998116, -1.2391153822090426 
1.8699999999998105, -1.2048049980151012 
1.8799999999998094, -1.1582980985210232 
1.8899999999998083, -1.1026287789654388 
1.8999999999998072, -1.041291429707218 
1.909999999999806, -0.9773185491674641 
1.919999999999805, -0.9142508391054198 
1.9299999999998039, -0.8570004941618917 
1.9399999999998028, -0.8107856181499633 
1.9499999999998017, -0.7785098922033978 
1.9599999999998006, -0.7592969268721796 
1.9699999999997995, -0.7496561389764382 
1.9799999999997984, -0.7457041393578503 
1.9899999999997973, -0.7445329168385487 
1.9999999999997962, -0.7444193615300952 
2.0099999999998173, -0.7444783366079348 
2.0199999999998384, -0.7442675620148173 
2.0299999999998595, -0.7435256339276219 
2.0399999999998806, -0.7420542880578751 
2.0499999999999017, -0.7397242515459321 
2.059999999999923, -0.736567185445022 
2.069999999999944, -0.7328467320734438 
2.079999999999965, -0.7289808455418958 
2.089999999999986, -0.725348142270866 
2.100000000000007, -0.7221537635827568 
2.1100000000000283, -0.7194304319293197 
2.1200000000000494, -0.7171081937296492 
2.1300000000000705, -0.7150837336904119 
2.1400000000000916, -0.7132701890168532 
2.1500000000001127, -0.7116276914828102 
2.160000000000134, -0.7101739840013693 
2.170000000000155, -0.7089762061736965 
2.180000000000176, -0.7081293952524566 
2.190000000000197, -0.7077296235697198 
2.2000000000002182, -0.7078505395100688 
2.2100000000002393, -0.7085307315003158 
2.2200000000002604, -0.7097742125393027 
2.2300000000002815, -0.7115605221478088 
2.2400000000003026, -0.7138594494031101 
2.2500000000003237, -0.7166481393049919 
2.260000000000345, -0.7199305785924082 
2.270000000000366, -0.7237578304616253 
2.280000000000387, -0.7282430693537802 
2.290000000000408, -0.7335607744430978 
2.3000000000004293, -0.7399118759254876 
2.3100000000004504, -0.7474218229951815 
2.3200000000004715, -0.7559405092010911 
2.3300000000004926, -0.7648200302877011 
2.3400000000005137, -0.7729669096315332 
2.3500000000005348, -0.7793724295767925 
2.360000000000556, -0.7836639374047135 
2.370000000000577, -0.7860873440569112 
2.380000000000598, -0.7871116396960061 
2.390000000000619, -0.7871392607229454 
2.4000000000006403, -0.7864537983675176 
2.4100000000006614, -0.7853507893842926 
2.4200000000006825, -0.7845022167670657 
2.4300000000007036, -0.7858233891833984 
2.4400000000007247, -0.7942703347244705 
2.450000000000746, -0.8203877177844845 
2.460000000000767, -0.8800661195200208 
2.470000000000788, -0.9824706417125725 
2.480000000000809, -1.1100089583302903 
2.49000000000083, -1.2285122698943178 
2.5000000000008513, -1.3201199317608423 
2.5100000000008724, -1.3856650124254255 
2.5200000000008935, -1.430896200163104 
2.5300000000009146, -1.4605679990195504 
2.5400000000009357, -1.4784894153656034 
2.550000000000957, -1.4882479754067992 
2.560000000000978, -1.4929658171222804 
2.570000000000999, -1.4948434225132998 
2.58000000000102, -1.4951981529857088 
2.5900000000010412, -1.4948506365303298 
2.6000000000010624, -1.4944720858490725 
2.6100000000010835, -1.4945380634430667 
2.6200000000011046, -1.4950193516459904 
2.6300000000011257, -1.4955566697084697 
2.6400000000011468, -1.4959724456751713 
2.650000000001168, -1.4963386279532689 
2.660000000001189, -1.4966524868084221 
2.67000000000121, -1.4966686536314222 
2.680000000001231, -1.4960147201839749 
2.6900000000012523, -1.494287883627663 
2.7000000000012734, -1.491063993661158 
2.7100000000012945, -1.4859297427980391 
2.7200000000013156, -1.4785074022162825 
2.7300000000013367, -1.4683430052402022 
2.740000000001358, -1.454616535011225 
2.750000000001379, -1.4357364119247737 
2.7600000000014, -1.409042161122334 
2.770000000001421, -1.3718086458112917 
2.780000000001442, -1.3267755979436973 
2.7900000000014633, -1.2890933977240755 
2.8000000000014844, -1.2724963960717814 
2.8100000000015055, -1.2708907232445503 
2.8200000000015266, -1.27313354909936 
2.8300000000015477, -1.2747432238829948 
2.840000000001569, -1.2749047574409307 
2.85000000000159, -1.2732023048367316 
2.860000000001611, -1.2680063359692375 
2.870000000001632, -1.2535575691804126 
2.8800000000016532, -1.208233212960057 
2.8900000000016743, -1.0402417056372566 
2.9000000000016954, -0.45752342825263126 
2.9100000000017165, 0.23231319547949045 
2.9200000000017377, 0.4323262016327377 
2.9300000000017588, 0.47875060418383936 
2.94000000000178, 0.4928539839861979 
2.950000000001801, 0.49801406781109503 
2.960000000001822, 0.49990533169763773 
2.970000000001843, 0.5002537090273029 
2.9800000000018643, 0.4996788215311243 
2.9900000000018854, 0.49847048283023987 
3.0000000000019065, 0.4968667112739076 
3.0100000000019276, 0.4951507849010598 
3.0200000000019487, 0.4936330537382047 
3.03000000000197, 0.4925730747534228 
3.040000000001991, 0.4921154693334214 
3.050000000002012, 0.4922707967384996 
3.060000000002033, 0.49292366486073486 
3.070000000002054, 0.4938551309034608 
3.0800000000020753, 0.4947881566278306 
3.0900000000020964, 0.4954469306470396 
3.1000000000021175, 0.49558189974611294 
3.1100000000021386, 0.4949042410953949 
3.1200000000021597, 0.4928616850696118 
3.130000000002181, 0.4880043464243956 
3.140000000002202, 0.47574487035019003 
3.150000000002223, 0.4378963367328935 
3.160000000002244, 0.2796337775465495 
3.1700000000022652, -0.37735922795102794 
3.1800000000022863, -1.1172019412867091 
3.1900000000023074, -1.3344716691536787 
3.2000000000023285, -1.3872699752223512 
3.2100000000023496, -1.4024068333633024 
3.2200000000023707, -1.4071840893436343 
3.230000000002392, -1.408322370555274 
3.240000000002413, -1.4077129872386984 
3.250000000002434, -1.4061942316777063 
3.260000000002455, -1.4055784439409915 
3.2700000000024763, -1.4099716276106642 
3.2800000000024974, -1.4218828287099106 
3.2900000000025185, -1.437181567849068 
3.3000000000025396, -1.4506116099728141 
3.3100000000025607, -1.4606717058464438 
3.3200000000025818, -1.4679621964622362 
3.330000000002603, -1.473313006759064 
3.340000000002624, -1.477280387575779 
3.350000000002645, -1.4801740256402487 
3.360000000002666, -1.4821479064955079 
3.3700000000026873, -1.4832695176847224 
3.3800000000027084, -1.483581193026669 
3.3900000000027295, -1.4831495906534757 
3.4000000000027506, -1.4820875327629737 
3.4100000000027717, -1.480534559947594 
3.420000000002793, -1.4785775220205521 
3.430000000002814, -1.4761879862155087 
3.440000000002835, -1.4733918832484227 
3.450000000002856, -1.4706456276698616 
3.460000000002877, -1.4687897968614598 
3.4700000000028983, -1.4681404998905483 
3.4800000000029194, -1.4680303939383343 
3.4900000000029405, -1.4675041889708196 
3.5000000000029616, -1.4656180303406896 
3.5100000000029827, -1.4607848479384535 
3.520000000003004, -1.4493400697785241 
3.530000000003025, -1.423084033503796 
3.540000000003046, -1.3670417231979126 
3.550000000003067, -1.2639277460323042 
3.5600000000030882, -1.1111744395639165 
3.5700000000031094, -0.9339575435208394 
3.5800000000031305, -0.7704899220676009 
3.5900000000031516, -0.6452373780996166 
3.6000000000031727, -0.5607755038864318 
3.6100000000031938, -0.5078872512435385 
3.620000000003215, -0.47599793894312264 
3.630000000003236, -0.45715000901706127 
3.640000000003257, -0.44618253311451694 
3.650000000003278, -0.4399311841813015 
3.6600000000032993, -0.43649071724415595 
3.6700000000033204, -0.43471809169283127 
3.6800000000033415, -0.4339278279435229 
3.6900000000033626, -0.43371126039555313 
3.7000000000033837, -0.43383198244890087 
3.710000000003405, -0.4341689510257253 
3.720000000003426, -0.43468979920058715 
3.730000000003447, -0.4354410896810224 
3.740000000003468, -0.4365440494043488 
3.750000000003489, -0.4381897817669095 
3.7600000000035103, -0.4406356885470054 
3.7700000000035314, -0.4442003389053334 
3.7800000000035525, -0.44922320101767654 
3.7900000000035736, -0.45591101641998844 
3.8000000000035947, -0.46402250712840776 
3.810000000003616, -0.47260816386634935 
3.820000000003637, -0.48030091575540845 
3.830000000003658, -0.4861137084301649 
3.840000000003679, -0.4898625907099355 
3.8500000000037002, -0.491878616067258 
3.8600000000037213, -0.4925543107930001 
3.8700000000037424, -0.4920904179681137 
3.8800000000037635, -0.4903719264112093 
3.8900000000037847, -0.4867652991123029 
3.9000000000038058, -0.47950696799975107 
3.910000000003827, -0.4637538500987177 
3.920000000003848, -0.4252290565066027 
3.930000000003869, -0.323804701628825 
3.94000000000389, -0.10741593731072799 
3.9500000000039113, 0.11879200555401807 
3.9600000000039324, 0.2280610909310949 
3.9700000000039535, 0.2679962624445141 
3.9800000000039746, 0.2833078460089148 
3.9900000000039957, 0.28975830790332185 
4.000000000004016, 0.2925414344451759 
4.010000000003993, 0.2935335389282862 
4.02000000000397, 0.29349745688618734 
4.030000000003946, 0.2928105138935795 
4.040000000003923, 0.2917405275136432 
4.0500000000039, 0.29054696547669306 
4.0600000000038765, 0.28949228740948946 
4.070000000003853, 0.28882007636372264 
4.08000000000383, 0.28874751441182833 
4.090000000003807, 0.28948032583701067 
4.100000000003783, 0.2912111186122751 
4.11000000000376, 0.29404155134343946 
4.120000000003737, 0.29781607125232756 
4.130000000003713, 0.3020070408330298 
4.14000000000369, 0.30587384017713887 
4.150000000003667, 0.3088293715186906 
4.1600000000036434, 0.3106344844334569 
4.17000000000362, 0.31127486361042594 
4.180000000003597, 0.31070688438258875 
4.1900000000035735, 0.30859561971000293 
4.20000000000355, 0.3039462407404472 
4.210000000003527, 0.29437076152171804 
4.220000000003504, 0.27489221237932243 
4.23000000000348, 0.2385223268414396 
4.240000000003457, 0.18645897653944662 
4.250000000003434, 0.1385974877526662 
4.26000000000341, 0.11008618763537481 
4.270000000003387, 0.09681242403576205 
4.280000000003364, 0.09097563281456272 
4.2900000000033405, 0.08828942517174558 
4.300000000003317, 0.08695521193636328 
4.310000000003294, 0.086243662262401 
4.320000000003271, 0.0858300140014722 
4.330000000003247, 0.08552719801737826 
4.340000000003224, 0.08517406515174132 
4.350000000003201, 0.08458070071127008 
4.360000000003177, 0.08348594169294596 
4.370000000003154, 0.0814835107020757 
4.380000000003131, 0.07783929417994573 
4.390000000003107, 0.07101906735281573 
4.400000000003084, 0.05742199045491635 
4.410000000003061, 0.02790232540619201 
4.4200000000030375, -0.03997984711136446 
4.430000000003014, -0.18168633155860686 
4.440000000002991, -0.37085423307686627 
4.450000000002968, -0.5020006225480238 
4.460000000002944, -0.5614809000134008 
4.470000000002921, -0.5859609011944221 
4.480000000002898, -0.5964669362474712 
4.490000000002874, -0.6011526578127215 
4.500000000002851, -0.6030597103389339 
4.510000000002828, -0.6032895841965302 
4.520000000002804, -0.602054384045757 
4.530000000002781, -0.5989217557896318 
4.540000000002758, -0.5926777761958107 
4.5500000000027345, -0.5810591125151721 
4.560000000002711, -0.5611398647823886 
4.570000000002688, -0.5319353611020962 
4.580000000002665, -0.49796816700157603 
4.590000000002641, -0.4670160201498306 
4.600000000002618, -0.4434744568532764 
4.610000000002595, -0.4271280385291433 
4.620000000002571, -0.41603948405089053 
4.630000000002548, -0.40842610973001914 
4.640000000002525, -0.40306409294102324 
4.6500000000025015, -0.3991834094758385 
4.660000000002478, -0.39631358295019425 
4.670000000002455, -0.3941783710879122 
4.6800000000024315, -0.3926340376385791 
4.690000000002408, -0.3916343039773687 
4.700000000002385, -0.39121236230846523 
4.710000000002362, -0.39147656978176215 
4.720000000002338, -0.39261972853442667 
4.730000000002315, -0.39494458342551375 
4.740000000002292, -0.3989124274565642 
4.750000000002268, -0.4052292609185547 
4.760000000002245, -0.4149976621393262 
4.770000000002222, -0.4299876958327286 
4.7800000000021985, -0.4531238539498689 
4.790000000002175, -0.4893398190554813 
4.800000000002152, -0.5468932069251358 
4.810000000002129, -0.6383340102658362 
4.820000000002105, -0.776140019491384 
4.830000000002082, -0.9516414509210289 
4.840000000002059, -1.1139420719018296 
4.850000000002035, -1.216277330364492 
4.860000000002012, -1.2647144131439796 
4.870000000001989, -1.2847644446774715 
4.880000000001965, -1.2927058481332032 
4.890000000001942, -1.2956227057212157 
4.900000000001919, -1.2962696210907256 
4.9100000000018955, -1.2957793603407637 
4.920000000001872, -1.295007820360475 
