t, s[1].omega / s[0].omega 
0, -1.180011607203575 
0.009999999999999995, -1.1810146616970942 
0.019999999999999934, -1.181660133668362 
0.029999999999999874, -1.1818743269795864 
0.04000000000000012, -1.1816185371224206 
0.050000000000000405, -1.1809299181825101 
0.06000000000000069, -1.1799300599087184 
0.07000000000000098, -1.178795122337096 
0.08000000000000126, -1.1776858238784738 
0.09000000000000155, -1.1766796983699888 
0.10000000000000184, -1.175790392309161 
0.11000000000000212, -1.1750642605659594 
0.12000000000000241, -1.1746136969498573 
0.130000000000002, -1.1745057920375621 
0.1400000000000009, -1.1746312851608958 
0.1499999999999998, -1.1747238284218657 
0.1599999999999987, -1.1744838367227761 
0.1699999999999976, -1.1736646034067586 
0.1799999999999965, -1.172107876750677 
0.1899999999999954, -1.1697743240589646 
0.1999999999999943, -1.1667490821351403 
0.2099999999999932, -1.1631826986375156 
0.2199999999999921, -1.1592005341182112 
0.229999999999991, -1.1548505511107745 
0.2399999999999899, -1.1501080482947779 
0.2499999999999888, -1.1449071648165956 
0.2599999999999877, -1.1391769199811215 
0.2699999999999866, -1.1329053036646786 
0.2799999999999855, -1.1262833397303493 
0.2899999999999844, -1.1198969855047893 
0.2999999999999833, -1.1147002073366625 
0.3099999999999822, -1.1114658517904625 
0.3199999999999811, -1.1101229506784214 
0.32999999999998, -1.1098606227794507 
0.3399999999999789, -1.1097855572108577 
0.3499999999999778, -1.10924806199159 
0.35999999999997667, -1.107715107549239 
0.36999999999997557, -1.1045362850511589 
0.37999999999997447, -1.0988565699792185 
0.38999999999997337, -1.0898651181139978 
0.39999999999997227, -1.077365021234184 
0.40999999999997117, -1.0620923139735274 
0.41999999999997006, -1.0452557380252736 
0.42999999999996896, -1.027799846367 
0.43999999999996786, -1.0101333139799185 
0.44999999999996676, -0.9923128853051384 
0.45999999999996566, -0.9743698996884274 
0.46999999999996456, -0.9566385934274161 
0.47999999999996346, -0.9400100005456695 
0.48999999999996235, -0.9258866534772974 
0.49999999999996125, -0.9155851851778147 
0.5099999999999602, -0.9094729243052472 
0.519999999999959, -0.9067151317599457 
0.529999999999958, -0.9059125276985149 
0.5399999999999568, -0.9058565507783406 
0.5499999999999557, -0.905782569535126 
0.5599999999999546, -0.9052367178683476 
0.5699999999999535, -0.9038738089167208 
0.5799999999999524, -0.9013532341837879 
0.5899999999999513, -0.8973955077513939 
0.5999999999999502, -0.8919816752847162 
0.6099999999999491, -0.8855008664888105 
0.619999999999948, -0.8786045517433483 
0.6299999999999469, -0.8718676190704111 
0.6399999999999458, -0.8655903284992688 
0.6499999999999447, -0.8598313871648322 
0.6599999999999436, -0.854529878414996 
0.6699999999999425, -0.8496041466617641 
0.6799999999999414, -0.8450044123984781 
0.6899999999999403, -0.8407317694853642 
0.6999999999999392, -0.836840178276109 
0.7099999999999381, -0.8334305387255615 
0.719999999999937, -0.8306322333005861 
0.7299999999999359, -0.8285608698058603 
0.7399999999999348, -0.827257364788669 
0.7499999999999337, -0.8266433693622552 
0.7599999999999326, -0.826530626472547 
0.7699999999999315, -0.8266804055661197 
0.7799999999999304, -0.8268713875289085 
0.7899999999999293, -0.8269443293554992 
0.7999999999999282, -0.8268233274204292 
0.8099999999999271, -0.8265211227064846 
0.819999999999926, -0.8261221363428884 
0.8299999999999249, -0.8257380448665724 
0.8399999999999238, -0.8254535298465319 
0.8499999999999227, -0.8252889798669232 
0.8599999999999216, -0.8251924828857634 
0.8699999999999205, -0.8250621652479246 
0.8799999999999194, -0.8247937466525805 
0.8899999999999183, -0.8243331871106733 
0.8999999999999172, -0.8237087048665469 
0.9099999999999161, -0.8230359611857463 
0.919999999999915, -0.8225054847008749 
0.9299999999999139, -0.8223520445421253 
0.9399999999999128, -0.8227985278140849 
0.9499999999999117, -0.8239880102358981 
0.9599999999999106, -0.8259445099315676 
0.9699999999999095, -0.8285901619196776 
0.9799999999999084, -0.8318010353367832 
0.9899999999999073, -0.8354611915674235 
0.9999999999999062, -0.8394936272510689 
1.0099999999999052, -0.8438727672553983 
1.019999999999904, -0.8486279467553782 
1.029999999999903, -0.8538357198796795 
1.039999999999902, -0.8595870318048442 
1.0499999999999008, -0.8659108350403922 
1.0599999999998997, -0.8726491945236869 
1.0699999999998986, -0.8793443929843491 
1.0799999999998975, -0.8852993957452264 
1.0899999999998964, -0.8898961285841972 
1.0999999999998953, -0.8929139778858926 
1.1099999999998942, -0.8945281941170837 
1.119999999999893, -0.8950825356465775 
1.129999999999892, -0.8949248651501479 
1.1399999999998909, -0.8944195969317432 
1.1499999999998898, -0.8941135849082386 
1.1599999999998887, -0.8949816395137221 
1.1699999999998876, -0.8985327378889764 
1.1799999999998865, -0.9063938695426529 
1.1899999999998854, -0.9193475948856052 
1.1999999999998843, -0.9366956107752673 
1.2099999999998832, -0.9567484208781087 
1.219999999999882, -0.9778849776015328 
1.229999999999881, -0.999157731811767 
1.2399999999998799, -1.0202410503416952 
1.2499999999998788, -1.041061725628031 
1.2599999999998777, -1.0613563230421763 
1.2699999999998766, -1.0802928546926887 
1.2799999999998755, -1.0964727661416755 
1.2899999999998744, -1.1086341616842685 
1.2999999999998733, -1.1165320136731256 
1.3099999999998722, -1.120957950227242 
1.319999999999871, -1.1230267573494557 
1.32999999999987, -1.1236410109914896 
1.3399999999998689, -1.1234304836488218 
1.3499999999998678, -1.122968613367536 
1.3599999999998666, -1.1230415513382588 
1.3699999999998655, -1.124645105202983 
1.3799999999998644, -1.128408706345089 
1.3899999999998633, -1.1339838144520935 
1.3999999999998622, -1.1403435133687847 
1.4099999999998611, -1.1465910046663805 
1.41999999999986, -1.1523079124053968 
1.429999999999859, -1.1574207086761195 
1.4399999999998578, -1.1619914231651163 
1.4499999999998567, -1.1661036705237107 
1.4599999999998556, -1.1698150225758464 
1.4699999999998545, -1.17312384646254 
1.4799999999998534, -1.1759475961317096 
1.4899999999998523, -1.178144188701456 
1.4999999999998512, -1.1795888616994274 
1.5099999999998501, -1.180257346339534 
1.519999999999849, -1.1802519591546776 
1.529999999999848, -1.1797780222213685 
1.5399999999998468, -1.1791134867065614 
1.5499999999998457, -1.1785539276811003 
1.5599999999998446, -1.1782967043096997 
1.5699999999998435, -1.1783531146962658 
1.5799999999998424, -1.178617418950706 
1.5899999999998413, -1.179012522475601 
1.5999999999998402, -1.1795265496723455 
1.6099999999998391, -1.18012459944848 
1.619999999999838, -1.1806793856718325 
1.629999999999837, -1.1810070824556809 
1.6399999999998358, -1.1809481412048277 
1.6499999999998347, -1.180418881537433 
1.6599999999998336, -1.1794223112246411 
1.6699999999998325, -1.1780229320130136 
1.6799999999998314, -1.1762960753782752 
1.6899999999998303, -1.1742835328177326 
1.6999999999998292, -1.1719834453582307 
1.709999999999828, -1.169372049827676 
1.719999999999827, -1.1664317078977828 
1.729999999999826, -1.1631609233999123 
1.7399999999998248, -1.1595731197688994 
1.7499999999998237, -1.15573385656749 
1.7599999999998226, -1.1518707854608543 
1.7699999999998215, -1.148459119152203 
1.7799999999998204, -1.1460539090336603 
1.7899999999998193, -1.144858935928333 
1.7999999999998182, -1.1445184038244691 
1.809999999999817, -1.1444025604732242 
1.819999999999816, -1.1439374308061772 
1.8299999999998149, -1.1426377619278278 
1.8399999999998138, -1.1399908210915717 
1.8499999999998127, -1.1354348862963701 
1.8599999999998116, -1.1285570254784452 
1.8699999999998105, -1.1193894104973936 
1.8799999999998094, -1.1084399152616922 
1.8899999999998083, -1.096344092475211 
1.8999999999998072, -1.0835077690365447 
1.909999999999806, -1.0700250120770014 
1.919999999999805, -1.05580908718291 
1.9299999999998039, -1.0408222701343168 
1.9399999999998028, -1.0253901572652309 
1.9499999999998017, -1.0105344117725168 
1.9599999999998006, -0.9979620475762365 
1.9699999999997995, -0.9892481653776899 
1.9799999999997984, -0.9846687091990189 
1.9899999999997973, -0.9830667240148088 
1.9999999999997962, -0.9828725533055527 
2.0099999999998173, -0.9829377647463489 
2.0199999999998384, -0.9826045868591381 
2.0299999999998595, -0.981422205687595 
2.0399999999998806, -0.978889511503243 
2.0499999999999017, -0.9743637418384173 
2.059999999999923, -0.9672445235110583 
2.069999999999944, -0.9574393224931459 
2.079999999999965, -0.9456793718947715 
2.089999999999986, -0.9331666585751724 
2.100000000000007, -0.9208843310642226 
2.1100000000000283, -0.9092895531974232 
2.1200000000000494, -0.8984449343765173 
2.1300000000000705, -0.888255855938422 
2.1400000000000916, -0.8786394070496426 
2.1500000000001127, -0.869620354758837 
2.160000000000134, -0.861379177469287 
2.170000000000155, -0.8542430725099971 
2.180000000000176, -0.8485845788063072 
2.190000000000197, -0.8446337300106519 
2.2000000000002182, -0.8423145996731218 
2.2100000000002393, -0.8412475279547491 
2.2200000000002604, -0.8409149211095027 
2.2300000000002815, -0.8408404839024305 
2.2400000000003026, -0.840668828694116 
2.2500000000003237, -0.8401608860275347 
2.260000000000345, -0.8391770528240168 
2.270000000000366, -0.8376893587319361 
2.280000000000387, -0.835800098428032 
2.290000000000408, -0.8337103731036264 
2.3000000000004293, -0.8316306266454161 
2.3100000000004504, -0.8296973046443326 
2.3200000000004715, -0.82794760436234 
2.3300000000004926, -0.8263442246239372 
2.3400000000005137, -0.8248208022788589 
2.3500000000005348, -0.8233279100590298 
2.360000000000556, -0.8218652883188451 
2.370000000000577, -0.820490382472849 
2.380000000000598, -0.8193025081996173 
2.390000000000619, -0.8184109148349092 
2.4000000000006403, -0.8179015250733173 
2.4100000000006614, -0.8178182989105182 
2.4200000000006825, -0.8181646504018157 
2.4300000000007036, -0.8189148863379903 
2.4400000000007247, -0.820022587091634 
2.450000000000746, -0.8214247060038989 
2.460000000000767, -0.8230504734595719 
2.470000000000788, -0.8248404914083288 
2.480000000000809, -0.8267693681683215 
2.49000000000083, -0.8288578979132073 
2.5000000000008513, -0.8311632945592627 
2.5100000000008724, -0.8337442681638538 
2.5200000000008935, -0.8366052078986399 
2.5300000000009146, -0.8396337377671227 
2.5400000000009357, -0.842572257248522 
2.550000000000957, -0.845082511241063 
2.560000000000978, -0.8468952726540755 
2.570000000000999, -0.8479244117432312 
2.58000000000102, -0.8482582229071312 
2.5900000000010412, -0.8480908720051806 
2.6000000000010624, -0.8476995734677892 
2.6100000000010835, -0.8475004978222727 
2.6200000000011046, -0.8481333925393878 
2.6300000000011257, -0.8504521094704423 
2.6400000000011468, -0.8552927717212795 
2.650000000001168, -0.8630830370269106 
2.660000000001189, -0.8736190225688143 
2.67000000000121, -0.8862432703727539 
2.680000000001231, -0.9002458018938364 
2.6900000000012523, -0.9151570612233902 
2.7000000000012734, -0.930811163100538 
2.7100000000012945, -0.9472408017977854 
2.7200000000013156, -0.9644599590937307 
2.7300000000013367, -0.9821347790132371 
2.740000000001358, -0.9992414283803377 
2.750000000001379, -1.0141294659128905 
2.7600000000014, -1.0253591601093242 
2.770000000001421, -1.0326233911093616 
2.780000000001442, -1.0366683545752768 
2.7900000000014633, -1.0385296289848491 
2.8000000000014844, -1.039025786569471 
2.8100000000015055, -1.0387192686607256 
2.8200000000015266, -1.038141093604148 
2.8300000000015477, -1.0381308223959418 
2.840000000001569, -1.0400484698198142 
2.85000000000159, -1.045326563430454 
2.860000000001611, -1.0543319894856626 
2.870000000001632, -1.0658910445234064 
2.8800000000016532, -1.0782563721680185 
2.8900000000016743, -1.0902118222989248 
2.9000000000016954, -1.1012991122899385 
2.9100000000017165, -1.1115171045658958 
2.9200000000017377, -1.1210056076900228 
2.9300000000017588, -1.1298451723133887 
2.94000000000178, -1.1379368748985654 
2.950000000001801, -1.144968715199903 
2.960000000001822, -1.1505395733317918 
2.970000000001843, -1.154413003355795 
2.9800000000018643, -1.1566762237663655 
2.9900000000018854, -1.1576595457609182 
3.0000000000019065, -1.1577675883615386 
3.0100000000019276, -1.15741620592448 
3.0200000000019487, -1.157074494059527 
3.03000000000197, -1.1572459337776535 
3.040000000001991, -1.1582532194648762 
3.050000000002012, -1.1600210296825995 
3.060000000002033, -1.1621877843372703 
3.070000000002054, -1.1644138198054013 
3.0800000000020753, -1.1665243069745352 
3.0900000000020964, -1.1684495418297947 
3.1000000000021175, -1.1701380981220455 
3.1100000000021386, -1.1715405044297542 
3.1200000000021597, -1.1726342050184626 
3.130000000002181, -1.1734328975222996 
3.140000000002202, -1.1739643973488192 
3.150000000002223, -1.1742365471861365 
3.160000000002244, -1.1742194349858746 
3.1700000000022652, -1.1738603322233048 
3.1800000000022863, -1.1731241633545824 
3.1900000000023074, -1.1720328113151113 
3.2000000000023285, -1.1706767698248126 
3.2100000000023496, -1.1691856568290984 
3.2200000000023707, -1.1676687914151274 
3.230000000002392, -1.1661842158187699 
3.240000000002413, -1.1647919463433412 
3.250000000002434, -1.1636328042491964 
3.260000000002455, -1.1628910335243932 
3.2700000000024763, -1.162620659369445 
3.2800000000024974, -1.1626337462876521 
3.2900000000025185, -1.1625893837054078 
3.3000000000025396, -1.162142555856343 
3.3100000000025607, -1.1610085337424336 
3.3200000000025818, -1.1589854575315601 
3.330000000002603, -1.1560022869087363 
3.340000000002624, -1.1521515122246728 
3.350000000002645, -1.1476308514748503 
3.360000000002666, -1.1426226800966446 
3.3700000000026873, -1.1372124523740328 
3.3800000000027084, -1.1313844696824673 
3.3900000000027295, -1.1250608972848117 
3.4000000000027506, -1.1181563369200753 
3.4100000000027717, -1.110671361472756 
3.420000000002793, -1.1028699506144557 
3.430000000002814, -1.095477880813894 
3.440000000002835, -1.089587521664952 
3.450000000002856, -1.0859943242197754 
3.460000000002877, -1.0845232976829173 
3.4700000000028983, -1.0842444329559457 
3.4800000000029194, -1.0842012248800121 
3.4900000000029405, -1.0837293748724695 
3.5000000000029616, -1.0823102087047667 
3.5100000000029827, -1.0793271607350419 
3.520000000003004, -1.07396546880807 
3.530000000003025, -1.0654332225656717 
3.540000000003046, -1.0535160602184213 
3.550000000003067, -1.0389360927395779 
3.5600000000030882, -1.022938034112864 
3.5700000000031094, -1.006534364739143 
3.5800000000031305, -0.9901907754025349 
3.5900000000031516, -0.9739846476024384 
3.6000000000031727, -0.9579020918562506 
3.6100000000031938, -0.9421125273588935 
3.620000000003215, -0.9271825165663842 
3.630000000003236, -0.9141154401201345 
3.640000000003257, -0.9040233158556698 
3.650000000003278, -0.8974822225877854 
3.6600000000032993, -0.8941170236606464 
3.6700000000033204, -0.8928708214637462 
3.6800000000033415, -0.8926273310369014 
3.6900000000033626, -0.8925814851187432 
3.7000000000033837, -0.8922372705062553 
3.710000000003405, -0.8912570525659526 
3.720000000003426, -0.8893526103405586 
3.730000000003447, -0.8862991909980884 
3.740000000003468, -0.8820678122892984 
3.750000000003489, -0.876940078246111 
3.7600000000035103, -0.8714195700793936 
3.7700000000035314, -0.8659793153001887 
3.7800000000035525, -0.8608872497536749 
3.7900000000035736, -0.8562097914794261 
3.8000000000035947, -0.8519028680997156 
3.810000000003616, -0.8478970105398348 
3.820000000003637, -0.8441473252156191 
3.830000000003658, -0.8406515532074339 
3.840000000003679, -0.8374483478685107 
3.8500000000037002, -0.8346088059604027 
3.8600000000037213, -0.8322263774241565 
3.8700000000037424, -0.8303978914650649 
3.8800000000037635, -0.8291872972782615 
3.8900000000037847, -0.8285825776805675 
3.9000000000038058, -0.8284763126009199 
3.910000000003827, -0.828690361035927 
3.920000000003848, -0.8290301860554162 
3.930000000003869, -0.8293369497048181 
3.94000000000389, -0.8295202391154473 
3.9500000000039113, -0.8295703835052285 
3.9600000000039324, -0.829547784691667 
3.9700000000039535, -0.8295464577732794 
3.9800000000039746, -0.8296441242316048 
3.9900000000039957, -0.8298612699307297 
4.000000000004016, -0.8301441930481488 
4.010000000003993, -0.8303796409716107 
4.02000000000397, -0.8304420199147915 
4.030000000003946, -0.8302532626151254 
4.040000000003923, -0.8298222295946802 
4.0500000000039, -0.8292530642479834 
4.0600000000038765, -0.8287374616435186 
4.070000000003853, -0.8285359599552189 
4.08000000000383, -0.828931495863609 
4.090000000003807, -0.8301494892941352 
4.100000000003783, -0.8322825968443635 
4.11000000000376, -0.8352761380142113 
4.120000000003737, -0.8389837072139292 
4.130000000003713, -0.8432462589866285 
4.14000000000369, -0.8479477443665614 
4.150000000003667, -0.853037736028082 
4.1600000000036434, -0.8585339245306638 
4.17000000000362, -0.8645112871560597 
4.180000000003597, -0.8710680343976435 
4.1900000000035735, -0.8782470952090253 
4.20000000000355, -0.8859005087347607 
4.210000000003527, -0.8935508001512528 
4.220000000003504, -0.9004268961699443 
4.23000000000348, -0.9058055685169222 
4.240000000003457, -0.9094005672708834 
4.250000000003434, -0.9113954095503237 
4.26000000000341, -0.9121820910300059 
4.270000000003387, -0.9121489745103126 
4.280000000003364, -0.9116666317334717 
4.2900000000033405, -0.9112451630250302 
4.300000000003317, -0.9117927274932127 
4.310000000003294, -0.9147742647709325 
4.320000000003271, -0.9218623981080295 
4.330000000003247, -0.9339569537532281 
4.340000000003224, -0.9504314657072997 
4.350000000003201, -0.9695656312745033 
4.360000000003177, -0.9896658317932367 
4.370000000003154, -1.0097352239592898 
4.380000000003131, -1.0294377848812593 
4.390000000003107, -1.0487346537082511 
4.400000000003084, -1.0674694022269509 
4.410000000003061, -1.0850142064599129 
4.4200000000030375, -1.10020591751992 
4.430000000003014, -1.111873703868905 
4.440000000002991, -1.1196429338064873 
4.450000000002968, -1.124102847119317 
4.460000000002944, -1.126241516696799 
4.470000000002921, -1.1269184786809214 
4.480000000002898, -1.1267548303524435 
4.490000000002874, -1.1263093774984783 
4.500000000002851, -1.1263211979663175 
4.510000000002828, -1.1277090340052864 
4.520000000002804, -1.1310559778952254 
4.530000000002781, -1.1360609668365647 
4.540000000002758, -1.141802566610953 
4.5500000000027345, -1.1474653460275916 
4.560000000002711, -1.1526610428421604 
4.570000000002688, -1.1573128127851522 
4.580000000002665, -1.1614673251955387 
4.590000000002641, -1.1651944453314342 
4.600000000002618, -1.1685478029227612 
4.610000000002595, -1.171535215164429 
4.620000000002571, -1.174093776904091 
4.630000000002548, -1.176099240934687 
4.640000000002525, -1.1774281261315176 
4.6500000000025015, -1.1780376459242683 
4.660000000002478, -1.1780029987985787 
4.670000000002455, -1.1775046141132945 
4.6800000000024315, -1.1767994509623854 
4.690000000002408, -1.1761666433878457 
4.700000000002385, -1.175798799170234 
4.710000000002362, -1.1757184791328545 
4.720000000002338, -1.175839177997365 
4.730000000002315, -1.176101079589391 
4.740000000002292, -1.1765049503496683 
4.750000000002268, -1.1770225419385536 
4.760000000002245, -1.17752429790325 
4.770000000002222, -1.1778157048322373 
4.7800000000021985, -1.177722084186223 
4.790000000002175, -1.1771441221536347 
4.800000000002152, -1.176073486917355 
4.810000000002129, -1.1745729334763726 
4.820000000002105, -1.172726152501959 
4.830000000002082, -1.170587389147527 
4.840000000002059, -1.1681638422482854 
4.850000000002035, -1.1654333831420838 
4.860000000002012, -1.162373357911782 
4.870000000001989, -1.1589747102590278 
4.880000000001965, -1.1552441770417219 
4.890000000001942, -1.1512404610201108 
4.900000000001919, -1.1471826465060353 
4.9100000000018955, -1.1435461438426726 
4.920000000001872, -1.1409165993064176 
4.930000000001849, -1.1395539531150054 
