t, s[1].omega / s[0].omega 
0, -0.48456114478189666 
0.009999999999999995, -1.0867630539514832 
0.019999999999999934, -1.5654000963822927 
0.029999999999999874, -1.731828212077307 
0.04000000000000012, -1.7790189859154495 
0.050000000000000405, -1.7931545410758851 
0.06000000000000069, -1.7975209793771654 
0.07000000000000098, -1.7985315387324134 
0.08000000000000126, -1.798288157351514 
0.09000000000000155, -1.7979462931872465 
0.10000000000000184, -1.798213398968469 
0.11000000000000212, -1.7988252446105713 
0.12000000000000241, -1.799197042524454 
0.130000000000002, -1.7993237643706788 
0.1400000000000009, -1.7994245701037888 
0.1499999999999998, -1.7992727189135251 
0.1599999999999987, -1.7982082218754276 
0.1699999999999976, -1.795159522796249 
0.1799999999999965, -1.7879876791323976 
0.1899999999999954, -1.7721185209891175 
0.1999999999999943, -1.738033786460314 
0.2099999999999932, -1.6658424328523953 
0.2199999999999921, -1.5135935608299353 
0.229999999999991, -1.2187192711406971 
0.2399999999999899, -0.8257608449893317 
0.2499999999999888, -0.5404598214784263 
0.2599999999999877, -0.40309619177863054 
0.2699999999999866, -0.34310818239518237 
0.2799999999999855, -0.31600539842946446 
0.2899999999999844, -0.30308171612028584 
0.2999999999999833, -0.2966649324226662 
0.3099999999999822, -0.29342944642703084 
0.3199999999999811, -0.2918388315939847 
0.32999999999998, -0.2911454733044503 
0.3399999999999789, -0.290976898485921 
0.3499999999999778, -0.29115753320846255 
0.35999999999997667, -0.2916331679556633 
0.36999999999997557, -0.2924443786589178 
0.37999999999997447, -0.29372556635023933 
0.38999999999997337, -0.2957221110610721 
0.39999999999997227, -0.29883273979087793 
0.40999999999997117, -0.30369650005767024 
0.41999999999997006, -0.31133559947041445 
0.42999999999996896, -0.3232795143426085 
0.43999999999996786, -0.34129217501006553 
0.44999999999996676, -0.36586811700310806 
0.45999999999996566, -0.3937211546514542 
0.46999999999996456, -0.4184094813495832 
0.47999999999996346, -0.4357121895146464 
0.48999999999996235, -0.4459825302352526 
0.49999999999996125, -0.4514862861759147 
0.5099999999999602, -0.45412209476696075 
0.519999999999959, -0.45495235322057515 
0.529999999999958, -0.4543718393405368 
0.5399999999999568, -0.4522318445292658 
0.5499999999999557, -0.4477498236579819 
0.5599999999999546, -0.43918032728137446 
0.5699999999999535, -0.4235066291679635 
0.5799999999999524, -0.39749347246070654 
0.5899999999999513, -0.3620174439476162 
0.5999999999999502, -0.3252038323577916 
0.6099999999999491, -0.2957468542990981 
0.619999999999948, -0.2758222410594572 
0.6299999999999469, -0.26324469230041514 
0.6399999999999458, -0.2553616606319507 
0.6499999999999447, -0.2503265311580162 
0.6599999999999436, -0.2470266969889944 
0.6699999999999425, -0.244804480664145 
0.6799999999999414, -0.2432628041053833 
0.6899999999999403, -0.24216308312736326 
0.6999999999999392, -0.24137857715383898 
0.7099999999999381, -0.24087699131385346 
0.719999999999937, -0.24072528453790296 
0.7299999999999359, -0.2411283419382654 
0.7399999999999348, -0.24253811169018177 
0.7499999999999337, -0.2459291678043006 
0.7599999999999326, -0.2535152686283856 
0.7699999999999315, -0.2707780164886783 
0.7799999999999304, -0.3128655235142396 
0.7899999999999293, -0.42638699581542117 
0.7999999999999282, -0.7455502695603816 
0.8099999999999271, -1.3484594330831525 
0.819999999999926, -1.7665970215404023 
0.8299999999999249, -1.9182344716430328 
0.8399999999999238, -1.973913586816927 
0.8499999999999227, -1.9971533455757502 
0.8599999999999216, -2.007376365165774 
0.8699999999999205, -2.011661229648671 
0.8799999999999194, -2.013016815883516 
0.8899999999999183, -2.0128241143223824 
0.8999999999999172, -2.011769218677976 
0.9099999999999161, -2.010078637998183 
0.919999999999915, -2.007450793033462 
0.9299999999999139, -2.0038438821596882 
0.9399999999999128, -2.000980567578164 
0.9499999999999117, -2.0004129029438134 
0.9599999999999106, -2.0005200724304943 
0.9699999999999095, -1.9992219672555482 
0.9799999999999084, -1.9935487798827822 
0.9899999999999073, -1.9697686612686653 
0.9999999999999062, -1.8378122814587001 
1.0099999999999052, -1.2479466894571698 
1.019999999999904, -3.3558295662698376 
1.029999999999903, -5.840381660052578 
1.039999999999902, -5.845944099855549 
1.0499999999999008, -5.841501840171218 
1.0599999999998997, -5.354799753363605 
1.0699999999998986, 3.759071328354646 
1.0799999999998975, 3.772739855214688 
1.0899999999998964, 3.772041219020803 
1.0999999999998953, 3.7607020327129943 
1.1099999999998942, 3.7181705558679545 
1.119999999999893, 3.7389681188386072 
1.129999999999892, 3.740485728272862 
1.1399999999998909, 3.740107012669913 
1.1499999999998898, 3.7397654319120255 
1.1599999999998887, 3.7382746540925305 
1.1699999999998876, 3.737675808312835 
1.1799999999998865, 3.7345033584712 
1.1899999999998854, 3.7207709525415424 
1.1999999999998843, 3.75034925893664 
1.2099999999998832, 3.755938561143531 
1.219999999999882, 3.7548961518315602 
1.229999999999881, 3.7340539060400078 
1.2399999999998799, -5.678486156448274 
1.2499999999998788, -5.943676517188312 
1.2599999999998777, -5.944938969131063 
1.2699999999998766, -5.933761581470314 
1.2799999999998755, 1.7807948145986117 
1.2899999999998744, 3.5635959453416675 
1.2999999999998733, 3.5699424112773457 
1.3099999999998722, 3.5691064324627613 
1.319999999999871, 3.561717449677257 
1.32999999999987, 3.5431953946768813 
1.3399999999998689, 3.5507707391458694 
1.3499999999998678, 3.5519038673174266 
1.3599999999998666, 3.550994285596284 
1.3699999999998655, 3.552242707051274 
1.3799999999998644, 3.5525750598041173 
1.3899999999998633, 3.5518917067510793 
1.3999999999998622, 3.54967012796696 
1.4099999999998611, 3.5216930947303573 
1.41999999999986, 3.578856906286179 
1.429999999999859, 3.6182163194701595 
1.4399999999998578, 3.619728556839612 
1.4499999999998567, 3.6139560014867937 
1.4599999999998556, 2.5422142736834923 
1.4699999999998545, -5.605587798955203 
1.4799999999998534, -5.616601440854124 
1.4899999999998523, -5.61430092694164 
1.4999999999998512, -5.559997549059186 
1.5099999999998501, -5.3733164792537185 
1.519999999999849, -5.405716705127275 
1.529999999999848, -5.405194831374503 
1.5399999999998468, -5.400557375457835 
1.5499999999998457, -5.394700278222375 
1.5599999999998446, -5.3969698026110775 
1.5699999999998435, -5.395816416505449 
1.5799999999998424, -5.395740406223244 
1.5899999999998413, -5.394679917368268 
1.5999999999998402, -5.390859932773025 
1.6099999999998391, -5.388107595864463 
1.619999999999838, -5.402911836396074 
1.629999999999837, -5.403047286000634 
1.6399999999998358, -5.394357580245016 
1.6499999999998347, -1.6940781724646878 
1.6599999999998336, 4.99272832029916 
1.6699999999998325, 4.996624205418735 
1.6799999999998314, 4.979651325365195 
1.6899999999998303, -6.778243248633207 
1.6999999999998292, -6.817642455834691 
1.709999999999828, -6.814401298711864 
1.719999999999827, -6.6440106586185745 
1.729999999999826, -6.748657694105233 
1.7399999999998248, -6.748209289278468 
1.7499999999998237, -6.740526740170543 
1.7599999999998226, -6.740760582553722 
1.7699999999998215, -6.739836737454285 
1.7799999999998204, -6.738430555934636 
1.7899999999998193, -6.736929536674344 
1.7999999999998182, -6.732581946202569 
1.809999999999817, -6.736390613630514 
1.819999999999816, -6.735449915926213 
1.8299999999998149, -6.714457119824263 
1.8399999999998138, -6.757724226132291 
1.8499999999998127, -6.762111202807125 
1.8599999999998116, -6.752810712092459 
1.8699999999998105, 5.185136023542015 
1.8799999999998094, 5.312412168379399 
1.8899999999998083, 5.310061276224597 
1.8999999999998072, -0.13913863247060912 
1.909999999999806, -6.912756471889011 
1.919999999999805, -6.913166195870947 
1.9299999999998039, -6.884475360989386 
1.9399999999998028, -6.866303214059658 
1.9499999999998017, -6.869365122543182 
1.9599999999998006, -6.865522864505392 
1.9699999999997995, -6.861588262638281 
1.9799999999997984, -6.861554716854114 
1.9899999999997973, -6.8605111026087995 
1.9999999999997962, -6.8587398162658575 
2.0099999999998173, -6.8546787343483 
2.0199999999998384, -6.857896005173169 
2.0299999999998595, -6.857601916698165 
2.0399999999998806, -6.845027608634472 
2.0499999999999017, -6.880202923280744 
2.059999999999923, -6.888865888072788 
2.069999999999944, -6.882269387667388 
2.079999999999965, 5.0872735837789005 
2.089999999999986, 5.348226652816244 
2.100000000000007, 5.346502564095257 
2.1100000000000283, 3.002215465598586 
2.1200000000000494, -6.8797942461533355 
2.1300000000000705, -6.880941884584757 
2.1400000000000916, -6.860569783367592 
2.1500000000001127, -6.8368757702188105 
2.160000000000134, -6.841283577078217 
2.170000000000155, -6.838045358237973 
2.180000000000176, -6.833450238998211 
2.190000000000197, -6.8337292078128495 
2.2000000000002182, -6.832759508144437 
2.2100000000002393, -6.830990467275887 
2.2200000000002604, -6.827300975092021 
2.2300000000002815, -6.8299258121716 
2.2400000000003026, -6.830248373465414 
2.2500000000003237, -6.821674482322341 
2.260000000000345, -6.851280639013884 
2.270000000000366, -6.868406837483195 
2.280000000000387, -6.864176823632171 
2.290000000000408, 3.2960367763703724 
2.3000000000004293, 5.212037402431486 
2.3100000000004504, 5.212049189555768 
2.3200000000004715, 5.0622781477684935 
2.3300000000004926, -6.536901259155255 
2.3400000000005137, -6.544680619833292 
2.3500000000005348, -6.539408631194272 
2.360000000000556, -6.489073752174207 
2.370000000000577, -6.514458491268071 
2.380000000000598, -6.51319635408431 
2.390000000000619, -6.5078007052603155 
2.4000000000006403, -6.508305111367835 
2.4100000000006614, -6.506657089118818 
2.4200000000006825, -6.506380375921838 
2.4300000000007036, -6.504982801919884 
2.4400000000007247, -6.496283543742168 
2.450000000000746, -6.507405223449311 
2.460000000000767, -6.507551831754891 
2.470000000000788, -6.492690329687927 
2.480000000000809, -6.63128827845559 
2.49000000000083, -6.667341943421289 
2.5000000000008513, -6.664693924824557 
2.5100000000008724, -5.952115232849902 
2.5200000000008935, 4.681835871656775 
2.5300000000009146, 4.686426673497599 
2.5400000000009357, 4.677564151915805 
2.550000000000957, 4.1164095555883495 
2.560000000000978, 4.40822773088203 
2.570000000000999, 4.410269528028268 
2.58000000000102, 4.408005436719844 
2.5900000000010412, 4.396637819280428 
2.6000000000010624, 4.3992222626983635 
2.6100000000010835, 4.3996603958626235 
2.6200000000011046, 4.399085725864966 
2.6300000000011257, 4.399792328732 
2.6400000000011468, 4.398924668501782 
2.650000000001168, 4.397038520154327 
2.660000000001189, 4.376183921969076 
2.67000000000121, 4.412796242708973 
2.680000000001231, 4.418932007550387 
2.6900000000012523, 4.416652119626471 
2.7000000000012734, 4.218394402631521 
2.7100000000012945, -6.676688134156953 
2.7200000000013156, -6.686248660215834 
2.7300000000013367, -6.679834511410547 
2.740000000001358, 3.382171764159439 
2.750000000001379, 4.556444942532958 
2.7600000000014, 4.558153354135266 
2.770000000001421, 4.550430705079885 
2.780000000001442, 4.491732346382899 
2.7900000000014633, 4.522146026219096 
2.8000000000014844, 4.5227512597826784 
2.8100000000015055, 4.521756924796902 
2.8200000000015266, 4.518417737268483 
2.8300000000015477, 4.518149556250167 
2.840000000001569, 4.5162370144641715 
2.85000000000159, 4.515647114786109 
2.860000000001611, 4.520460004644708 
2.870000000001632, 4.520129048668897 
2.8800000000016532, 4.514623165160289 
2.8900000000016743, 4.398675004888525 
2.9000000000016954, 4.620322344764519 
2.9100000000017165, 4.6226122115174695 
2.9200000000017377, 4.610423747637686 
2.9300000000017588, -6.5077021470285334 
2.94000000000178, -6.621350578580177 
2.950000000001801, -6.619966298836135 
2.960000000001822, -6.5166741490432925 
2.970000000001843, -6.1479632735627 
2.9800000000018643, -6.162067236326505 
2.9900000000018854, -6.159718175377344 
3.0000000000019065, -6.140410186262131 
3.0100000000019276, -6.1486890421290035 
3.0200000000019487, -6.148044383695568 
3.03000000000197, -6.146348610948211 
3.040000000001991, -6.1446553562796185 
3.050000000002012, -6.142114802374282 
3.060000000002033, -6.143538639481803 
3.070000000002054, -6.143924650087113 
3.0800000000020753, -6.140719404499233 
3.0900000000020964, -6.1050251494237875 
3.1000000000021175, -6.17327071874467 
3.1100000000021386, -6.173869022367769 
3.1200000000021597, -6.157181739848284 
3.130000000002181, 4.417196539024124 
3.140000000002202, 4.523490118002156 
3.150000000002223, 4.523005701216567 
3.160000000002244, 4.458804971152392 
3.1700000000022652, -5.391000077064191 
3.1800000000022863, -5.445205255443449 
3.1900000000023074, -5.445019018981428 
3.2000000000023285, -5.437824612509621 
3.2100000000023496, -5.41726147428957 
3.2200000000023707, -5.427330912128835 
3.230000000002392, -5.426574655897786 
3.240000000002413, -5.425268782842361 
3.250000000002434, -5.423391100381295 
3.260000000002455, -5.422046703800785 
3.2700000000024763, -5.4195393502846425 
3.2800000000024974, -5.42473848298923 
3.2900000000025185, -5.424379921301032 
3.3000000000025396, -5.417064641615104 
3.3100000000025607, -5.320334823666399 
3.3200000000025818, -5.552970423528733 
3.330000000002603, -5.55643606157588 
3.340000000002624, -5.551866387208655 
3.350000000002645, -5.208100494985345 
3.360000000002666, 3.540905499705962 
3.3700000000026873, 3.5598103127410328 
3.3800000000027084, 3.559403027403408 
3.3900000000027295, 3.5463333692115193 
3.4000000000027506, 3.3728658318185536 
3.4100000000027717, 3.457628984124441 
3.420000000002793, 3.4631011039250787 
3.430000000002814, 3.4629994101521695 
3.440000000002835, 3.4621511957622495 
3.450000000002856, 3.4595628379146275 
3.460000000002877, 3.4582490581701792 
3.4700000000028983, 3.458010486610938 
3.4800000000029194, 3.4531527677511504 
3.4900000000029405, 3.4522089841917483 
3.5000000000029616, 3.4687435098427635 
3.5100000000029827, 3.471447233493914 
3.520000000003004, 3.4701084856653908 
3.530000000003025, 3.4507639153874075 
3.540000000003046, -4.902939130234974 
3.550000000003067, -5.797618051087853 
3.5600000000030882, -5.800831192025819 
3.5700000000031094, -5.794708010197757 
3.5800000000031305, -4.255788304098615 
3.5900000000031516, 3.5296521405499712 
3.6000000000031727, 3.5429594516404235 
3.6100000000031938, 3.542798503603538 
3.620000000003215, 3.5374375623384937 
3.630000000003236, 3.514704043881963 
3.640000000003257, 3.5205857549596757 
3.650000000003278, 3.52336459499893 
3.6600000000032993, 3.5225142144963635 
3.6700000000033204, 3.5232124951194286 
3.6800000000033415, 3.52381129870248 
3.6900000000033626, 3.5231771921695803 
3.7000000000033837, 3.521869650684627 
3.710000000003405, 3.5096477797610994 
3.720000000003426, 3.4974410201377113 
3.730000000003447, 3.5815434725396513 
3.740000000003468, 3.5858817504851936 
3.750000000003489, 3.583429278357362 
3.7600000000035103, 3.505379266473595 
3.7700000000035314, -5.536351910586241 
3.7800000000035525, -5.582888246855559 
3.7900000000035736, -5.582766426704815 
3.8000000000035947, -5.5692833052971675 
3.810000000003616, -5.150528199739226 
3.820000000003637, -5.36018804378067 
3.830000000003658, -5.362039016069617 
3.840000000003679, -5.359642097627285 
3.8500000000037002, -5.350273944868407 
3.8600000000037213, -5.353234476776384 
3.8700000000037424, -5.352265241937655 
3.8800000000037635, -5.352343619629799 
3.8900000000037847, -5.351324232464012 
3.9000000000038058, -5.349947746344289 
3.910000000003827, -5.337654851547774 
3.920000000003848, -5.357182290391726 
3.930000000003869, -5.360593993901403 
3.94000000000389, -5.3583444350471074 
3.9500000000039113, -5.277019528492923 
3.9600000000039324, 4.596952808142051 
3.9700000000039535, 4.6483012036406945 
3.9800000000039746, 4.646744427131395 
3.9900000000039957, 4.404070094876576 
4.000000000004016, -6.365940082850558 
4.010000000003993, -6.373315400465187 
4.02000000000397, -6.36818410291404 
4.030000000003946, -6.271662698816094 
4.040000000003923, -6.325503749433395 
4.0500000000039, -6.324863413893565 
4.0600000000038765, -6.319737293597671 
4.070000000003853, -6.318697951308065 
4.08000000000383, -6.317718785003638 
4.090000000003807, -6.317387036878784 
4.100000000003783, -6.315983624869522 
4.11000000000376, -6.312023718085154 
4.120000000003737, -6.314678666909809 
4.130000000003713, -6.318244742789403 
4.14000000000369, -6.3152126787310445 
4.150000000003667, -6.051597207089655 
4.1600000000036434, -6.466864938315335 
4.17000000000362, -6.469330604207983 
4.180000000003597, -6.456752812750878 
4.1900000000035735, 4.340052421125796 
4.20000000000355, 4.4857977701406435 
4.210000000003527, 4.485799767831873 
4.220000000003504, 4.45436209949183 
4.23000000000348, 4.197793767426716 
4.240000000003457, 4.250529226853756 
4.250000000003434, 4.251095434556712 
4.26000000000341, 4.2482693796952296 
4.270000000003387, 4.238765602442126 
4.280000000003364, 4.241532653082276 
4.2900000000033405, 4.24130623197898 
4.300000000003317, 4.240788526714526 
4.310000000003294, 4.24225628691163 
4.320000000003271, 4.2416745711337605 
4.330000000003247, 4.239779376180092 
4.340000000003224, 4.212915940730336 
4.350000000003201, 4.26433461251504 
4.360000000003177, 4.276287983749113 
4.370000000003154, 4.274953472594808 
4.380000000003131, 4.213160821765269 
4.390000000003107, -6.312262254825805 
4.400000000003084, -6.335911136953547 
4.410000000003061, -6.333238158540477 
4.4200000000030375, -6.091076657414691 
4.430000000003014, 3.490256813829145 
4.440000000002991, 3.532979640771675 
4.450000000002968, 3.5340892085143993 
4.460000000002944, 3.5317896636772814 
4.470000000002921, 3.5202055895017117 
4.480000000002898, 3.5152376086678983 
4.490000000002874, 3.519352203816795 
4.500000000002851, 3.51861475664834 
4.510000000002828, 3.518405838465636 
4.520000000002804, 3.520573544338209 
4.530000000002781, 3.520724665684085 
4.540000000002758, 3.5198264897602245 
4.5500000000027345, 3.513918932853622 
4.560000000002711, 3.4093410979815695 
4.570000000002688, 3.614656919203641 
4.580000000002665, 3.628117200502389 
4.590000000002641, 3.627422740373845 
4.600000000002618, 3.6054048804235714 
4.610000000002595, -5.372926236974155 
4.620000000002571, -5.612447115634514 
4.630000000002548, -5.614275803875674 
4.640000000002525, -5.607576670267247 
4.6500000000025015, -5.336508051361091 
4.660000000002478, -5.482653378842773 
4.670000000002455, -5.485753627769187 
4.6800000000024315, -5.483789370710594 
4.690000000002408, -5.4760419393367865 
4.700000000002385, -5.477967857958335 
4.710000000002362, -5.476804073943396 
4.720000000002338, -5.477045898466811 
4.730000000002315, -5.476110842795292 
4.740000000002292, -5.474409550017256 
4.750000000002268, -5.460440539845957 
4.760000000002245, -5.483647271270697 
4.770000000002222, -5.485968019323785 
4.7800000000021985, -5.482504273704977 
4.790000000002175, -5.188982267662058 
4.800000000002152, 4.724540590021492 
4.810000000002129, 4.7402116947304265 
4.820000000002105, 4.735965028094686 
4.830000000002082, -2.646048677166957 
4.840000000002059, -6.4762047739907285 
4.850000000002035, -6.477488710517591 
4.860000000002012, -6.46344663852207 
4.870000000001989, -6.413538568174985 
4.880000000001965, -6.427688856749948 
4.890000000001942, -6.425853540529769 
4.900000000001919, -6.418472801802713 
4.9100000000018955, -6.420554326045712 
4.920000000001872, -6.419191385347669 
4.930000000001849, -6.418240211637675 
4.940000000001826, -6.416885865722793 
4.950000000001802, -6.410012620418435 
4.960000000001779, -6.418521860231745 
4.970000000001756, -6.418103854967185 
4.980000000001732, -6.399856616358824 
4.990000000001709, -6.494646657160326 
5.000000000001686, -6.5162447218321 
5.0100000000016625, -6.51325897502282 
5.020000000001639, -5.65696683634741 
5.030000000001616, 4.565950504387932 
5.0400000000015925, 4.570885794029918 
