t, s[1].omega / s[0].omega 
0, -0.5899977398432074 
0.009999999999999995, -0.589870139141452 
0.019999999999999934, -0.589907968319198 
0.029999999999999874, -0.5900324708218864 
0.04000000000000012, -0.5901418167243462 
0.050000000000000405, -0.5901461963189906 
0.06000000000000069, -0.5899946688850854 
0.07000000000000098, -0.5896827887361995 
0.08000000000000126, -0.5892479752414501 
0.09000000000000155, -0.5887693149880888 
0.10000000000000184, -0.5883860713671218 
0.11000000000000212, -0.5883457844226123 
0.12000000000000241, -0.5890954646816607 
0.130000000000002, -0.5914375101715177 
0.1400000000000009, -0.5967827964698643 
0.1499999999999998, -0.6075404201556385 
0.1599999999999987, -0.6276575827546316 
0.1699999999999976, -0.663149855734041 
0.1799999999999965, -0.7218320856293368 
0.1899999999999954, -0.8101147233455418 
0.1999999999999943, -0.9247654162561829 
0.2099999999999932, -1.0457765848264517 
0.2199999999999921, -1.1460566645852857 
0.229999999999991, -1.2122551518288294 
0.2399999999999899, -1.2489825146727862 
0.2499999999999888, -1.2672420146260672 
0.2599999999999877, -1.2757850193218734 
0.2699999999999866, -1.2795881500859434 
0.2799999999999855, -1.2810790908214862 
0.2899999999999844, -1.2813682728021663 
0.2999999999999833, -1.28098502443783 
0.3099999999999822, -1.2803173094793139 
0.3199999999999811, -1.2799446472106735 
0.32999999999998, -1.2807519928898952 
0.3399999999999789, -1.2834538011624386 
0.3499999999999778, -1.2878640088298714 
0.35999999999997667, -1.2930351413000714 
0.36999999999997557, -1.2980746892962431 
0.37999999999997447, -1.3025376168349558 
0.38999999999997337, -1.3063062414726068 
0.39999999999997227, -1.3093932077673798 
0.40999999999997117, -1.311838510432946 
0.41999999999997006, -1.3136739084821911 
0.42999999999996896, -1.3149168010745464 
0.43999999999996786, -1.3155809797973075 
0.44999999999996676, -1.315695191626336 
0.45999999999996566, -1.3153167044997958 
0.46999999999996456, -1.3145351690308005 
0.47999999999996346, -1.3134708665711294 
0.48999999999996235, -1.312262303903843 
0.49999999999996125, -1.311035665588838 
0.5099999999999602, -1.3098874800313702 
0.519999999999959, -1.308919045784086 
0.529999999999958, -1.308259958498557 
0.5399999999999568, -1.307981827674009 
0.5499999999999557, -1.307982140482292 
0.5599999999999546, -1.3080093076466843 
0.5699999999999535, -1.3077786110312526 
0.5799999999999524, -1.30701486963379 
0.5899999999999513, -1.3054100382027911 
0.5999999999999502, -1.3025827588690855 
0.6099999999999491, -1.2981022341887367 
0.619999999999948, -1.2915723073852468 
0.6299999999999469, -1.2827004182204154 
0.6399999999999458, -1.2712833853497194 
0.6499999999999447, -1.257163724319812 
0.6599999999999436, -1.2403347247385879 
0.6699999999999425, -1.221399726150696 
0.6799999999999414, -1.2023358758261309 
0.6899999999999403, -1.1865823936324689 
0.6999999999999392, -1.1770035736525954 
0.7099999999999381, -1.173353335978899 
0.719999999999937, -1.1730275995455952 
0.7299999999999359, -1.1736828615207862 
0.7399999999999348, -1.1741862651895227 
0.7499999999999337, -1.174136695043372 
0.7599999999999326, -1.1732841924727917 
0.7699999999999315, -1.171134724914496 
0.7799999999999304, -1.1664896666566626 
0.7899999999999293, -1.1565114066913558 
0.7999999999999282, -1.1347606634169842 
0.8099999999999271, -1.0882717975242462 
0.819999999999926, -0.9984895315557338 
0.8299999999999249, -0.8594599348955436 
0.8399999999999238, -0.7035042548192527 
0.8499999999999227, -0.5766414302963248 
0.8599999999999216, -0.49339719310764985 
0.8699999999999205, -0.443660652446683 
0.8799999999999194, -0.4145081020215769 
0.8899999999999183, -0.39722046724355065 
0.8999999999999172, -0.38677738595883143 
0.9099999999999161, -0.38038025108231555 
0.919999999999915, -0.37645178474072843 
0.9299999999999139, -0.3740815519827384 
0.9399999999999128, -0.3727317516310465 
0.9499999999999117, -0.37208071573424056 
0.9599999999999106, -0.37193870727021505 
0.9699999999999095, -0.3722029777811461 
0.9799999999999084, -0.37283571859616155 
0.9899999999999073, -0.3738569870618111 
0.9999999999999062, -0.37534893727707025 
1.0099999999999052, -0.3774698123764494 
1.019999999999904, -0.3804770837706385 
1.029999999999903, -0.3847572186436631 
1.039999999999902, -0.39084617430855345 
1.0499999999999008, -0.399380715357096 
1.0599999999998997, -0.41083987172123815 
1.0699999999998986, -0.4249472630773997 
1.0799999999998975, -0.44007895117776574 
1.0899999999998964, -0.45371765222883614 
1.0999999999998953, -0.46404987822426824 
1.1099999999998942, -0.4708584477998959 
1.119999999999893, -0.4749248454988189 
1.129999999999892, -0.4771520797732528 
1.1399999999998909, -0.47818310825453014 
1.1499999999998898, -0.478370086992938 
1.1599999999998887, -0.477829221452842 
1.1699999999998876, -0.4764653747755031 
1.1799999999998865, -0.47393482587867464 
1.1899999999998854, -0.4695467237037064 
1.1999999999998843, -0.46217536730267483 
1.2099999999998832, -0.4504706251401392 
1.219999999999882, -0.4338497122349539 
1.229999999999881, -0.41392160556016827 
1.2399999999998799, -0.3942229910423408 
1.2499999999998788, -0.37774329060007805 
1.2599999999998777, -0.3653859500386506 
1.2699999999998766, -0.3565949956640516 
1.2799999999998755, -0.3504239635547068 
1.2899999999998744, -0.34605589304148143 
1.2999999999998733, -0.3429084472930428 
1.3099999999998722, -0.3405974725741864 
1.319999999999871, -0.33888240310458356 
1.32999999999987, -0.3376249792472818 
1.3399999999998689, -0.3367636946629156 
1.3499999999998678, -0.3363019568141142 
1.3599999999998666, -0.3363096687816025 
1.3699999999998655, -0.3369410628197366 
1.3799999999998644, -0.33847671560276943 
1.3899999999998633, -0.34140756044405013 
1.3999999999998622, -0.3465992585371153 
1.4099999999998611, -0.3556191691694885 
1.41999999999986, -0.3713999143644039 
1.429999999999859, -0.3995761927057639 
1.4399999999998578, -0.450905790977577 
1.4499999999998567, -0.543763112007318 
1.4599999999998556, -0.6976212370706719 
1.4699999999998545, -0.8992534310480245 
1.4799999999998534, -1.0816421944443027 
1.4899999999998523, -1.1955583565441947 
1.4999999999998512, -1.2513519466170107 
1.5099999999998501, -1.2758790784986578 
1.519999999999849, -1.2863471822324686 
1.529999999999848, -1.2907504428214363 
1.5399999999998468, -1.292438416111244 
1.5499999999998457, -1.2927815538206455 
1.5599999999998446, -1.2923624610133921 
1.5699999999998435, -1.2915562185437561 
1.5799999999998424, -1.2909724556430002 
1.5899999999998413, -1.2917542375676008 
1.5999999999998402, -1.2951159785463608 
1.6099999999998391, -1.3011024534739204 
1.619999999999838, -1.3083862518253802 
1.629999999999837, -1.3155270077559924 
1.6399999999998358, -1.3217878127144853 
1.6499999999998347, -1.3270003539202917 
1.6599999999998336, -1.3312212942229609 
1.6699999999998325, -1.3345433804442823 
1.6799999999998314, -1.3370367300348194 
1.6899999999998303, -1.3387490888727767 
1.6999999999998292, -1.3397290394699766 
1.709999999999828, -1.3400486166132155 
1.719999999999827, -1.3398100954465841 
1.729999999999826, -1.3391419234810364 
1.7399999999998248, -1.3381956497977805 
1.7499999999998237, -1.3371336225730661 
1.7599999999998226, -1.3360915707306709 
1.7699999999998215, -1.3351549542004881 
1.7799999999998204, -1.3343999239234008 
1.7899999999998193, -1.3339269755974095 
1.7999999999998182, -1.3337800369658475 
1.809999999999817, -1.333840275083387 
1.819999999999816, -1.3338580522019252 
1.8299999999998149, -1.333557491337904 
1.8399999999998138, -1.3326636775316465 
1.8499999999998127, -1.3308585799049495 
1.8599999999998116, -1.327751346516008 
1.8699999999998105, -1.322912144623577 
1.8799999999998094, -1.3159474027770748 
1.8899999999998083, -1.3065389007143084 
1.8999999999998072, -1.2944096313833946 
1.909999999999806, -1.2793124801335494 
1.919999999999805, -1.2612615771775597 
1.9299999999998039, -1.2412355892836142 
1.9399999999998028, -1.222065547096637 
1.9499999999998017, -1.2078264623973634 
1.9599999999998006, -1.2006430523283727 
1.9699999999997995, -1.1988223091367247 
1.9799999999997984, -1.1992763484168638 
1.9899999999997973, -1.2000371589559453 
1.9999999999997962, -1.2003606941635696 
2.0099999999998173, -1.199984103703796 
2.0199999999998384, -1.1985871101858818 
2.0299999999998595, -1.195368992488424 
2.0399999999998806, -1.1883136453276635 
2.0499999999999017, -1.1724212389277562 
2.059999999999923, -1.1357161414188393 
2.069999999999944, -1.0535561522190524 
2.079999999999965, -0.8962226112439738 
2.089999999999986, -0.6807554489784582 
2.100000000000007, -0.4910969587056583 
2.1100000000000283, -0.3731907790706744 
2.1200000000000494, -0.310064959865237 
2.1300000000000705, -0.2767002654431278 
2.1400000000000916, -0.25835439773115054 
2.1500000000001127, -0.24776091769688188 
2.160000000000134, -0.24138337507022117 
2.170000000000155, -0.23744079562634549 
2.180000000000176, -0.23499969029401901 
2.190000000000197, -0.23355853572437 
2.2000000000002182, -0.2328529839423203 
2.2100000000002393, -0.232764250511147 
2.2200000000002604, -0.23328079113015404 
2.2300000000002815, -0.23449393851286096 
2.2400000000003026, -0.23662494626636965 
2.2500000000003237, -0.24009561846595173 
2.260000000000345, -0.24567696258074379 
2.270000000000366, -0.2547936146970788 
2.280000000000387, -0.2701435292454205 
2.290000000000408, -0.29688085037234424 
2.3000000000004293, -0.3442499503149132 
2.3100000000004504, -0.4245324261970865 
2.3200000000004715, -0.5389347250242308 
2.3300000000004926, -0.6565557232951447 
2.3400000000005137, -0.7399374549326342 
2.3500000000005348, -0.7853079876017564 
2.360000000000556, -0.80728588849781 
2.370000000000577, -0.8176984946211505 
2.380000000000598, -0.8226627354287984 
2.390000000000619, -0.8249629252440498 
2.4000000000006403, -0.8258184378726938 
2.4100000000006614, -0.8257133163423033 
2.4200000000006825, -0.8247162703477539 
2.4300000000007036, -0.8225260962965558 
2.4400000000007247, -0.8182725555711843 
2.450000000000746, -0.8098839009133879 
2.460000000000767, -0.7924055035812232 
2.470000000000788, -0.7537904437592406 
2.480000000000809, -0.6671479105731597 
2.49000000000083, -0.496941816011779 
2.5000000000008513, -0.2760182478973512 
2.5100000000008724, -0.11653122877953748 
2.5200000000008935, -0.0387645146302522 
2.5300000000009146, -0.004021857669444593 
2.5400000000009357, 0.012070399641293712 
2.550000000000957, 0.020130701038262692 
2.560000000000978, 0.024444438018475397 
2.570000000000999, 0.026832341451729032 
2.58000000000102, 0.028144556418235177 
2.5900000000010412, 0.028798937526603452 
2.6000000000010624, 0.028997060570754962 
2.6100000000010835, 0.02881151313793005 
2.6200000000011046, 0.02821179552191929 
2.6300000000011257, 0.027046979804587895 
2.6400000000011468, 0.024978142287868887 
2.650000000001168, 0.02134566080789351 
2.660000000001189, 0.015072248091099172 
2.67000000000121, 0.005779785471440273 
2.680000000001231, 0.004095910328515461 
2.6900000000012523, 0.0752415764032487 
2.7000000000012734, 0.29442613211847424 
2.7100000000012945, 0.464208949546733 
2.7200000000013156, 0.5228006272934033 
2.7300000000013367, 0.5414901632197782 
2.740000000001358, 0.5482855179183433 
2.750000000001379, 0.5509592265782757 
2.7600000000014, 0.551906678375064 
2.770000000001421, 0.5519901259038157 
2.780000000001442, 0.5515829634264524 
2.7900000000014633, 0.5509014341910469 
2.8000000000014844, 0.5501190650438751 
2.8100000000015055, 0.5493940491454491 
2.8200000000015266, 0.5488572810537019 
2.8300000000015477, 0.5485906476874026 
2.840000000001569, 0.5486120936195256 
2.85000000000159, 0.5488715496168882 
2.860000000001611, 0.5492587058846703 
2.870000000001632, 0.5496231517637711 
2.8800000000016532, 0.5497971885545724 
2.8900000000016743, 0.5495961639027639 
2.9000000000016954, 0.5487603544164046 
2.9100000000017165, 0.5467714053057501 
2.9200000000017377, 0.5423205691654974 
2.9300000000017588, 0.5315407483497899 
2.94000000000178, 0.5013296223646105 
2.950000000001801, 0.4080457008809001 
2.960000000001822, 0.20379457920209992 
2.970000000001843, 0.05584716480839187 
2.9800000000018643, 0.03188499323007053 
2.9900000000018854, 0.03922447134062352 
3.0000000000019065, 0.04655278780425732 
3.0100000000019276, 0.05089462310979641 
3.0200000000019487, 0.05321334302035367 
3.03000000000197, 0.05435247893652804 
3.040000000001991, 0.0547796627740299 
3.050000000002012, 0.05472009192482637 
3.060000000002033, 0.05425025878145338 
3.070000000002054, 0.053333555432416115 
3.0800000000020753, 0.05180797557650735 
3.0900000000020964, 0.04931463744179292 
3.1000000000021175, 0.045110329874185215 
3.1100000000021386, 0.03759170660334434 
3.1200000000021597, 0.023015863233571278 
3.130000000002181, -0.008045082292454538 
3.140000000002202, -0.08022886711097521 
3.150000000002223, -0.2449869596442967 
3.160000000002244, -0.5128819262152745 
3.1700000000022652, -0.7460778689498034 
3.1800000000022863, -0.8688920349393298 
3.1900000000023074, -0.9222376095856791 
3.2000000000023285, -0.9449973517335539 
3.2100000000023496, -0.9550472885429733 
3.2200000000023707, -0.9596065207760445 
3.230000000002392, -0.9615905285478232 
3.240000000002413, -0.9621856130293924 
3.250000000002434, -0.9618126693562997 
3.260000000002455, -0.9604493850357981 
3.2700000000024763, -0.9576399035336941 
3.2800000000024974, -0.952233080600996 
3.2900000000025185, -0.9416953003383017 
3.3000000000025396, -0.9206118607092062 
3.3100000000025607, -0.877463307775793 
3.3200000000025818, -0.7846546163855783 
3.330000000002603, -0.5468096617576538 
3.340000000002624, 0.05664338286378405 
3.350000000002645, 0.5311803671772932 
3.360000000002666, 0.6413729301284079 
3.3700000000026873, 0.6668215636622097 
3.3800000000027084, 0.6746478893286879 
3.3900000000027295, 0.6774900637991427 
3.4000000000027506, 0.6785107101561576 
3.4100000000027717, 0.6787342739831826 
3.420000000002793, 0.678583508287221 
3.430000000002814, 0.6782910868244969 
3.440000000002835, 0.6780260489772989 
3.450000000002856, 0.6779246499750148 
3.460000000002877, 0.6780795060082752 
3.4700000000028983, 0.6785121572836219 
3.4800000000029194, 0.6791534652641473 
3.4900000000029405, 0.6798554814930554 
3.5000000000029616, 0.6804357095611575 
3.5100000000029827, 0.6807182251829115 
3.520000000003004, 0.6805238168903465 
3.530000000003025, 0.679568870983653 
3.540000000003046, 0.6771751593865681 
3.550000000003067, 0.6713477421190555 
3.5600000000030882, 0.6550841039794818 
3.5700000000031094, 0.5988768090797094 
3.5800000000031305, 0.39836204650888113 
3.5900000000031516, 0.110297997708418 
3.6000000000031727, 0.049779113722224176 
3.6100000000031938, 0.07303759202685399 
3.620000000003215, 0.0922155671770758 
3.630000000003236, 0.10237082000661632 
3.640000000003257, 0.10751413113446165 
3.650000000003278, 0.11011257635898639 
3.6600000000032993, 0.11134568126355478 
3.6700000000033204, 0.11175372980957095 
3.6800000000033415, 0.11155778957846434 
3.6900000000033626, 0.11078522008554341 
3.7000000000033837, 0.10928756506263781 
3.710000000003405, 0.1066613957973122 
3.720000000003426, 0.10199595619438914 
3.730000000003447, 0.09316768659205167 
3.740000000003468, 0.07471892834957143 
3.750000000003489, 0.030804570676390246 
3.7600000000035103, -0.08804354299397633 
3.7700000000035314, -0.4029998885241553 
3.7800000000035525, -0.9174023064670889 
3.7900000000035736, -1.294000491838258 
3.8000000000035947, -1.4497084205309938 
3.810000000003616, -1.5028652063962065 
3.820000000003637, -1.5211719554067975 
3.830000000003658, -1.5277887268793147 
3.840000000003679, -1.530125694480126 
3.8500000000037002, -1.53066424082702 
3.8600000000037213, -1.5303259096259993 
3.8700000000037424, -1.5296612115438626 
3.8800000000037635, -1.5294162269789076 
3.8900000000037847, -1.5304456585148318 
3.9000000000038058, -1.5328396431856384 
3.910000000003827, -1.5357631442083393 
3.920000000003848, -1.5384306262461922 
3.930000000003869, -1.540554465188771 
3.94000000000389, -1.5421035289710785 
3.9500000000039113, -1.5430818493732452 
3.9600000000039324, -1.5434808287314734 
3.9700000000039535, -1.5432841919476898 
3.9800000000039746, -1.5424666079649205 
3.9900000000039957, -1.540984829718702 
4.000000000004016, -1.5387659745199567 
4.010000000003993, -1.5356940459104595 
4.02000000000397, -1.5315973835186327 
4.030000000003946, -1.526279001532055 
4.040000000003923, -1.51975759753071 
4.0500000000039, -1.512898321111447 
4.0600000000038765, -1.507700333747639 
4.070000000003853, -1.5055648830483523 
4.08000000000383, -1.5055710637503923 
4.090000000003807, -1.5060276342452663 
4.100000000003783, -1.5060127238258099 
4.11000000000376, -1.505061135991765 
4.120000000003737, -1.502366733823469 
4.130000000003713, -1.4955950390341168 
4.14000000000369, -1.4775819102678496 
4.150000000003667, -1.4260111641394027 
4.1600000000036434, -1.2809501276431459 
4.17000000000362, -0.9435398453594435 
4.180000000003597, -0.24513538867827264 
4.1900000000035735, 0.5133953443995465 
4.20000000000355, 0.7005889115485029 
4.210000000003527, 0.7364192165503387 
4.220000000003504, 0.7461714521543401 
4.23000000000348, 0.7494956046200107 
4.240000000003457, 0.7506750763966022 
4.250000000003434, 0.7509783803265127 
4.26000000000341, 0.7508952124870587 
4.270000000003387, 0.7506800427630604 
4.280000000003364, 0.7505090471286853 
4.2900000000033405, 0.7505163071985446 
4.300000000003317, 0.7507795295901658 
4.310000000003294, 0.7512906800559976 
4.320000000003271, 0.7519465096377916 
4.330000000003247, 0.7525800771250027 
4.340000000003224, 0.7530133420112712 
4.350000000003201, 0.7530797298552797 
4.360000000003177, 0.7525722368449813 
4.370000000003154, 0.7510609481424092 
4.380000000003131, 0.7473393657886195 
4.390000000003107, 0.7372909759202317 
4.400000000003084, 0.7031353753752816 
4.410000000003061, 0.5539682733552247 
4.4200000000030375, 0.14032176451486975 
4.430000000003014, -0.04809442092539307 
4.440000000002991, -0.019754556269668027 
4.450000000002968, 0.015311906300801207 
4.460000000002944, 0.033692847199108825 
4.470000000002921, 0.04266643358029655 
4.480000000002898, 0.04712471388015175 
4.490000000002874, 0.04934591348251678 
4.500000000002851, 0.050358307223852795 
4.510000000002828, 0.05062666330135027 
4.520000000002804, 0.05033856646228008 
4.530000000002781, 0.04951203322558922 
4.540000000002758, 0.04801144958808352 
4.5500000000027345, 0.04548551842199896 
4.560000000002711, 0.04117636209984506 
4.570000000002688, 0.0334182596533601 
4.580000000002665, 0.018256287645785685 
4.590000000002641, -0.014495325110213713 
4.600000000002618, -0.09345578714287242 
4.610000000002595, -0.28680541715100605 
4.620000000002571, -0.6335397230674562 
4.630000000002548, -0.9556622200187578 
4.640000000002525, -1.124255102918741 
4.6500000000025015, -1.1928482861733012 
4.660000000002478, -1.2194815053317956 
4.670000000002455, -1.230100124929971 
4.6800000000024315, -1.2344230041598465 
4.690000000002408, -1.2360397211831575 
4.700000000002385, -1.2362956523350053 
4.710000000002362, -1.235676742822403 
4.720000000002338, -1.2343796163610796 
4.730000000002315, -1.2328137246830868 
4.740000000002292, -1.232496654302813 
4.750000000002268, -1.23691813676418 
4.760000000002245, -1.2498125261322444 
4.770000000002222, -1.2705625919972632 
4.7800000000021985, -1.293986927509137 
4.790000000002175, -1.3153809441291582 
4.800000000002152, -1.3329006616731824 
4.810000000002129, -1.3464985718497793 
4.820000000002105, -1.356654378592919 
4.830000000002082, -1.3638793827250784 
4.840000000002059, -1.3686652530883867 
4.850000000002035, -1.371521998555849 
4.860000000002012, -1.3729551278961942 
4.870000000001989, -1.3734028810907069 
4.880000000001965, -1.373209705069712 
4.890000000001942, -1.3726614452513166 
4.900000000001919, -1.372034775824289 
4.9100000000018955, -1.3715742874430616 
4.920000000001872, -1.3713936621737872 
4.930000000001849, -1.3714562954688394 
