t, s[1].omega / s[0].omega 
0, -1.0399877348583066 
0.009999999999999995, -1.0387099253938519 
0.019999999999999934, -1.0373260981224541 
0.029999999999999874, -1.0358064762696684 
0.04000000000000012, -1.0341239621813958 
0.050000000000000405, -1.0322893688339776 
0.06000000000000069, -1.0303610467771045 
0.07000000000000098, -1.028424334285056 
0.08000000000000126, -1.0265620536778488 
0.09000000000000155, -1.024850925994836 
0.10000000000000184, -1.023389254039094 
0.11000000000000212, -1.022306241665495 
0.12000000000000241, -1.0217014384116163 
0.130000000000002, -1.021548359622296 
0.1400000000000009, -1.0216664686567616 
0.1499999999999998, -1.0217953033682723 
0.1599999999999987, -1.0216919576619046 
0.1699999999999976, -1.0211878910917744 
0.1799999999999965, -1.0202145385692512 
0.1899999999999954, -1.0188117294404413 
0.1999999999999943, -1.017100488973881 
0.2099999999999932, -1.0152173401167963 
0.2199999999999921, -1.0132518529614913 
0.229999999999991, -1.011226969665968 
0.2399999999999899, -1.0091220007198554 
0.2499999999999888, -1.0069139575026433 
0.2599999999999877, -1.0046107106909798 
0.2699999999999866, -1.0022587337313846 
0.2799999999999855, -0.9999278850471741 
0.2899999999999844, -0.9976973448403234 
0.2999999999999833, -0.9956656510830049 
0.3099999999999822, -0.9939696603851325 
0.3199999999999811, -0.9927605349955935 
0.32999999999998, -0.9921153366271807 
0.3399999999999789, -0.9919530182461959 
0.3499999999999778, -0.9920470612463819 
0.35999999999997667, -0.9921216072793302 
0.36999999999997557, -0.9919405878176576 
0.37999999999997447, -0.9913511493684484 
0.38999999999997337, -0.9903041428220902 
0.39999999999997227, -0.9888591327129538 
0.40999999999997117, -0.987150687893347 
0.41999999999997006, -0.9853185098353279 
0.42999999999996896, -0.9834474502149616 
0.43999999999996786, -0.9815531073038903 
0.44999999999996676, -0.9796083550204215 
0.45999999999996566, -0.9775862332186508 
0.46999999999996456, -0.9754942264450037 
0.47999999999996346, -0.9733829873752796 
0.48999999999996235, -0.9713293809537509 
0.49999999999996125, -0.9694138230264094 
0.5099999999999602, -0.9677167005075031 
0.519999999999959, -0.966332353427776 
0.529999999999958, -0.9653641396551151 
0.5399999999999568, -0.9648727049857116 
0.5499999999999557, -0.9648103821127899 
0.5599999999999546, -0.9650111245371409 
0.5699999999999535, -0.9652518137183274 
0.5799999999999524, -0.9653305429607141 
0.5899999999999513, -0.965117041348979 
0.5999999999999502, -0.9645744312221216 
0.6099999999999491, -0.9637559191337092 
0.619999999999948, -0.9627683585196806 
0.6299999999999469, -0.9617133277756587 
0.6399999999999458, -0.9606406046563247 
0.6499999999999447, -0.9595384362964137 
0.6599999999999436, -0.9583587948156479 
0.6699999999999425, -0.9570606838991786 
0.6799999999999414, -0.9556487336241293 
0.6899999999999403, -0.9541873948895834 
0.6999999999999392, -0.952783775092098 
0.7099999999999381, -0.9515486934277945 
0.719999999999937, -0.9505618423593619 
0.7299999999999359, -0.9498668219726818 
0.7399999999999348, -0.9494905336011985 
0.7499999999999337, -0.9494510031679573 
0.7599999999999326, -0.9497333784429729 
0.7699999999999315, -0.9502602771582792 
0.7799999999999304, -0.9508975756499936 
0.7899999999999293, -0.9514991775761394 
0.7999999999999282, -0.9519583229623511 
0.8099999999999271, -0.9522375071395883 
0.819999999999926, -0.9523672357840189 
0.8299999999999249, -0.952414650485639 
0.8399999999999238, -0.9524362965120694 
0.8499999999999227, -0.9524395877259056 
0.8599999999999216, -0.9523725388757054 
0.8699999999999205, -0.9521483077272114 
0.8799999999999194, -0.951694511095756 
0.8899999999999183, -0.9510006617613062 
0.8999999999999172, -0.9501398521503598 
0.9099999999999161, -0.9492598126689702 
0.919999999999915, -0.9485452470731612 
0.9299999999999139, -0.9481562037371374 
0.9399999999999128, -0.9481717569978013 
0.9499999999999117, -0.9485817191350085 
0.9599999999999106, -0.9493273339202343 
0.9699999999999095, -0.9503427154547653 
0.9799999999999084, -0.9515618338961943 
0.9899999999999073, -0.95290597621363 
0.9999999999999062, -0.9542858349865918 
1.0099999999999052, -0.9556267165896287 
1.019999999999904, -0.9568958624520277 
1.029999999999903, -0.9581082169469054 
1.039999999999902, -0.9593031702813702 
1.0499999999999008, -0.960502582024831 
1.0599999999998997, -0.961670991174915 
1.0699999999998986, -0.9627021602108112 
1.0799999999998975, -0.9634507553180258 
1.0899999999998964, -0.963800508060914 
1.0999999999998953, -0.9637246741386154 
1.1099999999998942, -0.9633048857166664 
1.119999999999893, -0.9627204531703398 
1.129999999999892, -0.9622258356818341 
1.1399999999998909, -0.9620985585015432 
1.1499999999998898, -0.9625435701039475 
1.1599999999998887, -0.9636085951096863 
1.1699999999998876, -0.965191276300357 
1.1799999999998865, -0.9671281260630481 
1.1899999999998854, -0.9692751414064334 
1.1999999999998843, -0.9715293557419453 
1.2099999999998832, -0.9738163665364341 
1.219999999999882, -0.9760846451219946 
1.229999999999881, -0.978314016568446 
1.2399999999998799, -0.9805182367986978 
1.2499999999998788, -0.9827243943881928 
1.2599999999998777, -0.984930922942463 
1.2699999999998766, -0.9870637690302155 
1.2799999999998755, -0.9889633380683509 
1.2899999999998744, -0.9904320380323325 
1.2999999999998733, -0.9913270109155808 
1.3099999999998722, -0.9916289155438773 
1.319999999999871, -0.991445766003576 
1.32999999999987, -0.9909875094082248 
1.3399999999998689, -0.9905498235066524 
1.3499999999998678, -0.990478909107958 
1.3599999999998666, -0.9910660115002159 
1.3699999999998655, -0.9924124225450452 
1.3799999999998644, -0.9943979617367216 
1.3899999999998633, -0.9967917896937284 
1.3999999999998622, -0.9993850227011363 
1.4099999999998611, -1.0020412004355486 
1.41999999999986, -1.0046799637300112 
1.429999999999859, -1.0072550365743083 
1.4399999999998578, -1.009750972815009 
1.4499999999998567, -1.0121817333694834 
1.4599999999998556, -1.0145698458987895 
1.4699999999998545, -1.0169052576302984 
1.4799999999998534, -1.0191044240293823 
1.4899999999998523, -1.0210041999244073 
1.4999999999998512, -1.0224171044896901 
1.5099999999998501, -1.0232235690016673 
1.519999999999849, -1.0234308204289326 
1.529999999999848, -1.0231690363137835 
1.5399999999998468, -1.022665782160042 
1.5499999999998457, -1.022225547861058 
1.5599999999998446, -1.022174823012206 
1.5699999999998435, -1.0227401679739994 
1.5799999999998424, -1.023940682200877 
1.5899999999998413, -1.0256162988186859 
1.5999999999998402, -1.027561046730554 
1.6099999999998391, -1.029620346167421 
1.619999999999838, -1.0316968744997994 
1.629999999999837, -1.0337194627325157 
1.6399999999998358, -1.0356330757357435 
1.6499999999998347, -1.0374118835071802 
1.6599999999998336, -1.039065178887901 
1.6699999999998325, -1.040617402509981 
1.6799999999998314, -1.0420693969050876 
1.6899999999998303, -1.043364794005372 
1.6999999999998292, -1.0443891578424038 
1.709999999999828, -1.0450152937615633 
1.719999999999827, -1.045171414577771 
1.729999999999826, -1.0448856265402042 
1.7399999999998248, -1.0442897726963523 
1.7499999999998237, -1.0435990953190553 
1.7599999999998226, -1.0430659457179199 
1.7699999999998215, -1.0428923529930711 
1.7799999999998204, -1.0431452962256649 
1.7899999999998193, -1.0437605471878206 
1.7999999999998182, -1.0446302516385473 
1.809999999999817, -1.0456715817543532 
1.819999999999816, -1.0468203454593474 
1.8299999999998149, -1.0479944093709024 
1.8399999999998138, -1.0490906242415479 
1.8499999999998127, -1.0500202430789582 
1.8599999999998116, -1.050743954389515 
1.8699999999998105, -1.0512769010863166 
1.8799999999998094, -1.0516613180824155 
1.8899999999998083, -1.051924544937771 
1.8999999999998072, -1.0520484190485342 
1.909999999999806, -1.0519700434655215 
1.919999999999805, -1.0516167925672195 
1.9299999999998039, -1.0509561561534917 
1.9399999999998028, -1.0500305892300315 
1.9499999999998017, -1.0489599511177388 
1.9599999999998006, -1.0479080941906385 
1.9699999999997995, -1.0470207757836034 
1.9799999999997984, -1.0463727435131336 
1.9899999999997973, -1.0459741289385671 
1.9999999999997962, -1.0458238706559937 
2.0099999999998173, -1.0459350902193312 
2.0199999999998384, -1.0462952213522592 
2.0299999999998595, -1.0468143891450792 
2.0399999999998806, -1.0473329258099513 
2.0499999999999017, -1.0476831563031472 
2.059999999999923, -1.0477501509665044 
2.069999999999944, -1.047500563316183 
2.079999999999965, -1.0469762054431555 
2.089999999999986, -1.0462558587584803 
2.100000000000007, -1.0454041917938057 
2.1100000000000283, -1.0444385473315199 
2.1200000000000494, -1.0433312459290787 
2.1300000000000705, -1.042042102271369 
2.1400000000000916, -1.0405599826510017 
2.1500000000001127, -1.038927869801784 
2.160000000000134, -1.037235381051309 
2.170000000000155, -1.0355835611646445 
2.180000000000176, -1.0340527664489305 
2.190000000000197, -1.0327087572083533 
2.2000000000002182, -1.0316362847214906 
2.2100000000002393, -1.0309382976728458 
2.2200000000002604, -1.0306659915820418 
2.2300000000002815, -1.0307405310647246 
2.2400000000003026, -1.0309586730455396 
2.2500000000003237, -1.0310770077893836 
2.260000000000345, -1.030894094881904 
2.270000000000366, -1.0302937367364755 
2.280000000000387, -1.0292624073244334 
2.290000000000408, -1.027879748408886 
2.3000000000004293, -1.0262701795036933 
2.3100000000004504, -1.024537539851205 
2.3200000000004715, -1.0227262574662395 
2.3300000000004926, -1.0208268588468736 
2.3400000000005137, -1.0188114013786793 
2.3500000000005348, -1.0166727397479123 
2.360000000000556, -1.0144443619528194 
2.370000000000577, -1.0121920769020183 
2.380000000000598, -1.0099927734365608 
2.390000000000619, -1.0079305109062435 
2.4000000000006403, -1.0061186265763478 
2.4100000000006614, -1.0047071993866779 
2.4200000000006825, -1.0038242543071436 
2.4300000000007036, -1.0034730353389754 
2.4400000000007247, -1.0034881056969083 
2.450000000000746, -1.0036016148186264 
2.460000000000767, -1.0035480557176681 
2.470000000000788, -1.0031295192858403 
2.480000000000809, -1.0022438959171334 
2.49000000000083, -1.0009000083276807 
2.5000000000008513, -0.9992055146160521 
2.5100000000008724, -0.9973094683241707 
2.5200000000008935, -0.9953298094148858 
2.5300000000009146, -0.9933154494282084 
2.5400000000009357, -0.9912567558611751 
2.550000000000957, -0.9891244754398769 
2.560000000000978, -0.9869098590018826 
2.570000000000999, -0.9846445116194917 
2.58000000000102, -0.9823930139209663 
2.5900000000010412, -0.9802326982830831 
2.6000000000010624, -0.9782470055450805 
2.6100000000010835, -0.976539928979214 
2.6200000000011046, -0.9752389492056996 
2.6300000000011257, -0.9744462491004215 
2.6400000000011468, -0.9741564682616211 
2.650000000001168, -0.9742210195450184 
2.660000000001189, -0.974401421540473 
2.67000000000121, -0.974459517050349 
2.680000000001231, -0.9742203599594452 
2.6900000000012523, -0.9736015024071282 
2.7000000000012734, -0.9726223649076579 
2.7100000000012945, -0.9713841369922797 
2.7200000000013156, -0.9700137689775346 
2.7300000000013367, -0.9686021203272819 
2.740000000001358, -0.9671747896158663 
2.750000000001379, -0.9657046276332693 
2.7600000000014, -0.9641504143593844 
2.770000000001421, -0.9624987782695154 
2.780000000001442, -0.9607876665648634 
2.7900000000014633, -0.9590998809793767 
2.8000000000014844, -0.9575328500726566 
2.8100000000015055, -0.9561684373045318 
2.8200000000015266, -0.955067547148244 
2.8300000000015477, -0.9542854472467205 
2.840000000001569, -0.9538728295016483 
2.85000000000159, -0.9538411049237455 
2.860000000001611, -0.9541210123532755 
2.870000000001632, -0.9545642424534438 
2.8800000000016532, -0.9549943856845257 
2.8900000000016743, -0.9552679387128278 
2.9000000000016954, -0.9553133446940855 
2.9100000000017165, -0.9551404401951178 
2.9200000000017377, -0.9548187040860852 
2.9300000000017588, -0.9544304799267032 
2.94000000000178, -0.9540228480632651 
2.950000000001801, -0.9535838808165785 
2.960000000001822, -0.9530533998797456 
2.970000000001843, -0.9523621873734751 
2.9800000000018643, -0.9514797447721339 
2.9900000000018854, -0.9504456040249305 
3.0000000000019065, -0.9493704249347573 
3.0100000000019276, -0.9484061472083619 
3.0200000000019487, -0.9476937147023563 
3.03000000000197, -0.9473152166678055 
3.040000000001991, -0.9472848674880272 
3.050000000002012, -0.9475788517591159 
3.060000000002033, -0.9481635047184523 
3.070000000002054, -0.9489923472368886 
3.0800000000020753, -0.9499884164696482 
3.0900000000020964, -0.9510471022708049 
3.1000000000021175, -0.952067691556198 
3.1100000000021386, -0.9529903209171028 
3.1200000000021597, -0.9538124611253471 
3.130000000002181, -0.9545746026061483 
3.140000000002202, -0.9553218405060724 
3.150000000002223, -0.9560606144655456 
3.160000000002244, -0.9567331673040217 
3.1700000000022652, -0.9572278688241431 
3.1800000000022863, -0.9574283925105644 
3.1900000000023074, -0.9572756516154955 
3.2000000000023285, -0.9568048217151622 
3.2100000000023496, -0.9561480213862849 
3.2200000000023707, -0.955515106848703 
3.230000000002392, -0.9551488764098298 
3.240000000002413, -0.9552461296334401 
3.250000000002434, -0.9558814790309613 
3.260000000002455, -0.9569994501143771 
3.2700000000024763, -0.9584790040273952 
3.2800000000024974, -0.9602018127850783 
3.2900000000025185, -0.9620741723753177 
3.3000000000025396, -0.9640174832531352 
3.3100000000025607, -0.9659651307623245 
3.3200000000025818, -0.9678765794726448 
3.330000000002603, -0.9697499553135828 
3.340000000002624, -0.971612599084392 
3.350000000002645, -0.9734864658884588 
3.360000000002666, -0.9753428220682956 
3.3700000000026873, -0.9770723408694708 
3.3800000000027084, -0.9785014037042288 
3.3900000000027295, -0.9794635698820745 
3.4000000000027506, -0.9798820591022436 
3.4100000000027717, -0.9798040539147419 
3.420000000002793, -0.9793876308801435 
3.430000000002814, -0.9788825966754061 
3.440000000002835, -0.9786064748920051 
3.450000000002856, -0.9788701199725163 
3.460000000002877, -0.9798512927031627 
3.4700000000028983, -0.9815173083235804 
3.4800000000029194, -0.9836821272745981 
3.4900000000029405, -0.9861342846838053 
3.5000000000029616, -0.9887168551009615 
3.5100000000029827, -0.9913320629729097 
3.520000000003004, -0.9939200799552299 
3.530000000003025, -0.9964514622745634 
3.540000000003046, -0.9989291272142579 
3.550000000003067, -1.0013771116032903 
3.5600000000030882, -1.0038060618162992 
3.5700000000031094, -1.0061671378838508 
3.5800000000031305, -1.008324008569125 
3.5900000000031516, -1.0100793452112897 
3.6000000000031727, -1.011260860909921 
3.6100000000031938, -1.0118078688703722 
3.620000000003215, -1.0117947238104634 
3.630000000003236, -1.0114061236994702 
3.640000000003257, -1.0109157155651174 
3.650000000003278, -1.0106619257714686 
3.6600000000032993, -1.0109632130726856 
3.6700000000033204, -1.0119779997473364 
3.6800000000033415, -1.0136355848594596 
3.6900000000033626, -1.0157220323973781 
3.7000000000033837, -1.018023470002816 
3.710000000003405, -1.020395376788366 
3.720000000003426, -1.0227499693732174 
3.730000000003447, -1.0250285629936342 
3.740000000003468, -1.0271977205514857 
3.750000000003489, -1.0292561908681388 
3.7600000000035103, -1.0312256394355863 
3.7700000000035314, -1.0331176696484436 
3.7800000000035525, -1.03489283630337 
3.7900000000035736, -1.0364405797254785 
3.8000000000035947, -1.037607338517397 
3.810000000003616, -1.0382688632289885 
3.820000000003637, -1.0383973191909666 
3.830000000003658, -1.0380805843244763 
3.840000000003679, -1.0375070877174954 
3.8500000000037002, -1.0369399877454117 
3.8600000000037213, -1.0366597962566722 
3.8700000000037424, -1.0368585407820494 
3.8800000000037635, -1.037557052102636 
3.8900000000037847, -1.0386378228739424 
3.9000000000038058, -1.039955006367335 
3.910000000003827, -1.0414023342480843 
3.920000000003848, -1.042902043867286 
3.930000000003869, -1.044373238773583 
3.94000000000389, -1.0457336683464211 
3.9500000000039113, -1.0469286798912008 
3.9600000000039324, -1.0479506493134216 
3.9700000000039535, -1.0488277599824536 
3.9800000000039746, -1.049588042480214 
3.9900000000039957, -1.0502213520249901 
4.000000000004016, -1.0506645168107656 
4.010000000003993, -1.0508244168116685 
4.02000000000397, -1.0506301577005628 
4.030000000003946, -1.0500821219885825 
4.040000000003923, -1.0492712548479564 
4.0500000000039, -1.0483651770420193 
4.0600000000038765, -1.0475607734294852 
4.070000000003853, -1.047009266876847 
4.08000000000383, -1.0467622493989732 
4.090000000003807, -1.0467929649389933 
4.100000000003783, -1.0470633589410134 
4.11000000000376, -1.0475518165853817 
4.120000000003737, -1.0482170785518883 
4.130000000003713, -1.0489594310067911 
4.14000000000369, -1.0496366123009893 
4.150000000003667, -1.0501194688115916 
4.1600000000036434, -1.0503388695586648 
4.17000000000362, -1.0502987284329224 
4.180000000003597, -1.0500536329957078 
4.1900000000035735, -1.0496639676822066 
4.20000000000355, -1.0491547725135537 
4.210000000003527, -1.048502552461954 
4.220000000003504, -1.0476564862453535 
4.23000000000348, -1.0465808265443184 
4.240000000003457, -1.0452929327524716 
4.250000000003434, -1.0438740122958499 
4.26000000000341, -1.0424441473784312 
4.270000000003387, -1.0411144677756066 
4.280000000003364, -1.0399551591610243 
4.2900000000033405, -1.0390121845507518 
4.300000000003317, -1.038345846606625 
4.310000000003294, -1.038023527116428 
4.320000000003271, -1.0380508453113886 
4.330000000003247, -1.0383155964702062 
4.340000000003224, -1.0386149457555318 
4.350000000003201, -1.0387370833593301 
4.360000000003177, -1.0385285176249655 
4.370000000003154, -1.0379265533825328 
4.380000000003131, -1.0369631566356277 
4.390000000003107, -1.0357348589227557 
4.400000000003084, -1.034345100438097 
4.410000000003061, -1.0328539015157128 
4.4200000000030375, -1.0312647583488466 
4.430000000003014, -1.0295485864620328 
4.440000000002991, -1.027684150313088 
4.450000000002968, -1.0256893020651192 
4.460000000002944, -1.0236245925690126 
4.470000000002921, -1.0215708790876536 
4.480000000002898, -1.0196073460326667 
4.490000000002874, -1.017819458098043 
4.500000000002851, -1.0163258269813122 
4.510000000002828, -1.015266707634579 
4.520000000002804, -1.0147214890850944 
4.530000000002781, -1.0146191578326786 
4.540000000002758, -1.0147421829563434 
4.5500000000027345, -1.0148197191119999 
4.560000000002711, -1.0146183887933584 
4.570000000002688, -1.0139877397568653 
4.580000000002665, -1.0128816998629688 
4.590000000002641, -1.0113625365837255 
4.600000000002618, -1.0095645908709683 
4.610000000002595, -1.0076235877704804 
4.620000000002571, -1.0056191984610838 
4.630000000002548, -1.003564463889377 
4.640000000002525, -1.0014347486390272 
4.6500000000025015, -0.9992098776203824 
4.660000000002478, -0.9969040522582912 
4.670000000002455, -0.9945691618845048 
4.6800000000024315, -0.9922776222710764 
4.690000000002408, -0.9901101826985268 
4.700000000002385, -0.9881675846285856 
4.710000000002362, -0.9865851435208285 
4.720000000002338, -0.9855006165539576 
4.730000000002315, -0.9849660523750776 
4.740000000002292, -0.9848781247104984 
4.750000000002268, -0.9850048348766253 
4.760000000002245, -0.9850809913820207 
4.770000000002222, -0.9848888422742654 
4.7800000000021985, -0.9842968645580965 
4.790000000002175, -0.9832777668103736 
4.800000000002152, -0.9819063901514644 
4.810000000002129, -0.9803177108948848 
4.820000000002105, -0.9786375025998051 
4.830000000002082, -0.9769316083642495 
4.840000000002059, -0.975200608054165 
4.850000000002035, -0.9734106615593264 
4.860000000002012, -0.9715366581960124 
4.870000000001989, -0.9695939548366532 
4.880000000001965, -0.9676430348004388 
4.890000000001942, -0.9657683471326729 
4.900000000001919, -0.9640520825847153 
4.9100000000018955, -0.9625681623208978 
4.920000000001872, -0.9613958745506354 
