t, s[1].omega / s[0].omega 
0, -0.6613429606543315 
0.009999999999999995, -0.8208435312465697 
0.019999999999999934, -1.0011527321682445 
0.029999999999999874, -1.1379196341044149 
0.04000000000000012, -1.2096844103486488 
0.050000000000000405, -1.2403578702200702 
0.06000000000000069, -1.2526137448222756 
0.07000000000000098, -1.2573420178026615 
0.08000000000000126, -1.258838659955369 
0.09000000000000155, -1.2587422587394226 
0.10000000000000184, -1.2578519641076673 
0.11000000000000212, -1.257229537211774 
0.12000000000000241, -1.258997196585686 
0.130000000000002, -1.2654379197449794 
0.1400000000000009, -1.2761567371288538 
0.1499999999999998, -1.2881143448378827 
0.1599999999999987, -1.2988403447422008 
0.1699999999999976, -1.3076241681496423 
0.1799999999999965, -1.314686709021849 
0.1899999999999954, -1.320420207158388 
0.1999999999999943, -1.3251205179239338 
0.2099999999999932, -1.328949403032176 
0.2199999999999921, -1.3319523297795723 
0.229999999999991, -1.334102043650129 
0.2399999999999899, -1.3353719711108654 
0.2499999999999888, -1.3358053447507408 
0.2599999999999877, -1.3355382732167471 
0.2699999999999866, -1.3347847841047793 
0.2799999999999855, -1.3337983951325103 
0.2899999999999844, -1.3327814951795314 
0.2999999999999833, -1.3317904335157214 
0.3099999999999822, -1.3307987297755095 
0.3199999999999811, -1.329888526442422 
0.32999999999998, -1.3292807377320526 
0.3399999999999789, -1.329080176151812 
0.3499999999999778, -1.3290642589562505 
0.35999999999997667, -1.3287991708945301 
0.36999999999997557, -1.3278223901234658 
0.37999999999997447, -1.3256597850545364 
0.38999999999997337, -1.3218097859402476 
0.39999999999997227, -1.3158464921693018 
0.40999999999997117, -1.3075715126649734 
0.41999999999997006, -1.296994724523557 
0.42999999999996896, -1.2840939260541873 
0.43999999999996786, -1.2685528759394613 
0.44999999999996676, -1.249662830620752 
0.45999999999996566, -1.2265558540692452 
0.46999999999996456, -1.1992027312960478 
0.47999999999996346, -1.1704760863278372 
0.48999999999996235, -1.1469601507164975 
0.49999999999996125, -1.1339937870687815 
0.5099999999999602, -1.1301202081265997 
0.519999999999959, -1.130327527135527 
0.529999999999958, -1.1312057968466167 
0.5399999999999568, -1.1314397471886575 
0.5499999999999557, -1.1304696052881076 
0.5599999999999546, -1.1274614302177373 
0.5699999999999535, -1.120334970121442 
0.5799999999999524, -1.1040298749034205 
0.5899999999999513, -1.0678181467031462 
0.5999999999999502, -0.9963871419726772 
0.6099999999999491, -0.8870110879680535 
0.619999999999948, -0.7671554454114105 
0.6299999999999469, -0.6680965602784844 
0.6399999999999458, -0.5977846953902655 
0.6499999999999447, -0.5502445621822604 
0.6599999999999436, -0.5180836153303837 
0.6699999999999425, -0.49599691507094806 
0.6799999999999414, -0.4806139106232303 
0.6899999999999403, -0.4698256577018912 
0.6999999999999392, -0.4622837090676546 
0.7099999999999381, -0.45709506963862756 
0.719999999999937, -0.4536454529385877 
0.7299999999999359, -0.45149797959433646 
0.7399999999999348, -0.4503353416619965 
0.7499999999999337, -0.44992715377153936 
0.7599999999999326, -0.45011240687378445 
0.7699999999999315, -0.4507919693641962 
0.7799999999999304, -0.4519291156396599 
0.7899999999999293, -0.4535574622551454 
0.7999999999999282, -0.45579596914484916 
0.8099999999999271, -0.4588714699806234 
0.819999999999926, -0.4631517374893058 
0.8299999999999249, -0.46919024775981094 
0.8399999999999238, -0.4777546018001086 
0.8499999999999227, -0.48971208775209024 
0.8599999999999216, -0.5054887156842638 
0.8699999999999205, -0.5239955241696056 
0.8799999999999194, -0.5421472948538315 
0.8899999999999183, -0.556636828364836 
0.8999999999999172, -0.5662676847779705 
0.9099999999999161, -0.5718388877225913 
0.919999999999915, -0.5746544536705034 
0.9299999999999139, -0.5756625895775511 
0.9399999999999128, -0.5753008241876011 
0.9499999999999117, -0.5735074820326107 
0.9599999999999106, -0.5695585578495138 
0.9699999999999095, -0.5613630267480536 
0.9799999999999084, -0.5431382508688276 
0.9899999999999073, -0.4979491147999844 
0.9999999999999062, -0.380045394097146 
1.0099999999999052, -0.14193329645224975 
1.019999999999904, 0.08650469293503701 
1.029999999999903, 0.19174636862191385 
1.039999999999902, 0.2303426762157982 
1.0499999999999008, 0.24542313493178095 
1.0599999999998997, 0.2519111299453743 
1.0699999999998986, 0.2547919936907198 
1.0799999999998975, 0.25590918133697116 
1.0899999999998964, 0.2560395951665854 
1.0999999999998953, 0.2555833890838381 
1.1099999999998942, 0.25481949371004775 
1.119999999999893, 0.253995953526965 
1.129999999999892, 0.2533495809760692 
1.1399999999998909, 0.25311136444736915 
1.1499999999998898, 0.25353165419752477 
1.1599999999998887, 0.2549228189496072 
1.1699999999998876, 0.2576692119517765 
1.1799999999998865, 0.26209784534759917 
1.1899999999998854, 0.26812730262212375 
1.1999999999998843, 0.274934153456908 
1.2099999999998832, 0.2812174584211994 
1.219999999999882, 0.28599985603708733 
1.229999999999881, 0.28903066653388926 
1.2399999999998799, 0.29050580800552817 
1.2499999999998788, 0.2906418161538181 
1.2599999999998777, 0.2894092036662772 
1.2699999999998766, 0.2863420926373744 
1.2799999999998755, 0.28028204505843435 
1.2899999999998744, 0.26913948635195406 
1.2999999999998733, 0.25057352946147643 
1.3099999999998722, 0.22529223117606442 
1.319999999999871, 0.1999989943894403 
1.32999999999987, 0.18170581800741747 
1.3399999999998689, 0.17121530893794282 
1.3499999999998678, 0.16581712482456784 
1.3599999999998666, 0.1631071472507705 
1.3699999999998655, 0.16174254055690582 
1.3799999999998644, 0.16106130600345261 
1.3899999999998633, 0.16072164032786052 
1.3999999999998622, 0.1605044324356475 
1.4099999999998611, 0.1602153539448504 
1.41999999999986, 0.15963153323423884 
1.429999999999859, 0.1584494909197458 
1.4399999999998578, 0.15617580808358844 
1.4499999999998567, 0.15184198717255165 
1.4599999999998556, 0.14321767793220586 
1.4699999999998545, 0.12444462168545305 
1.4799999999998534, 0.07846642407929026 
1.4899999999998523, -0.04225279864652173 
1.4999999999998512, -0.2960394756633696 
1.5099999999998501, -0.5574107413979806 
1.519999999999849, -0.6869910566917985 
1.529999999999848, -0.7360843397511595 
1.5399999999998468, -0.7550756458278735 
1.5499999999998457, -0.7629576771249366 
1.5599999999998446, -0.766225367978073 
1.5699999999998435, -0.767158063313268 
1.5799999999998424, -0.7664145087794628 
1.5899999999998413, -0.7636975192615201 
1.5999999999998402, -0.7574848958343305 
1.6099999999998391, -0.7435366712811893 
1.619999999999838, -0.710626055699533 
1.629999999999837, -0.632580877746992 
1.6399999999998358, -0.4791336206164546 
1.6499999999998347, -0.2946443620762748 
1.6599999999998336, -0.170481203615953 
1.6699999999998325, -0.10960832061240726 
1.6799999999998314, -0.08102740816140638 
1.6899999999998303, -0.0667234927964582 
1.6999999999998292, -0.05898026619400705 
1.709999999999828, -0.05450638220802614 
1.719999999999827, -0.0517944935709142 
1.729999999999826, -0.05009270698547117 
1.7399999999998248, -0.048999434894689706 
1.7499999999998237, -0.04829897335255802 
1.7599999999998226, -0.04789486793960361 
1.7699999999998215, -0.0477900539640987 
1.7799999999998204, -0.048105038131920755 
1.7899999999998193, -0.04915692207166346 
1.7999999999998182, -0.05167310144853822 
1.809999999999817, -0.057324317908524956 
1.819999999999816, -0.06981063322815942 
1.8299999999998149, -0.09320149748069523 
1.8399999999998138, -0.058205317595481 
1.8499999999998127, 0.8619419424695156 
1.8599999999998116, 1.4744154581103512 
1.8699999999998105, 1.5238548382072319 
1.8799999999998094, 1.5313812345234585 
1.8899999999998083, 1.5324662731565368 
1.8999999999998072, 1.5304872833000818 
1.909999999999806, 1.5217014113239582 
1.919999999999805, 1.4753655589561154 
1.9299999999998039, 1.2136062519924944 
1.9399999999998028, 1.0921296287613884 
1.9499999999998017, 1.1473790636266457 
1.9599999999998006, 1.1654423530769065 
1.9699999999997995, 1.1706722622896397 
1.9799999999997984, 1.1718792505915299 
1.9899999999997973, 1.1711144955536907 
1.9999999999997962, 1.1685840864722972 
2.0099999999998173, 1.1644789151837212 
2.0199999999998384, 1.1646478202817514 
2.0299999999998595, 1.1864902970506552 
2.0399999999998806, 1.2196578503969424 
2.0499999999999017, 1.238162866160328 
2.059999999999923, 1.2452171091885038 
2.069999999999944, 1.2474056018546245 
2.079999999999965, 1.247124319365632 
2.089999999999986, 1.2439203733859854 
2.100000000000007, 1.2311258711888686 
2.1100000000000283, 1.146894368509832 
2.1200000000000494, -0.18317484622671307 
2.1300000000000705, -2.0698041360680572 
2.1400000000000916, -2.244887602347722 
2.1500000000001127, -2.267478590042545 
2.160000000000134, -2.271855906047122 
2.170000000000155, -2.2723305990557026 
2.180000000000176, -2.271874947568337 
2.190000000000197, -2.27179373771836 
2.2000000000002182, -2.2718476104925243 
2.2100000000002393, -2.271376678266927 
2.2200000000002604, -2.270881013126265 
2.2300000000002815, -2.2706423525389408 
2.2400000000003026, -2.2695192075856476 
2.2500000000003237, -2.264790004653392 
2.260000000000345, -2.2442039527641127 
2.270000000000366, -2.1051301903192607 
2.280000000000387, -0.6612012737215263 
2.290000000000408, 0.846608957011185 
2.3000000000004293, 0.9762909955711228 
2.3100000000004504, 0.9959394651422727 
2.3200000000004715, 1.0008385194143021 
2.3300000000004926, 1.0019099412081152 
2.3400000000005137, 1.0011446593293398 
2.3500000000005348, 0.9986053221241191 
2.360000000000556, 0.9935668545068534 
2.370000000000577, 0.9853383757840162 
2.380000000000598, 0.9751709900278129 
2.390000000000619, 0.9669098452971472 
2.4000000000006403, 0.9628736499838919 
2.4100000000006614, 0.9618174581121831 
2.4200000000006825, 0.9617920314358213 
2.4300000000007036, 0.9616664034427649 
2.4400000000007247, 0.9607418137947817 
2.450000000000746, 0.9578731963883402 
2.460000000000767, 0.9491425592479652 
2.470000000000788, 0.9135167791857773 
2.480000000000809, 0.6233062969399661 
2.49000000000083, -2.2560265517320177 
2.5000000000008513, -3.10141748739088 
2.5100000000008724, -3.151699769122206 
2.5200000000008935, -3.1604352462233263 
2.5300000000009146, -3.162075169792469 
2.5400000000009357, -3.160915167497012 
2.550000000000957, -3.156329999085671 
2.560000000000978, -3.1387065557352676 
2.570000000000999, -3.0677830326635087 
2.58000000000102, -3.0610210881972906 
2.5900000000010412, -3.076144447850809 
2.6000000000010624, -3.078042805372923 
2.6100000000010835, -3.077257887530363 
2.6200000000011046, -3.0776494340997567 
2.6300000000011257, -3.078597723623022 
2.6400000000011468, -3.0784378830223558 
2.650000000001168, -3.078105656259934 
2.660000000001189, -3.076387345049789 
2.67000000000121, -3.065303009779149 
2.680000000001231, -2.9261125886915687 
2.6900000000012523, -3.0475681822579777 
2.7000000000012734, -4.226636187241207 
2.7100000000012945, -4.24938311757401 
2.7200000000013156, -4.251112534452172 
2.7300000000013367, -4.248306554040445 
2.740000000001358, -4.227170429299022 
2.750000000001379, -2.945995230520449 
2.7600000000014, 1.2196092765724855 
2.770000000001421, 1.446267937159669 
2.780000000001442, 1.4664532534602475 
2.7900000000014633, 1.470262600227554 
2.8000000000014844, 1.4709103255551585 
2.8100000000015055, 1.4707916775332541 
2.8200000000015266, 1.4709488015612853 
2.8300000000015477, 1.4719769575676565 
2.840000000001569, 1.4736284767662846 
2.85000000000159, 1.4751046016806009 
2.860000000001611, 1.4759451076085874 
2.870000000001632, 1.4761182958847279 
2.8800000000016532, 1.4755192367611512 
2.8900000000016743, 1.4732275198427214 
2.9000000000016954, 1.4641651082656366 
2.9100000000017165, 1.3969505692379058 
2.9200000000017377, -1.0401358077547107 
2.9300000000017588, -3.406559166694282 
2.94000000000178, -3.47006500946033 
2.950000000001801, -3.477720888530031 
2.960000000001822, -3.478359461183635 
2.970000000001843, -3.476070646249121 
2.9800000000018643, -3.4669968470112877 
2.9900000000018854, -3.4230650454358362 
3.0000000000019065, -3.4081265621391252 
3.0100000000019276, -3.421654632233963 
3.0200000000019487, -3.4228751657151997 
3.03000000000197, -3.422106413198352 
3.040000000001991, -3.4227017996305853 
3.050000000002012, -3.422635896502461 
3.060000000002033, -3.422086428622296 
3.070000000002054, -3.4211720632575706 
3.0800000000020753, -3.4141830344113564 
3.0900000000020964, -3.343819392660982 
3.1000000000021175, -3.513361769580439 
3.1100000000021386, -3.617513391872129 
3.1200000000021597, -3.6277853911809763 
3.130000000002181, -3.6291345561339954 
3.140000000002202, -3.6271311448550647 
3.150000000002223, -3.617324316686512 
3.160000000002244, -3.529404120650382 
3.1700000000022652, -0.49556257650405156 
3.1800000000022863, 1.1874910501129468 
3.1900000000023074, 1.2684416571485744 
3.2000000000023285, 1.2802420272492991 
3.2100000000023496, 1.282949815372517 
3.2200000000023707, 1.283414370334895 
3.230000000002392, 1.2832807528091688 
3.240000000002413, 1.2834441836923367 
3.250000000002434, 1.2846205262657704 
3.260000000002455, 1.2868713008645067 
3.2700000000024763, 1.289377185668336 
3.2800000000024974, 1.291271988139257 
3.2900000000025185, 1.2922648878706293 
3.3000000000025396, 1.2923673536563671 
3.3100000000025607, 1.2913421669640932 
3.3200000000025818, 1.287687678251418 
3.330000000002603, 1.2728280569745694 
3.340000000002624, 1.1486226470123397 
3.350000000002645, -1.9127308428049279 
3.360000000002666, -3.2169398637334714 
3.3700000000026873, -3.26923344088337 
3.3800000000027084, -3.2762185789464695 
3.3900000000027295, -3.2767867381586675 
3.4000000000027506, -3.274962459842098 
3.4100000000027717, -3.26905512815789 
3.420000000002793, -3.2506406880565377 
3.430000000002814, -3.243347050450356 
3.440000000002835, -3.249260911442181 
3.450000000002856, -3.2496001669968897 
3.460000000002877, -3.2481098106330606 
3.4700000000028983, -3.250107704836279 
3.4800000000029194, -3.252291916172998 
3.4900000000029405, -3.2526187259569057 
3.5000000000029616, -3.252097863741413 
3.5100000000029827, -3.2483578191453146 
3.520000000003004, -3.217813780114311 
3.530000000003025, -2.1727693405396344 
3.540000000003046, 2.527053350935697 
3.550000000003067, 2.6030510359701955 
3.5600000000030882, 2.6071341142469135 
3.5700000000031094, 2.6054396783944123 
3.5800000000031305, 2.5876987541363294 
3.5900000000031516, 1.634550057655512 
3.6000000000031727, -0.900554275565073 
3.6100000000031938, -1.2786952136013514 
3.620000000003215, -1.3948953400549953 
3.630000000003236, -1.4278328316005242 
3.640000000003257, -1.4379068893157023 
3.650000000003278, -1.44096084056546 
3.6600000000032993, -1.4411642323894518 
3.6700000000033204, -1.43949286059921 
3.6800000000033415, -1.436282215035917 
3.6900000000033626, -1.4345870743739966 
3.7000000000033837, -1.4454454564009787 
3.710000000003405, -1.4766600126500733 
3.720000000003426, -1.513358549536313 
3.730000000003447, -1.5411474676299612 
3.740000000003468, -1.559373404728109 
3.750000000003489, -1.5713377807814422 
3.7600000000035103, -1.5794807929329049 
3.7700000000035314, -1.5851185203162805 
3.7800000000035525, -1.5889128686291114 
3.7900000000035736, -1.591217691152008 
3.8000000000035947, -1.592276792536849 
3.810000000003616, -1.5923161845300602 
3.820000000003637, -1.5915686993870668 
3.830000000003658, -1.590260295606348 
3.840000000003679, -1.588525716276448 
3.8500000000037002, -1.586315556220216 
3.8600000000037213, -1.5836021503540305 
3.8700000000037424, -1.5808961425966706 
3.8800000000037635, -1.579191006985606 
3.8900000000037847, -1.5787340677042345 
3.9000000000038058, -1.5786160203569435 
3.910000000003827, -1.5777287535175117 
3.920000000003848, -1.5747722998566454 
3.930000000003869, -1.5666979635671883 
3.94000000000389, -1.5443352761096785 
3.9500000000039113, -1.4798253903622487 
3.9600000000039324, -1.304559093674638 
3.9700000000039535, -0.9625145524226048 
3.9800000000039746, -0.605968153154804 
3.9900000000039957, -0.3930281085328905 
4.000000000004016, -0.29020548012877645 
4.010000000003993, -0.24011499328310287 
4.02000000000397, -0.21393424214620055 
4.030000000003946, -0.1992405599440645 
4.040000000003923, -0.19051754844420596 
4.0500000000039, -0.1851516704317907 
4.0600000000038765, -0.18183095342364128 
4.070000000003853, -0.1798772540973339 
4.08000000000383, -0.17895401625889565 
4.090000000003807, -0.1789387296613874 
4.100000000003783, -0.17988008522278764 
4.11000000000376, -0.18201539787758714 
4.120000000003737, -0.18585827538043326 
4.130000000003713, -0.19240935890080857 
4.14000000000369, -0.20363333353748647 
4.150000000003667, -0.2235773449721735 
4.1600000000036434, -0.2611270757343308 
4.17000000000362, -0.3368318924939302 
4.180000000003597, -0.4962849489865839 
4.1900000000035735, -0.8027925376461533 
4.20000000000355, -1.1968961841013357 
4.210000000003527, -1.464173294612473 
4.220000000003504, -1.5757741864774286 
4.23000000000348, -1.614794235288868 
4.240000000003457, -1.6282215864955774 
4.250000000003434, -1.6327964390473841 
4.26000000000341, -1.6340287791919113 
4.270000000003387, -1.6338913336980514 
4.280000000003364, -1.6334941712707682 
4.2900000000033405, -1.6338088380725675 
4.300000000003317, -1.635058747056497 
4.310000000003294, -1.636536060344404 
4.320000000003271, -1.63767473867907 
4.330000000003247, -1.6384641573085958 
4.340000000003224, -1.6389802975754144 
4.350000000003201, -1.6390477332527333 
4.360000000003177, -1.6383111591580586 
4.370000000003154, -1.6363320865928546 
4.380000000003131, -1.6325738399799807 
4.390000000003107, -1.6263761440672113 
4.400000000003084, -1.6168631777563696 
4.410000000003061, -1.6025849348190522 
4.4200000000030375, -1.5806691109626834 
4.430000000003014, -1.545349913442569 
4.440000000002991, -1.4875367298165443 
4.450000000002968, -1.4063159520903667 
4.460000000002944, -1.336228206934443 
4.470000000002921, -1.3110061151530912 
4.480000000002898, -1.3117286168704296 
4.490000000002874, -1.316157088239536 
4.500000000002851, -1.318695225744555 
4.510000000002828, -1.3192193164495043 
4.520000000002804, -1.3177269766942283 
4.530000000002781, -1.3128209042314913 
4.540000000002758, -1.2991103098985226 
4.5500000000027345, -1.2566839989889282 
4.560000000002711, -1.1042827521173344 
4.570000000002688, -0.42338372050077105 
4.580000000002665, 1.379051361889275 
4.590000000002641, 1.597532017018377 
4.600000000002618, 1.6159674250920635 
4.610000000002595, 1.6190512125771483 
4.620000000002571, 1.6184199706396611 
4.630000000002548, 1.613447994634722 
4.640000000002525, 1.5895466109544722 
4.6500000000025015, 1.4288631287499025 
4.660000000002478, 1.1993516688747132 
4.670000000002455, 1.261200616422052 
4.6800000000024315, 1.2849169241149028 
4.690000000002408, 1.2911594156898234 
4.700000000002385, 1.2925679805207673 
4.710000000002362, 1.2919231529652253 
4.720000000002338, 1.2898183187262844 
4.730000000002315, 1.2874610926136274 
4.740000000002292, 1.2912626699188368 
4.750000000002268, 1.3081726449841928 
4.760000000002245, 1.3259204288263067 
4.770000000002222, 1.3351964028374876 
4.7800000000021985, 1.3387746559854752 
4.790000000002175, 1.3395224581581455 
4.800000000002152, 1.338087120952487 
4.810000000002129, 1.3318908836531387 
4.820000000002105, 1.299412370501001 
4.830000000002082, 0.7844593141714882 
4.840000000002059, -2.6522299342256352 
4.850000000002035, -2.9216123171008617 
4.860000000002012, -2.9417311825826844 
4.870000000001989, -2.9445855714771025 
4.880000000001965, -2.944295751711943 
4.890000000001942, -2.9429603200237056 
4.900000000001919, -2.9399603388465065 
4.9100000000018955, -2.9352203970340383 
4.920000000001872, -2.934348222781587 
4.930000000001849, -2.9349066183644665 
4.940000000001826, -2.932411718381369 
4.950000000001802, -2.92425810017484 
4.960000000001779, -2.935524679501802 
