t, s[1].omega / s[0].omega 
0, -0.9393717430602722 
0.009999999999999995, -0.8790627660462281 
0.019999999999999934, -0.8255496884792437 
0.029999999999999874, -0.7798041068079875 
0.04000000000000012, -0.7418634827736252 
0.050000000000000405, -0.7115761301563729 
0.06000000000000069, -0.6886272962644957 
0.07000000000000098, -0.6723638842022572 
0.08000000000000126, -0.6617302295042357 
0.09000000000000155, -0.65540401227415 
0.10000000000000184, -0.6520449885714161 
0.11000000000000212, -0.6505112896126634 
0.12000000000000241, -0.6499575499990369 
0.130000000000002, -0.6498213696759373 
0.1400000000000009, -0.6497543403422898 
0.1499999999999998, -0.6495521668067705 
0.1599999999999987, -0.6491140339253577 
0.1699999999999976, -0.6484337696086001 
0.1799999999999965, -0.6475989061441438 
0.1899999999999954, -0.6467640500719793 
0.1999999999999943, -0.6460929096434989 
0.2099999999999932, -0.6457009269300068 
0.2199999999999921, -0.645625291191467 
0.229999999999991, -0.6458186298760837 
0.2399999999999899, -0.6461587128210269 
0.2499999999999888, -0.6464822832959676 
0.2599999999999877, -0.6466434258066174 
0.2699999999999866, -0.6465675814679461 
0.2799999999999855, -0.6462735344017897 
0.2899999999999844, -0.6458740183529177 
0.2999999999999833, -0.6455880343114159 
0.3099999999999822, -0.6457851562750065 
0.3199999999999811, -0.6470562637474548 
0.32999999999998, -0.6502792449077136 
0.3399999999999789, -0.6566268134061585 
0.3499999999999778, -0.6674659779454335 
0.35999999999997667, -0.6841490347269128 
0.36999999999997557, -0.7077808029677961 
0.37999999999997447, -0.7390960093844622 
0.38999999999997337, -0.7785200147746081 
0.39999999999997227, -0.8263107748695822 
0.40999999999997117, -0.8824405599909252 
0.41999999999997006, -0.9456462765144489 
0.42999999999996896, -1.0113718197566757 
0.43999999999996786, -1.0706688129504955 
0.44999999999996676, -1.11456554115366 
0.45999999999996566, -1.1410751673508188 
0.46999999999996456, -1.154766727790531 
0.47999999999996346, -1.1611315755345442 
0.48999999999996235, -1.1637406400113017 
0.49999999999996125, -1.1644066072338586 
0.5099999999999602, -1.164013139655814 
0.519999999999959, -1.1632351072103073 
0.529999999999958, -1.1632106950693513 
0.5399999999999568, -1.1658617301948553 
0.5499999999999557, -1.1728070859218926 
0.5599999999999546, -1.183460662121708 
0.5699999999999535, -1.1954135821558252 
0.5799999999999524, -1.2066391949265418 
0.5899999999999513, -1.2163817589868204 
0.5999999999999502, -1.2246803197432352 
0.6099999999999491, -1.2318031202836561 
0.619999999999948, -1.2379807076407239 
0.6299999999999469, -1.2433205962350475 
0.6399999999999458, -1.2477925707152888 
0.6499999999999447, -1.2512735295001842 
0.6599999999999436, -1.2536571277014619 
0.6699999999999425, -1.2549618315133049 
0.6799999999999414, -1.2553514372630827 
0.6899999999999403, -1.2550869424297442 
0.6999999999999392, -1.2544888519442101 
0.7099999999999381, -1.253899905682234 
0.719999999999937, -1.2535696748813372 
0.7299999999999359, -1.253530540995294 
0.7399999999999348, -1.2536609469381939 
0.7499999999999337, -1.2538784484814935 
0.7599999999999326, -1.2542004608200767 
0.7699999999999315, -1.2546204511277756 
0.7799999999999304, -1.2549981219940642 
0.7899999999999293, -1.2551005381777867 
0.7999999999999282, -1.2547052562305339 
0.8099999999999271, -1.2536620481044947 
0.819999999999926, -1.2519173972260345 
0.8299999999999249, -1.2495099970277992 
0.8399999999999238, -1.2465234096515017 
0.8499999999999227, -1.2430189488915107 
0.8599999999999216, -1.238995434381889 
0.8699999999999205, -1.234387925970808 
0.8799999999999194, -1.2290828295149812 
0.8899999999999183, -1.2229444587477882 
0.8999999999999172, -1.2159162372598085 
0.9099999999999161, -1.2082943105363226 
0.919999999999915, -1.2010694791202248 
0.9299999999999139, -1.1957205459242968 
0.9399999999999128, -1.1930426289703564 
0.9499999999999117, -1.1923776764403293 
0.9599999999999106, -1.1924261647887546 
0.9699999999999095, -1.1921923405391526 
0.9799999999999084, -1.1909902587853203 
0.9899999999999073, -1.1879759217864252 
0.9999999999999062, -1.181616525270677 
1.0099999999999052, -1.169297041494254 
1.019999999999904, -1.147749059945767 
1.029999999999903, -1.1151264635684748 
1.039999999999902, -1.0731681479574613 
1.0499999999999008, -1.0261630286577867 
1.0599999999998997, -0.9779673830523754 
1.0699999999998986, -0.9308480749950261 
1.0799999999998975, -0.8862505093475754 
1.0899999999998964, -0.8457659028822629 
1.0999999999998953, -0.8113722399371885 
1.1099999999998942, -0.7848168649326323 
1.119999999999893, -0.7666638609392973 
1.129999999999892, -0.7559052506780606 
1.1399999999998909, -0.7505016835998892 
1.1499999999998898, -0.7483090735762363 
1.1599999999998887, -0.7476887477021241 
1.1699999999998876, -0.7476199791368858 
1.1799999999998865, -0.7475345890617798 
1.1899999999998854, -0.7471119017583406 
1.1999999999998843, -0.7461450727952519 
1.2099999999998832, -0.7445044025489144 
1.219999999999882, -0.7421815729828567 
1.229999999999881, -0.739345427608316 
1.2399999999998799, -0.7363079202313034 
1.2499999999998788, -0.7333880714161778 
1.2599999999998777, -0.7307878198150191 
1.2699999999998766, -0.728564256119743 
1.2799999999998755, -0.7266716144228469 
1.2899999999998744, -0.7250184592709449 
1.2999999999998733, -0.7235172807649215 
1.3099999999998722, -0.7221213267876214 
1.319999999999871, -0.7208435087468763 
1.32999999999987, -0.7197550812108918 
1.3399999999998689, -0.7189677339876912 
1.3499999999998678, -0.7186053869170376 
1.3599999999998666, -0.7187738415050796 
1.3699999999998655, -0.7195387356946397 
1.3799999999998644, -0.7209197619830936 
1.3899999999998633, -0.7229007790400112 
1.3999999999998622, -0.7254486552751302 
1.4099999999998611, -0.7285341866525786 
1.41999999999986, -0.7321529833942099 
1.429999999999859, -0.7363460338113044 
1.4399999999998578, -0.7412164923945022 
1.4499999999998567, -0.7469333696990333 
1.4599999999998556, -0.7537040981597178 
1.4699999999998545, -0.761682274040391 
1.4799999999998534, -0.7707710218919156 
1.4899999999998523, -0.7803707052860945 
1.4999999999998512, -0.7893570171806068 
1.5099999999998501, -0.7965838136346336 
1.519999999999849, -0.801536981889847 
1.529999999999848, -0.8044202468821388 
1.5399999999998468, -0.805743535200768 
1.5499999999998457, -0.8059689688149791 
1.5599999999998446, -0.8054194979009539 
1.5699999999998435, -0.8043880340921273 
1.5799999999998424, -0.8034583306513833 
1.5899999999998413, -0.804246352027971 
1.5999999999998402, -0.8108822907724077 
1.6099999999998391, -0.8319672700432135 
1.619999999999838, -0.8801378554071789 
1.629999999999837, -0.9631321248662644 
1.6399999999998358, -1.0696465932592898 
1.6499999999998347, -1.1744573821487014 
1.6599999999998336, -1.2610076973521223 
1.6699999999998325, -1.3268409804053247 
1.6799999999998314, -1.3749347651409412 
1.6899999999998303, -1.408328506721214 
1.6999999999998292, -1.4296573215902189 
1.709999999999828, -1.4418896996751864 
1.719999999999827, -1.4481318541903563 
1.729999999999826, -1.4508718452657798 
1.7399999999998248, -1.4516944059019 
1.7499999999998237, -1.4515435248595303 
1.7599999999998226, -1.451128307126774 
1.7699999999998215, -1.4510797215562836 
1.7799999999998204, -1.4516557687913816 
1.7899999999998193, -1.45256795209871 
1.7999999999998182, -1.45343046771311 
1.809999999999817, -1.4541409729874186 
1.819999999999816, -1.4547421312088218 
1.8299999999998149, -1.4551485053898516 
1.8399999999998138, -1.4551166766139219 
1.8499999999998127, -1.4543646903697123 
1.8599999999998116, -1.4526400222997984 
1.8699999999998105, -1.4497446451844538 
1.8799999999998094, -1.4455445496273036 
1.8899999999998083, -1.4399207927590454 
1.8999999999998072, -1.4326507223682325 
1.909999999999806, -1.4232561239827937 
1.919999999999805, -1.4108497201587036 
1.9299999999998039, -1.3941268554904434 
1.9399999999998028, -1.3721873483860734 
1.9499999999998017, -1.3474176797421547 
1.9599999999998006, -1.3278400007150466 
1.9699999999997995, -1.3196190419422487 
1.9799999999997984, -1.319165676177331 
1.9899999999997973, -1.3205604847378025 
1.9999999999997962, -1.3212562165099102 
2.0099999999998173, -1.3205223935500214 
2.0199999999998384, -1.3173831028114675 
2.0299999999998595, -1.308600736979862 
2.0399999999998806, -1.2826611180176493 
2.0499999999999017, -1.1938179719847732 
2.059999999999923, -0.8676653746022562 
2.069999999999944, -0.1836375261763853 
2.079999999999965, 0.19324918388042384 
2.089999999999986, 0.292965175781207 
2.100000000000007, 0.3224474015971949 
2.1100000000000283, 0.3332445854433022 
2.1200000000000494, 0.3377435727203029 
2.1300000000000705, 0.339634243817827 
2.1400000000000916, 0.34025445687309613 
2.1500000000001127, 0.34019567581530197 
2.160000000000134, 0.33979662488767465 
2.170000000000155, 0.33931494230410864 
2.180000000000176, 0.33899014338608013 
2.190000000000197, 0.3390769069956828 
2.2000000000002182, 0.3398817881274138 
2.2100000000002393, 0.34179294361727536 
2.2200000000002604, 0.3452279309921168 
2.2300000000002815, 0.35037641505225164 
2.2400000000003026, 0.35678251642263775 
2.2500000000003237, 0.3632743759796119 
2.260000000000345, 0.36863057437864083 
2.270000000000366, 0.3722819036406651 
2.280000000000387, 0.3742831960526619 
2.290000000000408, 0.374868747309039 
2.3000000000004293, 0.3740882154503665 
2.3100000000004504, 0.3715375330346332 
2.3200000000004715, 0.3659285046563903 
2.3300000000004926, 0.35416649754532104 
2.3400000000005137, 0.33016436720308373 
2.3500000000005348, 0.28774213026043527 
2.360000000000556, 0.2351818002567862 
2.370000000000577, 0.19540369707905397 
2.380000000000598, 0.17528799998754063 
2.390000000000619, 0.16685515541722912 
2.4000000000006403, 0.16338650444931546 
2.4100000000006614, 0.1618577498067567 
2.4200000000006825, 0.16109770007709592 
2.4300000000007036, 0.1606374932081412 
2.4400000000007247, 0.16024721078453172 
2.450000000000746, 0.1597558530060923 
2.460000000000767, 0.15896674596864235 
2.470000000000788, 0.1575875766335679 
2.480000000000809, 0.15510904026662348 
2.49000000000083, 0.1505035225545492 
2.5000000000008513, 0.14136921013748333 
2.5100000000008724, 0.12118267421811846 
2.5200000000008935, 0.06925328188976856 
2.5300000000009146, -0.08536133382020814 
2.5400000000009357, -0.4856640622572986 
2.550000000000957, -0.9303423456896919 
2.560000000000978, -1.1201907793603467 
2.570000000000999, -1.1791715945471297 
2.58000000000102, -1.198364636796864 
2.5900000000010412, -1.2051101396833566 
2.6000000000010624, -1.2072939865138954 
2.6100000000010835, -1.2073204480186261 
2.6200000000011046, -1.2058721379771744 
2.6300000000011257, -1.203307792677252 
2.6400000000011468, -1.2015516054093571 
2.650000000001168, -1.2079486716147525 
2.660000000001189, -1.2348493873334194 
2.67000000000121, -1.2826851728538067 
2.680000000001231, -1.3334693200777594 
2.6900000000012523, -1.3738930907904734 
2.7000000000012734, -1.4029707183758198 
2.7100000000012945, -1.423822859704272 
2.7200000000013156, -1.4390890690569649 
2.7300000000013367, -1.4502824363823614 
2.740000000001358, -1.4581827922575938 
2.750000000001379, -1.4633051111689224 
2.7600000000014, -1.466186378563435 
2.770000000001421, -1.467414704385567 
2.780000000001442, -1.4675376265324422 
2.7900000000014633, -1.4670346754462695 
2.8000000000014844, -1.4663385153960857 
2.8100000000015055, -1.465735397360014 
2.8200000000015266, -1.4652236414724098 
2.8300000000015477, -1.4646740081252494 
2.840000000001569, -1.4641482829216763 
2.85000000000159, -1.463869789773512 
2.860000000001611, -1.463844041084593 
2.870000000001632, -1.463706604060485 
2.8800000000016532, -1.4629270586651648 
2.8900000000016743, -1.460894327036645 
2.9000000000016954, -1.4568052920939691 
2.9100000000017165, -1.4496266209848725 
2.9200000000017377, -1.438260061885885 
2.9300000000017588, -1.4216934155269692 
2.94000000000178, -1.3987467063778396 
2.950000000001801, -1.3673869624219037 
2.960000000001822, -1.3241531935428161 
2.970000000001843, -1.2652552474466865 
2.9800000000018643, -1.19294847566622 
2.9900000000018854, -1.1249355603627829 
3.0000000000019065, -1.0833394122926694 
3.0100000000019276, -1.0688682555619908 
3.0200000000019487, -1.0675239264589442 
3.03000000000197, -1.0693329919582157 
3.040000000001991, -1.0708082863637036 
3.050000000002012, -1.0711893901566638 
3.060000000002033, -1.0701820599355354 
3.070000000002054, -1.066999014855139 
3.0800000000020753, -1.0594032820468566 
3.0900000000020964, -1.0416093288231627 
3.1000000000021175, -1.000216423901771 
3.1100000000021386, -0.9135095822796038 
3.1200000000021597, -0.7765391745388716 
3.130000000002181, -0.6333740589015534 
3.140000000002202, -0.5280999590109294 
3.150000000002223, -0.4627371760858427 
3.160000000002244, -0.4233845314770921 
3.1700000000022652, -0.3990452406529003 
3.1800000000022863, -0.3833769832537127 
3.1900000000023074, -0.3729210181843325 
3.2000000000023285, -0.36576126593138675 
3.2100000000023496, -0.360800791105287 
3.2200000000023707, -0.35739258578179206 
3.230000000002392, -0.35514878517385573 
3.240000000002413, -0.3538396935254472 
3.250000000002434, -0.353340321085469 
3.260000000002455, -0.35360438989585274 
3.2700000000024763, -0.3546568718274622 
3.2800000000024974, -0.3566026496715078 
3.2900000000025185, -0.3596542394062431 
3.3000000000025396, -0.36418830855100204 
3.3100000000025607, -0.37085284583823497 
3.3200000000025818, -0.38077180828440726 
3.330000000002603, -0.3959445604721188 
3.340000000002624, -0.4200168844537099 
3.350000000002645, -0.4595739315341912 
3.360000000002666, -0.5250086855885451 
3.3700000000026873, -0.6248000459015989 
3.3800000000027084, -0.7441674651052901 
3.3900000000027295, -0.8414128897938614 
3.4000000000027506, -0.896716766671114 
3.4100000000027717, -0.922419735922548 
3.420000000002793, -0.9335917131145642 
3.430000000002814, -0.9382857437458603 
3.440000000002835, -0.9399236238386001 
3.450000000002856, -0.9397940034282776 
3.460000000002877, -0.938186023429949 
3.4700000000028983, -0.9348091283686626 
3.4800000000029194, -0.9291750104905281 
3.4900000000029405, -0.9226036593953205 
3.5000000000029616, -0.9289239178923363 
3.5100000000029827, -1.0183186980921999 
3.520000000003004, -1.369075808968666 
3.530000000003025, -1.806479517890337 
3.540000000003046, -1.986445584041419 
3.550000000003067, -2.045885866608995 
3.5600000000030882, -2.0693529030189755 
3.5700000000031094, -2.079922206901127 
3.5800000000031305, -2.084743668307504 
3.5900000000031516, -2.086571170306563 
3.6000000000031727, -2.086642251980259 
3.6100000000031938, -2.085537537187173 
3.620000000003215, -2.0834035497676853 
3.630000000003236, -2.07976750113166 
3.640000000003257, -2.073898040971442 
3.650000000003278, -2.067622896058588 
3.6600000000032993, -2.065584537300875 
3.6700000000033204, -2.0663787122719817 
3.6800000000033415, -2.066304489683792 
3.6900000000033626, -2.0634046015924636 
3.7000000000033837, -2.0522290402013126 
3.710000000003405, -2.0167523419823814 
3.720000000003426, -2.055450919753048 
3.730000000003447, -2.29686761289316 
3.740000000003468, -2.391196580668158 
3.750000000003489, -2.416673624169132 
3.7600000000035103, -2.4255177800525614 
3.7700000000035314, -2.4289539579035706 
3.7800000000035525, -2.4298591684804896 
3.7900000000035736, -2.4290341382047442 
3.8000000000035947, -2.4263637475070503 
3.810000000003616, -2.4204259957487437 
3.820000000003637, -2.4058528254900162 
3.830000000003658, -2.370665962766744 
3.840000000003679, -2.34013187184478 
3.8500000000037002, -2.347028293614432 
3.8600000000037213, -2.3525333442499643 
3.8700000000037424, -2.353252876729006 
3.8800000000037635, -2.3514276684163287 
3.8900000000037847, -2.3500179795584897 
3.9000000000038058, -2.355747453024269 
3.910000000003827, -2.363445334758656 
3.920000000003848, -2.3675423585808355 
3.930000000003869, -2.369247637501762 
3.94000000000389, -2.369608996029992 
3.9500000000039113, -2.368487735194434 
3.9600000000039324, -2.36475278652919 
3.9700000000039535, -2.3550633275425 
3.9800000000039746, -2.3282975902253993 
3.9900000000039957, -2.234564241943351 
4.000000000004016, -1.7646477320968135 
4.010000000003993, -0.47938035373312937 
4.02000000000397, 0.07017363855211653 
4.030000000003946, 0.1929323150220175 
4.040000000003923, 0.22902119522833883 
4.0500000000039, 0.24263280263427042 
4.0600000000038765, 0.24853971443133807 
4.070000000003853, 0.2511475893245598 
4.08000000000383, 0.25198786451803673 
4.090000000003807, 0.2515465514502779 
4.100000000003783, 0.24972654592704666 
4.11000000000376, 0.24576003987597925 
4.120000000003737, 0.23742827241773848 
4.130000000003713, 0.21809017084121196 
4.14000000000369, 0.1635479174970208 
4.150000000003667, -0.04293041196241623 
4.1600000000036434, -0.9495108656388516 
4.17000000000362, -2.081035657719952 
4.180000000003597, -2.3295441435256805 
4.1900000000035735, -2.382596700393682 
4.20000000000355, -2.398804883027222 
4.210000000003527, -2.4044813566817838 
4.220000000003504, -2.406117581056476 
4.23000000000348, -2.405759107379679 
4.240000000003457, -2.4040062866995315 
4.250000000003434, -2.400395810501755 
4.26000000000341, -2.393021804620509 
4.270000000003387, -2.382532700491312 
4.280000000003364, -2.379335279806501 
4.2900000000033405, -2.3814092223744736 
4.300000000003317, -2.381725905040943 
4.310000000003294, -2.378856894284809 
4.320000000003271, -2.3716084674215323 
4.330000000003247, -2.378137732317548 
4.340000000003224, -2.407863189291988 
4.350000000003201, -2.424665175194818 
4.360000000003177, -2.4311037542272076 
4.370000000003154, -2.4335729342346544 
4.380000000003131, -2.4340691078870385 
4.390000000003107, -2.432879403862666 
4.400000000003084, -2.429376909677745 
4.410000000003061, -2.421285796920482 
4.4200000000030375, -2.400336925038416 
4.430000000003014, -2.327162536578989 
4.440000000002991, -2.0327387995740054 
4.450000000002968, -1.7490520238228986 
4.460000000002944, -1.7863503179674542 
4.470000000002921, -1.8153906782666536 
4.480000000002898, -1.8239137573577586 
4.490000000002874, -1.8258967065072849 
4.500000000002851, -1.8252742019445456 
4.510000000002828, -1.8233034758129119 
4.520000000002804, -1.8231525596317901 
4.530000000002781, -1.830102914409029 
4.540000000002758, -1.8409790458267832 
4.5500000000027345, -1.849315264716751 
4.560000000002711, -1.8543240092975508 
4.570000000002688, -1.8572037316508871 
4.580000000002665, -1.8587280293984976 
4.590000000002641, -1.8591742875758797 
4.600000000002618, -1.8585911688970644 
4.610000000002595, -1.8568963292699003 
4.620000000002571, -1.8538445353829143 
4.630000000002548, -1.848882421116255 
4.640000000002525, -1.8407508131825356 
4.6500000000025015, -1.826554713466465 
4.660000000002478, -1.800858830069793 
4.670000000002455, -1.7625320675983325 
4.6800000000024315, -1.7357304570896896 
4.690000000002408, -1.7346748972399122 
4.700000000002385, -1.7392812960755522 
4.710000000002362, -1.7413802234199263 
4.720000000002338, -1.7409928156227967 
4.730000000002315, -1.737708215740825 
4.740000000002292, -1.729256152603901 
4.750000000002268, -1.7196779529308028 
4.760000000002245, -1.7578163929685395 
4.770000000002222, -1.8515090992618526 
4.7800000000021985, -1.9133537171152395 
4.790000000002175, -1.941544085542035 
4.800000000002152, -1.9549726569683514 
4.810000000002129, -1.9620058468725705 
4.820000000002105, -1.9657701278431206 
4.830000000002082, -1.9675279157646055 
4.840000000002059, -1.96784802969669 
4.850000000002035, -1.966989406625304 
4.860000000002012, -1.9650013157401438 
4.870000000001989, -1.9616035296201892 
4.880000000001965, -1.9558755265928547 
4.890000000001942, -1.9467486949943225 
4.900000000001919, -1.9368641360233905 
4.9100000000018955, -1.933255259390739 
4.920000000001872, -1.934422442073347 
4.930000000001849, -1.9351702267281259 
4.940000000001826, -1.9337650245969684 
