t, s[1].omega / s[0].omega 
0, -1.0397815338896388 
0.009999999999999995, -1.0176986394549044 
0.019999999999999934, -0.9954792779299177 
0.029999999999999874, -0.9733055600871309 
0.04000000000000012, -0.9513182073472704 
0.050000000000000405, -0.9300331314326478 
0.06000000000000069, -0.9105854298653393 
0.07000000000000098, -0.8945471824698513 
0.08000000000000126, -0.8831691739791306 
0.09000000000000155, -0.8765438990853873 
0.10000000000000184, -0.8735577981799656 
0.11000000000000212, -0.8726568420775809 
0.12000000000000241, -0.8725753384248544 
0.130000000000002, -0.8725324859883392 
0.1400000000000009, -0.872078066791822 
0.1499999999999998, -0.8708907710250481 
0.1599999999999987, -0.8686747480144252 
0.1699999999999976, -0.8652018143996767 
0.1799999999999965, -0.8604757763498384 
0.1899999999999954, -0.854851057633458 
0.1999999999999943, -0.8489046900303399 
0.2099999999999932, -0.8431447625984136 
0.2199999999999921, -0.8378366341120911 
0.229999999999991, -0.8330287298013523 
0.2399999999999899, -0.8286593034853402 
0.2499999999999888, -0.8246461466841545 
0.2599999999999877, -0.8209358619793349 
0.2699999999999866, -0.8175200157385154 
0.2799999999999855, -0.8144311820381525 
0.2899999999999844, -0.8117315702862378 
0.2999999999999833, -0.8095003152764692 
0.3099999999999822, -0.8078153507506771 
0.3199999999999811, -0.8067239411803782 
0.32999999999998, -0.8062091738663254 
0.3399999999999789, -0.8061746797679434 
0.3499999999999778, -0.8064638766121017 
0.35999999999997667, -0.8069048140763666 
0.36999999999997557, -0.8073564780590736 
0.37999999999997447, -0.8077403018446058 
0.38999999999997337, -0.8080521593560299 
0.39999999999997227, -0.8083511828035886 
0.40999999999997117, -0.8087246773127832 
0.41999999999997006, -0.8092409805606081 
0.42999999999996896, -0.8099085083116991 
0.43999999999996786, -0.8106547162444562 
0.44999999999996676, -0.8113381876622554 
0.45999999999996566, -0.8118014425520308 
0.46999999999996456, -0.8119414163273475 
0.47999999999996346, -0.8117535404036206 
0.48999999999996235, -0.811336922377493 
0.49999999999996125, -0.8108878375346599 
0.5099999999999602, -0.8106989395291248 
0.519999999999959, -0.811142195170869 
0.529999999999958, -0.8125984902865631 
0.5399999999999568, -0.8153387438048977 
0.5499999999999557, -0.8194298163521603 
0.5599999999999546, -0.8247422287300866 
0.5699999999999535, -0.831051649246928 
0.5799999999999524, -0.8381562278093462 
0.5899999999999513, -0.845949303426365 
0.5999999999999502, -0.8544401197035549 
0.6099999999999491, -0.8637365502590159 
0.619999999999948, -0.8739868617457665 
0.6299999999999469, -0.8852481767589359 
0.6399999999999458, -0.8972515984504577 
0.6499999999999447, -0.909160759168639 
0.6599999999999436, -0.9196707608012048 
0.6699999999999425, -0.9276690548854052 
0.6799999999999414, -0.9328770994687654 
0.6899999999999403, -0.9357608075040424 
0.6999999999999392, -0.9370037096070002 
0.7099999999999381, -0.9371676504072475 
0.719999999999937, -0.936675910597695 
0.7299999999999359, -0.9360134031737191 
0.7399999999999348, -0.9360915201378646 
0.7499999999999337, -0.9386432666477746 
0.7599999999999326, -0.9460963405169919 
0.7699999999999315, -0.960276462346569 
0.7799999999999304, -0.9807628143283396 
0.7899999999999293, -1.0050113707183082 
0.7999999999999282, -1.0302148391144184 
0.8099999999999271, -1.0546769946532462 
0.819999999999926, -1.0778317339194543 
0.8299999999999249, -1.0996335703777855 
0.8399999999999238, -1.119953989290218 
0.8499999999999227, -1.1381919698125018 
0.8599999999999216, -1.1533055489848119 
0.8699999999999205, -1.1644234038557195 
0.8799999999999194, -1.1715354495424992 
0.8899999999999183, -1.175456590245692 
0.8999999999999172, -1.1772239221984255 
0.9099999999999161, -1.1776702562236374 
0.919999999999915, -1.1774060330125056 
0.9299999999999139, -1.1770270343145413 
0.9399999999999128, -1.1772835606034115 
0.9499999999999117, -1.178881873252763 
0.9599999999999106, -1.1819462428936967 
0.9699999999999095, -1.185893545730417 
0.9799999999999084, -1.1899807239405196 
0.9899999999999073, -1.1937671974327642 
0.9999999999999062, -1.1971188170820324 
1.0099999999999052, -1.2000341401585044 
1.019999999999904, -1.202538629752367 
1.029999999999903, -1.2046633824726225 
1.039999999999902, -1.2064409246782724 
1.0499999999999008, -1.2078847671123687 
1.0599999999998997, -1.2089669610887548 
1.0699999999998986, -1.2096215830038504 
1.0799999999998975, -1.2097837116001338 
1.0899999999998964, -1.209441135421644 
1.0999999999998953, -1.2086650745595402 
1.1099999999998942, -1.2076056775850326 
1.119999999999893, -1.2064467321454226 
1.129999999999892, -1.2053249536129544 
1.1399999999998909, -1.2042840284324863 
1.1499999999998898, -1.2033405636547152 
1.1599999999998887, -1.2025876127360033 
1.1699999999998876, -1.2021676521917013 
1.1799999999998865, -1.2021031032467495 
1.1899999999998854, -1.2021961678387623 
1.1999999999998843, -1.2021201971926212 
1.2099999999998832, -1.2015537741493252 
1.219999999999882, -1.2002372397232746 
1.229999999999881, -1.198002345499447 
1.2399999999998799, -1.1948173468043422 
1.2499999999998788, -1.1907916265120881 
1.2599999999998777, -1.1860938624673254 
1.2699999999998766, -1.180843300538951 
1.2799999999998755, -1.175056278826873 
1.2899999999998744, -1.1686555776521619 
1.2999999999998733, -1.1615110451342603 
1.3099999999998722, -1.1535185745165581 
1.319999999999871, -1.144783673256987 
1.32999999999987, -1.135930890851027 
1.3399999999998689, -1.1282525020235248 
1.3499999999998678, -1.1231030741399144 
1.3599999999998666, -1.1207587713473615 
1.3699999999998655, -1.1202387945368855 
1.3799999999998644, -1.1202849403203234 
1.3899999999998633, -1.120023817631117 
1.3999999999998622, -1.118856908200688 
1.4099999999998611, -1.116083396182025 
1.41999999999986, -1.1105808319128898 
1.429999999999859, -1.100759563641056 
1.4399999999998578, -1.0851783028279565 
1.4499999999998567, -1.0637586592561397 
1.4599999999998556, -1.0382289116006382 
1.4699999999998545, -1.0109239765735922 
1.4799999999998534, -0.9834397949310297 
1.4899999999998523, -0.9564370370930924 
1.4999999999998512, -0.930166052688792 
1.5099999999998501, -0.9050389921939859 
1.519999999999849, -0.8819847723769675 
1.529999999999848, -0.862413667821086 
1.5399999999998468, -0.8476546935919578 
1.5499999999998457, -0.8381473206658422 
1.5599999999998446, -0.8331171503532087 
1.5699999999998435, -0.8310657702196018 
1.5799999999998424, -0.8305329691010117 
1.5899999999998413, -0.8304991044423987 
1.5999999999998402, -0.8303667352360551 
1.6099999999998391, -0.8297800749826069 
1.619999999999838, -0.8284778657021509 
1.629999999999837, -0.8262536068292707 
1.6399999999998358, -0.8230305593011981 
1.6499999999998347, -0.8189743862881492 
1.6599999999998336, -0.8144841522168804 
1.6699999999998325, -0.8100079963784728 
1.6799999999998314, -0.805849523322963 
1.6899999999998303, -0.8021168611167401 
1.6999999999998292, -0.7987838965672118 
1.709999999999828, -0.7957726480546043 
1.719999999999827, -0.7930134733180216 
1.729999999999826, -0.7904766649802526 
1.7399999999998248, -0.7881781821979156 
1.7499999999998237, -0.786166565781036 
1.7599999999998226, -0.7845025550244894 
1.7699999999998215, -0.7832421165980512 
1.7799999999998204, -0.7824261979911228 
1.7899999999998193, -0.7820727789577951 
1.7999999999998182, -0.7821671613674165 
1.809999999999817, -0.7826548608931081 
1.819999999999816, -0.7834470207927257 
1.8299999999998149, -0.7844424177352499 
1.8399999999998138, -0.7855586020746189 
1.8499999999998127, -0.7867587810238021 
1.8599999999998116, -0.7880625627645971 
1.8699999999998105, -0.7895338377128589 
1.8799999999998094, -0.7912467605330076 
1.8899999999998083, -0.7932371400923571 
1.8999999999998072, -0.795449692050622 
1.909999999999806, -0.7977046753890499 
1.919999999999805, -0.7997277225868884 
1.9299999999998039, -0.8012583799896363 
1.9399999999998028, -0.8021641269448632 
1.9499999999998017, -0.8024696354809077 
1.9599999999998006, -0.802316100002203 
1.9699999999997995, -0.8019351125346569 
1.9799999999997984, -0.8016856305395154 
1.9899999999997973, -0.8021345482873192 
1.9999999999997962, -0.8040970759506367 
2.0099999999998173, -0.8085150381722604 
2.0199999999998384, -0.8161353263750618 
2.0299999999998595, -0.8271777741675065 
2.0399999999998806, -0.8412858466586348 
2.0499999999999017, -0.8578107765670442 
2.059999999999923, -0.8761798065842067 
2.069999999999944, -0.8961037952785087 
2.079999999999965, -0.9175615599152278 
2.089999999999986, -0.9405771507502495 
2.100000000000007, -0.9647711429856235 
2.1100000000000283, -0.9887759809545738 
2.1200000000000494, -1.0101276317139676 
2.1300000000000705, -1.0264434165274157 
2.1400000000000916, -1.0370410484300496 
2.1500000000001127, -1.042989151174296 
2.160000000000134, -1.0458674447001495 
2.170000000000155, -1.0468967026739469 
2.180000000000176, -1.046825961427397 
2.190000000000197, -1.046184396450951 
2.2000000000002182, -1.0456846314490762 
2.2100000000002393, -1.0466728376843897 
2.2200000000002604, -1.0511186989903947 
2.2300000000002815, -1.0604200316124472 
2.2400000000003026, -1.0739195237997734 
2.2500000000003237, -1.0893369287909578 
2.260000000000345, -1.1045802180446571 
2.270000000000366, -1.118653039074676 
2.280000000000387, -1.131400357639397 
2.290000000000408, -1.1429967940195895 
2.3000000000004293, -1.1536028643931266 
2.3100000000004504, -1.1631829502281983 
2.3200000000004715, -1.171451505156609 
2.3300000000004926, -1.1780009342051083 
2.3400000000005137, -1.1825863986356797 
2.3500000000005348, -1.1853199230201255 
2.360000000000556, -1.1865879210587276 
2.370000000000577, -1.1868499474044447 
2.380000000000598, -1.1865517226559072 
2.390000000000619, -1.1861712708397998 
2.4000000000006403, -1.186226663809479 
2.4100000000006614, -1.1870752132248559 
2.4200000000006825, -1.1886709027080298 
2.4300000000007036, -1.1906562030587644 
2.4400000000007247, -1.1926882073351328 
2.450000000000746, -1.1945974884664536 
2.460000000000767, -1.1963210360393028 
2.470000000000788, -1.1978036761398474 
2.480000000000809, -1.1989820193869551 
2.49000000000083, -1.1998183606189676 
2.5000000000008513, -1.200318437337594 
2.5100000000008724, -1.2005133766451181 
2.5200000000008935, -1.2004245647516947 
2.5300000000009146, -1.2000404026376963 
2.5400000000009357, -1.199323444659695 
2.550000000000957, -1.198244011461036 
2.560000000000978, -1.1968163909833949 
2.570000000000999, -1.1951094128432538 
2.58000000000102, -1.1932169426594452 
2.5900000000010412, -1.1912117975174688 
2.6000000000010624, -1.1891524737031987 
2.6100000000010835, -1.1871730503014677 
2.6200000000011046, -1.1855436762596265 
2.6300000000011257, -1.1845352268144838 
2.6400000000011468, -1.1841553026939706 
2.650000000001168, -1.184082843579176 
2.660000000001189, -1.183865107645516 
2.67000000000121, -1.1830806828336178 
2.680000000001231, -1.1813499994642933 
2.6900000000012523, -1.1783327835701256 
2.7000000000012734, -1.1738220827753776 
2.7100000000012945, -1.1678631667640778 
2.7200000000013156, -1.1607237381933007 
2.7300000000013367, -1.15270144646276 
2.740000000001358, -1.1439505029441819 
2.750000000001379, -1.1344414436311687 
2.7600000000014, -1.1240236325099304 
2.770000000001421, -1.1125615842537555 
2.780000000001442, -1.100192818015379 
2.7900000000014633, -1.087717488502496 
2.8000000000014844, -1.0767845249746937 
2.8100000000015055, -1.0691751796500457 
2.8200000000015266, -1.0653888325963834 
2.8300000000015477, -1.0643009120465603 
2.840000000001569, -1.0643217905333535 
2.85000000000159, -1.0643369283339514 
2.860000000001611, -1.0637038859154149 
2.870000000001632, -1.0618690753585656 
2.8800000000016532, -1.058022907275983 
2.8900000000016743, -1.0509378611060844 
2.9000000000016954, -1.0392529383048366 
2.9100000000017165, -1.0224186868517362 
2.9200000000017377, -1.0015399437515349 
2.9300000000017588, -0.9788109125022132 
2.94000000000178, -0.9560937905564824 
2.950000000001801, -0.9342763204240686 
2.960000000001822, -0.9135569696676168 
2.970000000001843, -0.8939420164549066 
2.9800000000018643, -0.8756024239723692 
2.9900000000018854, -0.8590471682122164 
3.0000000000019065, -0.8450728888829584 
3.0100000000019276, -0.8344402867790759 
3.0200000000019487, -0.8274146867588289 
3.03000000000197, -0.8235383880559703 
3.040000000001991, -0.8218550022581074 
3.050000000002012, -0.821354527983009 
3.060000000002033, -0.821266157372872 
3.070000000002054, -0.8210950498311493 
3.0800000000020753, -0.8205294311850395 
3.0900000000020964, -0.8193560085603264 
3.1000000000021175, -0.8174497298248229 
3.1100000000021386, -0.8148311619465689 
3.1200000000021597, -0.8117080739960285 
3.130000000002181, -0.8084068043474257 
3.140000000002202, -0.8052232017816797 
3.150000000002223, -0.8023205154615521 
3.160000000002244, -0.799727781210984 
3.1700000000022652, -0.7973937113141606 
3.1800000000022863, -0.79524620604064 
3.1900000000023074, -0.7932374480113931 
3.2000000000023285, -0.7913675787984343 
3.2100000000023496, -0.7896845616715573 
3.2200000000023707, -0.7882650389136251 
3.230000000002392, -0.7871876354087435 
3.240000000002413, -0.7865116221997833 
3.250000000002434, -0.7862679464575135 
3.260000000002455, -0.7864594641519103 
3.2700000000024763, -0.7870624512261772 
3.2800000000024974, -0.7880271803240074 
3.2900000000025185, -0.7892836441034129 
3.3000000000025396, -0.790758309676711 
3.3100000000025607, -0.7923989696816489 
3.3200000000025818, -0.7941965089025412 
3.330000000002603, -0.7961910435112475 
3.340000000002624, -0.7984549592631033 
3.350000000002645, -0.8010524409501475 
3.360000000002666, -0.803979643154733 
3.3700000000026873, -0.8071002084246123 
3.3800000000027084, -0.8101229874709533 
3.3900000000027295, -0.8126847123013559 
3.4000000000027506, -0.8145141844747921 
3.4100000000027717, -0.8155393934626736 
3.420000000002793, -0.8158614299120389 
3.430000000002814, -0.8156781044254764 
3.440000000002835, -0.8152660782552392 
3.450000000002856, -0.8150551426762543 
3.460000000002877, -0.8157579515381086 
3.4700000000028983, -0.8184403454772076 
3.4800000000029194, -0.8243494174970847 
3.4900000000029405, -0.8344332934002143 
3.5000000000029616, -0.8488515284000199 
3.5100000000029827, -0.866941084249412 
3.520000000003004, -0.8876821701413038 
3.530000000003025, -0.9102307403644196 
3.540000000003046, -0.9341520490996735 
3.550000000003067, -0.9593102884955954 
3.5600000000030882, -0.9854861760621576 
3.5700000000031094, -1.0117880177697876 
3.5800000000031305, -1.03619726624861 
3.5900000000031516, -1.0561010212204756 
3.6000000000031727, -1.0699536705062562 
3.6100000000031938, -1.078221424260986 
3.620000000003215, -1.0825149830660998 
3.630000000003236, -1.0843641211692785 
3.640000000003257, -1.084776915425874 
3.650000000003278, -1.0843811598819812 
3.6600000000032993, -1.0837788961774861 
3.6700000000033204, -1.0839651352022317 
3.6800000000033415, -1.0864726702169436 
3.6900000000033626, -1.09260447594607 
3.7000000000033837, -1.102156066978329 
3.710000000003405, -1.1134598275915288 
3.720000000003426, -1.1247889228244425 
3.730000000003447, -1.1352427500991327 
3.740000000003468, -1.1446336738465233 
3.750000000003489, -1.1530874734310177 
3.7600000000035103, -1.1607710783959084 
3.7700000000035314, -1.1677560360747867 
3.7800000000035525, -1.1739531807518022 
3.7900000000035736, -1.1791254297873068 
3.8000000000035947, -1.1830167191159602 
3.810000000003616, -1.1855328575243473 
3.820000000003637, -1.1868117386729167 
3.830000000003658, -1.1871439385150884 
3.840000000003679, -1.1868796337379242 
3.8500000000037002, -1.186413853589322 
3.8600000000037213, -1.1861743121433455 
3.8700000000037424, -1.1864812012820063 
3.8800000000037635, -1.1873618295615258 
3.8900000000037847, -1.1885895441864425 
3.9000000000038058, -1.1899212142810245 
3.910000000003827, -1.1912339691658702 
3.920000000003848, -1.1924730126946346 
3.930000000003869, -1.1935613044558733 
3.94000000000389, -1.194391446320465 
3.9500000000039113, -1.19487651170753 
3.9600000000039324, -1.1949875256571765 
3.9700000000039535, -1.194749617496484 
3.9800000000039746, -1.1942075187858965 
3.9900000000039957, -1.1933868086733874 
4.000000000004016, -1.1922777914561709 
4.010000000003993, -1.190851447548997 
4.02000000000397, -1.189093294923029 
4.030000000003946, -1.1870271013487732 
4.040000000003923, -1.184706235038327 
4.0500000000039, -1.1821838833455085 
4.0600000000038765, -1.1795204351341146 
4.070000000003853, -1.1768706705939558 
4.08000000000383, -1.1745641092819064 
4.090000000003807, -1.1729858820223307 
4.100000000003783, -1.1722551495607976 
4.11000000000376, -1.1720716718971176 
4.120000000003737, -1.1719238403840009 
4.130000000003713, -1.1713247834903444 
4.14000000000369, -1.1698388631438303 
4.150000000003667, -1.1670285272912955 
4.1600000000036434, -1.162507922661608 
4.17000000000362, -1.1561271737821035 
4.180000000003597, -1.1480907882158726 
4.1900000000035735, -1.1388146002686832 
4.20000000000355, -1.128644923991734 
4.210000000003527, -1.1177007900089404 
4.220000000003504, -1.1058976757644874 
4.23000000000348, -1.0930824434910853 
4.240000000003457, -1.079270854614754 
4.250000000003434, -1.0650210612083835 
4.26000000000341, -1.051765974825948 
4.270000000003387, -1.0414868499029863 
4.280000000003364, -1.0353987780715745 
4.2900000000033405, -1.0329525914209174 
4.300000000003317, -1.0325167444247982 
4.310000000003294, -1.032641612821497 
4.320000000003271, -1.0324724480989254 
4.330000000003247, -1.0314810455688055 
4.340000000003224, -1.0290993180443233 
4.350000000003201, -1.0244794116818272 
4.360000000003177, -1.0165192217583878 
4.370000000003154, -1.0043853179268996 
4.380000000003131, -0.9883594605493193 
4.390000000003107, -0.9699877640261952 
4.400000000003084, -0.9510929250933285 
4.410000000003061, -0.9328225803233909 
4.4200000000030375, -0.9155572840809443 
4.430000000003014, -0.8992823854499497 
4.440000000002991, -0.8839401198935161 
4.450000000002968, -0.8696465483539855 
4.460000000002944, -0.8567868989845143 
4.470000000002921, -0.8459607159423351 
4.480000000002898, -0.8377364233352507 
4.490000000002874, -0.8323097942418247 
4.500000000002851, -0.8293291978816116 
4.510000000002828, -0.8280539462359234 
4.520000000002804, -0.8276863033117777 
4.530000000002781, -0.8275997251136424 
4.540000000002758, -0.8273758404817485 
4.5500000000027345, -0.8267421283513352 
4.560000000002711, -0.8255205059263513 
4.570000000002688, -0.8236375867503591 
4.580000000002665, -0.8211726303868907 
4.590000000002641, -0.8183585392204786 
4.600000000002618, -0.8154854218379903 
4.610000000002595, -0.8127749558039798 
4.620000000002571, -0.8103229202472256 
4.630000000002548, -0.8081195676864518 
4.640000000002525, -0.8061023264274854 
4.6500000000025015, -0.8042078964801321 
4.660000000002478, -0.8024098674894408 
4.670000000002455, -0.8007341599507768 
4.6800000000024315, -0.7992507526786122 
4.690000000002408, -0.798048744213996 
4.700000000002385, -0.7972078601700507 
4.710000000002362, -0.7967796166002977 
4.720000000002338, -0.7967831139676205 
4.730000000002315, -0.7972090791801785 
4.740000000002292, -0.7980231074261537 
4.750000000002268, -0.7991676164066578 
4.760000000002245, -0.8005701183749467 
4.770000000002222, -0.8021625502509382 
4.7800000000021985, -0.8039060606867823 
4.790000000002175, -0.8058084466793375 
4.800000000002152, -0.8079223298909989 
4.810000000002129, -0.8103189664470346 
4.820000000002105, -0.8130395208013421 
4.830000000002082, -0.8160312705823562 
4.840000000002059, -0.8190946886628133 
4.850000000002035, -0.8219003164422158 
4.860000000002012, -0.8241139600706895 
4.870000000001989, -0.8255504892521606 
4.880000000001965, -0.8262225192785477 
4.890000000001942, -0.8262804929533496 
4.900000000001919, -0.8259552786658281 
4.9100000000018955, -0.8255804529921887 
4.920000000001872, -0.8256905466741378 
4.930000000001849, -0.8271185737007227 
