t, s[1].omega / s[0].omega 
0, -1.0800013233358707 
0.009999999999999995, -1.080053813780781 
0.019999999999999934, -1.0799165437609664 
0.029999999999999874, -1.0795261281898045 
0.04000000000000012, -1.0788356532669083 
0.050000000000000405, -1.0778570983983413 
0.06000000000000069, -1.0766771714274674 
0.07000000000000098, -1.075435982842671 
0.08000000000000126, -1.074272874657928 
0.09000000000000155, -1.073273388314409 
0.10000000000000184, -1.0724702239964001 
0.11000000000000212, -1.0718958977330795 
0.12000000000000241, -1.0716086712996686 
0.130000000000002, -1.0716381750948032 
0.1400000000000009, -1.071907545892239 
0.1499999999999998, -1.0722310259544818 
0.1599999999999987, -1.0723899560314465 
0.1699999999999976, -1.0722107483489252 
0.1799999999999965, -1.0716064219135712 
0.1899999999999954, -1.070587567845454 
0.1999999999999943, -1.0692401749106188 
0.2099999999999932, -1.0676709691535016 
0.2199999999999921, -1.0659519754669167 
0.229999999999991, -1.0640997173709572 
0.2399999999999899, -1.0620940232041156 
0.2499999999999888, -1.0599160158982992 
0.2599999999999877, -1.057578125119503 
0.2699999999999866, -1.0551278245711733 
0.2799999999999855, -1.0526309720301643 
0.2899999999999844, -1.0501668101357686 
0.2999999999999833, -1.0478582366450209 
0.3099999999999822, -1.0459016165144661 
0.3199999999999811, -1.0445147458766915 
0.32999999999998, -1.0437901763214155 
0.3399999999999789, -1.0435884580449648 
0.3499999999999778, -1.0435957244315586 
0.35999999999997667, -1.0434687243724876 
0.36999999999997557, -1.042925403173914 
0.37999999999997447, -1.0417705710944145 
0.38999999999997337, -1.0399202560030403 
0.39999999999997227, -1.0374317380981506 
0.40999999999997117, -1.0344818340323134 
0.41999999999997006, -1.031275954500678 
0.42999999999996896, -1.0279570484418827 
0.43999999999996786, -1.0245780128025213 
0.44999999999996676, -1.0211308432691886 
0.45999999999996566, -1.0175925192199597 
0.46999999999996456, -1.0139578591293754 
0.47999999999996346, -1.0102535286660312 
0.48999999999996235, -1.0065509899633684 
0.49999999999996125, -1.0029975476210182 
0.5099999999999602, -0.9998437962954855 
0.519999999999959, -0.9973955445730592 
0.529999999999958, -0.9958534523612095 
0.5399999999999568, -0.9951531787049743 
0.5499999999999557, -0.99497777817802 
0.5599999999999546, -0.9949220549481044 
0.5699999999999535, -0.994631210242685 
0.5799999999999524, -0.9938389785253208 
0.5899999999999513, -0.992371081253619 
0.5999999999999502, -0.9901772075798567 
0.6099999999999491, -0.9873649566414452 
0.619999999999948, -0.9841610869520421 
0.6299999999999469, -0.9808000260147269 
0.6399999999999458, -0.9774305708492477 
0.6499999999999447, -0.9740998000102895 
0.6599999999999436, -0.9707927866426956 
0.6699999999999425, -0.9674834358640096 
0.6799999999999414, -0.96416863138605 
0.6899999999999403, -0.9608793219655271 
0.6999999999999392, -0.9576813164608836 
0.7099999999999381, -0.9546840937123374 
0.719999999999937, -0.9520533686109923 
0.7299999999999359, -0.9499890441093491 
0.7399999999999348, -0.948637967161946 
0.7499999999999337, -0.9479866017123604 
0.7599999999999326, -0.947835448126351 
0.7699999999999315, -0.9478840126216361 
0.7799999999999304, -0.9478415343991493 
0.7899999999999293, -0.9474889446447776 
0.7999999999999282, -0.9467014691572464 
0.8099999999999271, -0.9454643863185576 
0.819999999999926, -0.9438726369801573 
0.8299999999999249, -0.9420848513909942 
0.8399999999999238, -0.9402463134325834 
0.8499999999999227, -0.9384339566794399 
0.8599999999999216, -0.9366513505454146 
0.8699999999999205, -0.9348611260055444 
0.8799999999999194, -0.9330298379598686 
0.8899999999999183, -0.9311628616174843 
0.8999999999999172, -0.9293139387382011 
0.9099999999999161, -0.9275677589418967 
0.919999999999915, -0.9260107680237706 
0.9299999999999139, -0.9247136772241609 
0.9399999999999128, -0.9237352166944823 
0.9499999999999117, -0.9231281251186818 
0.9599999999999106, -0.9229210570539019 
0.9699999999999095, -0.9230815861003554 
0.9799999999999084, -0.9234991574335403 
0.9899999999999073, -0.9240136963673669 
0.9999999999999062, -0.92447119779741 
1.0099999999999052, -0.9247714387145163 
1.019999999999904, -0.9248903634339477 
1.029999999999903, -0.9248727671901419 
1.039999999999902, -0.924796438244606 
1.0499999999999008, -0.9247229651018462 
1.0599999999998997, -0.9246602456443471 
1.0699999999998986, -0.9245543582994863 
1.0799999999998975, -0.9243154416992108 
1.0899999999998964, -0.9238674237656387 
1.0999999999998953, -0.9231956619525652 
1.1099999999998942, -0.9223692018009901 
1.119999999999893, -0.921533669851011 
1.129999999999892, -0.9208775314848072 
1.1399999999998909, -0.920573779326444 
1.1499999999998898, -0.9207195586140451 
1.1599999999998887, -0.9213156543123695 
1.1699999999998876, -0.9222984647584356 
1.1799999999998865, -0.9235866292226979 
1.1899999999998854, -0.9251022636513696 
1.1999999999998843, -0.9267681348221759 
1.2099999999998832, -0.9285078765686725 
1.219999999999882, -0.9302626457917418 
1.229999999999881, -0.932011460598501 
1.2399999999998799, -0.9337743047218773 
1.2499999999998788, -0.9355884599709279 
1.2599999999998777, -0.9374648558060119 
1.2699999999998766, -0.9393432244574358 
1.2799999999998755, -0.9410745719495462 
1.2899999999998744, -0.9424603161667306 
1.2999999999998733, -0.9433407416595452 
1.3099999999998722, -0.943670096192579 
1.319999999999871, -0.9435300065166162 
1.32999999999987, -0.9431075527259702 
1.3399999999998689, -0.9426822352131614 
1.3499999999998678, -0.9426082196703474 
1.3599999999998666, -0.9432354182018443 
1.3699999999998655, -0.9447679055813726 
1.3799999999998644, -0.9471705561560034 
1.3899999999998633, -0.950223114050069 
1.3999999999998622, -0.9536636374167686 
1.4099999999998611, -0.9572926644126614 
1.41999999999986, -0.9609955106009883 
1.429999999999859, -0.9647236633436229 
1.4399999999998578, -0.9684757130727271 
1.4499999999998567, -0.9722808189742558 
1.4599999999998556, -0.9761679284306746 
1.4699999999998545, -0.9801119404855001 
1.4799999999998534, -0.9839727085352143 
1.4899999999998523, -0.9874770970256831 
1.4999999999998512, -0.9903020471565785 
1.5099999999998501, -0.9922310421898567 
1.519999999999849, -0.9932503387603566 
1.529999999999848, -0.9935167578614174 
1.5399999999998468, -0.9932842499398931 
1.5499999999998457, -0.9928868996094579 
1.5599999999998446, -0.9927642856190614 
1.5699999999998435, -0.993418269023253 
1.5799999999998424, -0.9952192308484966 
1.5899999999998413, -0.9981898071997005 
1.5999999999998402, -1.0020145240178937 
1.6099999999998391, -1.0062719777714628 
1.619999999999838, -1.0106422199505776 
1.629999999999837, -1.014958184606304 
1.6399999999998358, -1.0191629916253042 
1.6499999999998347, -1.0232605786186006 
1.6599999999998336, -1.0272825655939177 
1.6699999999998325, -1.0312527774276095 
1.6799999999998314, -1.035136190724428 
1.6899999999998303, -1.0387893554359144 
1.6999999999998292, -1.0419616244793217 
1.709999999999828, -1.0443880952029867 
1.719999999999827, -1.045925822663198 
1.729999999999826, -1.0466157609411955 
1.7399999999998248, -1.0466418368370156 
1.7499999999998237, -1.0462767499840278 
1.7599999999998226, -1.0458738849478542 
1.7699999999998215, -1.0458503526712655 
1.7799999999998204, -1.0465641672737112 
1.7899999999998193, -1.0481261987948383 
1.7999999999998182, -1.0503542458169655 
1.809999999999817, -1.0529383074167133 
1.819999999999816, -1.0556254924518291 
1.8299999999998149, -1.0582727351132544 
1.8399999999998138, -1.060807080743089 
1.8499999999998127, -1.0631876739818886 
1.8599999999998116, -1.0653999355090353 
1.8699999999998105, -1.0674561694877331 
1.8799999999998094, -1.0693764411748032 
1.8899999999998083, -1.071151470534843 
1.8999999999998072, -1.0727114804203357 
1.909999999999806, -1.0739310504293753 
1.919999999999805, -1.0746821433371645 
1.9299999999998039, -1.0749049616644193 
1.9399999999998028, -1.0746469789658135 
1.9499999999998017, -1.0740599026326472 
1.9599999999998006, -1.073375669337822 
1.9699999999997995, -1.0728545926070339 
1.9799999999997984, -1.0726893904394033 
1.9899999999997973, -1.0729235711566543 
1.9999999999997962, -1.0734759498935265 
2.0099999999998173, -1.0742429032928777 
2.0199999999998384, -1.0751575316490087 
2.0299999999998595, -1.0761633454822785 
2.0399999999998806, -1.077170292782892 
2.0499999999999017, -1.0780606162791522 
2.059999999999923, -1.078735112843593 
2.069999999999944, -1.079151511850642 
2.079999999999965, -1.0793279607011719 
2.089999999999986, -1.0793132687064575 
2.100000000000007, -1.0791436206890723 
2.1100000000000283, -1.07881298195549 
2.1200000000000494, -1.0782756731625016 
2.1300000000000705, -1.0774800833088847 
2.1400000000000916, -1.0764130264886718 
2.1500000000001127, -1.0751272767765796 
2.160000000000134, -1.0737345865183339 
2.170000000000155, -1.0723635116757906 
2.180000000000176, -1.0711086231811184 
2.190000000000197, -1.0700207576797143 
2.2000000000002182, -1.0691504849246682 
2.2100000000002393, -1.0685793196294404 
2.2200000000002604, -1.0683713658201706 
2.2300000000002815, -1.068481755371095 
2.2400000000003026, -1.068732060346243 
2.2500000000003237, -1.0688825737075454 
2.260000000000345, -1.0687221654531642 
2.270000000000366, -1.0681199740890637 
2.280000000000387, -1.067046926357715 
2.290000000000408, -1.0655705069687467 
2.3000000000004293, -1.0638101937570337 
2.3100000000004504, -1.0618718158966705 
2.3200000000004715, -1.0598054510124426 
2.3300000000004926, -1.0576082070818418 
2.3400000000005137, -1.055257826128703 
2.3500000000005348, -1.0527491378329334 
2.360000000000556, -1.050110178620135 
2.370000000000577, -1.0473946677958763 
2.380000000000598, -1.0446751955676885 
2.390000000000619, -1.0420664881181592 
2.4000000000006403, -1.0397619514143632 
2.4100000000006614, -1.0380069671364414 
2.4200000000006825, -1.0369623792895069 
2.4300000000007036, -1.03655951195566 
2.4400000000007247, -1.0365095418520518 
2.450000000000746, -1.036448811682156 
2.460000000000767, -1.0360590446707167 
2.470000000000788, -1.0351042410190565 
2.480000000000809, -1.0334472988407695 
2.49000000000083, -1.0310862501934586 
2.5000000000008513, -1.0281643504517217 
2.5100000000008724, -1.0249011281531608 
2.5200000000008935, -1.0214847620596492 
2.5300000000009146, -1.0180114630314387 
2.5400000000009357, -1.0144955379047356 
2.550000000000957, -1.0109147082637642 
2.560000000000978, -1.0072522246189808 
2.570000000000999, -1.0035191728161028 
2.58000000000102, -0.9997654926683568 
2.5900000000010412, -0.9961017433961924 
2.6000000000010624, -0.9927317720021469 
2.6100000000010835, -0.9899444310859848 
2.6200000000011046, -0.988000759362356 
2.6300000000011257, -0.9869582386506778 
2.6400000000011468, -0.9865991167134738 
2.650000000001168, -0.9865424202348538 
2.660000000001189, -0.9864082364443894 
2.67000000000121, -0.9858972040588713 
2.680000000001231, -0.9848001889030001 
2.6900000000012523, -0.983014694757537 
2.7000000000012734, -0.9805824201111925 
2.7100000000012945, -0.977685335920133 
2.7200000000013156, -0.9745597687054784 
2.7300000000013367, -0.9713887053227905 
2.740000000001358, -0.9682542915958197 
2.750000000001379, -0.9651589165264645 
2.7600000000014, -0.9620748509872825 
2.770000000001421, -0.9589872042216783 
2.780000000001442, -0.9559138914029786 
2.7900000000014633, -0.9529054741911768 
2.8000000000014844, -0.9500429329671525 
2.8100000000015055, -0.9474466231651398 
2.8200000000015266, -0.9452797289133137 
2.8300000000015477, -0.9437071425615595 
2.840000000001569, -0.9428037609170217 
2.85000000000159, -0.9424801274970631 
2.860000000001611, -0.942502359746985 
2.870000000001632, -0.9425877085970905 
2.8800000000016532, -0.942492113276977 
2.8900000000016743, -0.9420527323542306 
2.9000000000016954, -0.9412067581669671 
2.9100000000017165, -0.9399984999505818 
2.9200000000017377, -0.9385539631930419 
2.9300000000017588, -0.9370167741279755 
2.94000000000178, -0.9354835503687164 
2.950000000001801, -0.9339784072418172 
2.960000000001822, -0.9324701671096131 
2.970000000001843, -0.9309133865203132 
2.9800000000018643, -0.9292908031155325 
2.9900000000018854, -0.927637262489097 
3.0000000000019065, -0.9260346723282986 
3.0100000000019276, -0.9245830132871975 
3.0200000000019487, -0.9233676116993446 
3.03000000000197, -0.9224461198389273 
3.040000000001991, -0.92185786233584 
3.050000000002012, -0.9216305425120976 
3.060000000002033, -0.9217624522976177 
3.070000000002054, -0.9221940539454971 
3.0800000000020753, -0.9228050969720147 
3.0900000000020964, -0.9234501912040779 
3.1000000000021175, -0.9240092688543593 
3.1100000000021386, -0.9244239519582305 
3.1200000000021597, -0.9247061290467607 
3.130000000002181, -0.9249160790327104 
3.140000000002202, -0.9251187387006985 
3.150000000002223, -0.9253392434667372 
3.160000000002244, -0.9255394041587325 
3.1700000000022652, -0.9256278209547748 
3.1800000000022863, -0.9255033777979087 
3.1900000000023074, -0.9251111044589402 
3.2000000000023285, -0.9244792810051402 
3.2100000000023496, -0.9237256254875085 
3.2200000000023707, -0.9230383936805779 
3.230000000002392, -0.9226314187592634 
3.240000000002413, -0.9226743601855409 
3.250000000002434, -0.9232328337263542 
3.260000000002455, -0.9242654818751879 
3.2700000000024763, -0.9256748476923564 
3.2800000000024974, -0.9273594914262911 
3.2900000000025185, -0.929232095119122 
3.3000000000025396, -0.9312159663276987 
3.3100000000025607, -0.9332477379010923 
3.3200000000025818, -0.935292469989308 
3.330000000002603, -0.937354486380527 
3.340000000002624, -0.9394662334179994 
3.350000000002645, -0.9416519975447226 
3.360000000002666, -0.943878804209451 
3.3700000000026873, -0.9460201192975471 
3.3800000000027084, -0.9478689288657073 
3.3900000000027295, -0.9492177920828315 
3.4000000000027506, -0.9499579818072018 
3.4100000000027717, -0.9501210861152825 
3.420000000002793, -0.9498583589788696 
3.430000000002814, -0.9494168947353326 
3.440000000002835, -0.9491356571891101 
3.450000000002856, -0.9494103372849716 
3.460000000002877, -0.9505704369530668 
3.4700000000028983, -0.9527231915410272 
3.4800000000029194, -0.9557153630417441 
3.4900000000029405, -0.9592573682647207 
3.5000000000029616, -0.9630808786034194 
3.5100000000029827, -0.9670125768795328 
3.520000000003004, -0.970968966072874 
3.530000000003025, -0.9749290155095027 
3.540000000003046, -0.9789123556814119 
3.550000000003067, -0.9829537851620633 
3.5600000000030882, -0.9870579712187117 
3.5700000000031094, -0.9911366603354604 
3.5800000000031305, -0.9949641927370141 
3.5900000000031516, -0.9982157802214088 
3.6000000000031727, -1.0006092653634364 
3.6100000000031938, -1.0020460516703216 
3.620000000003215, -1.0026277505878136 
3.630000000003236, -1.0025806110178208 
3.640000000003257, -1.0022073414451313 
3.650000000003278, -1.0019042789762154 
3.6600000000032993, -1.0021618391527438 
3.6700000000033204, -1.0034294028696908 
3.6800000000033415, -1.0058764826073616 
3.6900000000033626, -1.00929577646649 
3.7000000000033837, -1.0132767057592917 
3.710000000003405, -1.017451435528818 
3.720000000003426, -1.0216026247584344 
3.730000000003447, -1.025640408427494 
3.740000000003468, -1.0295484234605123 
3.750000000003489, -1.0333478957126272 
3.7600000000035103, -1.0370694148856476 
3.7700000000035314, -1.0407117379612152 
3.7800000000035525, -1.044190843075197 
3.7900000000035736, -1.047314628899898 
3.8000000000035947, -1.049831763779935 
3.810000000003616, -1.051551266535046 
3.820000000003637, -1.0524399209526676 
3.830000000003658, -1.052622391805191 
3.840000000003679, -1.0523297696518261 
3.8500000000037002, -1.0518747795795842 
3.8600000000037213, -1.0516405217038858 
3.8700000000037424, -1.051994185961488 
3.8800000000037635, -1.0531153879842539 
3.8900000000037847, -1.054905109458758 
3.9000000000038058, -1.0570981199520966 
3.910000000003827, -1.0594466105261608 
3.920000000003848, -1.0617987781376053 
3.930000000003869, -1.0640713697281716 
3.94000000000389, -1.0662088560812848 
3.9500000000039113, -1.0681771526945085 
3.9600000000039324, -1.0699731167764237 
3.9700000000039535, -1.0716172130285213 
3.9800000000039746, -1.073122242303402 
3.9900000000039957, -1.0744565531513446 
4.000000000004016, -1.0755301464958607 
4.010000000003993, -1.0762241499803702 
4.02000000000397, -1.0764534137601411 
4.030000000003946, -1.0762201182988145 
4.040000000003923, -1.0756291492102343 
4.0500000000039, -1.0748728032537342 
4.0600000000038765, -1.0741882575604187 
4.070000000003853, -1.0737755599963155 
4.08000000000383, -1.0737137842029427 
4.090000000003807, -1.0739608101584257 
4.100000000003783, -1.0744382093466485 
4.11000000000376, -1.0750956798547415 
4.120000000003737, -1.0758920024306726 
4.130000000003713, -1.076744259878312 
4.14000000000369, -1.0775238192482774 
4.150000000003667, -1.0781043631711857 
4.1600000000036434, -1.0784120386240788 
4.17000000000362, -1.0784432037229716 
4.180000000003597, -1.0782452804477975 
4.1900000000035735, -1.0778738905671126 
4.20000000000355, -1.07735245187798 
4.210000000003527, -1.0766589161385518 
4.220000000003504, -1.0757466465948522 
4.23000000000348, -1.0745858530173271 
4.240000000003457, -1.0731994684638189 
4.250000000003434, -1.0716703048726224 
4.26000000000341, -1.0701121204917172 
4.270000000003387, -1.068623296891366 
4.280000000003364, -1.0672682177199522 
4.2900000000033405, -1.0661107666672316 
4.300000000003317, -1.0652508097007278 
4.310000000003294, -1.0647870051725459 
4.320000000003271, -1.0647158584303682 
4.330000000003247, -1.0648795268135411 
4.340000000003224, -1.0650260676431462 
4.350000000003201, -1.064910554020408 
4.360000000003177, -1.0643586676531789 
4.370000000003154, -1.0632955199452399 
4.380000000003131, -1.0617555165431392 
4.390000000003107, -1.0598556162789485 
4.400000000003084, -1.0577292476994506 
4.410000000003061, -1.0554640530835149 
4.4200000000030375, -1.053083676449891 
4.430000000003014, -1.0505719029973632 
4.440000000002991, -1.047911941721068 
4.450000000002968, -1.045113459194544 
4.460000000002944, -1.0422156394343838 
4.470000000002921, -1.0392811820101755 
4.480000000002898, -1.0364118610819755 
4.490000000002874, -1.03378696644989 
4.500000000002851, -1.031662411909592 
4.510000000002828, -1.0302595536123016 
4.520000000002804, -1.0295960994892355 
4.530000000002781, -1.02943479680552 
4.540000000002758, -1.0294068481796168 
4.5500000000027345, -1.029160900467525 
4.560000000002711, -1.0284236860538445 
4.570000000002688, -1.0270119001935263 
4.580000000002665, -1.0248626242419854 
4.590000000002641, -1.0220663589924646 
4.600000000002618, -1.0188324459610787 
4.610000000002595, -1.0153831147626005 
4.620000000002571, -1.011861899620507 
4.630000000002548, -1.0083157119134056 
4.640000000002525, -1.0047319688131506 
4.6500000000025015, -1.0010868519297185 
4.660000000002478, -0.9973773970045754 
4.670000000002455, -0.9936351274677302 
4.6800000000024315, -0.989939554326889 
4.690000000002408, -0.9864462631533559 
4.700000000002385, -0.9834035819442348 
4.710000000002362, -0.981092824826017 
4.720000000002338, -0.9796740228343003 
4.730000000002315, -0.9790531657311365 
4.740000000002292, -0.9789130661754457 
4.750000000002268, -0.9788684678492473 
4.760000000002245, -0.978588207890412 
4.770000000002222, -0.9778298456714751 
4.7800000000021985, -0.9764476018321989 
4.790000000002175, -0.9744216057963714 
4.800000000002152, -0.9718762901892214 
4.810000000002129, -0.9690284789429565 
4.820000000002105, -0.9660827060913173 
4.830000000002082, -0.9631566759574008 
4.840000000002059, -0.9602771472014868 
4.850000000002035, -0.9574211526286032 
4.860000000002012, -0.9545640948105911 
4.870000000001989, -0.9517104226832676 
4.880000000001965, -0.9488995264632429 
4.890000000001942, -0.9461975374910094 
4.900000000001919, -0.9436950027594934 
4.9100000000018955, -0.9415151581420476 
4.920000000001872, -0.9398063249950142 
4.930000000001849, -0.9386870541103203 
