t, s[1].omega / s[0].omega 
0, -1.1801128877574028 
0.009999999999999995, -1.1906093987369104 
0.019999999999999934, -1.199263446532233 
0.029999999999999874, -1.2057135484371293 
0.04000000000000012, -1.2099146368196876 
0.050000000000000405, -1.2122068102630845 
0.06000000000000069, -1.2131097221293463 
0.07000000000000098, -1.2131291621950588 
0.08000000000000126, -1.2127419904388628 
0.09000000000000155, -1.212467995327093 
0.10000000000000184, -1.2128032811697205 
0.11000000000000212, -1.2139448735425389 
0.12000000000000241, -1.2156626476932773 
0.130000000000002, -1.2175641845307477 
0.1400000000000009, -1.219393628096246 
0.1499999999999998, -1.2210590880594387 
0.1599999999999987, -1.222512181897625 
0.1699999999999976, -1.2236820625108762 
0.1799999999999965, -1.2244996387095899 
0.1899999999999954, -1.2249373912275572 
0.1999999999999943, -1.2250136120831285 
0.2099999999999932, -1.224763638392903 
0.2199999999999921, -1.2242047481197675 
0.229999999999991, -1.2233217841334365 
0.2399999999999899, -1.2220836491946425 
0.2499999999999888, -1.2204772549165286 
0.2599999999999877, -1.2185306668908962 
0.2699999999999866, -1.216301753711638 
0.2799999999999855, -1.2138425043430001 
0.2899999999999844, -1.2112037559762476 
0.2999999999999833, -1.2085346844099643 
0.3099999999999822, -1.206184630553707 
0.3199999999999811, -1.204579253817721 
0.32999999999998, -1.2038532569113065 
0.3399999999999789, -1.2036761571309813 
0.3499999999999778, -1.203495070062033 
0.35999999999997667, -1.2027882506106393 
0.36999999999997557, -1.2010661240040403 
0.37999999999997447, -1.197786543539061 
0.38999999999997337, -1.1924071933726748 
0.39999999999997227, -1.1846272112891267 
0.40999999999997117, -1.1745893093906465 
0.41999999999997006, -1.162746007878116 
0.42999999999996896, -1.1494959101380133 
0.43999999999996786, -1.1349498615111886 
0.44999999999996676, -1.118952991475682 
0.45999999999996566, -1.1013077445691652 
0.46999999999996456, -1.0822146198819034 
0.47999999999996346, -1.062917509437329 
0.48999999999996235, -1.0459998287834709 
0.49999999999996125, -1.0342144202596677 
0.5099999999999602, -1.0282792250973165 
0.519999999999959, -1.026468609951226 
0.529999999999958, -1.026454937574211 
0.5399999999999568, -1.0266961739738374 
0.5499999999999557, -1.0264228725563642 
0.5599999999999546, -1.025127928909824 
0.5699999999999535, -1.0221327636301623 
0.5799999999999524, -1.016306682283194 
0.5899999999999513, -1.0060926657066405 
0.5999999999999502, -0.9902518865984357 
0.6099999999999491, -0.9691802566730789 
0.619999999999948, -0.9451898577560108 
0.6299999999999469, -0.9209651072344289 
0.6399999999999458, -0.8981170818600172 
0.6499999999999447, -0.877124571779562 
0.6599999999999436, -0.8579281072073612 
0.6699999999999425, -0.8404153364194299 
0.6799999999999414, -0.8246618428076671 
0.6899999999999403, -0.8109863935725258 
0.6999999999999392, -0.7998436510476019 
0.7099999999999381, -0.791579269510562 
0.719999999999937, -0.7861728802294858 
0.7299999999999359, -0.783161766042541 
0.7399999999999348, -0.7818104760115647 
0.7499999999999337, -0.7813758620136269 
0.7599999999999326, -0.7812773826849824 
0.7699999999999315, -0.7811238975598611 
0.7799999999999304, -0.7806664958173981 
0.7899999999999293, -0.7797583186084867 
0.7999999999999282, -0.7783573408495469 
0.8099999999999271, -0.7765498933219692 
0.819999999999926, -0.7745341773987573 
0.8299999999999249, -0.772538044830634 
0.8399999999999238, -0.7707258761856497 
0.8499999999999227, -0.7691581865536018 
0.8599999999999216, -0.7678061491798793 
0.8699999999999205, -0.766591631289276 
0.8799999999999194, -0.7654335542895294 
0.8899999999999183, -0.764289181394269 
0.8999999999999172, -0.7631785315105779 
0.9099999999999161, -0.7621862920522513 
0.919999999999915, -0.7614439631307788 
0.9299999999999139, -0.7610975971138532 
0.9399999999999128, -0.7612696694445503 
0.9499999999999117, -0.7620298184851194 
0.9599999999999106, -0.7633877443352608 
0.9699999999999095, -0.7653081331480569 
0.9799999999999084, -0.7677352099140262 
0.9899999999999073, -0.7706155224095751 
0.9999999999999062, -0.7739166373793215 
1.0099999999999052, -0.7776440078238204 
1.019999999999904, -0.7818543279617639 
1.029999999999903, -0.7866565831260608 
1.039999999999902, -0.7921861660569904 
1.0499999999999008, -0.7985313399091253 
1.0599999999998997, -0.8055943455573649 
1.0699999999998986, -0.8129302166395826 
1.0799999999998975, -0.8197462765934491 
1.0899999999998964, -0.8252347759590657 
1.0999999999998953, -0.8290065320692099 
1.1099999999998942, -0.8311734489685897 
1.119999999999893, -0.8320924986413549 
1.129999999999892, -0.8321252770840257 
1.1399999999998909, -0.8315870459710052 
1.1499999999998898, -0.830878602749196 
1.1599999999998887, -0.8308089632288415 
1.1699999999998876, -0.8331283209775462 
1.1799999999998865, -0.8410329243134953 
1.1899999999998854, -0.858792224614316 
1.1999999999998843, -0.889575213901726 
1.2099999999998832, -0.9326002796988719 
1.219999999999882, -0.9829934638779456 
1.229999999999881, -1.035017969704947 
1.2399999999998799, -1.0848898308062365 
1.2499999999998788, -1.1308641498411651 
1.2599999999998777, -1.1718332407083805 
1.2699999999998766, -1.206233852564645 
1.2799999999998755, -1.2323179916759628 
1.2899999999998744, -1.249597100000754 
1.2999999999998733, -1.2595489966063347 
1.3099999999998722, -1.2645774464137065 
1.319999999999871, -1.266719220622001 
1.32999999999987, -1.2672606632847483 
1.3399999999998689, -1.2669905359882851 
1.3499999999998678, -1.2666084696167683 
1.3599999999998666, -1.266960371506562 
1.3699999999998655, -1.2687210063159844 
1.3799999999998644, -1.2717715406121834 
1.3899999999998633, -1.2753297075468246 
1.3999999999998622, -1.2787049773211945 
1.4099999999998611, -1.2816247743450453 
1.41999999999986, -1.284064362559412 
1.429999999999859, -1.2860428789252851 
1.4399999999998578, -1.287566510321375 
1.4499999999998567, -1.288648723478293 
1.4599999999998556, -1.2893182139029005 
1.4699999999998545, -1.2895986789594402 
1.4799999999998534, -1.2894867432140174 
1.4899999999998523, -1.2889532432232833 
1.4999999999998512, -1.2879711245352587 
1.5099999999998501, -1.2865497786693398 
1.519999999999849, -1.2847461494698718 
1.529999999999848, -1.2826330235371164 
1.5399999999998468, -1.2802516473091639 
1.5499999999998457, -1.2776446109327932 
1.5599999999998446, -1.2750143498780055 
1.5699999999998435, -1.2728209960202497 
1.5799999999998424, -1.2715146894560192 
1.5899999999998413, -1.2710646946417004 
1.5999999999998402, -1.2709431437163292 
1.6099999999998391, -1.2705122696361602 
1.619999999999838, -1.269181191063806 
1.629999999999837, -1.2662553390060463 
1.6399999999998358, -1.260787812676903 
1.6499999999998347, -1.2517081429626955 
1.6599999999998336, -1.2382978917531244 
1.6699999999998325, -1.220577921095432 
1.6799999999998314, -1.19904852004317 
1.6899999999998303, -1.1740414501193497 
1.6999999999998292, -1.1453998153188778 
1.709999999999828, -1.1127969739369121 
1.719999999999827, -1.0767745403575169 
1.729999999999826, -1.0403063346148365 
1.7399999999998248, -1.0091690074036044 
1.7499999999998237, -0.9885976263070914 
1.7599999999998226, -0.978880896055221 
1.7699999999998215, -0.9760818050323451 
1.7799999999998204, -0.9761092276807959 
1.7899999999998193, -0.9766532072597853 
1.7999999999998182, -0.9767540494158438 
1.809999999999817, -0.975947212218226 
1.819999999999816, -0.9736986604960277 
1.8299999999998149, -0.9690518287411531 
1.8399999999998138, -0.9604549966116875 
1.8499999999998127, -0.9461466921413981 
1.8599999999998116, -0.9255409413803463 
1.8699999999998105, -0.9005413303541993 
1.8799999999998094, -0.8745869581238294 
1.8899999999998083, -0.8503395227780167 
1.8999999999998072, -0.8288142020598588 
1.909999999999806, -0.809976684033382 
1.919999999999805, -0.793473708737658 
1.9299999999998039, -0.7790134023822565 
1.9399999999998028, -0.766486047375198 
1.9499999999998017, -0.7559506467007665 
1.9599999999998006, -0.7475412348451858 
1.9699999999997995, -0.7413273547978015 
1.9799999999997984, -0.7371903727786256 
1.9899999999997973, -0.7347897075157367 
1.9999999999997962, -0.7336403301969592 
2.0099999999998173, -0.7332418181871256 
2.0199999999998384, -0.7331764605077418 
2.0299999999998595, -0.7331432310151929 
2.0399999999998806, -0.7329502747765333 
2.0499999999999017, -0.7325034703779598 
2.059999999999923, -0.7318065614275143 
2.069999999999944, -0.7309553810530383 
2.079999999999965, -0.7301002463183222 
2.089999999999986, -0.7293829883784271 
2.100000000000007, -0.728884541710185 
2.1100000000000283, -0.7286042109551183 
2.1200000000000494, -0.7284663761002412 
2.1300000000000705, -0.7283498006358576 
2.1400000000000916, -0.7281366491881928 
2.1500000000001127, -0.727763218631086 
2.160000000000134, -0.727249131895027 
2.170000000000155, -0.7267035568171798 
2.180000000000176, -0.7263238450903892 
2.190000000000197, -0.7263908213229711 
2.2000000000002182, -0.7272453265648531 
2.2100000000002393, -0.729230821779853 
2.2200000000002604, -0.7326143987992516 
2.2300000000002815, -0.7375293707223964 
2.2400000000003026, -0.7439789983154843 
2.2500000000003237, -0.7519005465719951 
2.260000000000345, -0.7612537825295513 
2.270000000000366, -0.7720975904779499 
2.280000000000387, -0.7846360732448189 
2.290000000000408, -0.7992176626547034 
2.3000000000004293, -0.8162354325300851 
2.3100000000004504, -0.8358093828478774 
2.3200000000004715, -0.8571595085450063 
2.3300000000004926, -0.8780648956192755 
2.3400000000005137, -0.895540712233178 
2.3500000000005348, -0.9077897973326825 
2.360000000000556, -0.9151221405783121 
2.370000000000577, -0.918943106731391 
2.380000000000598, -0.9205637625841725 
2.390000000000619, -0.9208147179376379 
2.4000000000006403, -0.9201563126660384 
2.4100000000006614, -0.9189707468807274 
2.4200000000006825, -0.9180939571335882 
2.4300000000007036, -0.9198525468234993 
2.4400000000007247, -0.9294260680978464 
2.450000000000746, -0.9544105858573377 
2.460000000000767, -0.9992828654084956 
2.470000000000788, -1.0586344197186581 
2.480000000000809, -1.120438636855814 
2.49000000000083, -1.1759016609388049 
2.5000000000008513, -1.2224386666904115 
2.5100000000008724, -1.2605514823386903 
2.5200000000008935, -1.2910088329062541 
2.5300000000009146, -1.3140345144583987 
2.5400000000009357, -1.3298664049991566 
2.550000000000957, -1.3395148145380429 
2.560000000000978, -1.3446695896580285 
2.570000000000999, -1.3469897399917885 
2.58000000000102, -1.3476662847407233 
2.5900000000010412, -1.3474830712326846 
2.6000000000010624, -1.3470926375970314 
2.6100000000010835, -1.347149325418712 
2.6200000000011046, -1.3480315707786434 
2.6300000000011257, -1.3495346161375115 
2.6400000000011468, -1.351167948410549 
2.650000000001168, -1.3526346476078197 
2.660000000001189, -1.353880451477775 
2.67000000000121, -1.3548826802392457 
2.680000000001231, -1.355538212410918 
2.6900000000012523, -1.355711625559485 
2.7000000000012734, -1.355308218602112 
2.7100000000012945, -1.3542984470705486 
2.7200000000013156, -1.3527001105177636 
2.7300000000013367, -1.3505367203236343 
2.740000000001358, -1.3477982227442742 
2.750000000001379, -1.3444245956628178 
2.7600000000014, -1.3403038233068396 
2.770000000001421, -1.3352627069729228 
2.780000000001442, -1.3290830783969578 
2.7900000000014633, -1.3216972638018538 
2.8000000000014844, -1.3137197221297168 
2.8100000000015055, -1.3068766616200316 
2.8200000000015266, -1.3029667410060939 
2.8300000000015477, -1.3018950264075877 
2.840000000001569, -1.3020343906027514 
2.85000000000159, -1.3019796071103502 
2.860000000001611, -1.3008622793020248 
2.870000000001632, -1.2975970826932153 
2.8800000000016532, -1.289676547924179 
2.8900000000016743, -1.2709454571984073 
2.9000000000016954, -1.2281213263718196 
2.9100000000017165, -1.1417496459922816 
2.9200000000017377, -1.0063764916797688 
2.9300000000017588, -0.8529232904033963 
2.94000000000178, -0.7210609715193212 
2.950000000001801, -0.6248625019127216 
2.960000000001822, -0.5594795334362495 
2.970000000001843, -0.5160263258860226 
2.9800000000018643, -0.48726116785780116 
2.9900000000018854, -0.4682240997974632 
3.0000000000019065, -0.4556694794263353 
3.0100000000019276, -0.447478524751698 
3.0200000000019487, -0.4422506350161225 
3.03000000000197, -0.43904587976956966 
3.040000000001991, -0.43722654854564996 
3.050000000002012, -0.43635922585748715 
3.060000000002033, -0.43615370718828406 
3.070000000002054, -0.4364255174624736 
3.0800000000020753, -0.43707517587573574 
3.0900000000020964, -0.4380804548788982 
3.1000000000021175, -0.43949844945974553 
3.1100000000021386, -0.441474198059855 
3.1200000000021597, -0.44425483736326044 
3.130000000002181, -0.4482115466556971 
3.140000000002202, -0.4538626172542826 
3.150000000002223, -0.4618444236212588 
3.160000000002244, -0.47267866963569133 
3.1700000000022652, -0.48615923334374866 
3.1800000000022863, -0.5006754074400352 
3.1900000000023074, -0.5136468176155614 
3.2000000000023285, -0.5232447765427404 
3.2100000000023496, -0.5293094347597427 
3.2200000000023707, -0.5326460784470959 
3.230000000002392, -0.5340983640327229 
3.240000000002413, -0.5341650646368981 
3.250000000002434, -0.5329265144821214 
3.260000000002455, -0.5299383556196459 
3.2700000000024763, -0.5237919270617432 
3.2800000000024974, -0.5106936178798054 
3.2900000000025185, -0.48012187365096226 
3.3000000000025396, -0.40408284479060297 
3.3100000000025607, -0.23927370426782288 
3.3200000000025818, -0.03216428786532106 
3.330000000002603, 0.09432295939807821 
3.340000000002624, 0.14701869958508904 
3.350000000002645, 0.16834100112464356 
3.360000000002666, 0.17766842140338768 
3.3700000000026873, 0.18200026564298016 
3.3800000000027084, 0.18397324315321845 
3.3900000000027295, 0.18469058413722378 
3.4000000000027506, 0.18468902951967275 
3.4100000000027717, 0.18429498672421535 
3.420000000002793, 0.18375852647472762 
3.430000000002814, 0.18329916272465416 
3.440000000002835, 0.18312950146961032 
3.450000000002856, 0.18349838481211164 
3.460000000002877, 0.18477599457049507 
3.4700000000028983, 0.1875799878977134 
3.4800000000029194, 0.1928622984755438 
3.4900000000029405, 0.20164169217862496 
3.5000000000029616, 0.21392953492810468 
3.5100000000029827, 0.227577284309244 
3.520000000003004, 0.2393734672659241 
3.530000000003025, 0.24760796552893183 
3.540000000003046, 0.2525158009292142 
3.550000000003067, 0.25501536000715885 
3.5600000000030882, 0.2558351010096514 
3.5700000000031094, 0.25530265045756295 
3.5800000000031305, 0.2533656237812544 
3.5900000000031516, 0.24964931399630705 
3.6000000000031727, 0.24362747589386324 
3.6100000000031938, 0.23512532428202748 
3.620000000003215, 0.22505108296786816 
3.630000000003236, 0.21536140047029564 
3.640000000003257, 0.20774543004220183 
3.650000000003278, 0.20263635604430422 
3.6600000000032993, 0.19957333539658278 
3.6700000000033204, 0.1979190262882904 
3.6800000000033415, 0.19718236359799254 
3.6900000000033626, 0.19703394919526276 
3.7000000000033837, 0.19723180319459252 
3.710000000003405, 0.1975561897863081 
3.720000000003426, 0.19777838932614927 
3.730000000003447, 0.19765205475856318 
3.740000000003468, 0.19688843209601167 
3.750000000003489, 0.19505838326958308 
3.7600000000035103, 0.19132775098950022 
3.7700000000035314, 0.18377441557466398 
3.7800000000035525, 0.16749924122073617 
3.7900000000035736, 0.12943991828636486 
3.8000000000035947, 0.039821041408228314 
3.810000000003616, -0.12108432651832934 
3.820000000003637, -0.27551312714422466 
3.830000000003658, -0.35652059501467803 
3.840000000003679, -0.3899392128448466 
3.8500000000037002, -0.40393588871719893 
3.8600000000037213, -0.410264672506774 
3.8700000000037424, -0.41321854358989923 
3.8800000000037635, -0.4144114877400982 
3.8900000000037847, -0.4144409072602711 
3.9000000000038058, -0.4134504605266665 
3.910000000003827, -0.41134634031737904 
3.920000000003848, -0.40795088653548595 
3.930000000003869, -0.4032251399633595 
3.94000000000389, -0.3975214528843127 
3.9500000000039113, -0.3916007791730677 
3.9600000000039324, -0.3862712922335714 
3.9700000000039535, -0.3819999241550306 
3.9800000000039746, -0.37885867928257067 
3.9900000000039957, -0.37669844579139883 
4.000000000004016, -0.37530496550596115 
4.010000000003993, -0.3744630717085392 
4.02000000000397, -0.3739700621956872 
4.030000000003946, -0.37364559681180076 
4.040000000003923, -0.3733525573934237 
4.0500000000039, -0.3730167071497802 
4.0600000000038765, -0.3726351596543662 
4.070000000003853, -0.372284384834224 
4.08000000000383, -0.3721558919848583 
4.090000000003807, -0.3726669675270096 
4.100000000003783, -0.37475339246262684 
4.11000000000376, -0.38064765271581014 
4.120000000003737, -0.3961053416463321 
4.130000000003713, -0.43740081673496833 
4.14000000000369, -0.5542819066478286 
4.150000000003667, -0.8779462409344545 
4.1600000000036434, -1.4286427980961052 
4.17000000000362, -1.7784511942706036 
4.180000000003597, -1.90715260117336 
4.1900000000035735, -1.9565204277593833 
4.20000000000355, -1.9779448373839883 
4.210000000003527, -1.987685294973966 
4.220000000003504, -1.9918843087516902 
4.23000000000348, -1.9932537848382683 
4.240000000003457, -1.9930855898916007 
4.250000000003434, -1.9920403194736032 
4.26000000000341, -1.9903542460042405 
4.270000000003387, -1.9877523953773468 
4.280000000003364, -1.984130884755976 
4.2900000000033405, -1.9810699836413317 
4.300000000003317, -1.9803109108082975 
4.310000000003294, -1.9804597922617648 
4.320000000003271, -1.9794190101475764 
4.330000000003247, -1.9746121411063875 
4.340000000003224, -1.9551543636592073 
4.350000000003201, -1.8512392378527003 
4.360000000003177, -1.270990349452879 
4.370000000003154, 2.1519374079619222 
4.380000000003131, 3.0116673462306354 
4.390000000003107, 3.0220284584916053 
4.400000000003084, 3.0213713376638553 
4.410000000003061, 3.006913082544844 
4.4200000000030375, 0.33769451829186414 
4.430000000003014, -4.18462634731611 
4.440000000002991, -4.20935656662529 
4.450000000002968, -4.2101901829093915 
4.460000000002944, -4.208060742186967 
4.470000000002921, -4.19890730245968 
4.480000000002898, -4.192326307696822 
4.490000000002874, -4.19632695850822 
4.500000000002851, -4.195303101123769 
4.510000000002828, -4.195686715360627 
4.520000000002804, -4.196286351820297 
4.530000000002781, -4.195733400532529 
4.540000000002758, -4.193698241824276 
4.5500000000027345, -4.16964979465005 
4.560000000002711, -4.209778851438963 
4.570000000002688, -4.271130601797514 
4.580000000002665, -4.275717260451346 
4.590000000002641, -4.274775744274957 
4.600000000002618, -4.265265690268211 
4.610000000002595, -4.037159253438951 
4.620000000002571, 2.142525601920381 
4.630000000002548, 2.2658873320818818 
4.640000000002525, 2.2723815840020927 
4.6500000000025015, 2.2726581086741406 
4.660000000002478, 2.270215709062352 
4.670000000002455, 2.261329058155471 
4.6800000000024315, 2.2416425938724256 
4.690000000002408, 2.237743327825087 
4.700000000002385, 2.24248091696533 
4.710000000002362, 2.24354166230573 
4.720000000002338, 2.2417931638314386 
4.730000000002315, 2.2386860695411612 
4.740000000002292, 2.2441593409711342 
4.750000000002268, 2.25464288730763 
4.760000000002245, 2.259013160966131 
4.770000000002222, 2.2597853815015805 
4.7800000000021985, 2.2583543693641586 
4.790000000002175, 2.2492607289160156 
4.800000000002152, 2.046941539308819 
4.810000000002129, -4.124553705828939 
4.820000000002105, -4.265879179741886 
4.830000000002082, -4.272445106136276 
4.840000000002059, -4.271720157762439 
4.850000000002035, -4.264610760162301 
4.860000000002012, -4.171919941569049 
4.870000000001989, -4.095924841765916 
4.880000000001965, -4.129297352935258 
4.890000000001942, -4.130588356837827 
4.900000000001919, -4.129732551456028 
4.9100000000018955, -4.127624825309207 
4.920000000001872, -4.125125014114346 
4.930000000001849, -4.125322858884262 
4.940000000001826, -4.121705655396813 
