t, s[1].omega / s[0].omega 
0, -1.4599972399720467 
0.009999999999999995, -1.459438068133525 
0.019999999999999934, -1.4583076362898584 
0.029999999999999874, -1.4565795560744565 
0.04000000000000012, -1.454218494621337 
0.050000000000000405, -1.451170297481712 
0.06000000000000069, -1.447346144966545 
0.07000000000000098, -1.4427165358383724 
0.08000000000000126, -1.4376739011750208 
0.09000000000000155, -1.4333786749847648 
0.10000000000000184, -1.4310515461879598 
0.11000000000000212, -1.4305565106290772 
0.12000000000000241, -1.4306939143753468 
0.130000000000002, -1.43044388869518 
0.1400000000000009, -1.4290640893976398 
0.1499999999999998, -1.4253134891793673 
0.1599999999999987, -1.4158831942672083 
0.1699999999999976, -1.3912480557100424 
0.1799999999999965, -1.3245725182848032 
0.1899999999999954, -1.156095332325227 
0.1999999999999943, -0.8472606157156648 
0.2099999999999932, -0.5346944501542997 
0.2199999999999921, -0.34955060355313144 
0.229999999999991, -0.26081407767608505 
0.2399999999999899, -0.21797461206994745 
0.2499999999999888, -0.1957668114622758 
0.2599999999999877, -0.18338145287033022 
0.2699999999999866, -0.17606035565455067 
0.2799999999999855, -0.17156890700314303 
0.2899999999999844, -0.16879580865246774 
0.2999999999999833, -0.16717438986974376 
0.3099999999999822, -0.16643251802140305 
0.3199999999999811, -0.16648679830935179 
0.32999999999998, -0.16741297536062066 
0.3399999999999789, -0.16947526866929097 
0.3499999999999778, -0.17323281442211907 
0.35999999999997667, -0.17979343873059228 
0.36999999999997557, -0.1914059448604953 
0.37999999999997447, -0.21291038764833364 
0.38999999999997337, -0.25547259481872875 
0.39999999999997227, -0.3459601625612764 
0.40999999999997117, -0.5419656123858907 
0.41999999999997006, -0.8927960199237399 
0.42999999999996896, -1.2607444567690653 
0.43999999999996786, -1.467204031332244 
0.44999999999996676, -1.548687759819137 
0.45999999999996566, -1.5780193691559796 
0.46999999999996456, -1.5886384356365315 
0.47999999999996346, -1.5924287339807965 
0.48999999999996235, -1.5934917523055439 
0.49999999999996125, -1.593356207051602 
0.5099999999999602, -1.592865043210487 
0.519999999999959, -1.5928341597732 
0.529999999999958, -1.5937380263659686 
0.5399999999999568, -1.5952122862216016 
0.5499999999999557, -1.5966278468406936 
0.5599999999999546, -1.5977446163579516 
0.5699999999999535, -1.5985615842450134 
0.5799999999999524, -1.5989986823870566 
0.5899999999999513, -1.5988568772266345 
0.5999999999999502, -1.5978889861164347 
0.6099999999999491, -1.595813138406697 
0.619999999999948, -1.5922971655293083 
0.6299999999999469, -1.5869218137636816 
0.6399999999999458, -1.579062910229958 
0.6499999999999447, -1.5676353154953877 
0.6599999999999436, -1.550719472351695 
0.6699999999999425, -1.525582906499327 
0.6799999999999414, -1.4915195469770504 
0.6899999999999403, -1.45788707379818 
0.6999999999999392, -1.4407040035611502 
0.7099999999999381, -1.4391188971796656 
0.719999999999937, -1.4417898904852007 
0.7299999999999359, -1.4436480298831953 
0.7399999999999348, -1.444027566298285 
0.7499999999999337, -1.4428061128173737 
0.7599999999999326, -1.4389435592434678 
0.7699999999999315, -1.4288326505282827 
0.7799999999999304, -1.4022777083336195 
0.7899999999999293, -1.3449197533740875 
0.7999999999999282, -1.3727160394336517 
0.8099999999999271, -2.087047359419574 
0.819999999999926, -2.573444471986775 
0.8299999999999249, -2.6508254044105413 
0.8399999999999238, -2.6679211267475997 
0.8499999999999227, -2.6729264004428446 
0.8599999999999216, -2.6740623703892377 
0.8699999999999205, -2.6732460045997373 
0.8799999999999194, -2.6705601611040906 
0.8899999999999183, -2.664138171533977 
0.8999999999999172, -2.6489443085360973 
0.9099999999999161, -2.6334396966143645 
0.919999999999915, -2.6364935511503194 
0.9299999999999139, -2.6396658045087236 
0.9399999999999128, -2.639648791010573 
0.9499999999999117, -2.6378857752967697 
0.9599999999999106, -2.638029081782719 
0.9699999999999095, -2.6425404340694727 
0.9799999999999084, -2.6459312309957546 
0.9899999999999073, -2.6472726658364603 
0.9999999999999062, -2.6474463944691964 
1.0099999999999052, -2.646143104075225 
1.019999999999904, -2.641183549134772 
1.029999999999903, -2.6223247149190105 
1.039999999999902, -2.5169434083342193 
1.0499999999999008, -1.5020182254300183 
1.0599999999998997, 0.37541511450052234 
1.0699999999998986, 0.6450012630346043 
1.0799999999998975, 0.6865491321502956 
1.0899999999998964, 0.6974726026258729 
1.0999999999998953, 0.7011955005102027 
1.1099999999998942, 0.7025402435192809 
1.119999999999893, 0.7029376252553082 
1.129999999999892, 0.7029755701360163 
1.1399999999998909, 0.7030307841230848 
1.1499999999998898, 0.7034907793592075 
1.1599999999998887, 0.7048266329717067 
1.1699999999998876, 0.7074716432392454 
1.1799999999998865, 0.7114372026652934 
1.1899999999998854, 0.7160038588333885 
1.1999999999998843, 0.7200927981938746 
1.2099999999998832, 0.7230047930600928 
1.219999999999882, 0.7246128835674599 
1.229999999999881, 0.7250164812457378 
1.2399999999998799, 0.7241289025163089 
1.2499999999998788, 0.7211735261040854 
1.2599999999998777, 0.7132031153942162 
1.2699999999998766, 0.6883831006779169 
1.2799999999998755, 0.590544673498889 
1.2899999999998744, 0.2544783870876367 
1.2999999999998733, -0.0798384840101626 
1.3099999999998722, -0.16598025859244173 
1.319999999999871, -0.179555503196904 
1.32999999999987, -0.1813674102925451 
1.3399999999998689, -0.18156439136531266 
1.3499999999998678, -0.18162743418423283 
1.3599999999998666, -0.18170887947786035 
1.3699999999998655, -0.18178330987192665 
1.3799999999998644, -0.18182240410470768 
1.3899999999998633, -0.1818180520014459 
1.3999999999998622, -0.18178782751231048 
1.4099999999998611, -0.18178321984653228 
1.41999999999986, -0.1818999617756958 
1.429999999999859, -0.18228660664548518 
1.4399999999998578, -0.18315319076252565 
1.4499999999998567, -0.18479208613760006 
1.4599999999998556, -0.18762608113385254 
1.4699999999998545, -0.192279553264272 
1.4799999999998534, -0.19960255059990795 
1.4899999999998523, -0.21042730827095862 
1.4999999999998512, -0.2247468487439989 
1.5099999999998501, -0.240698865222645 
1.519999999999849, -0.2550978745566784 
1.529999999999848, -0.2657495421268331 
1.5399999999998468, -0.27253923288100845 
1.5499999999998457, -0.2764454782511325 
1.5599999999998446, -0.27845400909732587 
1.5699999999998435, -0.27919645105937113 
1.5799999999998424, -0.2789677630440285 
1.5899999999998413, -0.27780702578072175 
1.5999999999998402, -0.27555919821742114 
1.6099999999998391, -0.2719552107309122 
1.619999999999838, -0.2667985758808322 
1.629999999999837, -0.26028017334097026 
1.6399999999998358, -0.25316951423532724 
1.6499999999998347, -0.2465183949165767 
1.6599999999998336, -0.24108030121682317 
1.6699999999998325, -0.23706438887767187 
1.6799999999998314, -0.23431454467181528 
1.6899999999998303, -0.23255998468088354 
1.6999999999998292, -0.23154146737291142 
1.709999999999828, -0.23103453362433726 
1.719999999999827, -0.23083899911542755 
1.729999999999826, -0.23077668675488652 
1.7399999999998248, -0.23070355993264444 
1.7499999999998237, -0.2305201403858737 
1.7599999999998226, -0.23016633093466604 
1.7699999999998215, -0.22960138873916716 
1.7799999999998204, -0.22877446487000305 
1.7899999999998193, -0.22757734176043617 
1.7999999999998182, -0.22572652317640213 
1.809999999999817, -0.22235622579260794 
1.819999999999816, -0.21435370100849443 
1.8299999999998149, -0.18899728836181098 
1.8399999999998138, -0.09672513053878386 
1.8499999999998127, 0.14561027823385622 
1.8599999999998116, 0.3821054270734658 
1.8699999999998105, 0.4734132624553119 
1.8799999999998094, 0.5018450255194188 
1.8899999999998083, 0.5117759981401804 
1.8999999999998072, 0.5155862882996969 
1.909999999999806, 0.5169004814345155 
1.919999999999805, 0.5169135782697888 
1.9299999999998039, 0.5160542337931788 
1.9399999999998028, 0.5145194359672214 
1.9499999999998017, 0.5125042106425476 
1.9599999999998006, 0.5102939960171694 
1.9699999999997995, 0.5082284200377316 
1.9799999999997984, 0.5065843869093986 
1.9899999999997973, 0.5054897089665312 
1.9999999999997962, 0.5049238545856984 
2.0099999999998173, 0.5047674309706467 
2.0199999999998384, 0.5048485428422295 
2.0299999999998595, 0.5049707373125669 
2.0399999999998806, 0.5049233004667124 
2.0499999999999017, 0.5044609879776559 
2.059999999999923, 0.5032112931012119 
2.069999999999944, 0.5003917159081328 
2.079999999999965, 0.4938997626688231 
2.089999999999986, 0.4767300936845336 
2.100000000000007, 0.4187072890753393 
2.1100000000000283, 0.16017167672233504 
2.1200000000000494, -0.6225082220636381 
2.1300000000000705, -1.1821407017966463 
2.1400000000000916, -1.344784726045989 
2.1500000000001127, -1.3895839433192125 
2.160000000000134, -1.4035783059320013 
2.170000000000155, -1.4083087848638507 
2.180000000000176, -1.4096664548741387 
2.190000000000197, -1.4094337331958746 
2.2000000000002182, -1.4082736440727142 
2.2100000000002393, -1.407091786432042 
2.2200000000002604, -1.4082820568217078 
2.2300000000002815, -1.4148831448251091 
2.2400000000003026, -1.4262997142837988 
2.2500000000003237, -1.438436241133259 
2.260000000000345, -1.4485402004752046 
2.270000000000366, -1.456209005873748 
2.280000000000387, -1.4619180729321968 
2.290000000000408, -1.466155909724916 
2.3000000000004293, -1.469243497446192 
2.3100000000004504, -1.4713650209263929 
2.3200000000004715, -1.4726232129188146 
2.3300000000004926, -1.4730898153500376 
2.3400000000005137, -1.472843892273605 
2.3500000000005348, -1.4719905551876502 
2.360000000000556, -1.4706596465241504 
2.370000000000577, -1.4689724295237108 
2.380000000000598, -1.4669879805525148 
2.390000000000619, -1.4647547367778313 
2.4000000000006403, -1.4625384557700989 
2.4100000000006614, -1.4608960468097814 
2.4200000000006825, -1.460180773255849 
2.4300000000007036, -1.4600628021890585 
2.4400000000007247, -1.459849799227044 
2.450000000000746, -1.4588740219831282 
2.460000000000767, -1.4562789780269898 
2.470000000000788, -1.4503385580967378 
2.480000000000809, -1.43728144889013 
2.49000000000083, -1.409584672823299 
2.5000000000008513, -1.3549481547047277 
2.5100000000008724, -1.2595556524865354 
2.5200000000008935, -1.1191857923831368 
2.5300000000009146, -0.9529491400068102 
2.5400000000009357, -0.7988193351926693 
2.550000000000957, -0.6845999583626927 
2.560000000000978, -0.6124715653358864 
2.570000000000999, -0.5710222591118643 
2.58000000000102, -0.5484558253313441 
2.5900000000010412, -0.5366413233283016 
2.6000000000010624, -0.5307111878064387 
2.6100000000010835, -0.5279103061687622 
2.6200000000011046, -0.526717662576669 
2.6300000000011257, -0.5263040853560389 
2.6400000000011468, -0.5262196099921057 
2.650000000001168, -0.526219702553087 
2.660000000001189, -0.5261743216838376 
2.67000000000121, -0.5260277064938972 
2.680000000001231, -0.5257874866052249 
2.6900000000012523, -0.5255222938168879 
2.7000000000012734, -0.5253481486501517 
2.7100000000012945, -0.5253975096869465 
2.7200000000013156, -0.5257827613904131 
2.7300000000013367, -0.5265657311710019 
2.740000000001358, -0.5277310497670518 
2.750000000001379, -0.5291636328078628 
2.7600000000014, -0.5306543592824631 
2.770000000001421, -0.5319605125047252 
2.780000000001442, -0.5328955002396285 
2.7900000000014633, -0.5333791453977899 
2.8000000000014844, -0.5334211779643048 
2.8100000000015055, -0.5330765154946342 
2.8200000000015266, -0.5324202772077707 
2.8300000000015477, -0.5315704729123636 
2.840000000001569, -0.5307952941612812 
2.85000000000159, -0.5308204054244374 
2.860000000001611, -0.5337048185178996 
2.870000000001632, -0.5455058379262595 
2.8800000000016532, -0.5851237545204135 
2.8900000000016743, -0.715352460943682 
2.9000000000016954, -1.113356040936798 
2.9100000000017165, -1.7459994775764838 
2.9200000000017377, -2.046473903699075 
2.9300000000017588, -2.132167260197676 
2.94000000000178, -2.1600773153518675 
2.950000000001801, -2.1705483914926464 
2.960000000001822, -2.174520868242168 
2.970000000001843, -2.1756315350176902 
2.9800000000018643, -2.1752568584036105 
2.9900000000018854, -2.173937010621942 
3.0000000000019065, -2.171695794932214 
3.0100000000019276, -2.1680949810151513 
3.0200000000019487, -2.163611281616386 
3.03000000000197, -2.161229636301206 
3.040000000001991, -2.161501348623193 
3.050000000002012, -2.16166133232541 
3.060000000002033, -2.160027202769483 
3.070000000002054, -2.15381284966141 
3.0800000000020753, -2.1352038835302323 
3.0900000000020964, -2.1336859233538785 
3.1000000000021175, -2.243115563297645 
3.1100000000021386, -2.3162123858395587 
3.1200000000021597, -2.340926510653328 
3.130000000002181, -2.350040036707257 
3.140000000002202, -2.35371412802636 
3.150000000002223, -2.354873132695174 
3.160000000002244, -2.3544206224995627 
3.1700000000022652, -2.352443398898526 
3.1800000000022863, -2.348218656636961 
3.1900000000023074, -2.339182328224873 
3.2000000000023285, -2.320071360118906 
3.2100000000023496, -2.2983070219630237 
3.2200000000023707, -2.297762808476616 
3.230000000002392, -2.3023915075932377 
3.240000000002413, -2.3037383120244557 
3.250000000002434, -2.3027894099950617 
3.260000000002455, -2.3004507713326157 
3.2700000000024763, -2.3013512964167457 
3.2800000000024974, -2.3088486252665046 
3.2900000000025185, -2.3154570406808648 
3.3000000000025396, -2.318814259667417 
3.3100000000025607, -2.3202487564585224 
3.3200000000025818, -2.3204033881028705 
3.330000000002603, -2.3191172360333416 
3.340000000002624, -2.3154562648729105 
3.350000000002645, -2.3067065917542164 
3.360000000002666, -2.2841123037300073 
3.3700000000026873, -2.2118166672645025 
3.3800000000027084, -1.937839719789268 
3.3900000000027295, -1.4603612422424403 
3.4000000000027506, -1.3393734826519004 
3.4100000000027717, -1.367008665300459 
3.420000000002793, -1.3893235350033721 
3.430000000002814, -1.398887782859512 
3.440000000002835, -1.402477884245238 
3.450000000002856, -1.4033636588728577 
3.460000000002877, -1.4025750335521219 
3.4700000000028983, -1.400062058329849 
3.4800000000029194, -1.3955179300644829 
3.4900000000029405, -1.391707029277803 
3.5000000000029616, -1.4038568985481403 
3.5100000000029827, -1.4525490863904356 
3.520000000003004, -1.5199101820882708 
3.530000000003025, -1.57285807731312 
3.540000000003046, -1.6061600306181103 
3.550000000003067, -1.6264412084475235 
3.5600000000030882, -1.639020401737982 
3.5700000000031094, -1.646820195922377 
3.5800000000031305, -1.6514344745335598 
3.5900000000031516, -1.6538486480326173 
3.6000000000031727, -1.6547468176480618 
3.6100000000031938, -1.6546199517069167 
3.620000000003215, -1.6538339739134453 
3.630000000003236, -1.6526684451677895 
3.640000000003257, -1.651254734849537 
3.650000000003278, -1.6495753965119948 
3.6600000000032993, -1.6477870731413655 
3.6700000000033204, -1.6464562498570081 
3.6800000000033415, -1.6459657638690248 
3.6900000000033626, -1.645876871724063 
3.7000000000033837, -1.6453727257439077 
3.710000000003405, -1.6435480307612145 
3.720000000003426, -1.638619931440095 
3.730000000003447, -1.6255196325967405 
3.740000000003468, -1.5885487612805813 
3.750000000003489, -1.4798709168439657 
3.7600000000035103, -1.1936393796384617 
3.7700000000035314, -0.7294768856762863 
3.7800000000035525, -0.3807546842799696 
3.7900000000035736, -0.22187005356019956 
3.8000000000035947, -0.15499801593894325 
3.810000000003616, -0.12438676138517782 
3.820000000003637, -0.10888646929708697 
3.830000000003658, -0.10036715787344616 
3.840000000003679, -0.09541743742926204 
3.8500000000037002, -0.09248296700614214 
3.8600000000037213, -0.09082153146748692 
3.8700000000037424, -0.09009391056959896 
3.8800000000037635, -0.09020357146752325 
3.8900000000037847, -0.09125641234967999 
3.9000000000038058, -0.09361203155811017 
3.910000000003827, -0.09806674729933637 
3.920000000003848, -0.1063247686143439 
3.930000000003869, -0.12223412702389078 
3.94000000000389, -0.15529880914061955 
3.9500000000039113, -0.23135494795861758 
3.9600000000039324, -0.4215229269766921 
3.9700000000039535, -0.8458642629576097 
3.9800000000039746, -1.3691070168698132 
3.9900000000039957, -1.6577067170487947 
4.000000000004016, -1.7628910422240616 
4.010000000003993, -1.798947320614897 
4.02000000000397, -1.8116623950177495 
4.030000000003946, -1.8161355918672393 
4.040000000003923, -1.817421228040779 
4.0500000000039, -1.817352403225506 
4.0600000000038765, -1.816815671494777 
4.070000000003853, -1.8163926978491702 
4.08000000000383, -1.816175208753128 
4.090000000003807, -1.8158975241050037 
4.100000000003783, -1.8155777297355624 
4.11000000000376, -1.815456916971931 
4.120000000003737, -1.8153718755926036 
4.130000000003713, -1.8147161044783477 
4.14000000000369, -1.8125611416656429 
4.150000000003667, -1.806904474485393 
4.1600000000036434, -1.7922752036212528 
4.17000000000362, -1.7528181540489687 
4.180000000003597, -1.64260632130545 
4.1900000000035735, -1.354922222690525 
4.20000000000355, -0.8553144828084495 
4.210000000003527, -0.45059147143230227 
4.220000000003504, -0.26340228309133557 
4.23000000000348, -0.18628726398899048 
4.240000000003457, -0.1520285132082469 
4.250000000003434, -0.1352136902423213 
4.26000000000341, -0.12626226666776116 
4.270000000003387, -0.12123606833992477 
4.280000000003364, -0.11837187859258154 
4.2900000000033405, -0.11683492569281699 
4.300000000003317, -0.11623519820377308 
4.310000000003294, -0.1164333830762031 
4.320000000003271, -0.11747580978656029 
4.330000000003247, -0.11960963652712817 
4.340000000003224, -0.12338693881187886 
4.350000000003201, -0.1299321393047111 
4.360000000003177, -0.14159460742602323 
4.370000000003154, -0.16362563229528687 
4.380000000003131, -0.20874164041431667 
4.390000000003107, -0.3090896192340543 
4.400000000003084, -0.5326548052064359 
4.410000000003061, -0.9061796323265222 
4.4200000000030375, -1.2297810144689019 
4.430000000003014, -1.3808778085473385 
4.440000000002991, -1.4352915300904192 
4.450000000002968, -1.4543804991793816 
4.460000000002944, -1.4612687343059074 
4.470000000002921, -1.4636232910082918 
4.480000000002898, -1.4640470500280343 
4.490000000002874, -1.4635680456117313 
4.500000000002851, -1.4629858459304328 
4.510000000002828, -1.4634364151523547 
4.520000000002804, -1.4658007995666262 
4.530000000002781, -1.469574583580348 
4.540000000002758, -1.4734749074207754 
4.5500000000027345, -1.4767496324530287 
4.560000000002711, -1.4792775623904122 
4.570000000002688, -1.4811298947946485 
4.580000000002665, -1.482353647458846 
4.590000000002641, -1.4829650207526937 
4.600000000002618, -1.4829758184315798 
4.610000000002595, -1.4823938108453691 
4.620000000002571, -1.4812097069339067 
4.630000000002548, -1.479387853327071 
4.640000000002525, -1.4768638279372772 
4.6500000000025015, -1.4735356317410782 
4.660000000002478, -1.4692426160647605 
4.670000000002455, -1.4638165649139674 
4.6800000000024315, -1.4574335963954577 
4.690000000002408, -1.451266173842269 
4.700000000002385, -1.4472446588744994 
4.710000000002362, -1.4459957543457655 
4.720000000002338, -1.4461727982862704 
4.730000000002315, -1.446302794904701 
4.740000000002292, -1.4455439993256394 
4.750000000002268, -1.4429688029159693 
4.760000000002245, -1.4361609241982425 
4.770000000002222, -1.4175085615790906 
4.7800000000021985, -1.3611926432783341 
4.790000000002175, -1.1829448459927576 
4.800000000002152, -0.7439426317919372 
4.810000000002129, -0.26857129624957865 
4.820000000002105, -0.052798777963578555 
4.830000000002082, 0.022966722596664338 
4.840000000002059, 0.052212649404256364 
4.850000000002035, 0.06522013770122356 
4.860000000002012, 0.07163615912734614 
4.870000000001989, 0.074998816723095 
4.880000000001965, 0.07678120219150389 
4.890000000001942, 0.07765563153474678 
4.900000000001919, 0.0779359579176481 
4.9100000000018955, 0.077742074812317 
4.920000000001872, 0.07705066290717175 
