t, s[1].omega / s[0].omega 
0, -1.120445837370479 
0.009999999999999995, -1.161949751363855 
0.019999999999999934, -1.1954364284050252 
0.029999999999999874, -1.219007157503004 
0.04000000000000012, -1.2332884786897038 
0.050000000000000405, -1.2408506499394067 
0.06000000000000069, -1.244360099637282 
0.07000000000000098, -1.24562441213526 
0.08000000000000126, -1.2456782187603221 
0.09000000000000155, -1.2452255968602686 
0.10000000000000184, -1.2450696750166959 
0.11000000000000212, -1.246184552429755 
0.12000000000000241, -1.2490923043613797 
0.130000000000002, -1.2532879980096896 
0.1400000000000009, -1.2577665788280261 
0.1499999999999998, -1.261852589841412 
0.1599999999999987, -1.2653450250474492 
0.1699999999999976, -1.268264165253827 
0.1799999999999965, -1.2706635171405831 
0.1899999999999954, -1.2725868848441424 
0.1999999999999943, -1.2740751832208015 
0.2099999999999932, -1.275158213154522 
0.2199999999999921, -1.2758350586071738 
0.229999999999991, -1.2760710614206396 
0.2399999999999899, -1.275824833597548 
0.2499999999999888, -1.2750907666594775 
0.2599999999999877, -1.273928119639752 
0.2699999999999866, -1.2724538859443917 
0.2799999999999855, -1.2707895461300285 
0.2899999999999844, -1.268999627987176 
0.2999999999999833, -1.2671234423382034 
0.3099999999999822, -1.265316459514914 
0.3199999999999811, -1.263904638668091 
0.32999999999998, -1.2631498936738748 
0.3399999999999789, -1.2629380113398398 
0.3499999999999778, -1.2628205771688026 
0.35999999999997667, -1.2622806526359303 
0.36999999999997557, -1.2608235921983675 
0.37999999999997447, -1.2579097505671435 
0.38999999999997337, -1.2529629437310295 
0.39999999999997227, -1.245562619897605 
0.40999999999997117, -1.2356560992400958 
0.41999999999997006, -1.223494607544377 
0.42999999999996896, -1.209306663521486 
0.43999999999996786, -1.1930276425378432 
0.44999999999996676, -1.1742766363012729 
0.45999999999996566, -1.1526340113764806 
0.46999999999996456, -1.1283824795664033 
0.47999999999996346, -1.1037105072141025 
0.48999999999996235, -1.0830414658759513 
0.49999999999996125, -1.0702611366249775 
0.5099999999999602, -1.0651351196587253 
0.519999999999959, -1.0643217219992438 
0.529999999999958, -1.064817989903642 
0.5399999999999568, -1.0651220764506857 
0.5499999999999557, -1.0645837938614726 
0.5599999999999546, -1.0626237939740677 
0.5699999999999535, -1.0581469885761106 
0.5799999999999524, -1.0489699327532427 
0.5899999999999513, -1.0315078236896036 
0.5999999999999502, -1.0020638415204064 
0.6099999999999491, -0.9606328759444851 
0.619999999999948, -0.9129500670881677 
0.6299999999999469, -0.8662833040214526 
0.6399999999999458, -0.82475515269371 
0.6499999999999447, -0.7892814619929747 
0.6599999999999436, -0.7594133726787362 
0.6699999999999425, -0.7345250920102522 
0.6799999999999414, -0.7141891440766918 
0.6899999999999403, -0.6981492861665888 
0.6999999999999392, -0.686155552538886 
0.7099999999999381, -0.6778083930757145 
0.719999999999937, -0.6725026235820023 
0.7299999999999359, -0.6694933937310655 
0.7399999999999348, -0.6680297473142698 
0.7499999999999337, -0.6674718966481535 
0.7599999999999326, -0.6673431163299461 
0.7699999999999315, -0.6673221554629628 
0.7799999999999304, -0.6672114565120639 
0.7899999999999293, -0.666913099922178 
0.7999999999999282, -0.6664222628346823 
0.8099999999999271, -0.6658217653956756 
0.819999999999926, -0.6652525489535829 
0.8299999999999249, -0.6648594284799468 
0.8399999999999238, -0.664739766722749 
0.8499999999999227, -0.6649147921626752 
0.8599999999999216, -0.6653207627033507 
0.8699999999999205, -0.6658196327316533 
0.8799999999999194, -0.6662403522919014 
0.8899999999999183, -0.6664437137284658 
0.8999999999999172, -0.6663737078486602 
0.9099999999999161, -0.6660719630846708 
0.919999999999915, -0.6656757383848051 
0.9299999999999139, -0.6654347193608638 
0.9399999999999128, -0.6657608640487725 
0.9499999999999117, -0.6672953069208779 
0.9599999999999106, -0.6709481560381917 
0.9699999999999095, -0.6778521738155953 
0.9799999999999084, -0.6891983426294168 
0.9899999999999073, -0.7060023473053922 
0.9999999999999062, -0.7289322508054681 
1.0099999999999052, -0.7583168362006895 
1.019999999999904, -0.7943272486247743 
1.029999999999903, -0.8371564170960883 
1.039999999999902, -0.8868654431504011 
1.0499999999999008, -0.9424293934021793 
1.0599999999998997, -0.9998507256791005 
1.0699999999998986, -1.0513341345691811 
1.0799999999998975, -1.0893053639020345 
1.0899999999998964, -1.112282838708309 
1.0999999999998953, -1.124232913385502 
1.1099999999998942, -1.1298187306736547 
1.119999999999893, -1.1320792274079312 
1.129999999999892, -1.1325730385655073 
1.1399999999998909, -1.1320807329272131 
1.1499999999998898, -1.1312553143021806 
1.1599999999998887, -1.1312926892085702 
1.1699999999998876, -1.1343101869048018 
1.1799999999998865, -1.142265015717394 
1.1899999999998854, -1.154760235090605 
1.1999999999998843, -1.1691288811904745 
1.2099999999998832, -1.1828878699021463 
1.219999999999882, -1.1949937754573734 
1.229999999999881, -1.2054107557452547 
1.2399999999998799, -1.2144331518452758 
1.2499999999998788, -1.222326774155568 
1.2599999999998777, -1.229198720504565 
1.2699999999998766, -1.234975651332294 
1.2799999999998755, -1.239478487041882 
1.2899999999998744, -1.24258329054129 
1.2999999999998733, -1.2443531609416154 
1.3099999999998722, -1.2450295390789088 
1.319999999999871, -1.2449415871872809 
1.32999999999987, -1.2444590620244453 
1.3399999999998689, -1.243982193495837 
1.3499999999998678, -1.2438440111193063 
1.3599999999998666, -1.2441361686912085 
1.3699999999998655, -1.2447058131897366 
1.3799999999998644, -1.245371512161622 
1.3899999999998633, -1.2460684209013224 
1.3999999999998622, -1.2467809888691628 
1.4099999999998611, -1.247420031973094 
1.41999999999986, -1.2478141761273713 
1.429999999999859, -1.2477903302914375 
1.4399999999998578, -1.2472393276199436 
1.4499999999998567, -1.2461366502646105 
1.4599999999998556, -1.2445257238538736 
1.4699999999998545, -1.242471619141018 
1.4799999999998534, -1.240012732979555 
1.4899999999998523, -1.2371417490657994 
1.4999999999998512, -1.2338174590832547 
1.5099999999998501, -1.2299825563661437 
1.519999999999849, -1.225571073504978 
1.529999999999848, -1.22054165348052 
1.5399999999998468, -1.2150216609185533 
1.5499999999998457, -1.209557120033527 
1.5599999999998446, -1.2051415516058184 
1.5699999999998435, -1.2025804726985014 
1.5799999999998424, -1.2017124282836031 
1.5899999999998413, -1.2016245015739242 
1.5999999999998402, -1.2014143259489247 
1.6099999999998391, -1.2004108508771245 
1.619999999999838, -1.1978899980244178 
1.629999999999837, -1.192700766704219 
1.6399999999998358, -1.183084054155493 
1.6499999999998347, -1.1671081376207557 
1.6599999999998336, -1.1439030931641365 
1.6699999999998325, -1.114525495867316 
1.6799999999998314, -1.0811156244777396 
1.6899999999998303, -1.0454200539376175 
1.6999999999998292, -1.0083725063159736 
1.709999999999828, -0.9707076342376908 
1.719999999999827, -0.9338588039076473 
1.729999999999826, -0.9004570438554605 
1.7399999999998248, -0.8736995443748599 
1.7499999999998237, -0.8555814918083031 
1.7599999999998226, -0.8455908006582084 
1.7699999999998215, -0.8413137098002 
1.7799999999998204, -0.8400878876916524 
1.7899999999998193, -0.8400367492408944 
1.7999999999998182, -0.840135026104378 
1.809999999999817, -0.8398650396305645 
1.819999999999816, -0.8388980384213317 
1.8299999999998149, -0.836922238371612 
1.8399999999998138, -0.8336327595908877 
1.8499999999998127, -0.8288875599462926 
1.8599999999998116, -0.8229206526644015 
1.8699999999998105, -0.8163424324891151 
1.8799999999998094, -0.8098335290101529 
1.8899999999998083, -0.8038354279624835 
1.8999999999998072, -0.7984912666302088 
1.909999999999806, -0.7937573834939742 
1.919999999999805, -0.7895266396899165 
1.9299999999998039, -0.7857041163869278 
1.9399999999998028, -0.7822392470050177 
1.9499999999998017, -0.779129339971164 
1.9599999999998006, -0.7764079748660523 
1.9699999999997995, -0.774129087632407 
1.9799999999997984, -0.7723512382779556 
1.9899999999997973, -0.7711197773450433 
1.9999999999997962, -0.770445100106222 
2.0099999999998173, -0.770284018490332 
2.0199999999998384, -0.770537745616266 
2.0299999999998595, -0.7710730610382791 
2.0399999999998806, -0.7717583008716774 
2.0499999999999017, -0.772498682003647 
2.059999999999923, -0.773259352719885 
2.069999999999944, -0.7740693114420628 
2.079999999999965, -0.7750024104306222 
2.089999999999986, -0.776139084609752 
2.100000000000007, -0.7775197461890219 
2.1100000000000283, -0.779101366032531 
2.1200000000000494, -0.7807348647695864 
2.1300000000000705, -0.7821939151206347 
2.1400000000000916, -0.7832635143570957 
2.1500000000001127, -0.783832008634698 
2.160000000000134, -0.7839200216649893 
2.170000000000155, -0.7836577407857226 
2.180000000000176, -0.7832735204603903 
2.190000000000197, -0.7831275366982425 
2.2000000000002182, -0.7837656055249398 
2.2100000000002393, -0.7859177268577539 
2.2200000000002604, -0.7903590374433823 
2.2300000000002815, -0.7976476287079218 
2.2400000000003026, -0.8079107385859855 
2.2500000000003237, -0.8208640006521197 
2.260000000000345, -0.8360486008144843 
2.270000000000366, -0.8530994684454652 
2.280000000000387, -0.8718904181084961 
2.290000000000408, -0.8925137288014489 
2.3000000000004293, -0.9150763498577126 
2.3100000000004504, -0.9392502250495062 
2.3200000000004715, -0.9636379959439978 
2.3300000000004926, -0.9856062897042076 
2.3400000000005137, -1.00252575071783 
2.3500000000005348, -1.0135608953491633 
2.360000000000556, -1.0197747979762357 
2.370000000000577, -1.0228036130852705 
2.380000000000598, -1.0239150486249273 
2.390000000000619, -1.0238752143260528 
2.4000000000006403, -1.0231951189107629 
2.4100000000006614, -1.0225377965637084 
2.4200000000006825, -1.0232515892862186 
2.4300000000007036, -1.0276238723812532 
2.4400000000007247, -1.037855568227705 
2.450000000000746, -1.0539775147279213 
2.460000000000767, -1.0734679000162342 
2.470000000000788, -1.0933599578871251 
2.480000000000809, -1.111952670224378 
2.49000000000083, -1.1288087018116282 
2.5000000000008513, -1.1440763383174735 
2.5100000000008724, -1.1579494637139864 
2.5200000000008935, -1.1703742795849448 
2.5300000000009146, -1.180972027538406 
2.5400000000009357, -1.1892362582181246 
2.550000000000957, -1.1949282467116693 
2.560000000000978, -1.198294740888526 
2.570000000000999, -1.1998969065016545 
2.58000000000102, -1.200323672240916 
2.5900000000010412, -1.200087924223113 
2.6000000000010624, -1.1997056226766873 
2.6100000000010835, -1.1997549512076293 
2.6200000000011046, -1.2006856346374144 
2.6300000000011257, -1.202501046029079 
2.6400000000011468, -1.204797089653756 
2.650000000001168, -1.2071462500080392 
2.660000000001189, -1.209327507462039 
2.67000000000121, -1.211270521104621 
2.680000000001231, -1.212934428461406 
2.6900000000012523, -1.2142711207610042 
2.7000000000012734, -1.2152517162711094 
2.7100000000012945, -1.2158845403772918 
2.7200000000013156, -1.216198795404647 
2.7300000000013367, -1.2162115096627 
2.740000000001358, -1.2159069153511137 
2.750000000001379, -1.2152461635214737 
2.7600000000014, -1.2142021952836697 
2.770000000001421, -1.2127949281638415 
2.780000000001442, -1.2110987454358075 
2.7900000000014633, -1.2092088936265895 
2.8000000000014844, -1.2071942268199023 
2.8100000000015055, -1.2051115515733393 
2.8200000000015266, -1.2031074323463575 
2.8300000000015477, -1.2014758465327937 
2.840000000001569, -1.2004953560459284 
2.85000000000159, -1.2001460870159746 
2.860000000001611, -1.2000687316565979 
2.870000000001632, -1.1997881055033779 
2.8800000000016532, -1.1988659538935453 
2.8900000000016743, -1.1968909237704715 
2.9000000000016954, -1.193473543198143 
2.9100000000017165, -1.1883604065723736 
2.9200000000017377, -1.1815791872038652 
2.9300000000017588, -1.173410118810406 
2.94000000000178, -1.164165841191805 
2.950000000001801, -1.153991376559404 
2.960000000001822, -1.1428180838427007 
2.970000000001843, -1.1304452390177049 
2.9800000000018643, -1.116736372912737 
2.9900000000018854, -1.1019991058869594 
3.0000000000019065, -1.08749317640904 
3.0100000000019276, -1.0754558201489968 
3.0200000000019487, -1.067808665495485 
3.03000000000197, -1.064508841750848 
3.040000000001991, -1.0638350854149752 
3.050000000002012, -1.0640138926519103 
3.060000000002033, -1.06398527436373 
3.070000000002054, -1.0631526408729286 
3.0800000000020753, -1.0609115581279311 
3.0900000000020964, -1.0562722183261741 
3.1000000000021175, -1.0476767720650035 
3.1100000000021386, -1.0333811443260617 
3.1200000000021597, -1.0127356328612205 
3.130000000002181, -0.9873027996747451 
3.140000000002202, -0.9600044285962692 
3.150000000002223, -0.9332005290723773 
3.160000000002244, -0.9079480066804632 
3.1700000000022652, -0.8844589447757022 
3.1800000000022863, -0.8627372541100549 
3.1900000000023074, -0.8429698230739355 
3.2000000000023285, -0.8256566780868889 
3.2100000000023496, -0.811488065140525 
3.2200000000023707, -0.80099865010298 
3.230000000002392, -0.7941951326999988 
3.240000000002413, -0.7904589943116096 
3.250000000002434, -0.7888113508668062 
3.260000000002455, -0.7882939501293703 
3.2700000000024763, -0.788190264135211 
3.2800000000024974, -0.7880394222203457 
3.2900000000025185, -0.7875539126770361 
3.3000000000025396, -0.7865500738455202 
3.3100000000025607, -0.7849404870973309 
3.3200000000025818, -0.782774025756727 
3.330000000002603, -0.7802508864976175 
3.340000000002624, -0.777649169325329 
3.350000000002645, -0.7752031749732622 
3.360000000002666, -0.7730301536412997 
3.3700000000026873, -0.7711346461248182 
3.3800000000027084, -0.769453132875501 
3.3900000000027295, -0.767905053288882 
3.4000000000027506, -0.7664363440410441 
3.4100000000027717, -0.7650466745834097 
3.420000000002793, -0.7637944641632423 
3.430000000002814, -0.7627811246927652 
3.440000000002835, -0.7621216575663694 
3.450000000002856, -0.7619123575654225 
3.460000000002877, -0.7622084294619821 
3.4700000000028983, -0.7630194985398544 
3.4800000000029194, -0.7643198862136545 
3.4900000000029405, -0.7660638417489596 
3.5000000000029616, -0.7681997181847076 
3.5100000000029827, -0.7706843865660227 
3.520000000003004, -0.7735004093450305 
3.530000000003025, -0.7766727874626247 
3.540000000003046, -0.7802758535535304 
3.550000000003067, -0.7844187240811433 
3.5600000000030882, -0.7891971361090293 
3.5700000000031094, -0.7945995809436466 
3.5800000000031305, -0.8003809158365914 
3.5900000000031516, -0.8060025619486447 
3.6000000000031727, -0.8107944183941136 
3.6100000000031938, -0.8142926104065518 
3.620000000003215, -0.8164285187519174 
3.630000000003236, -0.8174175479869227 
3.640000000003257, -0.8175561830291705 
3.650000000003278, -0.8171357405942168 
3.6600000000032993, -0.8165180370107968 
3.6700000000033204, -0.8163731334926986 
3.6800000000033415, -0.8180747889903659 
3.6900000000033626, -0.8240834548107123 
3.7000000000033837, -0.8377552948849305 
3.710000000003405, -0.8619350809444472 
3.720000000003426, -0.8968914589578411 
3.730000000003447, -0.939719992350114 
3.740000000003468, -0.9861662307244512 
3.750000000003489, -1.032854785028373 
3.7600000000035103, -1.0778916618508185 
3.7700000000035314, -1.120023482096334 
3.7800000000035525, -1.1575291019031495 
3.7900000000035736, -1.188004083502745 
3.8000000000035947, -1.2096869883748695 
3.810000000003616, -1.2229909065897535 
3.820000000003637, -1.2301158305738298 
3.830000000003658, -1.233443228350574 
3.840000000003679, -1.2346329076285412 
3.8500000000037002, -1.2346594856698854 
3.8600000000037213, -1.234207497385844 
3.8700000000037424, -1.2340709690808214 
3.8800000000037635, -1.2352085579210477 
3.8900000000037847, -1.2381322055095536 
3.9000000000038058, -1.2423509946560993 
3.910000000003827, -1.2468771449899936 
3.920000000003848, -1.2510341759722183 
3.930000000003869, -1.2546108184427591 
3.94000000000389, -1.2576207067023426 
3.9500000000039113, -1.2601165246436055 
3.9600000000039324, -1.2621435696476115 
3.9700000000039535, -1.2637435188989237 
3.9800000000039746, -1.2649450340524508 
3.9900000000039957, -1.2657440485156868 
4.000000000004016, -1.2661014380074345 
4.010000000003993, -1.2659716669732808 
4.02000000000397, -1.265347173433389 
4.030000000003946, -1.2642888334282962 
4.040000000003923, -1.262921031975817 
4.0500000000039, -1.2613806724245888 
4.0600000000038765, -1.2597481918606117 
4.070000000003853, -1.2580572139926471 
4.08000000000383, -1.2564207062338417 
4.090000000003807, -1.2551090842201074 
4.100000000003783, -1.254375436608766 
4.11000000000376, -1.2541611718839278 
4.120000000003737, -1.254079398450264 
4.130000000003713, -1.2536473244160824 
4.14000000000369, -1.2524065929516717 
4.150000000003667, -1.2498903009432547 
4.1600000000036434, -1.2456344867962634 
4.17000000000362, -1.239330201003911 
4.180000000003597, -1.2309770708052161 
4.1900000000035735, -1.2208115257178174 
4.20000000000355, -1.2090401134468673 
4.210000000003527, -1.1956272091477325 
4.220000000003504, -1.1802688189284498 
4.23000000000348, -1.1625730768800644 
4.240000000003457, -1.1425688924560542 
4.250000000003434, -1.1216473177153214 
4.26000000000341, -1.1031807933478333 
4.270000000003387, -1.0908663893194155 
4.280000000003364, -1.0854022880829017 
4.2900000000033405, -1.0842693098652796 
4.300000000003317, -1.0846398316532122 
4.310000000003294, -1.084933178708718 
4.320000000003271, -1.0844366975081292 
4.330000000003247, -1.0825573620813393 
4.340000000003224, -1.0782148056578937 
4.350000000003201, -1.0692441647351578 
4.360000000003177, -1.052017607083659 
4.370000000003154, -1.0225974565361449 
4.380000000003131, -0.9805262066254924 
4.390000000003107, -0.9312663450164832 
4.400000000003084, -0.882295032105121 
4.410000000003061, -0.8381519597270636 
4.4200000000030375, -0.8000725524205283 
4.430000000003014, -0.7677991867064342 
4.440000000002991, -0.7408315096217897 
4.450000000002968, -0.7188335011811238 
4.460000000002944, -0.7015984566271702 
4.470000000002921, -0.6888630122604386 
4.480000000002898, -0.680146972508617 
4.490000000002874, -0.6747229106721655 
4.500000000002851, -0.6717241178888942 
4.510000000002828, -0.6703100867084454 
4.520000000002804, -0.6697916623346236 
4.530000000002781, -0.6696727401449412 
4.540000000002758, -0.6696279919149495 
4.5500000000027345, -0.6694607504972253 
4.560000000002711, -0.6690749827521115 
4.570000000002688, -0.6684692778984497 
4.580000000002665, -0.6677327928166721 
4.590000000002641, -0.6670146425350234 
4.600000000002618, -0.6664662566619903 
4.610000000002595, -0.6661878895619027 
4.620000000002571, -0.6662012622827591 
4.630000000002548, -0.6664443963413644 
4.640000000002525, -0.666785360306899 
4.6500000000025015, -0.6670631803764975 
4.660000000002478, -0.6671487917928796 
4.670000000002455, -0.666993040165321 
4.6800000000024315, -0.6666416107843329 
4.690000000002408, -0.6662354930229453 
4.700000000002385, -0.6660273581372798 
4.710000000002362, -0.6664232962487676 
4.720000000002338, -0.6680304702382174 
4.730000000002315, -0.6716685903798749 
4.740000000002292, -0.6783010742389218 
4.750000000002268, -0.6888805387820608 
4.760000000002245, -0.7041744185155153 
4.770000000002222, -0.7246800152159385 
4.7800000000021985, -0.7506961998693099 
4.790000000002175, -0.7825103776290083 
4.800000000002152, -0.8205492532893276 
4.810000000002129, -0.8652290656528396 
4.820000000002105, -0.9160799872502773 
4.830000000002082, -0.9698927407215503 
4.840000000002059, -1.0195118056386037 
4.850000000002035, -1.057166059835805 
4.860000000002012, -1.0805129183590927 
4.870000000001989, -1.092880825248227 
4.880000000001965, -1.0987528915580929 
4.890000000001942, -1.1011863229687529 
4.900000000001919, -1.1017794037647968 
4.9100000000018955, -1.1013171023114943 
4.920000000001872, -1.100393267876959 
4.930000000001849, -1.1000967508276296 
4.940000000001826, -1.1026481156173826 
