t, s[1].omega / s[0].omega 
0, -1.0201639656852257 
0.009999999999999995, -1.0362463238199782 
0.019999999999999934, -1.0509119800882414 
0.029999999999999874, -1.0628540613543551 
0.04000000000000012, -1.0712905019937002 
0.050000000000000405, -1.0764216665778596 
0.06000000000000069, -1.0790682311708852 
0.07000000000000098, -1.0800824084637815 
0.08000000000000126, -1.0801035813377278 
0.09000000000000155, -1.07965181375179 
0.10000000000000184, -1.0793781733205834 
0.11000000000000212, -1.0802467582091824 
0.12000000000000241, -1.083270408291402 
0.130000000000002, -1.0887573565880682 
0.1400000000000009, -1.0959685390553973 
0.1499999999999998, -1.103746242777835 
0.1599999999999987, -1.1112639890046832 
0.1699999999999976, -1.1181944716081713 
0.1799999999999965, -1.124517445114313 
0.1899999999999954, -1.1303215949323049 
0.1999999999999943, -1.1356933794538828 
0.2099999999999932, -1.1406528057584049 
0.2199999999999921, -1.1451086702759246 
0.229999999999991, -1.1488604107905047 
0.2399999999999899, -1.1516857542749759 
0.2499999999999888, -1.1534754643712612 
0.2599999999999877, -1.1543002094007457 
0.2699999999999866, -1.1543712440470693 
0.2799999999999855, -1.1539815055752078 
0.2899999999999844, -1.1534864562753315 
0.2999999999999833, -1.1532604045529282 
0.3099999999999822, -1.153551547785955 
0.3199999999999811, -1.1543488830276174 
0.32999999999998, -1.1554533145927777 
0.3399999999999789, -1.1566729702592267 
0.3499999999999778, -1.1579107707833178 
0.35999999999997667, -1.1591085142916588 
0.36999999999997557, -1.1601792097029757 
0.37999999999997447, -1.1610141449388967 
0.38999999999997337, -1.161533004057792 
0.39999999999997227, -1.1617151685557776 
0.40999999999997117, -1.1615910713107906 
0.41999999999997006, -1.161205503850874 
0.42999999999996896, -1.1605794983205562 
0.43999999999996786, -1.1596966668100395 
0.44999999999996676, -1.1585221990478956 
0.45999999999996566, -1.157040132974845 
0.46999999999996456, -1.1552813446888095 
0.47999999999996346, -1.1533189357383988 
0.48999999999996235, -1.1512327948211767 
0.49999999999996125, -1.1490875542384367 
0.5099999999999602, -1.1469767661889754 
0.519999999999959, -1.1450994227280824 
0.529999999999958, -1.1437313774461781 
0.5399999999999568, -1.1430256879981953 
0.5499999999999557, -1.1428353412561665 
0.5599999999999546, -1.1427825573780963 
0.5699999999999535, -1.1424536250256954 
0.5799999999999524, -1.1414917033009433 
0.5899999999999513, -1.1395988050026782 
0.5999999999999502, -1.1365706648270306 
0.6099999999999491, -1.132384790751929 
0.619999999999948, -1.127228117284895 
0.6299999999999469, -1.1213838755681587 
0.6399999999999458, -1.115071561199074 
0.6499999999999447, -1.1083719363733837 
0.6599999999999436, -1.101248399097013 
0.6699999999999425, -1.0936104125086517 
0.6799999999999414, -1.0854007778642472 
0.6899999999999403, -1.076739966816597 
0.6999999999999392, -1.0681329975111697 
0.7099999999999381, -1.060562371525098 
0.719999999999937, -1.055113184031946 
0.7299999999999359, -1.0521880976055782 
0.7399999999999348, -1.0511869561730096 
0.7499999999999337, -1.0510660216163774 
0.7599999999999326, -1.050965321240266 
0.7699999999999315, -1.0503140728089775 
0.7799999999999304, -1.0486270271417975 
0.7899999999999293, -1.0453135091577836 
0.7999999999999282, -1.0396793848345098 
0.8099999999999271, -1.0312369559384662 
0.819999999999926, -1.0201648606927933 
0.8299999999999249, -1.0073615067687025 
0.8399999999999238, -0.9938977417317396 
0.8499999999999227, -0.9804771529067555 
0.8599999999999216, -0.9673486035963867 
0.8699999999999205, -0.9545016132707748 
0.8799999999999194, -0.941890628443119 
0.8899999999999183, -0.9296154253272804 
0.8999999999999172, -0.9180552551289788 
0.9099999999999161, -0.9078955598773429 
0.919999999999915, -0.8999244138370761 
0.9299999999999139, -0.8946051413367581 
0.9399999999999128, -0.8917465425367016 
0.9499999999999117, -0.8906135288555467 
0.9599999999999106, -0.8903448472450718 
0.9699999999999095, -0.890262774886662 
0.9799999999999084, -0.8899187199356149 
0.9899999999999073, -0.8890038518572465 
0.9999999999999062, -0.887280191735479 
1.0099999999999052, -0.8846059167728993 
1.019999999999904, -0.8810320855948888 
1.029999999999903, -0.8768448351267948 
1.039999999999902, -0.872448061271399 
1.0499999999999008, -0.8681733686654596 
1.0599999999998997, -0.8641835503989735 
1.0699999999998986, -0.8604986557186299 
1.0799999999998975, -0.8570698039832582 
1.0899999999998964, -0.85384322853608 
1.0999999999998953, -0.850796735996625 
1.1099999999998942, -0.8479489360852837 
1.119999999999893, -0.8453505818631866 
1.129999999999892, -0.8430717447494385 
1.1399999999998909, -0.8411924889678296 
1.1499999999998898, -0.8397911639291179 
1.1599999999998887, -0.8389193663010435 
1.1699999999998876, -0.8385675058853781 
1.1799999999998865, -0.8386455858755895 
1.1899999999998854, -0.8390006017676512 
1.1999999999998843, -0.8394630954942027 
1.2099999999998832, -0.8398960533293011 
1.219999999999882, -0.840227408788024 
1.229999999999881, -0.8404604871686774 
1.2399999999998799, -0.8406588618286474 
1.2499999999998788, -0.8409071230059263 
1.2599999999998777, -0.8412628607976599 
1.2699999999998766, -0.8417200603289121 
1.2799999999998755, -0.842197897159835 
1.2899999999998744, -0.8425648127258227 
1.2999999999998733, -0.8426954012260177 
1.3099999999998722, -0.8425306006461761 
1.319999999999871, -0.842107838164767 
1.32999999999987, -0.8415614798294447 
1.3399999999998689, -0.8411130189703035 
1.3499999999998678, -0.8410488332578907 
1.3599999999998666, -0.8416624932363967 
1.3699999999998655, -0.8431629375829015 
1.3799999999998644, -0.8456020913900165 
1.3899999999998633, -0.8488802606157837 
1.3999999999998622, -0.8528216629077532 
1.4099999999998611, -0.8572587962099248 
1.41999999999986, -0.8620814668896808 
1.429999999999859, -0.8672507165131398 
1.4399999999998578, -0.8727946330128427 
1.4499999999998567, -0.8787906197004884 
1.4599999999998556, -0.885321090488568 
1.4699999999998545, -0.8923825090973276 
1.4799999999998534, -0.8997487765746136 
1.4899999999998523, -0.9068735614242917 
1.4999999999998512, -0.9130108752796018 
1.5099999999998501, -0.917585782318441 
1.519999999999849, -0.9204798526095166 
1.529999999999848, -0.9219533557162011 
1.5399999999998468, -0.9223907528204187 
1.5499999999998457, -0.9221599220998915 
1.5599999999998446, -0.9216595819085713 
1.5699999999998435, -0.9215065736538726 
1.5799999999998424, -0.9227463487980325 
1.5899999999998413, -0.9268024544899557 
1.5999999999998402, -0.9348629872568319 
1.6099999999998391, -0.9470320244340058 
1.619999999999838, -0.9622013341967021 
1.629999999999837, -0.9788414085233837 
1.6399999999998358, -0.9958157532157786 
1.6499999999998347, -1.012609364405416 
1.6599999999998336, -1.029131263684318 
1.6699999999998325, -1.0453975133229938 
1.6799999999998314, -1.0612128164577823 
1.6899999999998303, -1.075920491463166 
1.6999999999998292, -1.088450043170813 
1.709999999999828, -1.0978631285464069 
1.719999999999827, -1.1039815691789538 
1.729999999999826, -1.1073856397283675 
1.7399999999998248, -1.1089043223172603 
1.7499999999998237, -1.1092366885648066 
1.7599999999998226, -1.1089238814374833 
1.7699999999998215, -1.108536408646478 
1.7799999999998204, -1.1088613353315142 
1.7899999999998193, -1.110766723698417 
1.7999999999998182, -1.1146227652239615 
1.809999999999817, -1.119937561659254 
1.819999999999816, -1.12579271997453 
1.8299999999998149, -1.1314851061867484 
1.8399999999998138, -1.1367137654632298 
1.8499999999998127, -1.1414354975842325 
1.8599999999998116, -1.1457027697853523 
1.8699999999998105, -1.149582365461209 
1.8799999999998094, -1.1531168962344396 
1.8899999999998083, -1.156290714950291 
1.8999999999998072, -1.1590079005316265 
1.909999999999806, -1.1611166888380384 
1.919999999999805, -1.1624893202494944 
1.9299999999998039, -1.1631037507781654 
1.9399999999998028, -1.163065705514019 
1.9499999999998017, -1.1625835143246406 
1.9599999999998006, -1.1619382402612175 
1.9699999999997995, -1.1614282366609625 
1.9799999999997984, -1.1612522558837355 
1.9899999999997973, -1.1614200975139883 
1.9999999999997962, -1.1618179842712988 
2.0099999999998173, -1.1623525680048188 
2.0199999999998384, -1.1629944519680961 
2.0299999999998595, -1.163702568148032 
2.0399999999998806, -1.1643598332486258 
2.0499999999999017, -1.1648018581959303 
2.059999999999923, -1.1648896479903759 
2.069999999999944, -1.1645572144927387 
2.079999999999965, -1.163817842739091 
2.089999999999986, -1.1627346326446268 
2.100000000000007, -1.1613716484686691 
2.1100000000000283, -1.1597569409753083 
2.1200000000000494, -1.1578798189167738 
2.1300000000000705, -1.1557172915237106 
2.1400000000000916, -1.1532645778534643 
2.1500000000001127, -1.150544092563839 
2.160000000000134, -1.1475925814806673 
2.170000000000155, -1.1444680366295545 
2.180000000000176, -1.141320621875119 
2.190000000000197, -1.1384769780202713 
2.2000000000002182, -1.1363676366473485 
2.2100000000002393, -1.135225687452827 
2.2200000000002604, -1.1348519126211787 
2.2300000000002815, -1.1347497277687157 
2.2400000000003026, -1.1344053615564489 
2.2500000000003237, -1.133383693908272 
2.260000000000345, -1.1312777311565074 
2.270000000000366, -1.1277059934678741 
2.280000000000387, -1.1224492871271987 
2.290000000000408, -1.1156138545932035 
2.3000000000004293, -1.1075927677219104 
2.3100000000004504, -1.0988155672251732 
2.3200000000004715, -1.0895344588736686 
2.3300000000004926, -1.0797895938761897 
2.3400000000005137, -1.0694941687042836 
2.3500000000005348, -1.0585697431749206 
2.360000000000556, -1.0471395622495436 
2.370000000000577, -1.0357819031480673 
2.380000000000598, -1.02565917943495 
2.390000000000619, -1.0181237976124289 
2.4000000000006403, -1.0137996303279455 
2.4100000000006614, -1.0120965244878397 
2.4200000000006825, -1.0117844361072361 
2.4300000000007036, -1.0117974713577316 
2.4400000000007247, -1.0114640029548887 
2.450000000000746, -1.0103153650362624 
2.460000000000767, -1.007849693437921 
2.470000000000788, -1.0034401446332182 
2.480000000000809, -0.9965084391644383 
2.49000000000083, -0.9869587221159113 
2.5000000000008513, -0.9754592556612355 
2.5100000000008724, -0.9631088205054823 
2.5200000000008935, -0.9508085364250976 
2.5300000000009146, -0.9389830859791488 
2.5400000000009357, -0.9276977239050689 
2.550000000000957, -0.9168778733928213 
2.560000000000978, -0.9064776378857656 
2.570000000000999, -0.8965910933482911 
2.58000000000102, -0.887516667155731 
2.5900000000010412, -0.8797361937825151 
2.6000000000010624, -0.8737478484764457 
2.6100000000010835, -0.869789865085564 
2.6200000000011046, -0.8676594133771877 
2.6300000000011257, -0.866803798564276 
2.6400000000011468, -0.866586827502444 
2.650000000001168, -0.8664890938968288 
2.660000000001189, -0.8661491465747302 
2.67000000000121, -0.8653219047860995 
2.680000000001231, -0.8638544564131433 
2.6900000000012523, -0.8617170075934801 
2.7000000000012734, -0.8590433188397457 
2.7100000000012945, -0.8560950887645215 
2.7200000000013156, -0.8531427710380886 
2.7300000000013367, -0.8503594602406318 
2.740000000001358, -0.8477973132333222 
2.750000000001379, -0.8454262583309908 
2.7600000000014, -0.8431894666951167 
2.770000000001421, -0.8410495122853952 
2.780000000001442, -0.8390133242030815 
2.7900000000014633, -0.8371318368845406 
2.8000000000014844, -0.8354802383828174 
2.8100000000015055, -0.8341331695341155 
2.8200000000015266, -0.8331489499052254 
2.8300000000015477, -0.832565600680964 
2.840000000001569, -0.832398650163339 
2.85000000000159, -0.8326317468964021 
2.860000000001611, -0.8332061264324336 
2.870000000001632, -0.8340247682527385 
2.8800000000016532, -0.8349777155922705 
2.8900000000016743, -0.8359776312417523 
2.9000000000016954, -0.8369877771636401 
2.9100000000017165, -0.838029083254024 
2.9200000000017377, -0.8391612492473319 
2.9300000000017588, -0.8404430973821231 
2.94000000000178, -0.8418853799672676 
2.950000000001801, -0.8434126312352364 
2.960000000001822, -0.8448579112204946 
2.970000000001843, -0.8460141185965389 
2.9800000000018643, -0.8467248858815053 
2.9900000000018854, -0.8469502661254567 
3.0000000000019065, -0.8467718390740269 
3.0100000000019276, -0.8463733840481396 
3.0200000000019487, -0.8460416141502376 
3.03000000000197, -0.8461772473683329 
3.040000000001991, -0.847256812714761 
3.050000000002012, -0.8496998950941569 
3.060000000002033, -0.8536976048218765 
3.070000000002054, -0.859143511318704 
3.0800000000020753, -0.8657327723145055 
3.0900000000020964, -0.8731379086534587 
3.1000000000021175, -0.8811356273610924 
3.1100000000021386, -0.8896459068055806 
3.1200000000021597, -0.8987107311830955 
3.130000000002181, -0.9084352865014613 
3.140000000002202, -0.9188794503191291 
3.150000000002223, -0.9298741446726788 
3.160000000002244, -0.9408117611305558 
3.1700000000022652, -0.9506492472119025 
3.1800000000022863, -0.958366609023115 
3.1900000000023074, -0.9635629491606842 
3.2000000000023285, -0.9665359873682684 
3.2100000000023496, -0.9678801790020553 
3.2200000000023707, -0.9681416322729328 
3.230000000002392, -0.9677579542066586 
3.240000000002413, -0.9672173777565213 
3.250000000002434, -0.9673420591797681 
3.260000000002455, -0.9694964155187329 
3.2700000000024763, -0.9752682784306212 
3.2800000000024974, -0.9854437931101527 
3.2900000000025185, -0.9992535518871692 
3.3000000000025396, -1.014939896030538 
3.3100000000025607, -1.0309359181981645 
3.3200000000025818, -1.046427538007547 
3.330000000002603, -1.0612163376881596 
3.340000000002624, -1.0753676872319113 
3.350000000002645, -1.0888994156138827 
3.360000000002666, -1.1015474480953538 
3.3700000000026873, -1.112681316431316 
3.3800000000027084, -1.121537496472545 
3.3900000000027295, -1.127707851144008 
3.4000000000027506, -1.1313991822452827 
3.4100000000027717, -1.1332067923532376 
3.420000000002793, -1.1337577006152446 
3.430000000002814, -1.133577020205245 
3.440000000002835, -1.1331812660715737 
3.450000000002856, -1.1332161647566656 
3.460000000002877, -1.1343665407532098 
3.4700000000028983, -1.1369384936947786 
3.4800000000029194, -1.140593672055926 
3.4900000000029405, -1.1446678586598638 
3.5000000000029616, -1.1486459938001972 
3.5100000000029827, -1.1523009426297273 
3.520000000003004, -1.1555824251549018 
3.530000000003025, -1.158500352640563 
3.540000000003046, -1.1610811450031724 
3.550000000003067, -1.1633566191109157 
3.5600000000030882, -1.1653435185994907 
3.5700000000031094, -1.1670148916624885 
3.5800000000031305, -1.168291074734236 
3.5900000000031516, -1.1690722379430742 
3.6000000000031727, -1.169299761202861 
3.6100000000031938, -1.1690038200356956 
3.620000000003215, -1.1683127716992636 
3.630000000003236, -1.167431237124767 
3.640000000003257, -1.1665817657049549 
3.650000000003278, -1.1659113266990107 
3.6600000000032993, -1.1654420885602852 
3.6700000000033204, -1.165139915551273 
3.6800000000033415, -1.165015322440755 
3.6900000000033626, -1.165114353966783 
3.7000000000033837, -1.1654087527756718 
3.710000000003405, -1.1657361314958747 
3.720000000003426, -1.1658617345324855 
3.730000000003447, -1.16557446621931 
3.740000000003468, -1.1647426176267885 
3.750000000003489, -1.1633358358424664 
3.7600000000035103, -1.161417232739156 
3.7700000000035314, -1.1590946846508037 
3.7800000000035525, -1.156456020816682 
3.7900000000035736, -1.1535338492669538 
3.8000000000035947, -1.1503139370492905 
3.810000000003616, -1.146764470038591 
3.820000000003637, -1.1428582171941017 
3.830000000003658, -1.1385867034604975 
3.840000000003679, -1.1340067297510987 
3.8500000000037002, -1.1293550482330172 
3.8600000000037213, -1.1251499832135676 
3.8700000000037424, -1.1220453406489679 
3.8800000000037635, -1.1203666621878199 
3.8900000000037847, -1.1198093674477225 
3.9000000000038058, -1.1196992556646526 
3.910000000003827, -1.1193996632667793 
3.920000000003848, -1.1184066325352466 
3.930000000003869, -1.1162246371213425 
3.94000000000389, -1.112284355743421 
3.9500000000039113, -1.106071462263954 
3.9600000000039324, -1.0974481151777697 
3.9700000000039535, -1.0868363747851297 
3.9800000000039746, -1.0749627317097707 
3.9900000000039957, -1.0624172650913652 
4.000000000004016, -1.049453486882708 
4.010000000003993, -1.0360668501540278 
4.02000000000397, -1.022189870403983 
4.030000000003946, -1.0079329363051206 
4.040000000003923, -0.9938572913209487 
4.0500000000039, -0.9811312678921329 
4.0600000000038765, -0.9712145394209035 
4.070000000003853, -0.9649790498399498 
4.08000000000383, -0.9620539122505457 
4.090000000003807, -0.9611943689734733 
4.100000000003783, -0.9611466346956072 
4.11000000000376, -0.9610754277035939 
4.120000000003737, -0.9604769617329703 
4.130000000003713, -0.9589462247433425 
4.14000000000369, -0.9560304163791491 
4.150000000003667, -0.9512701092343512 
4.1600000000036434, -0.9444640538062877 
4.17000000000362, -0.9359607306183932 
4.180000000003597, -0.9265776327656736 
4.1900000000035735, -0.9171424900206574 
4.20000000000355, -0.9081426704873816 
4.210000000003527, -0.8997182971027875 
4.220000000003504, -0.8918223527947745 
4.23000000000348, -0.8843652710269092 
4.240000000003457, -0.8773008535993482 
4.250000000003434, -0.8706725667641365 
4.26000000000341, -0.864635805795292 
4.270000000003387, -0.8594446824626163 
4.280000000003364, -0.8553748179054026 
4.2900000000033405, -0.8525862578286597 
4.300000000003317, -0.851007156742033 
4.310000000003294, -0.8503385577693139 
4.320000000003271, -0.8501768357905005 
4.330000000003247, -0.8501462816903306 
4.340000000003224, -0.8499626059353034 
4.350000000003201, -0.8494406599597362 
4.360000000003177, -0.8484963325173107 
4.370000000003154, -0.8471593566183581 
4.380000000003131, -0.8455651877445639 
4.390000000003107, -0.843896373952615 
4.400000000003084, -0.8423016101393094 
4.410000000003061, -0.8408473285773678 
4.4200000000030375, -0.8395190374913435 
4.430000000003014, -0.8382549149673053 
4.440000000002991, -0.8369916005497867 
4.450000000002968, -0.8357053977155576 
4.460000000002944, -0.8344338897485415 
4.470000000002921, -0.8332714275048423 
4.480000000002898, -0.8323419785740537 
4.490000000002874, -0.8317602295179978 
4.500000000002851, -0.8315988466994326 
4.510000000002828, -0.8318782181396361 
4.520000000002804, -0.8325780475367921 
4.530000000002781, -0.8336541163037718 
4.540000000002758, -0.835047415256503 
4.5500000000027345, -0.8366892688608119 
4.560000000002711, -0.8385132410619965 
4.570000000002688, -0.8404756692027018 
4.580000000002665, -0.8425739636632736 
4.590000000002641, -0.8448481332779586 
4.600000000002618, -0.847357319509068 
4.610000000002595, -0.8501323161442711 
4.620000000002571, -0.8531136612022774 
4.630000000002548, -0.8561037327775212 
4.640000000002525, -0.8587890138586032 
4.6500000000025015, -0.860862673851892 
4.660000000002478, -0.8621664055757842 
4.670000000002455, -0.8627302224207976 
4.6800000000024315, -0.862715824416892 
4.690000000002408, -0.8623691258993084 
4.700000000002385, -0.8620455523751858 
4.710000000002362, -0.8622826358667407 
4.720000000002338, -0.8638170545871962 
4.730000000002315, -0.8674169179202114 
4.740000000002292, -0.8735408575920394 
4.750000000002268, -0.8820915532888403 
4.760000000002245, -0.8925193204396228 
4.770000000002222, -0.9041706179481277 
4.7800000000021985, -0.9165764941844362 
4.790000000002175, -0.9295397939483123 
4.800000000002152, -0.9430710058662163 
4.810000000002129, -0.9572410582044248 
4.820000000002105, -0.9719565537767931 
4.830000000002082, -0.9866705747248681 
4.840000000002059, -1.000232881237661 
4.850000000002035, -1.0112703684199746 
4.860000000002012, -1.0190119053001865 
4.870000000001989, -1.0236742501492322 
4.880000000001965, -1.0260398950895653 
4.890000000001942, -1.0268931080889547 
4.900000000001919, -1.026814860671777 
4.9100000000018955, -1.026292097295954 
4.920000000001872, -1.0259897557058228 
4.930000000001849, -1.0270113965664773 
