t, s[1].omega / s[0].omega 
0, -0.699949947291127 
0.009999999999999995, -0.6953560552100628 
0.019999999999999934, -0.6915109181050907 
0.029999999999999874, -0.6882704818322554 
0.04000000000000012, -0.6854913622692015 
0.050000000000000405, -0.6830729317934854 
0.06000000000000069, -0.6809719773995307 
0.07000000000000098, -0.6791983611236805 
0.08000000000000126, -0.6777980524474715 
0.09000000000000155, -0.6768310729866143 
0.10000000000000184, -0.6763515194185621 
0.11000000000000212, -0.676394469831793 
0.12000000000000241, -0.6769711745827605 
0.130000000000002, -0.6780712416406064 
0.1400000000000009, -0.6796701627413386 
0.1499999999999998, -0.6817418361445657 
0.1599999999999987, -0.6842762468396756 
0.1699999999999976, -0.6873006411913067 
0.1799999999999965, -0.6908992569738355 
0.1899999999999954, -0.6952238111788539 
0.1999999999999943, -0.7004835691083433 
0.2099999999999932, -0.7068931870490093 
0.2199999999999921, -0.7145381093969221 
0.229999999999991, -0.7231392555260083 
0.2399999999999899, -0.7318653341995647 
0.2499999999999888, -0.7395440191900823 
0.2599999999999877, -0.7453015968511197 
0.2699999999999866, -0.748978294956584 
0.2799999999999855, -0.7509281573349144 
0.2899999999999844, -0.751609268831282 
0.2999999999999833, -0.7513640039768509 
0.3099999999999822, -0.7504135841821082 
0.3199999999999811, -0.7490148938298813 
0.32999999999998, -0.7479030999683489 
0.3399999999999789, -0.7495113987206518 
0.3499999999999778, -0.7611296141381414 
0.35999999999997667, -0.8015486223765709 
0.36999999999997557, -0.9065651163753925 
0.37999999999997447, -1.0983727210519343 
0.38999999999997337, -1.3118655653269102 
0.39999999999997227, -1.4641953336851141 
0.40999999999997117, -1.5534355000672955 
0.41999999999997006, -1.6045193175447559 
0.42999999999996896, -1.633982324777459 
0.43999999999996786, -1.6505505890115608 
0.44999999999996676, -1.6592724757814388 
0.45999999999996566, -1.6633827238689576 
0.46999999999996456, -1.6649038426704585 
0.47999999999996346, -1.665020069469561 
0.48999999999996235, -1.6644770576092351 
0.49999999999996125, -1.6638058337928698 
0.5099999999999602, -1.6631872578760114 
0.519999999999959, -1.6624420820092982 
0.529999999999958, -1.6615393675976957 
0.5399999999999568, -1.6608611233866468 
0.5499999999999557, -1.6606324062142181 
0.5599999999999546, -1.6604081350452944 
0.5699999999999535, -1.6593701411321766 
0.5799999999999524, -1.656353541734197 
0.5899999999999513, -1.6489450507392456 
0.5999999999999502, -1.6315411436534384 
0.6099999999999491, -1.5920760236769502 
0.619999999999948, -1.5084447148599345 
0.6299999999999469, -1.350232876539819 
0.6399999999999458, -1.1023916411054127 
0.6499999999999447, -0.8177941734771317 
0.6599999999999436, -0.5945091367295541 
0.6699999999999425, -0.46286523437384497 
0.6799999999999414, -0.3940096126886147 
0.6899999999999403, -0.3585395511622799 
0.6999999999999392, -0.3398731116630214 
0.7099999999999381, -0.32980674877651517 
0.719999999999937, -0.3243075938037042 
0.7299999999999359, -0.3213331530902762 
0.7399999999999348, -0.3198120319800205 
0.7499999999999337, -0.31916769948616835 
0.7599999999999326, -0.3190911163552462 
0.7699999999999315, -0.3194317914247169 
0.7799999999999304, -0.3201492639842831 
0.7899999999999293, -0.3212983750568423 
0.7999999999999282, -0.3230362250763742 
0.8099999999999271, -0.32564911454583095 
0.819999999999926, -0.3296100792642772 
0.8299999999999249, -0.3356875765977073 
0.8399999999999238, -0.34510815441726866 
0.8499999999999227, -0.3596478778821971 
0.8599999999999216, -0.3811192738953454 
0.8699999999999205, -0.4093170229852448 
0.8799999999999194, -0.43948016662680567 
0.8899999999999183, -0.46450603919061395 
0.8999999999999172, -0.48107692775211264 
0.9099999999999161, -0.4905290638276246 
0.919999999999915, -0.4954413060125106 
0.9299999999999139, -0.4976783296677169 
0.9399999999999128, -0.498201256634891 
0.9499999999999117, -0.4972981296913422 
0.9599999999999106, -0.4946698535706579 
0.9699999999999095, -0.4892208870897721 
0.9799999999999084, -0.47844058131142503 
0.9899999999999073, -0.45754702165279315 
0.9999999999999062, -0.42050268602861507 
1.0099999999999052, -0.36767051218555424 
1.019999999999904, -0.3131306491261729 
1.029999999999903, -0.2716743994497261 
1.039999999999902, -0.24545102147307105 
1.0499999999999008, -0.22984708502121087 
1.0599999999998997, -0.22049380727837753 
1.0699999999998986, -0.21470698946452665 
1.0799999999998975, -0.21100022580014718 
1.0899999999998964, -0.20854864273873558 
1.0999999999998953, -0.20687851497553073 
1.1099999999998942, -0.20571504675758376 
1.119999999999893, -0.20491356549858283 
1.129999999999892, -0.2044326837506724 
1.1399999999998909, -0.2043363302428895 
1.1499999999998898, -0.20483455772720047 
1.1599999999998887, -0.2064029763534787 
1.1699999999998876, -0.21009286343115022 
1.1799999999998865, -0.21836951725153675 
1.1899999999998854, -0.23761928782039154 
1.1999999999998843, -0.28670262172447547 
1.2099999999998832, -0.42956505969169384 
1.219999999999882, -0.8667717793153542 
1.229999999999881, -1.6051596683130054 
1.2399999999998799, -1.9647676939892225 
1.2499999999998788, -2.069658774050761 
1.2599999999998777, -2.105738542414822 
1.2699999999998766, -2.120331511479989 
1.2799999999998755, -2.126472208926807 
1.2899999999998744, -2.128720335804757 
1.2999999999998733, -2.1289471135907823 
1.3099999999998722, -2.127977898035334 
1.319999999999871, -2.126078581725949 
1.32999999999987, -2.1228469617526113 
1.3399999999998689, -2.1177243007336704 
1.3499999999998678, -2.11271330694872 
1.3599999999998666, -2.111503742083438 
1.3699999999998655, -2.1121395394329823 
1.3799999999998644, -2.1115186588716375 
1.3899999999998633, -2.107266819607038 
1.3999999999998622, -2.090656541553997 
1.4099999999998611, -2.043261411629641 
1.41999999999986, -2.1721959424449553 
1.429999999999859, -2.4130071759912504 
1.4399999999998578, -2.4775727713108973 
1.4499999999998567, -2.495016197926803 
1.4599999999998556, -2.501151789306303 
1.4699999999998545, -2.5032897236575593 
1.4799999999998534, -2.5033068715164024 
1.4899999999998523, -2.5015478217978186 
1.4999999999998512, -2.4972396112496607 
1.5099999999998501, -2.4867573060969286 
1.519999999999849, -2.457474217823056 
1.529999999999848, -2.4067895497313696 
1.5399999999998468, -2.4045553436499434 
1.5499999999998457, -2.4141342906429437 
1.5599999999998446, -2.4165109227307364 
1.5699999999998435, -2.415637333054584 
1.5799999999998424, -2.4138966716894323 
1.5899999999998413, -2.4167144515965253 
1.5999999999998402, -2.4227448416760398 
1.6099999999998391, -2.426331351042964 
1.619999999999838, -2.4277900528095078 
1.629999999999837, -2.4280667132079516 
1.6399999999998358, -2.4268988651878343 
1.6499999999998347, -2.4227439462303955 
1.6599999999998336, -2.41048846815801 
1.6699999999998325, -2.3696801341010394 
1.6799999999998314, -2.1850695095689887 
1.6899999999998303, -1.1540419367022263 
1.6999999999998292, 0.09591850889590238 
1.709999999999828, 0.34614237975045803 
1.719999999999827, 0.3991760077478361 
1.729999999999826, 0.41559006692946265 
1.7399999999998248, 0.4218955556390419 
1.7499999999998237, 0.4244766513870756 
1.7599999999998226, 0.42531451721403224 
1.7699999999998215, 0.4250771823305633 
1.7799999999998204, 0.4238874181912797 
1.7899999999998193, 0.42149069544824114 
1.7999999999998182, 0.4172208358927221 
1.809999999999817, 0.41031434488372726 
1.819999999999816, 0.40489364033370645 
1.8299999999998149, 0.4436322036879507 
1.8399999999998138, 0.6225799591202109 
1.8499999999998127, 0.783322890971608 
1.8599999999998116, 0.835728177141957 
1.8699999999998105, 0.8507708646797806 
1.8799999999998094, 0.8555363735496078 
1.8899999999998083, 0.8566950850424652 
1.8999999999998072, 0.8557583510946986 
1.909999999999806, 0.8522526938540791 
1.919999999999805, 0.8434851450312577 
1.9299999999998039, 0.8226055861678707 
1.9399999999998028, 0.7815722469804766 
1.9499999999998017, 0.736302897568378 
1.9599999999998006, 0.7161500155559621 
1.9699999999997995, 0.7138604621996651 
1.9799999999997984, 0.7156537219627208 
1.9899999999997973, 0.7172370260142399 
1.9999999999997962, 0.717943208937694 
2.0099999999998173, 0.7176658126807689 
2.0199999999998384, 0.7160136236009834 
2.0299999999998595, 0.7115709849276121 
2.0399999999998806, 0.6991532154448559 
2.0499999999999017, 0.6533133911913308 
2.059999999999923, 0.3582823376836171 
2.069999999999944, -1.8219758624953237 
2.079999999999965, -2.802283467562794 
2.089999999999986, -2.881738083379732 
2.100000000000007, -2.896526905663456 
2.1100000000000283, -2.9003187858560056 
2.1200000000000494, -2.9005926884693722 
2.1300000000000705, -2.898677431103553 
2.1400000000000916, -2.8931608711014873 
2.1500000000001127, -2.8753304703825124 
2.160000000000134, -2.835844177297313 
2.170000000000155, -2.8373239064417612 
2.180000000000176, -2.8449001358482984 
2.190000000000197, -2.8457333667577203 
2.2000000000002182, -2.84435848535747 
2.2100000000002393, -2.845226261148684 
2.2200000000002604, -2.8483634246698557 
2.2300000000002815, -2.849760300198859 
2.2400000000003026, -2.849990607635676 
2.2500000000003237, -2.849228189308906 
2.260000000000345, -2.845023657621216 
2.270000000000366, -2.821820118102797 
2.280000000000387, -2.5375392350708323 
2.290000000000408, 0.6892482553964181 
2.3000000000004293, 1.2273773176281584 
2.3100000000004504, 1.2627771833187988 
2.3200000000004715, 1.2691986470536578 
2.3300000000004926, 1.2704206282984116 
2.3400000000005137, 1.2694810772487803 
2.3500000000005348, 1.2661590239222547 
2.360000000000556, 1.258499040446665 
2.370000000000577, 1.2441743532576284 
2.380000000000598, 1.2278443071939136 
2.390000000000619, 1.220423650471155 
2.4000000000006403, 1.2204979394478237 
2.4100000000006614, 1.2218758706464343 
2.4200000000006825, 1.2223718886965333 
2.4300000000007036, 1.2213426969917685 
2.4400000000007247, 1.2171895967743027 
2.450000000000746, 1.2025609423291168 
2.460000000000767, 1.136703302195625 
2.470000000000788, 1.0586399352506413 
2.480000000000809, 1.693154545923694 
2.49000000000083, 1.7870379800869454 
2.5000000000008513, 1.797637475885523 
2.5100000000008724, 1.7991072045942207 
2.5200000000008935, 1.7970549148409831 
2.5300000000009146, 1.7854616721068752 
2.5400000000009357, 1.66612045086037 
2.550000000000957, 0.09450021160007034 
2.560000000000978, -0.5095977006270964 
2.570000000000999, -0.5850570105815909 
2.58000000000102, -0.6107412130081135 
2.5900000000010412, -0.6232422707983417 
2.6000000000010624, -0.6298884674494887 
2.6100000000010835, -0.6334559719582196 
2.6200000000011046, -0.6352191934207497 
2.6300000000011257, -0.6357481880320818 
2.6400000000011468, -0.6352010361009951 
2.650000000001168, -0.6334228046751211 
2.660000000001189, -0.6299755416591386 
2.67000000000121, -0.6242438620043439 
2.680000000001231, -0.615819816140212 
2.6900000000012523, -0.605135361048999 
2.7000000000012734, -0.593643397354753 
2.7100000000012945, -0.5830023476413818 
2.7200000000013156, -0.5741459056364747 
2.7300000000013367, -0.5671853393033983 
2.740000000001358, -0.5618160267953811 
2.750000000001379, -0.5576516115349059 
2.7600000000014, -0.5543639997634788 
2.770000000001421, -0.5517171718875398 
2.780000000001442, -0.549565829386708 
2.7900000000014633, -0.5478442071319481 
2.8000000000014844, -0.5465507402801099 
2.8100000000015055, -0.5457311140199315 
2.8200000000015266, -0.5454621820945017 
2.8300000000015477, -0.5458386435971876 
2.840000000001569, -0.5469641172044282 
2.85000000000159, -0.5489485916530541 
2.860000000001611, -0.5519145615709716 
2.870000000001632, -0.5560143093837409 
2.8800000000016532, -0.5614612386839568 
2.8900000000016743, -0.5685794908728646 
2.9000000000016954, -0.5778784189743722 
2.9100000000017165, -0.5901595970217411 
2.9200000000017377, -0.6066501091070641 
2.9300000000017588, -0.6290730271215985 
2.94000000000178, -0.6592818375096582 
2.950000000001801, -0.6976065054779481 
2.960000000001822, -0.7398395908928518 
2.970000000001843, -0.7772137921136453 
2.9800000000018643, -0.8032159472141002 
2.9900000000018854, -0.8181734397586109 
3.0000000000019065, -0.8258106638966562 
3.0100000000019276, -0.8293390242670531 
3.0200000000019487, -0.8305778728533628 
3.03000000000197, -0.8303329393736852 
3.040000000001991, -0.8287849336900315 
3.050000000002012, -0.8256848115081616 
3.060000000002033, -0.8205556942305192 
3.070000000002054, -0.8137868188932554 
3.0800000000020753, -0.812928433232131 
3.0900000000020964, -0.8664090497849302 
3.1000000000021175, -1.2142899598930077 
3.1100000000021386, -1.9858476032664858 
3.1200000000021597, -2.2796196618258904 
3.130000000002181, -2.3439358407718762 
3.140000000002202, -2.363479082304126 
3.150000000002223, -2.3708515052300045 
3.160000000002244, -2.3735690562898886 
3.1700000000022652, -2.3739478043494247 
3.1800000000022863, -2.3727441664241713 
3.1900000000023074, -2.369862868360492 
3.2000000000023285, -2.3638274606542535 
3.2100000000023496, -2.351319158148796 
3.2200000000023707, -2.336656113900182 
3.230000000002392, -2.335606572923855 
3.240000000002413, -2.338627868135585 
3.250000000002434, -2.338938417958322 
3.260000000002455, -2.336183536698525 
3.2700000000024763, -2.3311137035644363 
3.2800000000024974, -2.339266177456386 
3.2900000000025185, -2.3596807800494024 
3.3000000000025396, -2.3711074565291073 
3.3100000000025607, -2.3758041763719784 
3.3200000000025818, -2.377632588940183 
3.330000000002603, -2.377786751019534 
3.340000000002624, -2.3762651147657157 
3.350000000002645, -2.372225720252604 
3.360000000002666, -2.363043645447922 
3.3700000000026873, -2.339603614444635 
3.3800000000027084, -2.259870008186681 
3.3900000000027295, -1.9331281132273865 
3.4000000000027506, -1.5111883015204457 
3.4100000000027717, -1.493329093460523 
3.420000000002793, -1.5287117191058284 
3.430000000002814, -1.5433545435889484 
3.440000000002835, -1.5481981598064265 
3.450000000002856, -1.5491829826441017 
3.460000000002877, -1.5479398688378012 
3.4700000000028983, -1.544560870468929 
3.4800000000029194, -1.5406790162467652 
3.4900000000029405, -1.5475438365690368 
3.5000000000029616, -1.5791598289251594 
3.5100000000029827, -1.6190831520640288 
3.520000000003004, -1.6477775521219347 
3.530000000003025, -1.6651669535246736 
3.540000000003046, -1.6758000258711234 
3.550000000003067, -1.682598229687303 
3.5600000000030882, -1.6870081447878242 
3.5700000000031094, -1.6897286194418555 
3.5800000000031305, -1.6911233420979286 
3.5900000000031516, -1.691417715812419 
3.6000000000031727, -1.690786197029039 
3.6100000000031938, -1.6893760819625119 
3.620000000003215, -1.6872551759895127 
3.630000000003236, -1.6842866753184027 
3.640000000003257, -1.680240726680801 
3.650000000003278, -1.6755857269651486 
3.6600000000032993, -1.6721549696923035 
3.6700000000033204, -1.671162471470793 
3.6800000000033415, -1.6713217591965666 
3.6900000000033626, -1.670899919395067 
3.7000000000033837, -1.668470439528112 
3.710000000003405, -1.6605981623385833 
3.720000000003426, -1.6330734844953487 
3.730000000003447, -1.5102344804233934 
3.740000000003468, -0.8720753139242501 
3.750000000003489, 0.24772987153000514 
3.7600000000035103, 0.5346855695400523 
3.7700000000035314, 0.5870860990331379 
3.7800000000035525, 0.6012063522531413 
3.7900000000035736, 0.6060099425196657 
3.8000000000035947, 0.6076121782760094 
3.810000000003616, 0.6077195870413596 
3.820000000003637, 0.6068914295713761 
3.830000000003658, 0.6053646926365192 
3.840000000003679, 0.6033545034659337 
3.8500000000037002, 0.6011699197261315 
3.8600000000037213, 0.5991810692644138 
3.8700000000037424, 0.5976884184084457 
3.8800000000037635, 0.5968169352193933 
3.8900000000037847, 0.596508604097008 
3.9000000000038058, 0.5965813299859726 
3.910000000003827, 0.5967959471449039 
3.920000000003848, 0.5968997269841231 
3.930000000003869, 0.596624655128448 
3.94000000000389, 0.595600770261325 
3.9500000000039113, 0.5930687712252453 
3.9600000000039324, 0.5869128464996586 
3.9700000000039535, 0.5694721100126368 
3.9800000000039746, 0.5011426366979721 
3.9900000000039957, 0.0516162853122339 
4.000000000004016, -1.6232197146751275 
4.010000000003993, -2.1443452174257684 
4.02000000000397, -2.2124515802022042 
4.030000000003946, -2.2256686526177005 
4.040000000003923, -2.2286528614581567 
4.0500000000039, -2.2288596290876272 
4.0600000000038765, -2.2283368306358735 
4.070000000003853, -2.227890384975127 
4.08000000000383, -2.227177017647695 
4.090000000003807, -2.225973489862981 
4.100000000003783, -2.225186505199959 
4.11000000000376, -2.224961757291226 
4.120000000003737, -2.223819429165574 
4.130000000003713, -2.218793108790675 
4.14000000000369, -2.1958366640801414 
4.150000000003667, -2.0264392699317324 
4.1600000000036434, -0.186730804731109 
4.17000000000362, 1.373299497699739 
4.180000000003597, 1.454290111640903 
4.1900000000035735, 1.464633604333821 
4.20000000000355, 1.4664760022786583 
4.210000000003527, 1.4653720319717765 
4.220000000003504, 1.4601513948990728 
4.23000000000348, 1.440967073784758 
4.240000000003457, 1.371443117671151 
4.250000000003434, 1.2911443140477896 
4.26000000000341, 1.300702357058593 
4.270000000003387, 1.3131003092856404 
4.280000000003364, 1.3175186517364328 
4.2900000000033405, 1.3184273615876678 
4.300000000003317, 1.3172134655588468 
4.310000000003294, 1.3134833629095075 
4.320000000003271, 1.3069708844064505 
4.330000000003247, 1.310615934144207 
4.340000000003224, 1.3486257817809848 
4.350000000003201, 1.3815364801389642 
4.360000000003177, 1.3939798185671513 
4.370000000003154, 1.3978126905332289 
4.380000000003131, 1.398308739013304 
4.390000000003107, 1.396159732932086 
4.400000000003084, 1.3868052932788153 
4.410000000003061, 1.3242810730059622 
4.4200000000030375, -0.08593910024253733 
4.430000000003014, -2.5237849278021938 
4.440000000002991, -2.658085906359011 
4.450000000002968, -2.672432227057838 
4.460000000002944, -2.674661646175768 
4.470000000002921, -2.674401129573272 
4.480000000002898, -2.6736350392431807 
4.490000000002874, -2.672304694976578 
4.500000000002851, -2.66997625241846 
4.510000000002828, -2.6686950777051566 
4.520000000002804, -2.668675176695072 
4.530000000002781, -2.6668677571433332 
4.540000000002758, -2.656832141612418 
4.5500000000027345, -2.614384167697347 
4.560000000002711, -2.7129250309668054 
4.570000000002688, -2.829198298891258 
4.580000000002665, -2.852844265791437 
4.590000000002641, -2.8588910991946728 
4.600000000002618, -2.8604165577560647 
4.610000000002595, -2.859625143109292 
4.620000000002571, -2.856102889851636 
4.630000000002548, -2.8457301606890786 
4.640000000002525, -2.8029271912379965 
4.6500000000025015, -2.5415795372734378 
4.660000000002478, -2.3493776295952995 
4.670000000002455, -2.4251882632936033 
4.6800000000024315, -2.440721774419424 
4.690000000002408, -2.443274842093863 
4.700000000002385, -2.4428801258097574 
4.710000000002362, -2.442487681147725 
4.720000000002338, -2.44387283128001 
4.730000000002315, -2.4453194287319735 
4.740000000002292, -2.4457864823177156 
4.750000000002268, -2.4458280047890613 
4.760000000002245, -2.445182935481367 
4.770000000002222, -2.44210231744054 
4.7800000000021985, -2.4298532805645623 
4.790000000002175, -2.3646734195796517 
4.800000000002152, -1.7605479964616642 
4.810000000002129, 0.23643579457864655 
4.820000000002105, 0.6253765122896435 
4.830000000002082, 0.6784537171131003 
4.840000000002059, 0.6914916868658438 
4.850000000002035, 0.6957459715549336 
4.860000000002012, 0.6971476572395188 
4.870000000001989, 0.6973253106186462 
4.880000000001965, 0.6968669366831353 
4.890000000001942, 0.6960772420060611 
4.900000000001919, 0.6952036866532619 
4.9100000000018955, 0.6944897252814726 
4.920000000001872, 0.6941418134559862 
4.930000000001849, 0.6942621826072021 
4.940000000001826, 0.6948017509106601 
4.950000000001802, 0.6955724276170309 
4.960000000001779, 0.6963166697855059 
