t, s[1].omega / s[0].omega 
0, -1.0201276057828415 
0.009999999999999995, -1.0326526799717926 
0.019999999999999934, -1.0441252978051314 
0.029999999999999874, -1.0535615410343864 
0.04000000000000012, -1.0603234948472378 
0.050000000000000405, -1.064485068886153 
0.06000000000000069, -1.0666192723551018 
0.07000000000000098, -1.0673766809349228 
0.08000000000000126, -1.0672911265139462 
0.09000000000000155, -1.0668527509303867 
0.10000000000000184, -1.0667065115772334 
0.11000000000000212, -1.0677430081347135 
0.12000000000000241, -1.0707729467681169 
0.130000000000002, -1.0759066315052093 
0.1400000000000009, -1.0824239666783724 
0.1499999999999998, -1.0893649916526127 
0.1599999999999987, -1.09608371881396 
0.1699999999999976, -1.1023314568375149 
0.1799999999999965, -1.1080945113384448 
0.1899999999999954, -1.113443003862771 
0.1999999999999943, -1.1184453032459483 
0.2099999999999932, -1.1231114033451137 
0.2199999999999921, -1.1273471739585375 
0.229999999999991, -1.1309506565553178 
0.2399999999999899, -1.1336923091491775 
0.2499999999999888, -1.1354469714977882 
0.2599999999999877, -1.136266077486383 
0.2699999999999866, -1.136345122305857 
0.2799999999999855, -1.1359661128127505 
0.2899999999999844, -1.1354776603457044 
0.2999999999999833, -1.1352565584729608 
0.3099999999999822, -1.135570062847347 
0.3199999999999811, -1.1364320255301426 
0.32999999999998, -1.1376490572066733 
0.3399999999999789, -1.1390108770559157 
0.3499999999999778, -1.1403980468781458 
0.35999999999997667, -1.141745022039522 
0.36999999999997557, -1.1429732427752044 
0.37999999999997447, -1.14398687018322 
0.38999999999997337, -1.1447144197306092 
0.39999999999997227, -1.1451383209091397 
0.40999999999997117, -1.1452870060999745 
0.41999999999997006, -1.1451994454693597 
0.42999999999996896, -1.1448884645821953 
0.43999999999996786, -1.1443283202884262 
0.44999999999996676, -1.1434753391074386 
0.45999999999996566, -1.1423080840868642 
0.46999999999996456, -1.1408596747337234 
0.47999999999996346, -1.1392182237542778 
0.48999999999996235, -1.1374898188381963 
0.49999999999996125, -1.135754602578558 
0.5099999999999602, -1.1340750320120836 
0.519999999999959, -1.1325634902357222 
0.529999999999958, -1.1314097738864137 
0.5399999999999568, -1.1307697675289883 
0.5499999999999557, -1.1305969739514121 
0.5599999999999546, -1.130621646176015 
0.5699999999999535, -1.1304898281514315 
0.5799999999999524, -1.1298835689334596 
0.5899999999999513, -1.128558152325134 
0.5999999999999502, -1.126369224306926 
0.6099999999999491, -1.1233197818262588 
0.619999999999948, -1.1195615680136843 
0.6299999999999469, -1.1153065539005476 
0.6399999999999458, -1.1107154056484274 
0.6499999999999447, -1.105849009852685 
0.6599999999999436, -1.1006878204322352 
0.6699999999999425, -1.095176135644897 
0.6799999999999414, -1.0892679515287302 
0.6899999999999403, -1.0829940942237446 
0.6999999999999392, -1.076582919133106 
0.7099999999999381, -1.0705854890382112 
0.719999999999937, -1.0657949882857847 
0.7299999999999359, -1.062793103605044 
0.7399999999999348, -1.0614773224836511 
0.7499999999999337, -1.0611610913047227 
0.7599999999999326, -1.0610718198245155 
0.7699999999999315, -1.0606257601964582 
0.7799999999999304, -1.059367070926846 
0.7899999999999293, -1.0568235923000135 
0.7999999999999282, -1.0524881564470683 
0.8099999999999271, -1.0460200655489187 
0.819999999999926, -1.037544208696333 
0.8299999999999249, -1.0276802843913388 
0.8399999999999238, -1.0171783006964412 
0.8499999999999227, -1.0065455261806469 
0.8599999999999216, -0.9959662071642909 
0.8699999999999205, -0.9854242490233046 
0.8799999999999194, -0.9748624589571578 
0.8899999999999183, -0.9643273015879321 
0.8999999999999172, -0.9541045378115116 
0.9099999999999161, -0.9448000066508222 
0.919999999999915, -0.9372250074675724 
0.9299999999999139, -0.931999963725071 
0.9399999999999128, -0.929128122295644 
0.9499999999999117, -0.9279845162830054 
0.9599999999999106, -0.9277214260984618 
0.9699999999999095, -0.927637022634471 
0.9799999999999084, -0.9272571034146079 
0.9899999999999073, -0.9262445343290014 
0.9999999999999062, -0.9243185702711371 
1.0099999999999052, -0.9212808920183221 
1.019999999999904, -0.9171387540143014 
1.029999999999903, -0.9121840042626166 
1.039999999999902, -0.9068789993784365 
1.0499999999999008, -0.9016279310109778 
1.0599999999998997, -0.8966448893567325 
1.0699999999998986, -0.891974213342461 
1.0799999999998975, -0.8875747505357066 
1.0899999999998964, -0.883393273274432 
1.0999999999998953, -0.8794056344042216 
1.1099999999998942, -0.8756310413862192 
1.119999999999893, -0.8721334457265041 
1.129999999999892, -0.8690200926727799 
1.1399999999998909, -0.8664310272097611 
1.1499999999998898, -0.8645012801368862 
1.1599999999998887, -0.8632943614810294 
1.1699999999998876, -0.8627460099284306 
1.1799999999998865, -0.8626681071877143 
1.1899999999998854, -0.862813421080558 
1.1999999999998843, -0.862951467769931 
1.2099999999998832, -0.8629169168724719 
1.219999999999882, -0.8626317800567407 
1.229999999999881, -0.862111505789105 
1.2399999999998799, -0.8614472512714672 
1.2499999999998788, -0.8607577524565423 
1.2599999999998777, -0.8601317347494317 
1.2699999999998766, -0.8595920660074328 
1.2799999999998755, -0.8590939976347514 
1.2899999999998744, -0.858553571161553 
1.2999999999998733, -0.857894820235545 
1.3099999999998722, -0.8570950663419742 
1.319999999999871, -0.8562082948947495 
1.32999999999987, -0.855361650270636 
1.3399999999998689, -0.8547283895274266 
1.3499999999998678, -0.8544802559663547 
1.3599999999998666, -0.8547335262256441 
1.3699999999998655, -0.8555188164498772 
1.3799999999998644, -0.8567929485301933 
1.3899999999998633, -0.858476202094104 
1.3999999999998622, -0.8604837400768959 
1.4099999999998611, -0.8627395033014542 
1.41999999999986, -0.8651832778985078 
1.429999999999859, -0.8677819380081868 
1.4399999999998578, -0.8705410372220651 
1.4499999999998567, -0.8735027777706168 
1.4599999999998556, -0.8767189544756964 
1.4699999999998545, -0.8801967864248414 
1.4799999999998534, -0.88382943094602 
1.4899999999998523, -0.8873529040511393 
1.4999999999998512, -0.8903994496501509 
1.5099999999998501, -0.89265833656513 
1.519999999999849, -0.8940179968912656 
1.529999999999848, -0.894568839565174 
1.5399999999998468, -0.8945194743799249 
1.5499999999998457, -0.8941526973133103 
1.5599999999998446, -0.8938681705159448 
1.5699999999998435, -0.8942579776039933 
1.5799999999998424, -0.8960820947705944 
1.5899999999998413, -0.900021391541341 
1.5999999999998402, -0.9063132842858925 
1.6099999999998391, -0.9146176921522692 
1.619999999999838, -0.9242681558235004 
1.629999999999837, -0.9346463576906345 
1.6399999999998358, -0.9453863508921401 
1.6499999999998347, -0.9563758034065728 
1.6599999999998336, -0.9676560599598677 
1.6699999999998325, -0.979281441813068 
1.6799999999998314, -0.9911351408147061 
1.6899999999998303, -1.0027262037150415 
1.6999999999998292, -1.0131450086077665 
1.709999999999828, -1.021420324808223 
1.719999999999827, -1.0270977180018925 
1.729999999999826, -1.0304206713643866 
1.7399999999998248, -1.0319907335500582 
1.7499999999998237, -1.032397567203541 
1.7599999999998226, -1.0321213411801649 
1.7699999999998215, -1.031664378461137 
1.7799999999998204, -1.0317702353265417 
1.7899999999998193, -1.0334781290448074 
1.7999999999998182, -1.0376879955451042 
1.809999999999817, -1.0444497068659417 
1.819999999999816, -1.0528721379281074 
1.8299999999998149, -1.0618230810391418 
1.8399999999998138, -1.0705490225046819 
1.8499999999998127, -1.0787633908650278 
1.8599999999998116, -1.0864599461168913 
1.8699999999998105, -1.0937281576697166 
1.8799999999998094, -1.1006313028946038 
1.8899999999998083, -1.1071174831834953 
1.8999999999998072, -1.1129652924805467 
1.909999999999806, -1.1178270898188165 
1.919999999999805, -1.1214038366767667 
1.9299999999998039, -1.1236275515328435 
1.9399999999998028, -1.1246785906411727 
1.9499999999998017, -1.1248687042172074 
1.9599999999998006, -1.1245575250230533 
1.9699999999997995, -1.124162675368625 
1.9799999999997984, -1.1241577767438833 
1.9899999999997973, -1.124916246730673 
1.9999999999997962, -1.1264843825903124 
2.0099999999998173, -1.1285850503505324 
2.0199999999998384, -1.1308714449741473 
2.0299999999998595, -1.1331211928777818 
2.0399999999998806, -1.135234488967567 
2.0499999999999017, -1.137155172443878 
2.059999999999923, -1.1388348307350953 
2.069999999999944, -1.1402463078291887 
2.079999999999965, -1.1413965220875315 
2.089999999999986, -1.1423107358278484 
2.100000000000007, -1.142998466444589 
2.1100000000000283, -1.143428371174595 
2.1200000000000494, -1.143534673417188 
2.1300000000000705, -1.1432565387396274 
2.1400000000000916, -1.1425861264149466 
2.1500000000001127, -1.141595217951013 
2.160000000000134, -1.140425681780108 
2.170000000000155, -1.1392397752887011 
2.180000000000176, -1.1381501500386553 
2.190000000000197, -1.1371962041561956 
2.2000000000002182, -1.1364048265440068 
2.2100000000002393, -1.1358547609984693 
2.2200000000002604, -1.1356338525676881 
2.2300000000002815, -1.1357163471251452 
2.2400000000003026, -1.1359136429523335 
2.2500000000003237, -1.1359553682659977 
2.260000000000345, -1.1355944756463263 
2.270000000000366, -1.134662420512703 
2.280000000000387, -1.1330962988627404 
2.290000000000408, -1.1309476783158474 
2.3000000000004293, -1.1283451256844486 
2.3100000000004504, -1.1254183765548231 
2.3200000000004715, -1.1222400631528684 
2.3300000000004926, -1.1188189157595125 
2.3400000000005137, -1.1151286610437383 
2.3500000000005348, -1.1111397885484933 
2.360000000000556, -1.1068397367403873 
2.370000000000577, -1.1022637400630704 
2.380000000000598, -1.0975744328379946 
2.390000000000619, -1.0931636297597103 
2.4000000000006403, -1.089615805416186 
2.4100000000006614, -1.0873845599878578 
2.4200000000006825, -1.0864156244743342 
2.4300000000007036, -1.0861808380266607 
2.4400000000007247, -1.086045606188941 
2.450000000000746, -1.0854946310273257 
2.460000000000767, -1.0840991507084714 
2.470000000000788, -1.0814279293751712 
2.480000000000809, -1.0770843637106402 
2.49000000000083, -1.0709075621415869 
2.5000000000008513, -1.063149428501736 
2.5100000000008724, -1.0543642815210592 
2.5200000000008935, -1.0450830120423762 
2.5300000000009146, -1.0355973190835597 
2.5400000000009357, -1.0259661363133474 
2.550000000000957, -1.0161312791676764 
2.560000000000978, -1.006050816376432 
2.570000000000999, -0.9958443372217426 
2.58000000000102, -0.9859484894726647 
2.5900000000010412, -0.9771756481341525 
2.6000000000010624, -0.9704630172143857 
2.6100000000010835, -0.9663073575735096 
2.6200000000011046, -0.9643907736581288 
2.6300000000011257, -0.9638397014562381 
2.6400000000011468, -0.9637693685015887 
2.650000000001168, -0.9635529221327515 
2.660000000001189, -0.9627672375477158 
2.67000000000121, -0.9610528961317252 
2.680000000001231, -0.9580633584288188 
2.6900000000012523, -0.9535739551573611 
2.7000000000012734, -0.9476832560860171 
2.7100000000012945, -0.9408653233819828 
2.7200000000013156, -0.9337336213520422 
2.7300000000013367, -0.9267426059616952 
2.740000000001358, -0.9200877208578531 
2.750000000001379, -0.9137808141270651 
2.7600000000014, -0.9077621839222578 
2.770000000001421, -0.9019799300200161 
2.780000000001442, -0.8964341894730102 
2.7900000000014633, -0.8912031713173224 
2.8000000000014844, -0.8864574108722649 
2.8100000000015055, -0.882442666191895 
2.8200000000015266, -0.8794006281006818 
2.8300000000015477, -0.8774401458177069 
2.840000000001569, -0.8764473160912616 
2.85000000000159, -0.8761186875523654 
2.860000000001611, -0.8760861762067342 
2.870000000001632, -0.8760269872126794 
2.8800000000016532, -0.8757073453518085 
2.8900000000016743, -0.8749901626376346 
2.9000000000016954, -0.8738458622867705 
2.9100000000017165, -0.8723590917675942 
2.9200000000017377, -0.8706942470032295 
2.9300000000017588, -0.8690191104047102 
2.94000000000178, -0.8674372909844008 
2.950000000001801, -0.865968291301933 
2.960000000001822, -0.8645700193160168 
2.970000000001843, -0.863181915376966 
2.9800000000018643, -0.8617693335894735 
2.9900000000018854, -0.8603521133596675 
3.0000000000019065, -0.8590069283932648 
3.0100000000019276, -0.8578443764095212 
3.0200000000019487, -0.856972154301987 
3.03000000000197, -0.8564635336686903 
3.040000000001991, -0.8563476892716808 
3.050000000002012, -0.856619801278433 
3.060000000002033, -0.857252425422067 
3.070000000002054, -0.8581961340930382 
3.0800000000020753, -0.8593775443078149 
3.0900000000020964, -0.8607101128744439 
3.1000000000021175, -0.8621198970276078 
3.1100000000021386, -0.8635723485623077 
3.1200000000021597, -0.8650827347282453 
3.130000000002181, -0.8667008324518871 
3.140000000002202, -0.8684725425803972 
3.150000000002223, -0.8703903418926867 
3.160000000002244, -0.8723519175458939 
3.1700000000022652, -0.8741585649700857 
3.1800000000022863, -0.8755806476376724 
3.1900000000023074, -0.8764614698045836 
3.2000000000023285, -0.8767800915416117 
3.2100000000023496, -0.8766430387731017 
3.2200000000023707, -0.876257213945124 
3.230000000002392, -0.875932705739762 
3.240000000002413, -0.8760957436236028 
3.250000000002434, -0.8772380668863857 
3.260000000002455, -0.879757744687826 
3.2700000000024763, -0.8837765410698365 
3.2800000000024974, -0.889100800308633 
3.2900000000025185, -0.8953661882007641 
3.3000000000025396, -0.90222953833413 
3.3100000000025607, -0.9094775069752187 
3.3200000000025818, -0.917039594851812 
3.330000000002603, -0.9249513314026327 
3.340000000002624, -0.9332930939471631 
3.350000000002645, -0.9420936862281142 
3.360000000002666, -0.9511833755590585 
3.3700000000026873, -0.9600493659849096 
3.3800000000027084, -0.9678782788010654 
3.3900000000027295, -0.9739249640882923 
3.4000000000027506, -0.9779308767866043 
3.4100000000027717, -0.9801494164520745 
3.420000000002793, -0.9810486310182659 
3.430000000002814, -0.9810765396852699 
3.440000000002835, -0.9806485189270855 
3.450000000002856, -0.9803041481535513 
3.460000000002877, -0.9809033057392946 
3.4700000000028983, -0.9835926621779277 
3.4800000000029194, -0.9892709821564101 
3.4900000000029405, -0.9978915169592375 
3.5000000000029616, -1.0084599223653838 
3.5100000000029827, -1.0197647884035372 
3.520000000003004, -1.0309918434962022 
3.530000000003025, -1.0418198630844702 
3.540000000003046, -1.0522348413299645 
3.550000000003067, -1.0623195909798129 
3.5600000000030882, -1.0720824020760849 
3.5700000000031094, -1.0813158543771428 
3.5800000000031305, -1.0895421870307895 
3.5900000000031516, -1.0961719597737292 
3.6000000000031727, -1.100847058402858 
3.6100000000031938, -1.1036478879422977 
3.620000000003215, -1.1049673754901268 
3.630000000003236, -1.1052704201787917 
3.640000000003257, -1.1049982525890618 
3.650000000003278, -1.1046369503351503 
3.6600000000032993, -1.1047929143581912 
3.6700000000033204, -1.1060487950182907 
3.6800000000033415, -1.1085967013462261 
3.6900000000033626, -1.1120887793032177 
3.7000000000033837, -1.1159501103924458 
3.710000000003405, -1.1197508004703196 
3.720000000003426, -1.1232964746367506 
3.730000000003447, -1.126535053361232 
3.740000000003468, -1.1294671568364618 
3.750000000003489, -1.1321133495532287 
3.7600000000035103, -1.1345017309774268 
3.7700000000035314, -1.1366431753159938 
3.7800000000035525, -1.1384996768210098 
3.7900000000035736, -1.1399749697769488 
3.8000000000035947, -1.140950756327983 
3.810000000003616, -1.1413544420485302 
3.820000000003637, -1.141210183004556 
3.830000000003658, -1.1406468753683197 
3.840000000003679, -1.1398774583704645 
3.8500000000037002, -1.139149723632862 
3.8600000000037213, -1.138653073878886 
3.8700000000037424, -1.1384383442728203 
3.8800000000037635, -1.138449985492366 
3.8900000000037847, -1.1386362373357921 
3.9000000000038058, -1.1389934210135622 
3.910000000003827, -1.1395002191367216 
3.920000000003848, -1.1400465975138938 
3.930000000003869, -1.140453023996427 
3.94000000000389, -1.140547628894682 
3.9500000000039113, -1.1402261792901227 
3.9600000000039324, -1.1394726055322393 
3.9700000000039535, -1.1383432179537911 
3.9800000000039746, -1.1369204748543018 
3.9900000000039957, -1.135262512478579 
4.000000000004016, -1.1333812909959682 
4.010000000003993, -1.1312576807791583 
4.02000000000397, -1.1288749294045024 
4.030000000003946, -1.126242404636375 
4.040000000003923, -1.1233937158835556 
4.0500000000039, -1.1203775474890647 
4.0600000000038765, -1.117287655260696 
4.070000000003853, -1.1143400418878477 
4.08000000000383, -1.111896227689018 
4.090000000003807, -1.1102947603558984 
4.100000000003783, -1.109571181719504 
4.11000000000376, -1.1093904804366814 
4.120000000003737, -1.109263640986955 
4.130000000003713, -1.1087470563352602 
4.14000000000369, -1.1074682861720462 
4.150000000003667, -1.1050981327743767 
4.1600000000036434, -1.101406270045822 
4.17000000000362, -1.0963895443390745 
4.180000000003597, -1.0903114316971467 
4.1900000000035735, -1.0835520187200958 
4.20000000000355, -1.0764037917752034 
4.210000000003527, -1.0689855644549904 
4.220000000003504, -1.0612786884447671 
4.23000000000348, -1.053209136674162 
4.240000000003457, -1.0447438626330776 
4.250000000003434, -1.0360218921448432 
4.26000000000341, -1.0275158928380308 
4.270000000003387, -1.0200815661736238 
4.280000000003364, -1.0146410096362561 
4.2900000000033405, -1.011559555387143 
4.300000000003317, -1.0103596727918487 
4.310000000003294, -1.0101269839624973 
4.320000000003271, -1.010049665227042 
4.330000000003247, -1.0095742515299992 
4.340000000003224, -1.0082773091048751 
4.350000000003201, -1.005722954239991 
4.360000000003177, -1.0014682260580903 
4.370000000003154, -0.995273709438487 
4.380000000003131, -0.9873675259078455 
4.390000000003107, -0.9784164857563622 
4.400000000003084, -0.9691506505061731 
4.410000000003061, -0.9600341100255292 
4.4200000000030375, -0.9512238994460276 
4.430000000003014, -0.9426975454023164 
4.440000000002991, -0.9343889253173107 
4.450000000002968, -0.9262861537442033 
4.460000000002944, -0.9185045844885618 
4.470000000002921, -0.9113356786229134 
4.480000000002898, -0.9052242614447042 
4.490000000002874, -0.9006107942694369 
4.500000000002851, -0.8976795546697923 
4.510000000002828, -0.8962130636488613 
4.520000000002804, -0.8957016624485785 
4.530000000002781, -0.8955881505315071 
4.540000000002758, -0.8954275759053179 
4.5500000000027345, -0.894906541856043 
4.560000000002711, -0.8938099838418478 
4.570000000002688, -0.8920224294453905 
4.580000000002665, -0.8895737454173107 
4.590000000002641, -0.8866573662432812 
4.600000000002618, -0.8835528546728723 
4.610000000002595, -0.8804980151213361 
4.620000000002571, -0.8776145449985391 
4.630000000002548, -0.8749169447938959 
4.640000000002525, -0.8723638141656854 
4.6500000000025015, -0.8699112008556904 
4.660000000002478, -0.8675481444833226 
4.670000000002455, -0.8653067166560561 
4.6800000000024315, -0.8632497878615677 
4.690000000002408, -0.861450368522207 
4.700000000002385, -0.859977766561529 
4.710000000002362, -0.8588933619197092 
4.720000000002338, -0.8582434630834948 
4.730000000002315, -0.8580384341515621 
4.740000000002292, -0.8582285026589741 
4.750000000002268, -0.8587013822355438 
4.760000000002245, -0.8593123240113341 
4.770000000002222, -0.8599302725527643 
4.7800000000021985, -0.860476295644973 
4.790000000002175, -0.8609406213768482 
4.800000000002152, -0.8613727556843058 
4.810000000002129, -0.8618463337494082 
4.820000000002105, -0.8624124460225964 
4.830000000002082, -0.8630610337292728 
4.840000000002059, -0.8637067444721532 
4.850000000002035, -0.864212311029332 
4.860000000002012, -0.8644477506064823 
4.870000000001989, -0.8643531380693432 
4.880000000001965, -0.863968760791429 
4.890000000001942, -0.8634338719816871 
4.900000000001919, -0.8629756655120824 
4.9100000000018955, -0.8628854266461436 
4.920000000001872, -0.8634561673636856 
4.930000000001849, -0.8648850349715032 
