t, s[1].omega / s[0].omega 
0, -1.1598504902431273 
0.009999999999999995, -1.1440805514220607 
0.019999999999999934, -1.1267536540504293 
0.029999999999999874, -1.1077414155114922 
0.04000000000000012, -1.0868811484914747 
0.050000000000000405, -1.0645291921269 
0.06000000000000069, -1.0422950696859072 
0.07000000000000098, -1.0232210433255537 
0.08000000000000126, -1.010240410465315 
0.09000000000000155, -1.0038178636197126 
0.10000000000000184, -1.0018619905538177 
0.11000000000000212, -1.0018329791263418 
0.12000000000000241, -1.0021121093886811 
0.130000000000002, -1.0019157484137584 
0.1400000000000009, -1.000759462691914 
0.1499999999999998, -0.9980311135227126 
0.1599999999999987, -0.9927308321448398 
0.1699999999999976, -0.9834954680885479 
0.1799999999999965, -0.969250467842428 
0.1899999999999954, -0.9503612794111588 
0.1999999999999943, -0.9289007020249906 
0.2099999999999932, -0.9073010593824125 
0.2199999999999921, -0.8870388207863018 
0.229999999999991, -0.8685458571584614 
0.2399999999999899, -0.8517334232667115 
0.2499999999999888, -0.8364308932174987 
0.2599999999999877, -0.822607311806191 
0.2699999999999866, -0.8104407102212996 
0.2799999999999855, -0.8002683455597461 
0.2899999999999844, -0.7924229463083331 
0.2999999999999833, -0.7870137886055719 
0.3099999999999822, -0.7837928226100137 
0.3199999999999811, -0.7822147108370424 
0.32999999999998, -0.78163702387791 
0.3399999999999789, -0.7815019737040235 
0.3499999999999778, -0.781406708350266 
0.35999999999997667, -0.781087194914788 
0.36999999999997557, -0.7803857398804932 
0.37999999999997447, -0.7792467412856643 
0.38999999999997337, -0.7777328809886208 
0.39999999999997227, -0.7760130576669287 
0.40999999999997117, -0.7742934413429401 
0.41999999999997006, -0.7727315515801967 
0.42999999999996896, -0.7713914615500046 
0.43999999999996786, -0.770249647489291 
0.44999999999996676, -0.7692288856492471 
0.45999999999996566, -0.7682430151524133 
0.46999999999996456, -0.7672406576022776 
0.47999999999996346, -0.7662339772684449 
0.48999999999996235, -0.7653049154796591 
0.49999999999996125, -0.7645911555950878 
0.5099999999999602, -0.7642559781235624 
0.519999999999959, -0.7644474750172587 
0.529999999999958, -0.7652609342743899 
0.5399999999999568, -0.7667225321111972 
0.5499999999999557, -0.7688008670592861 
0.5599999999999546, -0.7714352219806948 
0.5699999999999535, -0.7745645189168633 
0.5799999999999524, -0.7781498920619359 
0.5899999999999513, -0.7821923822147371 
0.5999999999999502, -0.786746322431001 
0.6099999999999491, -0.7919216666196293 
0.619999999999948, -0.797860614773398 
0.6299999999999469, -0.8046656497440055 
0.6399999999999458, -0.8122561447106236 
0.6499999999999447, -0.8201886285568248 
0.6599999999999436, -0.8276284908283739 
0.6699999999999425, -0.8336847114101751 
0.6799999999999414, -0.837897688428229 
0.6899999999999403, -0.8403660248542899 
0.6999999999999392, -0.8414758587180344 
0.7099999999999381, -0.8416227691773139 
0.719999999999937, -0.8411362160655227 
0.7299999999999359, -0.8403969794937731 
0.7399999999999348, -0.8401453138302548 
0.7499999999999337, -0.8420088969289283 
0.7599999999999326, -0.8490512713055078 
0.7699999999999315, -0.8655159545341566 
0.7799999999999304, -0.8947436492186702 
0.7899999999999293, -0.9362139396306206 
0.7999999999999282, -0.9851833662816949 
0.8099999999999271, -1.0358810796379272 
0.819999999999926, -1.0844700896097093 
0.8299999999999249, -1.1292448854277934 
0.8399999999999238, -1.1692527792762166 
0.8499999999999227, -1.2031354909355527 
0.8599999999999216, -1.2292189202416544 
0.8699999999999205, -1.246830456512297 
0.8799999999999194, -1.2571675797218584 
0.8899999999999183, -1.262484108844851 
0.8999999999999172, -1.2648058836293967 
0.9099999999999161, -1.265452386711249 
0.919999999999915, -1.2652308782678938 
0.9299999999999139, -1.2648283303338497 
0.9399999999999128, -1.2650701411909182 
0.9499999999999117, -1.266663861940615 
0.9599999999999106, -1.2695762019945005 
0.9699999999999095, -1.2730699864783686 
0.9799999999999084, -1.2764345056899455 
0.9899999999999073, -1.2793654339512208 
0.9999999999999062, -1.2818241192885065 
1.0099999999999052, -1.2838274388633155 
1.019999999999904, -1.285379867071697 
1.029999999999903, -1.2864917129184608 
1.039999999999902, -1.2871901590588197 
1.0499999999999008, -1.2875007239673941 
1.0599999999998997, -1.2874235751412997 
1.0699999999998986, -1.2869313823544508 
1.0799999999998975, -1.2859948175658797 
1.0899999999998964, -1.284617666763235 
1.0999999999998953, -1.2828520607105056 
1.1099999999998942, -1.280771811064069 
1.119999999999893, -1.2784231620503594 
1.129999999999892, -1.2758429633175907 
1.1399999999998909, -1.2732054094749912 
1.1499999999998898, -1.2709424621600116 
1.1599999999998887, -1.2695272667466255 
1.1699999999998876, -1.2689988466771283 
1.1799999999998865, -1.2688728805722236 
1.1899999999998854, -1.2685122875039696 
1.1999999999998843, -1.267328882286716 
1.2099999999998832, -1.2646587245148693 
1.219999999999882, -1.2596028162182415 
1.229999999999881, -1.2511160283829619 
1.2399999999998799, -1.2384454006944132 
1.2499999999998788, -1.2215459326199782 
1.2599999999998777, -1.2008958218724073 
1.2699999999998766, -1.1768687883791107 
1.2799999999998755, -1.149362091078019 
1.2899999999998744, -1.118025139213039 
1.2999999999998733, -1.0831701629523258 
1.3099999999998722, -1.0472770320588227 
1.319999999999871, -1.0157060195696679 
1.32999999999987, -0.9939791039719947 
1.3399999999998689, -0.9831812912176743 
1.3499999999998678, -0.9797977912234099 
1.3599999999998666, -0.9796391082356457 
1.3699999999998655, -0.9801854729184214 
1.3799999999998644, -0.9803620876923163 
1.3899999999998633, -0.9796777713821726 
1.3999999999998622, -0.977622134225108 
1.4099999999998611, -0.9732895745645352 
1.41999999999986, -0.9651672673607269 
1.429999999999859, -0.9514194138474303 
1.4399999999998578, -0.9311872824222688 
1.4499999999998567, -0.9060859296020001 
1.4599999999998556, -0.8795651655833744 
1.4699999999998545, -0.8545340383980701 
1.4799999999998534, -0.8322201168526975 
1.4899999999998523, -0.8126771215473948 
1.4999999999998512, -0.7955621546739462 
1.5099999999998501, -0.7805667603149788 
1.519999999999849, -0.7675628624139412 
1.529999999999848, -0.7565991691484714 
1.5399999999998468, -0.7478103775558258 
1.5499999999998457, -0.7412754877437171 
1.5599999999998446, -0.7368871052362056 
1.5699999999998435, -0.7343091282453987 
1.5799999999998424, -0.7330500791312065 
1.5899999999998413, -0.7325949436033018 
1.5999999999998402, -0.7325094749779409 
1.6099999999998391, -0.7324785347367626 
1.619999999999838, -0.732299040914777 
1.629999999999837, -0.731866620155653 
1.6399999999998358, -0.731174786586769 
1.6499999999998347, -0.7303115684092494 
1.6599999999998336, -0.7294257547401704 
1.6699999999998325, -0.7286645831296876 
1.6799999999998314, -0.7281181881694042 
1.6899999999998303, -0.7277954696421328 
1.6999999999998292, -0.7276285376714391 
1.709999999999828, -0.727499693426173 
1.719999999999827, -0.7272886152440836 
1.729999999999826, -0.7269239374728269 
1.7399999999998248, -0.7264153543450016 
1.7499999999998237, -0.7258617773172242 
1.7599999999998226, -0.7254501572167936 
1.7699999999998215, -0.725451338367017 
1.7799999999998204, -0.7261994147639753 
1.7899999999998193, -0.7280383909712107 
1.7999999999998182, -0.7312448017735671 
1.809999999999817, -0.735966678590098 
1.819999999999816, -0.7422201913961666 
1.8299999999998149, -0.7499479318349345 
1.8399999999998138, -0.7591057781985147 
1.8499999999998127, -0.7697413127229976 
1.8599999999998116, -0.7820437598706702 
1.8699999999998105, -0.7963502888443001 
1.8799999999998094, -0.8130627681141341 
1.8899999999998083, -0.8323624055269215 
1.8999999999998072, -0.8536115073082058 
1.909999999999806, -0.8747496881360339 
1.919999999999805, -0.8927801495667793 
1.9299999999998039, -0.9056723896149446 
1.9399999999998028, -0.9135195725942328 
1.9499999999998017, -0.9176770819925639 
1.9599999999998006, -0.9195035418358408 
1.9699999999997995, -0.9198856184186637 
1.9799999999997984, -0.9193138256987229 
1.9899999999997973, -0.918156649132713 
1.9999999999997962, -0.9171515050557968 
2.0099999999998173, -0.918377332462293 
2.0199999999998384, -0.9266627148668427 
2.0299999999998595, -0.949608387831479 
2.0399999999998806, -0.9926716910374717 
2.0499999999999017, -1.0517252630260505 
2.059999999999923, -1.1147429759351932 
2.069999999999944, -1.1719478495704798 
2.079999999999965, -1.2200611247828457 
2.089999999999986, -1.259435389399115 
2.100000000000007, -1.2909345043996612 
2.1100000000000283, -1.3148797829366903 
2.1200000000000494, -1.3315058172911705 
2.1300000000000705, -1.3417600364754059 
2.1400000000000916, -1.3473129571868978 
2.1500000000001127, -1.3498683383119332 
2.160000000000134, -1.3506754647468315 
2.170000000000155, -1.350551056351264 
2.180000000000176, -1.3501504786791663 
2.190000000000197, -1.3501320050201786 
2.2000000000002182, -1.350917972403743 
2.2100000000002393, -1.3523567945837345 
2.2200000000002604, -1.3539641618630802 
2.2300000000002815, -1.355420393875755 
2.2400000000003026, -1.3566600529283392 
2.2500000000003237, -1.3576652962295248 
2.260000000000345, -1.3583370673865902 
2.270000000000366, -1.358535211940809 
2.280000000000387, -1.3581553637899824 
2.290000000000408, -1.3571587757726338 
2.3000000000004293, -1.355558402301218 
2.3100000000004504, -1.353378447736922 
2.3200000000004715, -1.3506123071735414 
2.3300000000004926, -1.3472018587761665 
2.3400000000005137, -1.3430331323426041 
2.3500000000005348, -1.3379266877035332 
2.360000000000556, -1.331649858495643 
2.370000000000577, -1.3241014211457327 
2.380000000000598, -1.3158472061646815 
2.390000000000619, -1.3086218052654266 
2.4000000000006403, -1.304369737626755 
2.4100000000006614, -1.3031365539720825 
2.4200000000006825, -1.3032674116065757 
2.4300000000007036, -1.3032746176191263 
2.4400000000007247, -1.3022653331147453 
2.450000000000746, -1.2991953395374698 
2.460000000000767, -1.2916637899530419 
2.470000000000788, -1.2736527502858517 
2.480000000000809, -1.2316338672608027 
2.49000000000083, -1.1442047378570321 
2.5000000000008513, -1.0027406222721633 
2.5100000000008724, -0.8401140680584719 
2.5200000000008935, -0.7018075769696834 
2.5300000000009146, -0.6032933388388317 
2.5400000000009357, -0.5379734842010258 
2.550000000000957, -0.49539303354853104 
2.560000000000978, -0.4675493541870666 
2.570000000000999, -0.449221341141548 
2.58000000000102, -0.4371245176012371 
2.5900000000010412, -0.4291824053271882 
2.6000000000010624, -0.4240571696670415 
2.6100000000010835, -0.4208685074128521 
2.6200000000011046, -0.41902749008155976 
2.6300000000011257, -0.41813767523439144 
2.6400000000011468, -0.4179358847676255 
2.650000000001168, -0.41825761826201574 
2.660000000001189, -0.4190194167643816 
2.67000000000121, -0.4202143506070561 
2.680000000001231, -0.42191833571476717 
2.6900000000012523, -0.42430598904164174 
2.7000000000012734, -0.42767776686124553 
2.7100000000012945, -0.43250403701176665 
2.7200000000013156, -0.43948277970782296 
2.7300000000013367, -0.4495500753029263 
2.740000000001358, -0.4636265989809322 
2.750000000001379, -0.4817394254201324 
2.7600000000014, -0.5017819516091434 
2.770000000001421, -0.519871935641095 
2.780000000001442, -0.5331386922645466 
2.7900000000014633, -0.5413836518950059 
2.8000000000014844, -0.5459113979045911 
2.8100000000015055, -0.5480308701924504 
2.8200000000015266, -0.5485311622737844 
2.8300000000015477, -0.5476692738199451 
2.840000000001569, -0.545155874997864 
2.85000000000159, -0.5398453965178053 
2.860000000001611, -0.5286612210524037 
2.870000000001632, -0.5034930660494086 
2.8800000000016532, -0.4442488614292716 
2.8900000000016743, -0.3199080673368999 
2.9000000000016954, -0.15105568031641942 
2.9100000000017165, -0.028022202962754185 
2.9200000000017377, 0.031365132524194726 
2.9300000000017588, 0.05740573170016342 
2.94000000000178, 0.06939912678693073 
2.950000000001801, 0.07527307095996374 
2.960000000001822, 0.07822439500544102 
2.970000000001843, 0.0796415409447466 
2.9800000000018643, 0.0802015970009365 
2.9900000000018854, 0.0802884611870678 
3.0000000000019065, 0.08015591742877716 
3.0100000000019276, 0.07999300867606698 
3.0200000000019487, 0.07996266462336606 
3.03000000000197, 0.0802550349449142 
3.040000000001991, 0.08119808704862794 
3.050000000002012, 0.0835171288747231 
3.060000000002033, 0.08896392291251402 
3.070000000002054, 0.10161002658218968 
3.0800000000020753, 0.12866495272534054 
3.0900000000020964, 0.1738008359358399 
3.1000000000021175, 0.22316320746093626 
3.1100000000021386, 0.2581362521689055 
3.1200000000021597, 0.2770285137490839 
3.130000000002181, 0.28623029625992913 
3.140000000002202, 0.29052479716245394 
3.150000000002223, 0.2922697556732531 
3.160000000002244, 0.2924700030147269 
3.1700000000022652, 0.29148222927075956 
3.1800000000022863, 0.2893795108799931 
3.1900000000023074, 0.28620563159806606 
3.2000000000023285, 0.28220617005816134 
3.2100000000023496, 0.2779283325121559 
3.2200000000023707, 0.27404294811348257 
3.230000000002392, 0.27102951628169153 
3.240000000002413, 0.2690435122360807 
3.250000000002434, 0.2680151644528226 
3.260000000002455, 0.26779095095944355 
3.2700000000024763, 0.2681969292426874 
3.2800000000024974, 0.26903235840754924 
3.2900000000025185, 0.27005052534863205 
3.3000000000025396, 0.27097167561239893 
3.3100000000025607, 0.2715232948636662 
3.3200000000025818, 0.2714537899557375 
3.330000000002603, 0.27046259103814996 
3.340000000002624, 0.2679968298993953 
3.350000000002645, 0.2627691062011181 
3.360000000002666, 0.25147223058671475 
3.3700000000026873, 0.22509849054338468 
3.3800000000027084, 0.16055484965673444 
3.3900000000027295, 0.026528811279238267 
3.4000000000027506, -0.13246944738754135 
3.4100000000027717, -0.22709502249817545 
3.420000000002793, -0.2661302390806125 
3.430000000002814, -0.2817413848520017 
3.440000000002835, -0.28856187124885724 
3.450000000002856, -0.2917720935588475 
3.460000000002877, -0.2932441001559301 
3.4700000000028983, -0.2936938169153915 
3.4800000000029194, -0.2933906934868412 
3.4900000000029405, -0.2924221897841255 
3.5000000000029616, -0.2908326343635728 
3.5100000000029827, -0.2887315211845772 
3.520000000003004, -0.2863596449679494 
3.530000000003025, -0.2840578288242286 
3.540000000003046, -0.2821494783389231 
3.550000000003067, -0.28084434318067414 
3.5600000000030882, -0.2802345600126319 
3.5700000000031094, -0.28034273546491584 
3.5800000000031305, -0.2811494870944117 
3.5900000000031516, -0.28256990332647025 
3.6000000000031727, -0.28440502980324867 
3.6100000000031938, -0.28633905177353236 
3.620000000003215, -0.28802867858786724 
3.630000000003236, -0.28922271544156475 
3.640000000003257, -0.2898020616712793 
3.650000000003278, -0.28971968846984186 
3.6600000000032993, -0.28889413406814224 
3.6700000000033204, -0.28707386567645826 
3.6800000000033415, -0.2835875495383807 
3.6900000000033626, -0.2766884935521587 
3.7000000000033837, -0.26159814907079515 
3.710000000003405, -0.22499392769175844 
3.720000000003426, -0.1375052810885799 
3.730000000003447, 0.011945197171896915 
3.740000000003468, 0.14327252866526438 
3.750000000003489, 0.20900533179803943 
3.7600000000035103, 0.23614872892930214 
3.7700000000035314, 0.24761192276818883 
3.7800000000035525, 0.2527081055129358 
3.7900000000035736, 0.2549108559113042 
3.8000000000035947, 0.25558326404378834 
3.810000000003616, 0.25531357434055624 
3.820000000003637, 0.25441808875340827 
3.830000000003658, 0.2531516927657605 
3.840000000003679, 0.25178196419933513 
3.8500000000037002, 0.2505812740923766 
3.8600000000037213, 0.24979307551863167 
3.8700000000037424, 0.24962434717791152 
3.8800000000037635, 0.2502703317126788 
3.8900000000037847, 0.25192867385505124 
3.9000000000038058, 0.2547385089346686 
3.910000000003827, 0.2586123597430939 
3.920000000003848, 0.2630724364424764 
3.930000000003869, 0.2673463570202276 
3.94000000000389, 0.27074947915336744 
3.9500000000039113, 0.2729649455299007 
3.9600000000039324, 0.27397127693993456 
3.9700000000039535, 0.27378854897146165 
3.9800000000039746, 0.2722327463173494 
3.9900000000039957, 0.2686544902091613 
4.000000000004016, 0.2615230086240487 
4.010000000003993, 0.24786915336023224 
4.02000000000397, 0.22374382059654785 
4.030000000003946, 0.18907643339150562 
4.040000000003923, 0.15384199724522496 
4.0500000000039, 0.12919553806600007 
4.0600000000038765, 0.11586604978298913 
4.070000000003853, 0.10936230855962434 
4.08000000000383, 0.1061966938483804 
4.090000000003807, 0.1046073393780935 
4.100000000003783, 0.10379607490282108 
4.11000000000376, 0.10338597527747018 
4.120000000003737, 0.10315998202827817 
4.130000000003713, 0.10294140697090223 
4.14000000000369, 0.10253663449172498 
4.150000000003667, 0.10169787444361315 
4.1600000000036434, 0.10006442644136215 
4.17000000000362, 0.09701491492383765 
4.180000000003597, 0.09128621115384446 
4.1900000000035735, 0.07996966643169719 
4.20000000000355, 0.055788270016016925 
4.210000000003527, 0.0006143361543766533 
4.220000000003504, -0.11714488265001977 
4.23000000000348, -0.2899483265862917 
4.240000000003457, -0.4241725385496274 
4.250000000003434, -0.4888571613829133 
4.26000000000341, -0.5158807842961606 
4.270000000003387, -0.5275210136496559 
4.280000000003364, -0.5327910032369846 
4.2900000000033405, -0.5350847305433999 
4.300000000003317, -0.5356754580364035 
4.310000000003294, -0.5349304754861928 
4.320000000003271, -0.5326825478445263 
4.330000000003247, -0.5282924355238935 
4.340000000003224, -0.5206967687868355 
4.350000000003201, -0.5088633386875453 
4.360000000003177, -0.4929857979745835 
4.370000000003154, -0.4753946527294078 
4.380000000003131, -0.45928842587502167 
4.390000000003107, -0.4465121704921519 
4.400000000003084, -0.43715506730141546 
4.410000000003061, -0.43049706056326825 
4.4200000000030375, -0.4257527762878991 
4.430000000003014, -0.4223148603819862 
4.440000000002991, -0.41976277396678974 
4.450000000002968, -0.41782200325735525 
4.460000000002944, -0.4163312408091448 
4.470000000002921, -0.4152225059010607 
4.480000000002898, -0.414510170325778 
4.490000000002874, -0.4142888716057131 
4.500000000002851, -0.41474354341890607 
4.510000000002828, -0.41617592665448366 
4.520000000002804, -0.4190539456936187 
4.530000000002781, -0.4240955567737751 
4.540000000002758, -0.4324086539415194 
4.5500000000027345, -0.4457251322526584 
4.560000000002711, -0.4667903061686428 
4.570000000002688, -0.4999838062895905 
4.580000000002665, -0.5521703167943429 
4.590000000002641, -0.6332688123120329 
4.600000000002618, -0.7541520849415304 
4.610000000002595, -0.9159830660032997 
4.620000000002571, -1.091024607765147 
4.630000000002548, -1.2295118265733793 
4.640000000002525, -1.3091030481717554 
4.6500000000025015, -1.3457510261934305 
4.660000000002478, -1.3609464043679886 
4.670000000002455, -1.3669389705570716 
4.6800000000024315, -1.3690127327818633 
4.690000000002408, -1.369280408187341 
4.700000000002385, -1.3687516674716433 
4.710000000002362, -1.368425211842336 
4.720000000002338, -1.3696430420784687 
4.730000000002315, -1.373130886528252 
4.740000000002292, -1.3779998219681269 
4.750000000002268, -1.3827988326924558 
4.760000000002245, -1.3868010043024417 
4.770000000002222, -1.3899469533027244 
4.7800000000021985, -1.3923639853051522 
4.790000000002175, -1.3941438944682334 
4.800000000002152, -1.3953387244894835 
4.810000000002129, -1.3959921041374765 
4.820000000002105, -1.3961376860344112 
4.830000000002082, -1.395783514514201 
4.840000000002059, -1.3949112401425383 
4.850000000002035, -1.3934966048450923 
4.860000000002012, -1.3915321240841778 
4.870000000001989, -1.3890196962245136 
4.880000000001965, -1.3859253448948754 
4.890000000001942, -1.3821868451547237 
4.900000000001919, -1.3779378567079132 
4.9100000000018955, -1.3738764552429799 
4.920000000001872, -1.371108568307009 
