t, s[1].omega / s[0].omega 
0, -0.5397821531244225 
0.009999999999999995, -0.5214235452622502 
0.019999999999999934, -0.5084164145499697 
0.029999999999999874, -0.49902077338443107 
0.04000000000000012, -0.49206602773142033 
0.050000000000000405, -0.48681325005332055 
0.06000000000000069, -0.48280743833124545 
0.07000000000000098, -0.47977458496987735 
0.08000000000000126, -0.4775553278757691 
0.09000000000000155, -0.4760623711603995 
0.10000000000000184, -0.47525359699147496 
0.11000000000000212, -0.4751163670913063 
0.12000000000000241, -0.47566058584998244 
0.130000000000002, -0.4769195305821379 
0.1400000000000009, -0.47895871393320355 
0.1499999999999998, -0.48189438642040017 
0.1599999999999987, -0.48592502559338274 
0.1699999999999976, -0.4913819203543032 
0.1799999999999965, -0.4988097847588159 
0.1899999999999954, -0.509094497070325 
0.1999999999999943, -0.5236485420803517 
0.2099999999999932, -0.5445794933730401 
0.2199999999999921, -0.5744090007752959 
0.229999999999991, -0.6141646754233177 
0.2399999999999899, -0.6593949976824371 
0.2499999999999888, -0.6997459232025451 
0.2599999999999877, -0.7275525029011629 
0.2699999999999866, -0.7433441504495851 
0.2799999999999855, -0.7513626933782908 
0.2899999999999844, -0.7550915209376069 
0.2999999999999833, -0.7564417649896513 
0.3099999999999822, -0.7562254239328949 
0.3199999999999811, -0.7545392273093932 
0.32999999999998, -0.7507999008087923 
0.3399999999999789, -0.7432927708757169 
0.3499999999999778, -0.7275867801252416 
0.35999999999997667, -0.6907503801513304 
0.36999999999997557, -0.5803677603583741 
0.37999999999997447, -0.04288125291053392 
0.38999999999997337, 1.1106494938236557 
0.39999999999997227, 1.2962214659029105 
0.40999999999997117, 1.3184795923167603 
0.41999999999997006, 1.3230506761309866 
0.42999999999996896, 1.3234682063566725 
0.43999999999996786, 1.3211360069684213 
0.44999999999996676, 1.3128258063839566 
0.45999999999996566, 1.2819526411571982 
0.46999999999996456, 1.1803202438992577 
0.47999999999996346, 1.0987990668009595 
0.48999999999996235, 1.1117802484749464 
0.49999999999996125, 1.1243624680168758 
0.5099999999999602, 1.1292380198023975 
0.519999999999959, 1.1305993878240237 
0.529999999999958, 1.1299033616072132 
0.5399999999999568, 1.1268413890227396 
0.5499999999999557, 1.1192851483495274 
0.5599999999999546, 1.1057960644322369 
0.5699999999999535, 1.124699146109223 
0.5799999999999524, 1.2197424297147488 
0.5899999999999513, 1.2717601786390789 
0.5999999999999502, 1.2864989993786995 
0.6099999999999491, 1.2905702601319822 
0.619999999999948, 1.2910414775972037 
0.6299999999999469, 1.2887799922230978 
0.6399999999999458, 1.279665848549525 
0.6499999999999447, 1.2308834664394979 
0.6599999999999436, 0.729517706220557 
0.6699999999999425, -0.5498163810204715 
0.6799999999999414, -0.8959739014510498 
0.6899999999999403, -0.9862070878476713 
0.6999999999999392, -1.0162194114842473 
0.7099999999999381, -1.0275350726980044 
0.719999999999937, -1.0319689349228827 
0.7299999999999359, -1.0333283916387563 
0.7399999999999348, -1.0327356144834108 
0.7499999999999337, -1.0299491662096742 
0.7599999999999326, -1.0230805243725671 
0.7699999999999315, -1.006186254668972 
0.7799999999999304, -0.9598188622187868 
0.7899999999999293, -0.8075814515634361 
0.7999999999999282, -0.16013002334770807 
0.8099999999999271, 0.9510619876496669 
0.819999999999926, 1.1391693757021626 
0.8299999999999249, 1.164406314315319 
0.8399999999999238, 1.1700055165444563 
0.8499999999999227, 1.1710106714004502 
0.8599999999999216, 1.1696125360615812 
0.8699999999999205, 1.1646598293050552 
0.8799999999999194, 1.1504206139391076 
0.8899999999999183, 1.1121435983735637 
0.8999999999999172, 1.0541451129182982 
0.9099999999999161, 1.0334144850909606 
0.919999999999915, 1.038115225989918 
0.9299999999999139, 1.0430858346483547 
0.9399999999999128, 1.045383221793282 
0.9499999999999117, 1.0457432015115826 
0.9599999999999106, 1.044232764727054 
0.9699999999999095, 1.039323866039164 
0.9799999999999084, 1.0245615834835158 
0.9899999999999073, 0.9763546763025012 
0.9999999999999062, 0.9675869926745022 
1.0099999999999052, 1.3702557050532707 
1.019999999999904, 1.4811036488790095 
1.029999999999903, 1.4975401536524955 
1.039999999999902, 1.5008504845192783 
1.0499999999999008, 1.5005218485886052 
1.0599999999998997, 1.4963804822342333 
1.0699999999998986, 1.4770178265977398 
1.0799999999998975, 1.3186440890364755 
1.0899999999998964, 0.5550077789607579 
1.0999999999998953, 0.5010945919784444 
1.1099999999998942, 0.5724986688473035 
1.119999999999893, 0.5990785109301996 
1.129999999999892, 0.608941649651501 
1.1399999999998909, 0.6128703958667127 
1.1499999999998898, 0.6141996601691364 
1.1599999999998887, 0.6139135573140995 
1.1699999999998876, 0.6119227096254122 
1.1799999999998865, 0.6069004513835652 
1.1899999999998854, 0.5941310020117747 
1.1999999999998843, 0.5546561828132177 
1.2099999999998832, 0.3912118256280437 
1.219999999999882, -0.3073252017043477 
1.229999999999881, -4.309985619856729 
1.2399999999998799, -4.719620670495355 
1.2499999999998788, -4.72705471216436 
1.2599999999998777, -4.725929182784028 
1.2699999999998766, -4.713140682112118 
1.2799999999998755, -3.535039346125837 
1.2899999999998744, 2.2357678657020323 
1.2999999999998733, 2.299910738897602 
1.3099999999998722, 2.304495849757758 
1.319999999999871, 2.304814045997472 
1.32999999999987, 2.3039500165764215 
1.3399999999998689, 2.3015628691512067 
1.3499999999998678, 2.2975690154354735 
1.3599999999998666, 2.2952460721288346 
1.3699999999998655, 2.295442273694682 
1.3799999999998644, 2.2949167946013214 
1.3899999999998633, 2.29030042334234 
1.3999999999998622, 2.271206502820205 
1.4099999999998611, 2.2995657556197315 
1.41999999999986, 2.3482218702168107 
1.429999999999859, 2.356985125378986 
1.4399999999998578, 2.3579130226595812 
1.4499999999998567, 2.354997719015706 
1.4599999999998556, 2.3277946731381465 
1.4699999999998545, -1.3980192878573914 
1.4799999999998534, -4.290077111438817 
1.4899999999998523, -4.3113849662411665 
1.4999999999998512, -4.312282158347291 
1.5099999999998501, -4.309058054180708 
1.519999999999849, -4.286335443326297 
1.529999999999848, -4.252756120204092 
1.5399999999998468, -4.270116443458805 
1.5499999999998457, -4.270684408729406 
1.5599999999998446, -4.2700772378366905 
1.5699999999998435, -4.26893537489222 
1.5799999999998424, -4.267609140472856 
1.5899999999998413, -4.266745212073971 
1.5999999999998402, -4.258687666929142 
1.6099999999998391, -4.268359221900175 
1.619999999999838, -4.2796789565762365 
1.629999999999837, -4.280749654557395 
1.6399999999998358, -4.278340996266582 
1.6499999999998347, -4.24966256200937 
1.6599999999998336, 0.8203644594255654 
1.6699999999998325, 2.651275944431389 
1.6799999999998314, 2.665948938219295 
1.6899999999998303, 2.666439035414861 
1.6999999999998292, 2.6608500037530876 
1.709999999999828, 2.584336695118731 
1.719999999999827, 2.143522170599105 
1.729999999999826, 2.316328474875683 
1.7399999999998248, 2.329001526610979 
1.7499999999998237, 2.3303520239382 
1.7599999999998226, 2.3302271644621975 
1.7699999999998215, 2.3302035239901273 
1.7799999999998204, 2.3299577800533635 
1.7899999999998193, 2.329100674812588 
1.7999999999998182, 2.3283530231117027 
1.809999999999817, 2.3277285582310023 
1.819999999999816, 2.325020514169173 
1.8299999999998149, 2.306092565060695 
1.8399999999998138, 2.143520857092968 
1.8499999999998127, 2.548617594723052 
1.8599999999998116, 2.589361141103678 
1.8699999999998105, 2.592645518107557 
1.8799999999998094, 2.5907889958821615 
1.8899999999998083, 2.5708739727430396 
1.8999999999998072, -0.33453247386051455 
1.909999999999806, -4.22468917578684 
1.919999999999805, -4.247254280146013 
1.9299999999998039, -4.248055410588568 
1.9399999999998028, -4.2454426484925865 
1.9499999999998017, -4.231911536564718 
1.9599999999998006, -4.220953110761711 
1.9699999999997995, -4.227770581562432 
1.9799999999997984, -4.227289994923092 
1.9899999999997973, -4.227213310504598 
1.9999999999997962, -4.227024961497671 
2.0099999999998173, -4.226242892394769 
2.0199999999998384, -4.22449627753773 
2.0299999999998595, -4.207323353124742 
2.0399999999998806, -4.23422659900752 
2.0499999999999017, -4.260877985275053 
2.059999999999923, -4.263342962262702 
2.069999999999944, -4.26162420670447 
2.079999999999965, -4.245935773716576 
2.089999999999986, -3.2642820917001267 
2.100000000000007, 2.23975785166917 
2.1100000000000283, 2.2870759268247305 
2.1200000000000494, 2.2907171541966886 
2.1300000000000705, 2.289941813726282 
2.1400000000000916, 2.284256076239414 
2.1500000000001127, 2.2573065809694386 
2.160000000000134, 2.213252115869957 
2.170000000000155, 2.2269675801127535 
2.180000000000176, 2.233228422597839 
2.190000000000197, 2.233810734869495 
2.2000000000002182, 2.2325050392963486 
2.2100000000002393, 2.232576535436144 
2.2200000000002604, 2.236854880144876 
2.2300000000002815, 2.24063806154104 
2.2400000000003026, 2.2419325830598322 
2.2500000000003237, 2.241678006803192 
2.260000000000345, 2.2393745075899867 
2.270000000000366, 2.224025531522555 
2.280000000000387, 1.578040653972549 
2.290000000000408, -4.326700688540275 
2.3000000000004293, -4.389262948738257 
2.3100000000004504, -4.392916775401356 
2.3200000000004715, -4.391087392460749 
2.3300000000004926, -4.376925506445392 
2.3400000000005137, -3.915815356749655 
2.3500000000005348, -3.9217863180173644 
2.360000000000556, -3.959317682354184 
2.370000000000577, -3.9609743678052247 
2.380000000000598, -3.960045564885165 
2.390000000000619, -3.957513430396868 
2.4000000000006403, -3.953573956902244 
2.4100000000006614, -3.954280140727545 
2.4200000000006825, -3.952561480801743 
2.4300000000007036, -3.9500086196104425 
2.4400000000007247, -3.957396130535291 
2.450000000000746, -3.959633636626232 
2.460000000000767, -3.959315765527717 
2.470000000000788, -3.9547915050329365 
2.480000000000809, -3.880793124865395 
2.49000000000083, 2.4498568955620894 
2.5000000000008513, 3.1469458866786555 
2.5100000000008724, 3.1543606003389817 
2.5200000000008935, 3.152809289563439 
2.5300000000009146, 3.125568719342226 
2.5400000000009357, -2.261865855660766 
2.550000000000957, -3.9723144972491036 
2.560000000000978, -3.9901554257028593 
2.570000000000999, -3.9907848832517807 
2.58000000000102, -3.9890366268622066 
2.5900000000010412, -3.982811570116514 
2.6000000000010624, -3.976911425283281 
2.6100000000010835, -3.9797028454376986 
2.6200000000011046, -3.978528074888331 
2.6300000000011257, -3.978330375554685 
2.6400000000011468, -3.9809534480040485 
2.650000000001168, -3.9811247580177764 
2.660000000001189, -3.980175299265953 
2.67000000000121, -3.9715977708570684 
2.680000000001231, -3.775829487368587 
2.6900000000012523, -4.269826706971587 
2.7000000000012734, -4.324579766577486 
2.7100000000012945, -4.328111964560053 
2.7200000000013156, -4.326443337829552 
2.7300000000013367, -4.313192804324525 
2.740000000001358, -3.7692243867222026 
2.750000000001379, 2.106058788339947 
2.7600000000014, 2.189179512786475 
2.770000000001421, 2.1948631587729217 
2.780000000001442, 2.195376135437538 
2.7900000000014633, 2.1944154063612586 
2.8000000000014844, 2.1916100239988614 
2.8100000000015055, 2.186451770370593 
2.8200000000015266, 2.182707767395221 
2.8300000000015477, 2.1828655887423856 
2.840000000001569, 2.1830973036743284 
2.85000000000159, 2.1807717149964696 
2.860000000001611, 2.1702987371279185 
2.870000000001632, 2.1614485503335787 
2.8800000000016532, 2.2187994123667414 
2.8900000000016743, 2.239253845389275 
2.9000000000016954, 2.2428895659023826 
2.9100000000017165, 2.2424001572217938 
2.9200000000017377, 2.2362304101301076 
2.9300000000017588, 2.1496744667777437 
2.94000000000178, -3.7901425063341514 
2.950000000001801, -4.1778193278695905 
2.960000000001822, -4.187831465106 
2.970000000001843, -4.187700883143279 
2.9800000000018643, -4.183424039656372 
2.9900000000018854, -4.155119212697241 
3.0000000000019065, -4.140325598980863 
3.0100000000019276, -4.151235341221961 
3.0200000000019487, -4.151204405016435 
3.03000000000197, -4.150799556320352 
3.040000000001991, -4.149939512784646 
3.050000000002012, -4.148866432062655 
3.060000000002033, -4.147770366581351 
3.070000000002054, -4.137755548554279 
3.0800000000020753, -4.148648129686029 
3.0900000000020964, -4.167933599471147 
3.1000000000021175, -4.170176776514895 
3.1100000000021386, -4.168744532671195 
3.1200000000021597, -4.155443261297398 
3.130000000002181, -3.5046509647513657 
3.140000000002202, 2.230244553141252 
3.150000000002223, 2.2900772402646363 
3.160000000002244, 2.2943106635109234 
3.1700000000022652, 2.2935274559069248 
3.1800000000022863, 2.2868572210512257 
3.1900000000023074, 2.244321979811047 
3.2000000000023285, 2.1527772345872482 
3.2100000000023496, 2.185916126380896 
3.2200000000023707, 2.1950344196497413 
3.230000000002392, 2.1961505198384392 
3.240000000002413, 2.195440701302572 
3.250000000002434, 2.195602626235922 
3.260000000002455, 2.1980686655296813 
3.2700000000024763, 2.2003294874890655 
3.2800000000024974, 2.201082977451488 
3.2900000000025185, 2.200797706261565 
3.3000000000025396, 2.199073001569995 
3.3100000000025607, 2.1894247735011927 
3.3200000000025818, 2.003313401487509 
3.330000000002603, -4.342455604711609 
3.340000000002624, -4.580503085588868 
3.350000000002645, -4.587040514255456 
3.360000000002666, -4.585903528289436 
3.3700000000026873, -4.574448203240405 
3.3800000000027084, -4.018624828624212 
3.3900000000027295, -2.7930868707282457 
3.4000000000027506, -3.1050037867585365 
3.4100000000027717, -3.1223352597867606 
3.420000000002793, -3.12397908762241 
3.430000000002814, -3.1234460160420205 
3.440000000002835, -3.1226389207865983 
3.450000000002856, -3.1206974162190297 
3.460000000002877, -3.118899064708376 
3.4700000000028983, -3.118871351266375 
3.4800000000029194, -3.1168898224238495 
3.4900000000029405, -3.10523149628336 
3.5000000000029616, -3.103959064645532 
3.5100000000029827, -3.1584976035989296 
3.520000000003004, -3.1737488605510995 
3.530000000003025, -3.177092742233506 
3.540000000003046, -3.1771925097062343 
3.550000000003067, -3.1744049500353886 
3.5600000000030882, -3.163598251814373 
3.5700000000031094, -3.1014344785199572 
3.5800000000031305, -1.9019944556406188 
3.5900000000031516, 0.8880571475722923 
3.6000000000031727, 1.0640049127737838 
3.6100000000031938, 1.0858977840136856 
3.620000000003215, 1.0910447697548282 
3.630000000003236, 1.09240972945178 
3.640000000003257, 1.0925839050042723 
3.650000000003278, 1.0924971109077775 
3.6600000000032993, 1.0928217955541089 
3.6700000000033204, 1.0941555822658182 
3.6800000000033415, 1.0966402967218014 
3.6900000000033626, 1.0996403273409256 
3.7000000000033837, 1.1022306651352924 
3.710000000003405, 1.10390237134053 
3.720000000003426, 1.1045833489683927 
3.730000000003447, 1.1042220880988454 
3.740000000003468, 1.1022151468796304 
3.750000000003489, 1.0956472443736922 
3.7600000000035103, 1.066973563840174 
3.7700000000035314, 0.7768191744072925 
3.7800000000035525, -2.3825700298160677 
3.7900000000035736, -2.9677119061020387 
3.8000000000035947, -3.0054878962851044 
3.810000000003616, -3.0111805768265323 
3.820000000003637, -3.011601066152033 
3.830000000003658, -3.010256245362714 
3.840000000003679, -3.0068233512619456 
3.8500000000037002, -2.9989307357602284 
3.8600000000037213, -2.994187093371582 
3.8700000000037424, -2.996334324711552 
3.8800000000037635, -2.9961441648273395 
3.8900000000037847, -2.9925866899177818 
3.9000000000038058, -2.9938082890427498 
3.910000000003827, -3.0040909460340908 
3.920000000003848, -3.0087182400937964 
3.930000000003869, -3.009894570672952 
3.94000000000389, -3.0093299952874273 
3.9500000000039113, -3.005452232092215 
3.9600000000039324, -2.9874397471582514 
3.9700000000039535, -2.839090146650622 
3.9800000000039746, -0.3896330616074618 
3.9900000000039957, 0.9411163288409368 
4.000000000004016, 1.0205176383905314 
4.010000000003993, 1.033798096800982 
4.02000000000397, 1.0372812844807593 
4.030000000003946, 1.0381297992181828 
4.040000000003923, 1.0379238725471691 
4.0500000000039, 1.0371301952821057 
4.0600000000038765, 1.035947524265119 
4.070000000003853, 1.0345628082872045 
4.08000000000383, 1.0332278384185107 
4.090000000003807, 1.0321891437281712 
4.100000000003783, 1.031544330936696 
4.11000000000376, 1.0311808542837777 
4.120000000003737, 1.0308276231632314 
4.130000000003713, 1.0300714989123467 
4.14000000000369, 1.0281014914623352 
4.150000000003667, 1.0224025764353788 
4.1600000000036434, 1.0005960757192356 
4.17000000000362, 0.8391381405978071 
4.180000000003597, -1.6325474439314216 
4.1900000000035735, -2.930885275857183 
4.20000000000355, -3.0092556875137957 
4.210000000003527, -3.021583356830148 
4.220000000003504, -3.023970498246801 
4.23000000000348, -3.023379701367567 
4.240000000003457, -3.0206088042534844 
4.250000000003434, -3.0124829345174122 
4.26000000000341, -2.9928108896113708 
4.270000000003387, -2.9888710070984 
4.280000000003364, -2.9939386462746667 
4.2900000000033405, -2.994210329947662 
4.300000000003317, -2.992291376866942 
4.310000000003294, -2.9940790455589674 
4.320000000003271, -2.9982360685417286 
4.330000000003247, -2.999781152861967 
4.340000000003224, -2.9999461936757985 
4.350000000003201, -2.998611643163687 
4.360000000003177, -2.9915764103363527 
4.370000000003154, -2.940821725118856 
4.380000000003131, -1.7154806075113367 
4.390000000003107, 1.22352739097713 
4.400000000003084, 1.3471509464306837 
4.410000000003061, 1.360878641831642 
4.4200000000030375, 1.3636252100537927 
4.430000000003014, 1.3634419558989754 
4.440000000002991, 1.3610065498729407 
4.450000000002968, 1.3545473093529938 
4.460000000002944, 1.3402237534347772 
4.470000000002921, 1.3196185842977484 
4.480000000002898, 1.308690027261901 
4.490000000002874, 1.3091013087472017 
4.500000000002851, 1.3112624374916058 
4.510000000002828, 1.3121329483355624 
4.520000000002804, 1.3112682726180014 
4.530000000002781, 1.307301761421783 
4.540000000002758, 1.29389138990773 
4.5500000000027345, 1.248968627055286 
4.560000000002711, 1.3062979500961034 
4.570000000002688, 1.5402638942834033 
4.580000000002665, 1.5874222434154912 
4.590000000002641, 1.5957953372070102 
4.600000000002618, 1.59720210013316 
4.610000000002595, 1.5954740309109998 
4.620000000002571, 1.586634158215637 
4.630000000002548, 1.5226995503901901 
4.640000000002525, 0.4261136454441405 
4.6500000000025015, -1.130938634060765 
4.660000000002478, -1.433148288530257 
4.670000000002455, -1.498403392732326 
4.6800000000024315, -1.5154092147843286 
4.690000000002408, -1.520394311689091 
4.700000000002385, -1.52142888899639 
4.710000000002362, -1.5205427886432779 
4.720000000002338, -1.518572362061763 
4.730000000002315, -1.5179998288576284 
4.740000000002292, -1.5245764764411855 
4.750000000002268, -1.5397229953661884 
4.760000000002245, -1.5560337525865187 
4.770000000002222, -1.5683992947271181 
4.7800000000021985, -1.576791713601879 
4.790000000002175, -1.5824746633584534 
4.800000000002152, -1.5863807124645681 
4.810000000002129, -1.589021320835606 
4.820000000002105, -1.5906605163538372 
4.830000000002082, -1.5914293125483963 
4.840000000002059, -1.5913894406846125 
4.850000000002035, -1.5905787294431062 
4.860000000002012, -1.5890359536541898 
4.870000000001989, -1.5867774439541085 
4.880000000001965, -1.5837057810320287 
4.890000000001942, -1.579599066672596 
4.900000000001919, -1.5745530457045078 
4.9100000000018955, -1.569816187282602 
4.920000000001872, -1.567260910966548 
4.930000000001849, -1.5668934965837533 
4.940000000001826, -1.567024079618473 
4.950000000001802, -1.5662555976505086 
4.960000000001779, -1.5631964726193301 
4.970000000001756, -1.5540805495341465 
4.980000000001732, -1.524785496991867 
4.990000000001709, -1.4143460295662271 
5.000000000001686, -0.9942280569420424 
5.0100000000016625, -0.26305349923676713 
5.020000000001639, 0.07277949806859525 
