t, s[1].omega / s[0].omega 
0, -0.9999975592860242 
0.009999999999999995, -0.9997332555555326 
0.019999999999999934, -0.9993970531697214 
0.029999999999999874, -0.9989131879060595 
0.04000000000000012, -0.9982106858262145 
0.050000000000000405, -0.9972757304458696 
0.06000000000000069, -0.9961781272130091 
0.07000000000000098, -0.9950571965591963 
0.08000000000000126, -0.9940695225315819 
0.09000000000000155, -0.9933239269536422 
0.10000000000000184, -0.9928535707730266 
0.11000000000000212, -0.9926491138366222 
0.12000000000000241, -0.9927072866149789 
0.130000000000002, -0.9930317485908617 
0.1400000000000009, -0.9935865212508539 
0.1499999999999998, -0.9942644257900225 
0.1599999999999987, -0.9949146374927297 
0.1699999999999976, -0.9954057408006227 
0.1799999999999965, -0.9956756277434033 
0.1899999999999954, -0.9957430995182175 
0.1999999999999943, -0.9956793917630933 
0.2099999999999932, -0.9955557919175982 
0.2199999999999921, -0.9953968740095107 
0.229999999999991, -0.9951635364721119 
0.2399999999999899, -0.9947740241800325 
0.2499999999999888, -0.9941543394652858 
0.2599999999999877, -0.9932914122685528 
0.2699999999999866, -0.9922591912922444 
0.2799999999999855, -0.9912042525300444 
0.2899999999999844, -0.9902929834397618 
0.2999999999999833, -0.9896429915439222 
0.3099999999999822, -0.9892889350615104 
0.3199999999999811, -0.9892125936809464 
0.32999999999998, -0.9893959399597838 
0.3399999999999789, -0.9898313356013617 
0.3499999999999778, -0.990481953333745 
0.35999999999997667, -0.9912494297449876 
0.36999999999997557, -0.9919949744119148 
0.37999999999997447, -0.9925970602319062 
0.38999999999997337, -0.9929993540406368 
0.39999999999997227, -0.9932216224249709 
0.40999999999997117, -0.9933311821708208 
0.41999999999997006, -0.9933917817771946 
0.42999999999996896, -0.9934185654271616 
0.43999999999996786, -0.9933623489129904 
0.44999999999996676, -0.9931323378991296 
0.45999999999996566, -0.9926491244521418 
0.46999999999996456, -0.9918995051667633 
0.47999999999996346, -0.9909625522617567 
0.48999999999996235, -0.9899954047293583 
0.49999999999996125, -0.9891802267847984 
0.5099999999999602, -0.988650206646609 
0.519999999999959, -0.9884449823127948 
0.529999999999958, -0.9885353622996359 
0.5399999999999568, -0.9888832984161644 
0.5499999999999557, -0.9894657475246177 
0.5599999999999546, -0.9902442809915357 
0.5699999999999535, -0.9911310078920861 
0.5799999999999524, -0.9920010012859048 
0.5899999999999513, -0.99274324260673 
0.5999999999999502, -0.9933065652711643 
0.6099999999999491, -0.9937105516040446 
0.619999999999948, -0.9940175935005655 
0.6299999999999469, -0.994283219929452 
0.6399999999999458, -0.9945124764997043 
0.6499999999999447, -0.9946452342455929 
0.6599999999999436, -0.9945809758718624 
0.6699999999999425, -0.9942349647538217 
0.6799999999999414, -0.9935947357339735 
0.6899999999999403, -0.9927455647903404 
0.6999999999999392, -0.991855957953279 
0.7099999999999381, -0.9911244194923687 
0.719999999999937, -0.9907003741949211 
0.7299999999999359, -0.9906294230235927 
0.7399999999999348, -0.9908727826244785 
0.7499999999999337, -0.9913738531155334 
0.7599999999999326, -0.9920946309247931 
0.7699999999999315, -0.9929934088859517 
0.7799999999999304, -0.9939894711597393 
0.7899999999999293, -0.9949685465972863 
0.7999999999999282, -0.9958280991690669 
0.8099999999999271, -0.9965213607041123 
0.819999999999926, -0.9970680410307656 
0.8299999999999249, -0.9975267396264609 
0.8399999999999238, -0.9979462381573603 
0.8499999999999227, -0.9983230064636747 
0.8599999999999216, -0.998587854192262 
0.8699999999999205, -0.9986332316209678 
0.8799999999999194, -0.9983722763409995 
0.8899999999999183, -0.9977959252051573 
0.8999999999999172, -0.9969966815923913 
0.9099999999999161, -0.9961526575857848 
0.919999999999915, -0.9954731546284774 
0.9299999999999139, -0.9951159319183459 
0.9399999999999128, -0.9951274008051308 
0.9499999999999117, -0.9954612911492928 
0.9599999999999106, -0.9960503000326157 
0.9699999999999095, -0.99684850648689 
0.9799999999999084, -0.997811718903856 
0.9899999999999073, -0.9988612444067732 
0.9999999999999062, -0.9998869375593145 
1.0099999999999052, -1.0007905629569367 
1.019999999999904, -1.0015286627678885 
1.029999999999903, -1.0021222722876302 
1.039999999999902, -1.0026286249668477 
1.0499999999999008, -1.0030926171494294 
1.0599999999998997, -1.003505459038459 
1.0699999999998986, -1.0037933574006923 
1.0799999999998975, -1.0038473826574248 
1.0899999999998964, -1.003583936970237 
1.0999999999998953, -1.0030006695280367 
1.1099999999998942, -1.0021975562896768 
1.119999999999893, -1.0013581871002684 
1.129999999999892, -1.000692312238543 
1.1399999999998909, -1.0003516073939287 
1.1499999999998898, -1.0003736800015024 
1.1599999999998887, -1.0007076449085108 
1.1699999999998876, -1.001287975293687 
1.1799999999998865, -1.0020723418584017 
1.1899999999998854, -1.0030166188516518 
1.1999999999998843, -1.0040383579297858 
1.2099999999998832, -1.005023771594829 
1.219999999999882, -1.0058741486918712 
1.229999999999881, -1.0065484492521535 
1.2399999999998799, -1.0070708095597112 
1.2499999999998788, -1.0075001168711366 
1.2599999999998777, -1.0078808168259348 
1.2699999999998766, -1.008202910231748 
1.2799999999998755, -1.0083933180987035 
1.2899999999998744, -1.008347882099276 
1.2999999999998733, -1.0079913307627186 
1.3099999999998722, -1.007330289901078 
1.319999999999871, -1.0064710067144307 
1.32999999999987, -1.0055965983440525 
1.3399999999998689, -1.004905262593907 
1.3499999999998678, -1.0045284536381958 
1.3599999999998666, -1.0044884182032054 
1.3699999999998655, -1.0047360629336874 
1.3799999999998644, -1.0052210251474658 
1.3899999999998633, -1.0059139403271986 
1.3999999999998622, -1.006770413002333 
1.4099999999998611, -1.0076972996047668 
1.41999999999986, -1.008570315653241 
1.429999999999859, -1.0092871036029085 
1.4399999999998578, -1.0098093172970775 
1.4499999999998567, -1.010166470910564 
1.4599999999998556, -1.010422116288837 
1.4699999999998545, -1.0106233128569329 
1.4799999999998534, -1.0107620930974348 
1.4899999999998523, -1.0107698367116913 
1.4999999999998512, -1.0105508920907815 
1.5099999999998501, -1.0100407634938724 
1.519999999999849, -1.0092553171122671 
1.529999999999848, -1.008304618801946 
1.5399999999998468, -1.0073652427337962 
1.5499999999998457, -1.0066149520250736 
1.5599999999998446, -1.006158679662796 
1.5699999999998435, -1.0060054305615935 
1.5799999999998424, -1.0061169728946686 
1.5899999999998413, -1.0064663392030606 
1.5999999999998402, -1.0070383113531718 
1.6099999999998391, -1.007782870289359 
1.619999999999838, -1.0085898076592128 
1.629999999999837, -1.0093211662595685 
1.6399999999998358, -1.0098709721407826 
1.6499999999998347, -1.0102051963390672 
1.6599999999998336, -1.0103608687004928 
1.6699999999998325, -1.010408243562436 
1.6799999999998314, -1.0103986042559634 
1.6899999999998303, -1.010327202310004 
1.6999999999998292, -1.010130658613542 
1.709999999999828, -1.0097219802970492 
1.719999999999827, -1.0090467834653944 
1.729999999999826, -1.0081286901525133 
1.7399999999998248, -1.0070790572711268 
1.7499999999998237, -1.006064577228588 
1.7599999999998226, -1.0052410348258645 
1.7699999999998215, -1.0046905791477994 
1.7799999999998204, -1.0044166801555567 
1.7899999999998193, -1.0043973122605239 
1.7999999999998182, -1.0046275178404867 
1.809999999999817, -1.0050997843998537 
1.819999999999816, -1.0057525782271128 
1.8299999999998149, -1.0064573180931815 
1.8399999999998138, -1.0070647034258822 
1.8499999999998127, -1.0074680044817899 
1.8599999999998116, -1.0076393372829835 
1.8699999999998105, -1.0076239754642666 
1.8799999999998094, -1.0074987623359615 
1.8899999999998083, -1.0073184935153503 
1.8999999999998072, -1.0070803844597545 
1.909999999999806, -1.0067243111759088 
1.919999999999805, -1.0061692520139875 
1.9299999999998039, -1.0053681550140856 
1.9399999999998028, -1.0043502452792978 
1.9499999999998017, -1.0032271855133486 
1.9599999999998006, -1.0021573369027368 
1.9699999999997995, -1.0012805494306183 
1.9799999999997984, -1.000665243374749 
1.9899999999997973, -1.0003147858401558 
1.9999999999997962, -1.0002200364494758 
2.0099999999998173, -1.0003886421112793 
2.0199999999998384, -1.0008132127881508 
2.0299999999998595, -1.00142062668468 
2.0399999999998806, -1.0020699780882512 
2.0499999999999017, -1.0026072461506024 
2.059999999999923, -1.0029286648343674 
2.069999999999944, -1.0030131153323976 
2.079999999999965, -1.0029125233323062 
2.089999999999986, -1.0027075341123992 
2.100000000000007, -1.0024533653972467 
2.1100000000000283, -1.0021459842575777 
2.1200000000000494, -1.0017248126776024 
2.1300000000000705, -1.0011106893998378 
2.1400000000000916, -1.0002603707270858 
2.1500000000001127, -0.9992069677641011 
2.160000000000134, -0.9980637885149173 
2.170000000000155, -0.996986815067582 
2.180000000000176, -0.9961101382745072 
2.190000000000197, -0.9954971556161002 
2.2000000000002182, -0.995150725458469 
2.2100000000002393, -0.995064305890268 
2.2200000000002604, -0.9952462348566733 
2.2300000000002815, -0.9956854424217436 
2.2400000000003026, -0.9963037639999186 
2.2500000000003237, -0.9969585824613091 
2.260000000000345, -0.9974988895995022 
2.270000000000366, -0.9978267248052404 
2.280000000000387, -0.9979267184148976 
2.290000000000408, -0.9978539433360991 
2.3000000000004293, -0.9976883265889548 
2.3100000000004504, -0.9974811835849332 
2.3200000000004715, -0.9972232129252694 
2.3300000000004926, -0.9968491369163349 
2.3400000000005137, -0.9962773352694748 
2.3500000000005348, -0.9954651073985806 
2.360000000000556, -0.9944485618430366 
2.370000000000577, -0.9933454923769309 
2.380000000000598, -0.9923172222354959 
2.390000000000619, -0.9915028423577258 
2.4000000000006403, -0.9909677272849992 
2.4100000000006614, -0.9907110998917477 
2.4200000000006825, -0.9907176011646909 
2.4300000000007036, -0.9909858682003441 
2.4400000000007247, -0.9914999914968586 
2.450000000000746, -0.9921846312153593 
2.460000000000767, -0.9929053497794312 
2.470000000000788, -0.9935202879952545 
2.480000000000809, -0.9939387503766755 
2.49000000000083, -0.9941492450618578 
2.5000000000008513, -0.9942062579879588 
2.5100000000008724, -0.994184834363877 
2.5200000000008935, -0.9941286688089113 
2.5300000000009146, -0.9940197203815307 
2.5400000000009357, -0.9937843132651935 
2.550000000000957, -0.9933348170534696 
2.560000000000978, -0.9926267564984211 
2.570000000000999, -0.9916990595986663 
2.58000000000102, -0.990676760591341 
2.5900000000010412, -0.9897329950164424 
2.6000000000010624, -0.989020691933176 
2.6100000000010835, -0.9886133352969309 
2.6200000000011046, -0.9885052072378245 
2.6300000000011257, -0.988664689979714 
2.6400000000011468, -0.9890735072626307 
2.650000000001168, -0.9897091873305774 
2.660000000001189, -0.9905028980434757 
2.67000000000121, -0.991333441990238 
2.680000000001231, -0.9920711425946849 
2.6900000000012523, -0.9926329018340402 
2.7000000000012734, -0.9930096077547812 
2.7100000000012945, -0.993252955969756 
2.7200000000013156, -0.9934310461497894 
2.7300000000013367, -0.9935781833265892 
2.740000000001358, -0.9936657242770177 
2.750000000001379, -0.9936095219155302 
2.7600000000014, -0.9933142580602887 
2.770000000001421, -0.9927331074195795 
2.780000000001442, -0.9919084199163258 
2.7900000000014633, -0.9909740933555243 
2.8000000000014844, -0.9901179695746407 
2.8100000000015055, -0.9895108813414814 
2.8200000000015266, -0.9892380263285693 
2.8300000000015477, -0.9892898698905187 
2.840000000001569, -0.9896171525687493 
2.85000000000159, -0.9901824342395106 
2.860000000001611, -0.9909547670719527 
2.870000000001632, -0.9918704736329674 
2.8800000000016532, -0.9928206733426844 
2.8900000000016743, -0.993687153034146 
2.9000000000016954, -0.9943937240329278 
2.9100000000017165, -0.9949331273402567 
2.9200000000017377, -0.9953541985313825 
2.9300000000017588, -0.9957184747746183 
2.94000000000178, -0.9960513508024172 
2.950000000001801, -0.996313985077361 
2.960000000001822, -0.9964124317075382 
2.970000000001843, -0.9962450438369936 
2.9800000000018643, -0.99576449008522 
2.9900000000018854, -0.9950180555185375 
3.0000000000019065, -0.9941487576670065 
3.0100000000019276, -0.9933574497182311 
3.0200000000019487, -0.9928295091450844 
3.03000000000197, -0.9926589473101017 
3.040000000001991, -0.9928327308804097 
3.050000000002012, -0.9932879404771457 
3.060000000002033, -0.993972615643876 
3.070000000002054, -0.9948486235453539 
3.0800000000020753, -0.9958541793171996 
3.0900000000020964, -0.9968874387646508 
3.1000000000021175, -0.9978375115087459 
3.1100000000021386, -0.9986332887982124 
3.1200000000021597, -0.9992695400360321 
3.130000000002181, -0.9997937693339166 
3.140000000002202, -1.0002631087699765 
3.150000000002223, -1.0006963990420452 
3.160000000002244, -1.0010474659809798 
3.1700000000022652, -1.0012164910944867 
3.1800000000022863, -1.0011001140502387 
3.1900000000023074, -1.0006543853201921 
3.2000000000023285, -0.9999333814599108 
3.2100000000023496, -0.9990880098076973 
3.2200000000023707, -0.9983261940617603 
3.230000000002392, -0.9978370236544695 
3.240000000002413, -0.9977127547706408 
3.250000000002434, -0.997934533630685 
3.260000000002455, -0.9984336638206177 
3.2700000000024763, -0.9991548809523509 
3.2800000000024974, -1.0000585615112996 
3.2900000000025185, -1.001081978038992 
3.3000000000025396, -1.0021230269988206 
3.3100000000025607, -1.0030720332152538 
3.3200000000025818, -1.0038604515317044 
3.330000000002603, -1.0044856662205834 
3.340000000002624, -1.0049962382269455 
3.350000000002645, -1.005447986995073 
3.360000000002666, -1.0058567076779728 
3.3700000000026873, -1.0061734413601227 
3.3800000000027084, -1.0062984437941118 
3.3900000000027295, -1.006132755076339 
3.4000000000027506, -1.0056399796973223 
3.4100000000027717, -1.0048820264474285 
3.420000000002793, -1.0040147459341697 
3.430000000002814, -1.0032442470242278 
3.440000000002835, -1.0027487193884599 
3.450000000002856, -1.0026057336221004 
3.460000000002877, -1.0027892456918257 
3.4700000000028983, -1.0032357337873443 
3.4800000000029194, -1.0039001890026105 
3.4900000000029405, -1.004747467760576 
3.5000000000029616, -1.0057101705783191 
3.5100000000029827, -1.0066780694116582 
3.520000000003004, -1.0075368416022896 
3.530000000003025, -1.008218651208935 
3.540000000003046, -1.0087247217199056 
3.550000000003067, -1.0091074722415534 
3.5600000000030882, -1.0094246915741176 
3.5700000000031094, -1.0096926877531724 
3.5800000000031305, -1.0098640787530122 
3.5900000000031516, -1.0098443866115394 
3.6000000000031727, -1.00954372452974 
3.6100000000031938, -1.0089357210845138 
3.620000000003215, -1.0080896159905666 
3.630000000003236, -1.0071619072369065 
3.640000000003257, -1.0063476037397858 
3.650000000003278, -1.005802051417556 
3.6600000000032993, -1.0055813929009543 
3.6700000000033204, -1.0056566772272624 
3.6800000000033415, -1.0059809794360417 
3.6900000000033626, -1.0065284640486216 
3.7000000000033837, -1.0072688389020485 
3.710000000003405, -1.0081238332329332 
3.720000000003426, -1.0089685421958525 
3.730000000003447, -1.0096808492237777 
3.740000000003468, -1.0101937209915384 
3.750000000003489, -1.010514145928592 
3.7600000000035103, -1.0107010180890383 
3.7700000000035314, -1.0108166599191513 
3.7800000000035525, -1.0108802322631276 
3.7900000000035736, -1.0108482556410165 
3.8000000000035947, -1.010633704451397 
3.810000000003616, -1.0101571357422994 
3.820000000003637, -1.009402171108144 
3.830000000003658, -1.008443599355847 
3.840000000003679, -1.007434466525527 
3.8500000000037002, -1.0065528655664453 
3.8600000000037213, -1.0059277778294082 
3.8700000000037424, -1.0055970294734824 
3.8800000000037635, -1.0055367485657505 
3.8900000000037847, -1.0057226992354642 
3.9000000000038058, -1.0061477318794032 
3.910000000003827, -1.0067806293050996 
3.920000000003848, -1.0075265274444707 
3.930000000003869, -1.0082438539069332 
3.94000000000389, -1.0088037343631635 
3.9500000000039113, -1.0091418541677404 
3.9600000000039324, -1.0092727159015338 
3.9700000000039535, -1.0092629956743369 
3.9800000000039746, -1.0091803014103728 
3.9900000000039957, -1.009046839950746 
4.000000000004016, -1.0088226306744097 
4.010000000003993, -1.0084269743300844 
4.02000000000397, -1.007789130351543 
4.030000000003946, -1.0069007588540564 
4.040000000003923, -1.005840233400724 
4.0500000000039, -1.0047555244482398 
4.0600000000038765, -1.0038085015780551 
4.070000000003853, -1.0031072149871674 
4.08000000000383, -1.002679331239948 
4.090000000003807, -1.0025103717868293 
4.100000000003783, -1.0025954605328202 
4.11000000000376, -1.0029382256547774 
4.120000000003737, -1.0035006646503448 
4.130000000003713, -1.004171495329135 
4.14000000000369, -1.0047968302471653 
4.150000000003667, -1.0052453523045874 
4.1600000000036434, -1.0054576976790317 
4.17000000000362, -1.0054561342127877 
4.180000000003597, -1.005314023984157 
4.1900000000035735, -1.0051024618759539 
4.20000000000355, -1.0048445498797203 
4.210000000003527, -1.0045011272171513 
4.220000000003504, -1.0039944441151323 
4.23000000000348, -1.003258935811131 
4.240000000003457, -1.0022916499915098 
4.250000000003434, -1.001173670227106 
4.26000000000341, -1.0000500675164405 
4.270000000003387, -0.9990732813890058 
4.280000000003364, -0.998340280251151 
4.2900000000033405, -0.9978746885800733 
4.300000000003317, -0.9976678867518094 
4.310000000003294, -0.9977235618214518 
4.320000000003271, -0.9980470388690081 
4.330000000003247, -0.9985932849198538 
4.340000000003224, -0.9992421536182766 
4.350000000003201, -0.9998361540545743 
4.360000000003177, -1.0002466888116466 
4.370000000003154, -1.0004204757149116 
4.380000000003131, -1.000385734609528 
4.390000000003107, -1.0002189868466709 
4.400000000003084, -0.9999908547919224 
4.410000000003061, -0.9997215622239868 
4.4200000000030375, -0.9993688529884498 
4.430000000003014, -0.9988536124434999 
4.440000000002991, -0.9981114654600038 
4.450000000002968, -0.9971424998541755 
4.460000000002944, -0.9960311131739792 
4.470000000002921, -0.9949245413775911 
4.480000000002898, -0.993975587343791 
4.490000000002874, -0.9932801628117724 
4.500000000002851, -0.9928601222168869 
4.510000000002828, -0.9927041539992898 
4.520000000002804, -0.9928116822857438 
4.530000000002781, -0.9931831443013047 
4.540000000002758, -0.9937708976145545 
4.5500000000027345, -0.9944566225731745 
4.560000000002711, -0.9950883470287406 
4.570000000002688, -0.9955442978053851 
4.580000000002665, -0.9957770389180844 
4.590000000002641, -0.9958176505761843 
4.600000000002618, -0.9957413450080091 
4.610000000002595, -0.995613831389921 
4.620000000002571, -0.9954485003121698 
4.630000000002548, -0.995196036262309 
4.640000000002525, -0.9947718009863543 
4.6500000000025015, -0.9941091069079053 
4.660000000002478, -0.9932094707478137 
4.670000000002455, -0.9921619830014083 
4.6800000000024315, -0.9911216006495807 
4.690000000002408, -0.9902509845536128 
4.700000000002385, -0.9896538649138348 
4.710000000002362, -0.9893517687642042 
4.720000000002338, -0.989323065347385 
4.730000000002315, -0.9895525141027228 
4.740000000002292, -0.9900308669429755 
4.750000000002268, -0.9907115539444137 
4.760000000002245, -0.9914859815032834 
4.770000000002222, -0.9922139620600984 
4.7800000000021985, -0.9927828869041859 
4.790000000002175, -0.9931502859757171 
4.800000000002152, -0.9933473607867 
4.810000000002129, -0.9934447105996016 
4.820000000002105, -0.9935001335995043 
4.830000000002082, -0.993517465358279 
4.840000000002059, -0.9934374158191055 
4.850000000002035, -0.9931668501183868 
4.860000000002012, -0.9926346269589343 
4.870000000001989, -0.99184313159602 
4.880000000001965, -0.9908874832611572 
4.890000000001942, -0.9899341140800291 
4.900000000001919, -0.9891618249220542 
4.9100000000018955, -0.9886886087571121 
4.920000000001872, -0.9885381386577615 
4.930000000001849, -0.9886755180457966 
