t, s[1].omega / s[0].omega 
0, -1.2401441891381244 
0.009999999999999995, -1.2532404339187737 
0.019999999999999934, -1.2635401229174816 
0.029999999999999874, -1.270871312656696 
0.04000000000000012, -1.2754443790085535 
0.050000000000000405, -1.2778409276217817 
0.06000000000000069, -1.2787380059716758 
0.07000000000000098, -1.2787216708892846 
0.08000000000000126, -1.2783133170310947 
0.09000000000000155, -1.2780518629777062 
0.10000000000000184, -1.2783801635773941 
0.11000000000000212, -1.2793653789389432 
0.12000000000000241, -1.2807032732793204 
0.130000000000002, -1.2820682833576824 
0.1400000000000009, -1.2833247985363263 
0.1499999999999998, -1.284440654855111 
0.1599999999999987, -1.2853445726235528 
0.1699999999999976, -1.2859098958113901 
0.1799999999999965, -1.2860222544242803 
0.1899999999999954, -1.2856287714806667 
0.1999999999999943, -1.2847402445710676 
0.2099999999999932, -1.2833991167704748 
0.2199999999999921, -1.2816368618554326 
0.229999999999991, -1.279449450605827 
0.2399999999999899, -1.2768023454183828 
0.2499999999999888, -1.2736481499126178 
0.2599999999999877, -1.269930391319559 
0.2699999999999866, -1.265582164121915 
0.2799999999999855, -1.2606022338772218 
0.2899999999999844, -1.2552939009918593 
0.2999999999999833, -1.2505017441407738 
0.3099999999999822, -1.2472830426529802 
0.3199999999999811, -1.2459417513104554 
0.32999999999998, -1.2457317619014396 
0.3399999999999789, -1.245636927675761 
0.3499999999999778, -1.2448823524411448 
0.35999999999997667, -1.242722286882031 
0.36999999999997557, -1.2379499937930936 
0.37999999999997447, -1.2284269489338544 
0.38999999999997337, -1.2110806501499556 
0.39999999999997227, -1.1831960861533308 
0.40999999999997117, -1.1445847845733048 
0.41999999999997006, -1.0979150457482862 
0.42999999999996896, -1.0465697761696566 
0.43999999999996786, -0.9930863448013142 
0.44999999999996676, -0.939568871726124 
0.45999999999996566, -0.8888141897574945 
0.46999999999996456, -0.8446219636089495 
0.47999999999996346, -0.8105358093183629 
0.48999999999996235, -0.7878935425363698 
0.49999999999996125, -0.7751875825337892 
0.5099999999999602, -0.7693031146926197 
0.519999999999959, -0.7672011313236817 
0.529999999999958, -0.7667702314536824 
0.5399999999999568, -0.7668217001219914 
0.5499999999999557, -0.7667521460137499 
0.5599999999999546, -0.7662327168725762 
0.5699999999999535, -0.7650293209123811 
0.5799999999999524, -0.7629558300527093 
0.5899999999999513, -0.7599426322516274 
0.5999999999999502, -0.7561480239297125 
0.6099999999999491, -0.7519619065356297 
0.619999999999948, -0.7478342798750235 
0.6299999999999469, -0.7440778932997513 
0.6399999999999458, -0.7408062502670814 
0.6499999999999447, -0.7379888833369255 
0.6599999999999436, -0.7355323883852685 
0.6699999999999425, -0.733342509028427 
0.6799999999999414, -0.7313623921021148 
0.6899999999999403, -0.7295885527696786 
0.6999999999999392, -0.7280662010594041 
0.7099999999999381, -0.7268696216717696 
0.719999999999937, -0.7260768083386023 
0.7299999999999359, -0.7257479273457452 
0.7399999999999348, -0.7259139421612519 
0.7499999999999337, -0.7265757193507457 
0.7599999999999326, -0.7277094851004007 
0.7699999999999315, -0.7292753087593422 
0.7799999999999304, -0.7312290561703416 
0.7899999999999293, -0.7335394301995668 
0.7999999999999282, -0.7362082338837354 
0.8099999999999271, -0.7392868683522288 
0.819999999999926, -0.7428792994319535 
0.8299999999999249, -0.7471212711273638 
0.8399999999999238, -0.7521223349583668 
0.8499999999999227, -0.7578547054078844 
0.8599999999999216, -0.7640089914556393 
0.8699999999999205, -0.7699480519173878 
0.8799999999999194, -0.7749316690562715 
0.8899999999999183, -0.7785014942418256 
0.8999999999999172, -0.7806393012327746 
0.9099999999999161, -0.7815999224862431 
0.919999999999915, -0.7816882480635402 
0.9299999999999139, -0.7811778731296877 
0.9399999999999128, -0.7803969032777425 
0.9499999999999117, -0.7800042033786156 
0.9599999999999106, -0.7815553533944948 
0.9699999999999095, -0.7884014421079598 
0.9799999999999084, -0.8064302106307984 
0.9899999999999073, -0.842985993788241 
0.9999999999999062, -0.902122787492603 
1.0099999999999052, -0.9789641985580142 
1.019999999999904, -1.0613561987150568 
1.029999999999903, -1.1384218279192249 
1.039999999999902, -1.2050079945744427 
1.0499999999999008, -1.259612979410839 
1.0599999999998997, -1.3016029859531895 
1.0699999999998986, -1.3308533959597595 
1.0799999999998975, -1.3488234761582272 
1.0899999999998964, -1.3585439305463767 
1.0999999999998953, -1.363191426539274 
1.1099999999998942, -1.3650297579528226 
1.119999999999893, -1.3653755427296708 
1.129999999999892, -1.3650402927070244 
1.1399999999998909, -1.3647636048756215 
1.1499999999998898, -1.3652674205892128 
1.1599999999998887, -1.366783643068478 
1.1699999999998876, -1.3688475510869966 
1.1799999999998865, -1.3708687254447092 
1.1899999999998854, -1.3725911982639625 
1.1999999999998843, -1.3739947519695055 
1.2099999999998832, -1.3750552569407108 
1.219999999999882, -1.375679627234961 
1.229999999999881, -1.3757701893749648 
1.2399999999998799, -1.3752778504326333 
1.2499999999998788, -1.374204138447023 
1.2599999999998777, -1.3725699149789574 
1.2699999999998766, -1.3703763978485266 
1.2799999999998755, -1.3675827519845956 
1.2899999999998744, -1.3641030261382947 
1.2999999999998733, -1.359799586544716 
1.3099999999998722, -1.3544684328923664 
1.319999999999871, -1.347915162096876 
1.32999999999987, -1.3403316986797578 
1.3399999999998689, -1.3329328295030556 
1.3499999999998678, -1.3277619902724505 
1.3599999999998666, -1.3257229060013138 
1.3699999999998655, -1.3256054513787614 
1.3799999999998644, -1.3257488981060108 
1.3899999999998633, -1.3251080116721627 
1.3999999999998622, -1.3227507443514048 
1.4099999999998611, -1.3167359094625597 
1.41999999999986, -1.302047514005698 
1.429999999999859, -1.2663662741527781 
1.4399999999998578, -1.1859452453688986 
1.4499999999998567, -1.0403748607525112 
1.4599999999998556, -0.8560698820979088 
1.4699999999998545, -0.6935544550879456 
1.4799999999998534, -0.5798286011146477 
1.4899999999998523, -0.5073481000431268 
1.4999999999998512, -0.46193837876919835 
1.5099999999998501, -0.43315935661420424 
1.519999999999849, -0.41460380923535683 
1.529999999999848, -0.40248008260879614 
1.5399999999998468, -0.39452146237749236 
1.5499999999998457, -0.3893388060480863 
1.5599999999998446, -0.3860576579091931 
1.5699999999998435, -0.3841154324797608 
1.5799999999998424, -0.3831467563608922 
1.5899999999998413, -0.3829183899485797 
1.5999999999998402, -0.3832936588549005 
1.6099999999998391, -0.38421646209949634 
1.619999999999838, -0.3857105821916749 
1.629999999999837, -0.38789344339183957 
1.6399999999998358, -0.3910067932225457 
1.6499999999998347, -0.3954728005278889 
1.6599999999998336, -0.4019933906931158 
1.6699999999998325, -0.4117112956713852 
1.6799999999998314, -0.4263889932431451 
1.6899999999998303, -0.44827445655339043 
1.6999999999998292, -0.4786752197582656 
1.709999999999828, -0.5146539871052287 
1.719999999999827, -0.5480806859636256 
1.729999999999826, -0.5721197234379225 
1.7399999999998248, -0.5863681254641744 
1.7499999999998237, -0.5939050776254909 
1.7599999999998226, -0.5975528123413439 
1.7699999999998215, -0.5989430727046433 
1.7799999999998204, -0.5987754815737574 
1.7899999999998193, -0.5970723628206733 
1.7999999999998182, -0.5931059171528006 
1.809999999999817, -0.5847320962711735 
1.819999999999816, -0.5663232381182848 
1.8299999999998149, -0.5235858785463595 
1.8399999999998138, -0.42844113407086243 
1.8499999999998127, -0.27164213237130064 
1.8599999999998116, -0.12555259968083238 
1.8699999999998105, -0.043520129787358586 
1.8799999999998094, -0.00563002392862014 
1.8899999999998083, 0.011784201468657381 
1.8999999999998072, 0.020291311240305254 
1.909999999999806, 0.024685826793330302 
1.919999999999805, 0.026980389448865987 
1.9299999999998039, 0.02812252941810625 
1.9399999999998028, 0.028613327111834546 
1.9499999999998017, 0.028750738610773475 
1.9599999999998006, 0.028727627669788775 
1.9699999999997995, 0.028677766044260745 
1.9799999999997984, 0.028713460269996105 
1.9899999999997973, 0.02898613201557839 
1.9999999999997962, 0.029833947086998346 
2.0099999999998173, 0.03223616119176958 
2.0199999999998384, 0.03936689588624777 
2.0299999999998595, 0.06160572775742977 
2.0399999999998806, 0.12499893907049313 
2.0499999999999017, 0.24290800199724843 
2.059999999999923, 0.34788123797711534 
2.069999999999944, 0.3991857345321326 
2.079999999999965, 0.4196828425086605 
2.089999999999986, 0.42796619813076353 
2.100000000000007, 0.431329979677667 
2.1100000000000283, 0.4323619019647789 
2.1200000000000494, 0.4319406495821806 
2.1300000000000705, 0.43027002403974723 
2.1400000000000916, 0.42730232339006813 
2.1500000000001127, 0.42305894340069006 
2.160000000000134, 0.4179393795972808 
2.170000000000155, 0.4127711116240481 
2.180000000000176, 0.40841117872345417 
2.190000000000197, 0.4052909516091526 
2.2000000000002182, 0.4033716857350006 
2.2100000000002393, 0.40238241062312907 
2.2200000000002604, 0.40201499258150675 
2.2300000000002815, 0.40198982889641793 
2.2400000000003026, 0.40205298791611044 
2.2500000000003237, 0.40195606692349506 
2.260000000000345, 0.40142020540059375 
2.270000000000366, 0.4000401730263664 
2.280000000000387, 0.3970112494923051 
2.290000000000408, 0.3902867972598497 
2.3000000000004293, 0.3734521141890525 
2.3100000000004504, 0.32081431118254183 
2.3200000000004715, 0.09952378290075134 
2.3300000000004926, -0.6960355432757498 
2.3400000000005137, -1.3667261559380253 
2.3500000000005348, -1.5341682615644758 
2.360000000000556, -1.573062717609968 
2.370000000000577, -1.5838696061196333 
2.380000000000598, -1.58700877445385 
2.390000000000619, -1.587430588362744 
2.4000000000006403, -1.5867335252268218 
2.4100000000006614, -1.5863047397465517 
2.4200000000006825, -1.5880661830393976 
2.4300000000007036, -1.5924186808579885 
2.4400000000007247, -1.5973678623092353 
2.450000000000746, -1.6013336528911501 
2.460000000000767, -1.6041224377519896 
2.470000000000788, -1.605998185469017 
2.480000000000809, -1.607111056228814 
2.49000000000083, -1.607472899612367 
2.5000000000008513, -1.6070566197291476 
2.5100000000008724, -1.6058291427880385 
2.5200000000008935, -1.6037307152255873 
2.5300000000009146, -1.600631683716537 
2.5400000000009357, -1.5962696310454265 
2.550000000000957, -1.5901329723966078 
2.560000000000978, -1.5812764443049008 
2.570000000000999, -1.5683847035223413 
2.58000000000102, -1.551393639044918 
2.5900000000010412, -1.5354641374056472 
2.6000000000010624, -1.5282695268472293 
2.6100000000010835, -1.5283547382773046 
2.6200000000011046, -1.5298091271260708 
2.6300000000011257, -1.5301386223254336 
2.6400000000011468, -1.5285159620850224 
2.650000000001168, -1.5228677181000763 
2.660000000001189, -1.504906271037953 
2.67000000000121, -1.437649429114909 
2.680000000001231, -1.136212727594201 
2.6900000000012523, 0.4563191620397261 
2.7000000000012734, 1.6827053910338947 
2.7100000000012945, 1.741258494589158 
2.7200000000013156, 1.7482685349964406 
2.7300000000013367, 1.748878317090061 
2.740000000001358, 1.74591973690805 
2.750000000001379, 1.7310021676235436 
2.7600000000014, 1.6101502993712333 
2.770000000001421, 1.1913822173359139 
2.780000000001442, 1.2812889481962575 
2.7900000000014633, 1.319472573129876 
2.8000000000014844, 1.3281606352899804 
2.8100000000015055, 1.3302070246382542 
2.8200000000015266, 1.3299660132193454 
2.8300000000015477, 1.328505401918982 
2.840000000001569, 1.3271313327380205 
2.85000000000159, 1.3301430512907697 
2.860000000001611, 1.3412264171323784 
2.870000000001632, 1.3534040393182687 
2.8800000000016532, 1.3604945491901963 
2.8900000000016743, 1.3634493311012446 
2.9000000000016954, 1.364042714157196 
2.9100000000017165, 1.3626274013845108 
2.9200000000017377, 1.3566348837928959 
2.9300000000017588, 1.3248468473234127 
2.94000000000178, 0.7789944872724677 
2.950000000001801, -2.9151366500705143 
2.960000000001822, -3.1402000733077657 
2.970000000001843, -3.1566894322450234 
2.9800000000018643, -3.1588225948063924 
2.9900000000018854, -3.1581209569083852 
3.0000000000019065, -3.155796082800607 
3.0100000000019276, -3.1496718421618644 
3.0200000000019487, -3.142821658260585 
3.03000000000197, -3.1445027675039854 
3.040000000001991, -3.1448992087141696 
3.050000000002012, -3.141875476843466 
3.060000000002033, -3.1421856882635777 
3.070000000002054, -3.150860437631774 
3.0800000000020753, -3.1546155484841614 
3.0900000000020964, -3.155386909961269 
3.1000000000021175, -3.1544023994919628 
3.1100000000021386, -3.148677031389543 
3.1200000000021597, -3.111990680524271 
3.130000000002181, -2.376807817405632 
3.140000000002202, 1.0575852535007522 
3.150000000002223, 1.252357816070183 
3.160000000002244, 1.2713930249978809 
3.1700000000022652, 1.2753405985359587 
3.1800000000022863, 1.2759211906865202 
3.1900000000023074, 1.2748734199056801 
3.2000000000023285, 1.272101974047105 
3.2100000000023496, 1.2669506952087788 
3.2200000000023707, 1.2595775026563223 
3.230000000002392, 1.2527345003126924 
3.240000000002413, 1.249388393327957 
3.250000000002434, 1.248852025280045 
3.260000000002455, 1.2490287969371958 
3.2700000000024763, 1.248625307135945 
3.2800000000024974, 1.2464734776080062 
3.2900000000025185, 1.2388865434752745 
3.3000000000025396, 1.2039277555296892 
3.3100000000025607, 0.9079947358724759 
3.3200000000025818, 0.5947420059005781 
3.330000000002603, 3.320076240336461 
3.340000000002624, 3.3395867810094453 
3.350000000002645, 3.33943639348427 
3.360000000002666, 3.3252323340090157 
3.3700000000026873, -2.2299161962538685 
3.3800000000027084, -4.798163663115621 
3.3900000000027295, -4.8075429623899915 
3.4000000000027506, -4.806475939097812 
3.4100000000027717, -4.7983451920597116 
3.420000000002793, -4.774987423666723 
3.430000000002814, -4.786346196604838 
3.440000000002835, -4.786258868796042 
3.450000000002856, -4.785748936016306 
3.460000000002877, -4.784219817562778 
3.4700000000028983, -4.783513030258056 
3.4800000000029194, -4.779703824439257 
3.4900000000029405, -4.778446436956601 
3.5000000000029616, -4.790426839423059 
3.5100000000029827, -4.791278080548732 
3.520000000003004, -4.788029737290909 
3.530000000003025, -4.693813225364719 
3.540000000003046, 3.952859950020079 
3.550000000003067, 4.05598087343235 
3.5600000000030882, 4.056629260634859 
3.5700000000031094, 4.038287290272581 
3.5800000000031305, -5.377814729908346 
3.5900000000031516, -5.603251137147884 
3.6000000000031727, -5.604370061466934 
3.6100000000031938, -5.598135377146676 
3.620000000003215, -5.550842927090235 
3.630000000003236, -5.575167246888451 
3.640000000003257, -5.5750157325467065 
3.650000000003278, -5.573185485938153 
3.6600000000032993, -5.570221054529721 
3.6700000000033204, -5.569945927931732 
3.6800000000033415, -5.568037385090361 
3.6900000000033626, -5.570365599257471 
3.7000000000033837, -5.569611582634202 
3.710000000003405, -5.5618935005674945 
3.720000000003426, -5.56398955577111 
3.730000000003447, -5.606267016067973 
3.740000000003468, -5.606763801007218 
3.750000000003489, -5.595918831563971 
3.7600000000035103, 2.4270210989630097 
3.7700000000035314, 3.7831386274124155 
3.7800000000035525, 3.7874577388460806 
3.7900000000035736, 3.7829501659752744 
3.8000000000035947, 3.4870699479037213 
3.810000000003616, 3.132032023955363 
3.820000000003637, 3.180695627085457 
3.830000000003658, 3.182684313866096 
3.840000000003679, 3.1820282865742535 
3.8500000000037002, 3.178955100664532 
3.8600000000037213, 3.173146579245542 
3.8700000000037424, 3.1732222228255074 
3.8800000000037635, 3.173642881844577 
3.8900000000037847, 3.170452308746819 
3.9000000000038058, 3.17029114851013 
3.910000000003827, 3.1798544786477474 
3.920000000003848, 3.1825270943151542 
3.930000000003869, 3.1819782910400978 
3.94000000000389, 3.1760627498822025 
3.9500000000039113, 2.874297526453223 
3.9600000000039324, -5.865644410827404 
3.9700000000039535, -5.903926287875306 
3.9800000000039746, -5.903027832738891 
3.9900000000039957, -5.87237596686928 
4.000000000004016, 3.68050358183985 
4.010000000003993, 3.7870298676640006 
4.02000000000397, 3.788491482013105 
4.030000000003946, 3.7844758693245675 
4.040000000003923, 3.7498979706465776 
4.0500000000039, 3.755183532906507 
4.0600000000038765, 3.7604554416811005 
4.070000000003853, 3.760069239121903 
4.08000000000383, 3.760069505616861 
4.090000000003807, 3.759124624458322 
4.100000000003783, 3.758149291478472 
4.11000000000376, 3.7567587856527367 
4.120000000003737, 3.7443633532404332 
4.130000000003713, 3.7625169210834755 
4.14000000000369, 3.77771505001065 
4.150000000003667, 3.778211525104404 
4.1600000000036434, 3.7717096872842846 
4.17000000000362, 1.359510734796118 
4.180000000003597, -5.916191877294821 
4.1900000000035735, -5.923088351559524 
4.20000000000355, -5.91895255455709 
4.210000000003527, -5.495327329954668 
4.220000000003504, 3.3804858060910954 
4.23000000000348, 3.410641870461756 
4.240000000003457, 3.411540166839964 
4.250000000003434, 3.4091139236608767 
4.26000000000341, 3.3973027215109504 
4.270000000003387, 3.3912786250801026 
4.280000000003364, 3.395807837712457 
4.2900000000033405, 3.3953246628652294 
4.300000000003317, 3.394640486409961 
4.310000000003294, 3.397117229437714 
4.320000000003271, 3.3978173624438193 
4.330000000003247, 3.397166176950816 
4.340000000003224, 3.393795235362661 
4.350000000003201, 3.333324741614976 
4.360000000003177, 3.4975075971137004 
4.370000000003154, 3.54397494918078 
4.380000000003131, 3.5453779024050256 
4.390000000003107, 3.5385406650630253 
4.400000000003084, 1.8420498957744944 
4.410000000003061, -5.5019861202817015 
4.4200000000030375, -5.511897901087094 
4.430000000003014, -5.509644330723155 
4.440000000002991, -5.46778090953875 
4.450000000002968, -5.40640379703987 
4.460000000002944, -5.423661708233172 
4.470000000002921, -5.422820247663356 
4.480000000002898, -5.4187568147842775 
4.490000000002874, -5.415956296201051 
4.500000000002851, -5.416279528792974 
4.510000000002828, -5.415382950332645 
4.520000000002804, -5.415815354790711 
4.530000000002781, -5.414855979983348 
4.540000000002758, -5.4076905810214315 
4.5500000000027345, -5.413381261130131 
4.560000000002711, -5.431360646616461 
4.570000000002688, -5.4312527335083995 
4.580000000002665, -5.418912165207797 
4.590000000002641, 2.790020826562208 
4.600000000002618, 4.011707036367298 
4.610000000002595, 4.015212739493597 
4.620000000002571, 4.008363969897148 
4.630000000002548, 0.752627826934015 
4.640000000002525, -5.024508293848252 
4.6500000000025015, -5.035998078602814 
4.660000000002478, -5.03488446638873 
4.670000000002455, -5.026251930549946 
4.6800000000024315, -5.011491339191276 
4.690000000002408, -5.0190054621393365 
4.700000000002385, -5.018255350129303 
4.710000000002362, -5.017725252588183 
4.720000000002338, -5.0160460153925435 
4.730000000002315, -5.0151859412127875 
4.740000000002292, -5.007898397596284 
4.750000000002268, -5.018189606011374 
4.760000000002245, -5.0216907383296725 
4.770000000002222, -5.020517919763938 
4.7800000000021985, -4.999333158800171 
4.790000000002175, -3.7392499001761044 
4.800000000002152, -6.487206278064849 
4.810000000002129, -6.489991165389846 
4.820000000002105, -6.477827503692817 
4.830000000002082, 4.2894136631491575 
4.840000000002059, 4.462307435833511 
4.850000000002035, 4.462719200556724 
4.860000000002012, 4.44752278446647 
4.870000000001989, 4.369948746021924 
4.880000000001965, 4.403343725019736 
4.890000000001942, 4.403763461167418 
4.900000000001919, 4.402251964308611 
4.9100000000018955, 4.397714164710828 
4.920000000001872, 4.398115963435231 
4.930000000001849, 4.3966345385236805 
4.940000000001826, 4.396187485318968 
4.950000000001802, 4.399801740680703 
4.960000000001779, 4.399466521053693 
4.970000000001756, 4.39559954099775 
4.980000000001732, 4.2912271151502015 
