t, s[1].omega / s[0].omega 
0, -1.638649346989044 
0.009999999999999995, -1.4372572669077224 
0.019999999999999934, -1.0753409109301937 
0.029999999999999874, -0.6774471526090083 
0.04000000000000012, -0.43469001183596523 
0.050000000000000405, -0.32407910586480015 
0.06000000000000069, -0.27491254168055185 
0.07000000000000098, -0.2517165426264776 
0.08000000000000126, -0.2400540302658769 
0.09000000000000155, -0.2339175128187967 
0.10000000000000184, -0.23063348089463626 
0.11000000000000212, -0.22893333860771622 
0.12000000000000241, -0.22818924473697896 
0.130000000000002, -0.22809361782657148 
0.1400000000000009, -0.2285213974965578 
0.1499999999999998, -0.229476563617207 
0.1599999999999987, -0.23108580049886346 
0.1699999999999976, -0.2336305518873656 
0.1799999999999965, -0.2376317574030112 
0.1899999999999954, -0.24403643799940253 
0.1999999999999943, -0.2546176579990486 
0.2099999999999932, -0.2727843217066089 
0.2199999999999921, -0.30487059060347055 
0.229999999999991, -0.3601881987660684 
0.2399999999999899, -0.44219533518169857 
0.2499999999999888, -0.5301937822011908 
0.2599999999999877, -0.5936612991671951 
0.2699999999999866, -0.6278489038966393 
0.2799999999999855, -0.644083121075685 
0.2899999999999844, -0.6515585182888874 
0.2999999999999833, -0.6548467918317018 
0.3099999999999822, -0.6558867153565795 
0.3199999999999811, -0.6553275139561201 
0.32999999999998, -0.6530056464660415 
0.3399999999999789, -0.6477931544697808 
0.3499999999999778, -0.6366212935155863 
0.35999999999997667, -0.6118626941860764 
0.36999999999997557, -0.5569994721351581 
0.37999999999997447, -0.4526457174013608 
0.38999999999997337, -0.318919538332797 
0.39999999999997227, -0.21523242597453338 
0.40999999999997117, -0.15761301648889 
0.41999999999997006, -0.12850480476566511 
0.42999999999996896, -0.11336452922820177 
0.43999999999996786, -0.10498443105116706 
0.44999999999996676, -0.10006571965398929 
0.45999999999996566, -0.09704225285420807 
0.46999999999996456, -0.09511709418125922 
0.47999999999996346, -0.09385842901174284 
0.48999999999996235, -0.09303004834482113 
0.49999999999996125, -0.09252123458227972 
0.5099999999999602, -0.09232448502066881 
0.519999999999959, -0.09255125786127452 
0.529999999999958, -0.09350880333723885 
0.5399999999999568, -0.09592013888470777 
0.5499999999999557, -0.10154452307561652 
0.5599999999999546, -0.11507587260676407 
0.5699999999999535, -0.15061119187971586 
0.5799999999999524, -0.2555762295531832 
0.5899999999999513, -0.6243217901011477 
0.5999999999999502, -3.6047266431956198 
0.6099999999999491, -4.142896910708621 
0.619999999999948, -4.157288976621211 
0.6299999999999469, -4.158288932138512 
0.6399999999999458, -4.154881404308687 
0.6499999999999447, -4.129346945693811 
0.6599999999999436, -2.928056098284736 
0.6699999999999425, -2.279928097233643 
0.6799999999999414, -2.552456962826161 
0.6899999999999403, -2.5792554756409194 
0.6999999999999392, -2.583155840834474 
0.7099999999999381, -2.5832094654520263 
0.719999999999937, -2.5827872630226887 
0.7299999999999359, -2.5829758769040896 
0.7399999999999348, -2.5827594580277164 
0.7499999999999337, -2.5820960936201622 
0.7599999999999326, -2.581791541263324 
0.7699999999999315, -2.5807632489129237 
0.7799999999999304, -2.575442236849388 
0.7899999999999293, -2.543477843513604 
0.7999999999999282, -2.149795526386884 
0.8099999999999271, 1.749234316871504 
0.819999999999926, 2.5364441667775037 
0.8299999999999249, 2.5515501385742523 
0.8399999999999238, 2.5523207792679243 
0.8499999999999227, 2.547364369939518 
0.8599999999999216, 2.47558536745837 
0.8699999999999205, -1.0295850099303714 
0.8799999999999194, -2.553065503287391 
0.8899999999999183, -2.6433833862095373 
0.8999999999999172, -2.6534525644549682 
0.9099999999999161, -2.6547434135296366 
0.919999999999915, -2.6543073559279007 
0.9299999999999139, -2.6539739846899133 
0.9399999999999128, -2.6534059786128616 
0.9499999999999117, -2.6521689002524265 
0.9599999999999106, -2.6515537037835757 
0.9699999999999095, -2.651103752789649 
0.9799999999999084, -2.647952868990767 
0.9899999999999073, -2.6300810659415683 
0.9999999999999062, -2.4917692898798185 
1.0099999999999052, -2.846557662269757 
1.019999999999904, -3.2796600818211963 
1.029999999999903, -3.3134188895773597 
1.039999999999902, -3.31917140756497 
1.0499999999999008, -3.3198196778669526 
1.0599999999998997, -3.3175717198981993 
1.0699999999998986, -3.3089450526553654 
1.0799999999998975, -3.25791523362428 
1.0899999999998964, -2.805824019345361 
1.0999999999998953, -2.854578844947764 
1.1099999999998942, -2.9007014349820652 
1.119999999999893, -2.9060163027305292 
1.129999999999892, -2.9061013305752312 
1.1399999999998909, -2.905675228065996 
1.1499999999998898, -2.9057541278798444 
1.1599999999998887, -2.9050813727282336 
1.1699999999998876, -2.904358086095145 
1.1799999999998865, -2.903929415693286 
1.1899999999998854, -2.900992278473078 
1.1999999999998843, -2.8818778164622154 
1.2099999999998832, -2.7319334492304668 
1.219999999999882, -3.1750470109412077 
1.229999999999881, -3.332957994933367 
1.2399999999998799, -3.3491435102226985 
1.2499999999998788, -3.352173145568078 
1.2599999999998777, -3.3516813710703595 
1.2699999999998766, -3.3476677026487898 
1.2799999999998755, -3.3306956608905898 
1.2899999999998744, -3.170360014932339 
1.2999999999998733, -2.439227426011608 
1.3099999999998722, -2.6507122281089606 
1.319999999999871, -2.6849233868986913 
1.32999999999987, -2.689513938546622 
1.3399999999998689, -2.6896040019038443 
1.3499999999998678, -2.6891708410994033 
1.3599999999998666, -2.6894841458648155 
1.3699999999998655, -2.6893497287798227 
1.3799999999998644, -2.6887512073138713 
1.3899999999998633, -2.6884416103668136 
1.3999999999998622, -2.687035535891577 
1.4099999999998611, -2.679552881132671 
1.41999999999986, -2.624238376762563 
1.429999999999859, -1.8600882526006852 
1.4399999999998578, 3.191093421137522 
1.4499999999998567, 3.7775535927927257 
1.4599999999998556, 3.78163182686563 
1.4699999999998545, 3.7767491389399863 
1.4799999999998534, 3.013856866921833 
1.4899999999998523, -5.3853764953101635 
1.4999999999998512, -5.398031302253214 
1.5099999999998501, -5.39641482699548 
1.519999999999849, -5.377700900516528 
1.529999999999848, -5.359444776649175 
1.5399999999998468, -5.368326603965444 
1.5499999999998457, -5.367438501172826 
1.5599999999998446, -5.365139713349498 
1.5699999999998435, -5.363442760333417 
1.5799999999998424, -5.362181546840079 
1.5899999999998413, -5.361329722430754 
1.5999999999998402, -5.363997682282172 
1.6099999999998391, -5.363257201827727 
1.619999999999838, -5.3539803377797615 
1.629999999999837, -5.3500880968467195 
1.6399999999998358, -5.430347784458171 
1.6499999999998347, -5.432073236668409 
1.6599999999998336, -5.425990974159587 
1.6699999999998325, -4.569061724865298 
1.6799999999998314, 3.455422667552418 
1.6899999999998303, 3.4699692766880994 
1.6999999999998292, 3.469222423097939 
1.709999999999828, 3.452397912274757 
1.719999999999827, 3.1446464958244924 
1.729999999999826, 3.2982489548920233 
1.7399999999998248, 3.3051491155702557 
1.7499999999998237, 3.305220765535914 
1.7599999999998226, 3.3042887053636094 
1.7699999999998215, 3.3013864076236024 
1.7799999999998204, 3.2993113715724136 
1.7899999999998193, 3.299559375717556 
1.7999999999998182, 3.296866577763989 
1.809999999999817, 3.2901588118079537 
1.819999999999816, 3.306330609379637 
1.8299999999998149, 3.3125495383195207 
1.8399999999998138, 3.312619139813973 
1.8499999999998127, 3.3078942112149505 
1.8599999999998116, 3.083637982175561 
1.8699999999998105, -5.541820389003863 
1.8799999999998094, -5.57451335520372 
1.8899999999998083, -5.574073692396602 
1.8999999999998072, -5.557184390534546 
1.909999999999806, 1.6769510964901104 
1.919999999999805, 3.132865797661408 
1.9299999999998039, 3.1419319167283986 
1.9399999999998028, 3.14199431128747 
1.9499999999998017, 3.139085264883796 
1.9599999999998006, 3.1283670898336355 
1.9699999999997995, 3.123779535507984 
1.9799999999997984, 3.127296951454096 
1.9899999999997973, 3.1268114534608857 
1.9999999999997962, 3.1249989022376523 
2.0099999999998173, 3.1285843785356677 
2.0199999999998384, 3.131521187541386 
2.0299999999998595, 3.1316669102768144 
2.0399999999998806, 3.1300909672096853 
2.0499999999999017, 3.1152176652153494 
2.059999999999923, 2.426413657477404 
2.069999999999944, 3.6835327572733383 
2.079999999999965, 3.6963204492247934 
2.089999999999986, 3.694882791460683 
2.100000000000007, 3.648606874281821 
2.1100000000000283, -5.426982818114444 
2.1200000000000494, -5.501404370820283 
2.1300000000000705, -5.501683540149826 
2.1400000000000916, -5.493156638554332 
2.1500000000001127, -5.423483934759583 
2.160000000000134, -5.458882978958597 
2.170000000000155, -5.4589883189477835 
2.180000000000176, -5.457023674183319 
2.190000000000197, -5.453240669671116 
2.2000000000002182, -5.453642288931092 
2.2100000000002393, -5.451489108121065 
2.2200000000002604, -5.4535553197573 
2.2300000000002815, -5.452953495289251 
2.2400000000003026, -5.44866607050058 
2.2500000000003237, -5.421663998390455 
2.260000000000345, -5.48266675277102 
2.270000000000366, -5.484750281832583 
2.280000000000387, -5.4796217051170215 
2.290000000000408, -4.744105930790136 
2.3000000000004293, 3.690705990110362 
2.3100000000004504, 3.703650226985225 
2.3200000000004715, 3.7020754171353447 
2.3300000000004926, 3.6582140408410644 
2.3400000000005137, 2.6880762520339223 
2.3500000000005348, 3.010999928296283 
2.360000000000556, 3.018029121695915 
2.370000000000577, 3.018215821483709 
2.380000000000598, 3.0168762392633224 
2.390000000000619, 3.012733707431768 
2.4000000000006403, 3.0088877414613107 
2.4100000000006614, 3.0097362069103273 
2.4200000000006825, 3.0090671015164525 
2.4300000000007036, 3.00400553467244 
2.4400000000007247, 3.0074710413039063 
2.450000000000746, 3.02001513638263 
2.460000000000767, 3.0228517717954833 
2.470000000000788, 3.022203301389996 
2.480000000000809, 3.015080163042396 
2.49000000000083, 2.581796375522297 
2.5000000000008513, -5.181212697929996 
2.5100000000008724, -5.211840535807415 
2.5200000000008935, -5.2120356323608 
2.5300000000009146, -5.2027248465583735 
2.5400000000009357, -3.9742315287291703 
2.550000000000957, 1.2579854517228226 
2.560000000000978, 1.632584754003243 
2.570000000000999, 1.6567668157985753 
2.58000000000102, 1.6606458558887962 
2.5900000000010412, 1.661206276729088 
2.6000000000010624, 1.6611012313482878 
2.6100000000010835, 1.6613089521389544 
2.6200000000011046, 1.6620314257202526 
2.6300000000011257, 1.6627654793588644 
2.6400000000011468, 1.663096668829216 
2.650000000001168, 1.6630372280460968 
2.660000000001189, 1.6625552306582805 
2.67000000000121, 1.6609260236887695 
2.680000000001231, 1.654436756083776 
2.6900000000012523, 1.607947596057235 
2.7000000000012734, -0.2684544339062325 
2.7100000000012945, -3.722061333145912 
2.7200000000013156, -3.783292850196839 
2.7300000000013367, -3.7893778909887823 
2.740000000001358, -3.789301998345877 
2.750000000001379, -3.785247940039232 
2.7600000000014, -3.7609506908495964 
2.770000000001421, -3.534358277421905 
2.780000000001442, -3.599230774294616 
2.7900000000014633, -3.6155239523787435 
2.8000000000014844, -3.616345709386265 
2.8100000000015055, -3.6157150972865226 
2.8200000000015266, -3.6147928522250012 
2.8300000000015477, -3.6127760437864387 
2.840000000001569, -3.612420136901563 
2.85000000000159, -3.6107155723289326 
2.860000000001611, -3.59978847051082 
2.870000000001632, -3.612587646484438 
2.8800000000016532, -3.636027508626482 
2.8900000000016743, -3.6402955760323303 
2.9000000000016954, -3.6403904885263865 
2.9100000000017165, -3.636790323622094 
2.9200000000017377, -3.613254918198558 
2.9300000000017588, -3.0029898895186884 
2.94000000000178, 1.4990173719381366 
2.950000000001801, 1.6381761859639048 
2.960000000001822, 1.6495678473496853 
2.970000000001843, 1.6514774533825929 
2.9800000000018643, 1.651042617693386 
2.9900000000018854, 1.6487374899946758 
3.0000000000019065, 1.643385021887474 
3.0100000000019276, 1.6343503245619424 
3.0200000000019487, 1.626767834738235 
3.03000000000197, 1.625466374817123 
3.040000000001991, 1.6265090700891054 
3.050000000002012, 1.6267051526769447 
3.060000000002033, 1.6247477449090577 
3.070000000002054, 1.6168076503792754 
3.0800000000020753, 1.587047766636975 
3.0900000000020964, 1.6060105294732345 
3.1000000000021175, 1.7559718641857784 
3.1100000000021386, 1.7898098485770373 
3.1200000000021597, 1.79588255896304 
3.130000000002181, 1.796458638533108 
3.140000000002202, 1.7934650610523022 
3.150000000002223, 1.7757002854413635 
3.160000000002244, 1.4443587275572665 
3.1700000000022652, -2.684786786478339 
3.1800000000022863, -3.0063145401851963 
3.1900000000023074, -3.025002625385937 
3.2000000000023285, -3.027258855325034 
3.2100000000023496, -3.026798274427955 
3.2200000000023707, -3.025516495435976 
3.230000000002392, -3.0226081932862274 
3.240000000002413, -3.0190406690519422 
3.250000000002434, -3.0190709221900254 
3.260000000002455, -3.0187597852477293 
3.2700000000024763, -3.0139568054516603 
3.2800000000024974, -3.0058582316241504 
3.2900000000025185, -3.0316568953607503 
3.3000000000025396, -3.048157288434417 
3.3100000000025607, -3.0524614587952716 
3.3200000000025818, -3.053241228725669 
3.330000000002603, -3.051696911670306 
3.340000000002624, -3.0452573763192103 
3.350000000002645, -3.0172981288644274 
3.360000000002666, -2.763819100153081 
3.3700000000026873, 0.20281527431478857 
3.3800000000027084, 0.9652921126062456 
3.3900000000027295, 1.0209017151328483 
3.4000000000027506, 1.031502706200023 
3.4100000000027717, 1.0344073445030368 
3.420000000002793, 1.035157606207503 
3.430000000002814, 1.0351978322436706 
3.440000000002835, 1.0351753111713546 
3.450000000002856, 1.0355716119691052 
3.460000000002877, 1.0367207238418719 
3.4700000000028983, 1.0385886107554758 
3.4800000000029194, 1.0407097148847284 
3.4900000000029405, 1.0425130524118695 
3.5000000000029616, 1.0436619478088982 
3.5100000000029827, 1.0440377246639039 
3.520000000003004, 1.0434657879335305 
3.530000000003025, 1.0411974868604779 
3.540000000003046, 1.0340388266489138 
3.550000000003067, 1.003391692684781 
3.5600000000030882, 0.7094227453692633 
3.5700000000031094, -2.2842922885240915 
3.5800000000031305, -2.906715390709674 
3.5900000000031516, -2.9488877938611817 
3.6000000000031727, -2.955400226716538 
3.6100000000031938, -2.956087128963793 
3.620000000003215, -2.9549353849648967 
3.630000000003236, -2.952024978542311 
3.640000000003257, -2.9451951250720185 
3.650000000003278, -2.939294229897332 
3.6600000000032993, -2.9409455968173566 
3.6700000000033204, -2.941255606193879 
3.6800000000033415, -2.9380534987761147 
3.6900000000033626, -2.936145268612294 
3.7000000000033837, -2.9478368651441045 
3.710000000003405, -2.9551876011534226 
3.720000000003426, -2.957362121984473 
3.730000000003447, -2.95749100982615 
3.740000000003468, -2.9553248460811306 
3.750000000003489, -2.946344915470473 
3.7600000000035103, -2.8994725623166544 
3.7700000000035314, -2.3384271533880283 
3.7800000000035525, 0.5562178258755777 
3.7900000000035736, 0.918498394162097 
3.8000000000035947, 0.9556855331332169 
3.810000000003616, 0.9639524806889221 
3.820000000003637, 0.9663668334528287 
3.830000000003658, 0.9669664701146405 
3.840000000003679, 0.9668654108481471 
3.8500000000037002, 0.9665184763872551 
3.8600000000037213, 0.9662027491489917 
3.8700000000037424, 0.9661124260305834 
3.8800000000037635, 0.9663308831026087 
3.8900000000037847, 0.966796946496442 
3.9000000000038058, 0.9673384195044354 
3.910000000003827, 0.9677508476720511 
3.920000000003848, 0.9678351777751543 
3.930000000003869, 0.9673290955084635 
3.94000000000389, 0.9656359338758964 
3.9500000000039113, 0.9608109546856829 
3.9600000000039324, 0.9440269773922129 
3.9700000000039535, 0.8446105655712823 
3.9800000000039746, -0.6611226295457866 
3.9900000000039957, -2.7676985281161084 
4.000000000004016, -2.904698336883666 
4.010000000003993, -2.9218544021176394 
4.02000000000397, -2.924966732986121 
4.030000000003946, -2.9247512963100895 
4.040000000003923, -2.922958492581533 
4.0500000000039, -2.9185006631121246 
4.0600000000038765, -2.909384357303529 
4.070000000003853, -2.9059489222255173 
4.08000000000383, -2.9082290056519264 
4.090000000003807, -2.9078083501313547 
4.100000000003783, -2.9041135090594246 
4.11000000000376, -2.9056993525886177 
4.120000000003737, -2.9165699458200516 
4.130000000003713, -2.9216923473431544 
4.14000000000369, -2.9231281855173394 
4.150000000003667, -2.9228191940677037 
4.1600000000036434, -2.919771474976923 
4.17000000000362, -2.9072600822163666 
4.180000000003597, -2.8341318418120536 
4.1900000000035735, -1.8137875562050165 
4.20000000000355, 0.6835265359123462 
4.210000000003527, 0.8982712225579924 
4.220000000003504, 0.9259846367351583 
4.23000000000348, 0.9327643944324544 
4.240000000003457, 0.934805390734922 
4.250000000003434, 0.9352835954364019 
4.26000000000341, 0.9351446766464433 
4.270000000003387, 0.9348069086969877 
4.280000000003364, 0.9345446379726499 
4.2900000000033405, 0.9345554705803634 
4.300000000003317, 0.9349179143474127 
4.310000000003294, 0.9355509098161207 
4.320000000003271, 0.9362531754160193 
4.330000000003247, 0.936797284411625 
4.340000000003224, 0.9369792145277606 
4.350000000003201, 0.9365541158493093 
4.360000000003177, 0.9349823968611501 
4.370000000003154, 0.9305392225077884 
4.380000000003131, 0.9157587788798353 
4.390000000003107, 0.8367600271339077 
4.400000000003084, -0.23204918013907266 
4.410000000003061, -2.6513900630618443 
4.4200000000030375, -2.844747076530913 
4.430000000003014, -2.8666774220238405 
4.440000000002991, -2.8706560867165476 
4.450000000002968, -2.8707569144363876 
4.460000000002944, -2.8693421144080427 
4.470000000002921, -2.866001126585607 
4.480000000002898, -2.858907486521076 
4.490000000002874, -2.8543547178677278 
4.500000000002851, -2.8560176754043254 
4.510000000002828, -2.8559599687268853 
4.520000000002804, -2.852219716150741 
4.530000000002781, -2.8499412670099042 
4.540000000002758, -2.8642682314040853 
4.5500000000027345, -2.8736339704159097 
4.560000000002711, -2.8765678592838477 
4.570000000002688, -2.877089357749686 
4.580000000002665, -2.875582905841435 
4.590000000002641, -2.8695316225410474 
4.600000000002618, -2.845364387585651 
4.610000000002595, -2.683302607698155 
4.620000000002571, -0.6918572112965705 
4.630000000002548, 0.7393265018091842 
4.640000000002525, 0.8504908497809394 
4.6500000000025015, 0.8697104773778686 
4.660000000002478, 0.8750314129408926 
4.670000000002455, 0.8767075226263386 
4.6800000000024315, 0.8771117351972881 
4.690000000002408, 0.8770851064273024 
4.700000000002385, 0.8771389632741476 
4.710000000002362, 0.877769529425602 
4.720000000002338, 0.8794402470248961 
4.730000000002315, 0.8822804031454489 
4.740000000002292, 0.8857867567312491 
4.750000000002268, 0.8890670424116314 
4.760000000002245, 0.8914603489390054 
4.770000000002222, 0.8927663825003673 
4.7800000000021985, 0.8929804016764742 
4.790000000002175, 0.8918707327115639 
4.800000000002152, 0.8882257953209244 
4.810000000002129, 0.876747024617069 
4.820000000002105, 0.8251549538369325 
4.830000000002082, 0.3323590770277135 
4.840000000002059, -1.9885894671036204 
4.850000000002035, -2.4174241912484487 
4.860000000002012, -2.4600947655996293 
4.870000000001989, -2.4676398039094347 
4.880000000001965, -2.4688943010992834 
4.890000000001942, -2.4684802686036713 
4.900000000001919, -2.4677293752227785 
4.9100000000018955, -2.466500553246016 
4.920000000001872, -2.464446314615663 
4.930000000001849, -2.4631192637295536 
4.940000000001826, -2.463018031867347 
4.950000000001802, -2.4618369495697325 
4.960000000001779, -2.4553802453683806 
4.970000000001756, -2.419923595010721 
4.980000000001732, -2.304117949142245 
4.990000000001709, -2.801760360237148 
5.000000000001686, -2.963978744621452 
