t, s[1].omega / s[0].omega 
0, -0.809997650869659 
0.009999999999999995, -0.8097690222569215 
0.019999999999999934, -0.8095331579442101 
0.029999999999999874, -0.8092419458325365 
0.04000000000000012, -0.8088447912881109 
0.050000000000000405, -0.8083156349341479 
0.06000000000000069, -0.8076688128652967 
0.07000000000000098, -0.8069629304097582 
0.08000000000000126, -0.8062993831747851 
0.09000000000000155, -0.8058179129620342 
0.10000000000000184, -0.805683657127312 
0.11000000000000212, -0.8060603114216113 
0.12000000000000241, -0.807075013515169 
0.130000000000002, -0.8087919656094551 
0.1400000000000009, -0.8112095739147819 
0.1499999999999998, -0.8142805750428999 
0.1599999999999987, -0.8179418516897323 
0.1699999999999976, -0.8221398519431569 
0.1799999999999965, -0.8268427539551993 
0.1899999999999954, -0.8320330511043338 
0.1999999999999943, -0.8376737751946944 
0.2099999999999932, -0.8436462092051938 
0.2199999999999921, -0.8496798565914702 
0.229999999999991, -0.8553387680877558 
0.2399999999999899, -0.8601376106726498 
0.2499999999999888, -0.8637499173168738 
0.2599999999999877, -0.8661325826906039 
0.2699999999999866, -0.8674646814306441 
0.2799999999999855, -0.8679987001873789 
0.2899999999999844, -0.8679585176604918 
0.2999999999999833, -0.8675220670440661 
0.3099999999999822, -0.8668722328610146 
0.3199999999999811, -0.8663097293988905 
0.32999999999998, -0.8664346173661277 
0.3399999999999789, -0.86835908070348 
0.3499999999999778, -0.8737853623946135 
0.35999999999997667, -0.8846804301741686 
0.36999999999997557, -0.9024848839669595 
0.37999999999997447, -0.9273154394695459 
0.38999999999997337, -0.9577966135606204 
0.39999999999997227, -0.9915639053427675 
0.40999999999997117, -1.0258720651912947 
0.41999999999997006, -1.0579243898735273 
0.42999999999996896, -1.0851568696998863 
0.43999999999996786, -1.1058582743536303 
0.44999999999996676, -1.1198245655536891 
0.45999999999996566, -1.128247834825506 
0.46999999999996456, -1.1328485321947013 
0.47999999999996346, -1.135096258527327 
0.48999999999996235, -1.1359581932348988 
0.49999999999996125, -1.1359920996118869 
0.5099999999999602, -1.1355358845894379 
0.519999999999959, -1.1349119989369265 
0.529999999999958, -1.134635854170243 
0.5399999999999568, -1.135508228572801 
0.5499999999999557, -1.1383290240006865 
0.5599999999999546, -1.143298390055705 
0.5699999999999535, -1.149805350589477 
0.5799999999999524, -1.1569089971250412 
0.5899999999999513, -1.163879975114956 
0.5999999999999502, -1.1703399220344886 
0.6099999999999491, -1.176142660689194 
0.619999999999948, -1.1812318073424222 
0.6299999999999469, -1.1855562060530276 
0.6399999999999458, -1.1890463145776178 
0.6499999999999447, -1.1916417080717312 
0.6599999999999436, -1.1933414343983368 
0.6699999999999425, -1.1942299368891915 
0.6799999999999414, -1.1944569023098084 
0.6899999999999403, -1.1942007328936453 
0.6999999999999392, -1.1936551886885456 
0.7099999999999381, -1.1930385235898124 
0.719999999999937, -1.1925803468276042 
0.7299999999999359, -1.1924525289916752 
0.7399999999999348, -1.1926981622330852 
0.7499999999999337, -1.1932478379002793 
0.7599999999999326, -1.1939971940733087 
0.7699999999999315, -1.1948470011929198 
0.7799999999999304, -1.195692323516263 
0.7899999999999293, -1.1964171640223837 
0.7999999999999282, -1.1969143657582328 
0.8099999999999271, -1.1971070438913156 
0.819999999999926, -1.1969560186905033 
0.8299999999999249, -1.1964546135801628 
0.8399999999999238, -1.1956146600908588 
0.8499999999999227, -1.1944502594317057 
0.8599999999999216, -1.1929696327625492 
0.8699999999999205, -1.1911803731461654 
0.8799999999999194, -1.1891029587012603 
0.8899999999999183, -1.1867824584743007 
0.8999999999999172, -1.1842942164480061 
0.9099999999999161, -1.1817535513684538 
0.919999999999915, -1.1793413745392203 
0.9299999999999139, -1.1773145275755352 
0.9399999999999128, -1.1759219590116436 
0.9499999999999117, -1.1752324043359492 
0.9599999999999106, -1.175053130538135 
0.9699999999999095, -1.1750471124992374 
0.9799999999999084, -1.1748907703448572 
0.9899999999999073, -1.1743124468390052 
0.9999999999999062, -1.1730372795905628 
1.0099999999999052, -1.1707320512623094 
1.019999999999904, -1.1670169376894717 
1.029999999999903, -1.161566314958519 
1.039999999999902, -1.1542393493041927 
1.0499999999999008, -1.1451197199609129 
1.0599999999998997, -1.1344278978898346 
1.0699999999998986, -1.1224185509458717 
1.0799999999998975, -1.1093923635691063 
1.0899999999998964, -1.0958561522281927 
1.0999999999998953, -1.0827464841725352 
1.1099999999998942, -1.071456350045262 
1.119999999999893, -1.0633256867291374 
1.129999999999892, -1.0587758521586033 
1.1399999999998909, -1.0570276891488253 
1.1499999999998898, -1.0567829955600636 
1.1599999999998887, -1.0570010621132515 
1.1699999999998876, -1.0570996386355127 
1.1799999999998865, -1.0567713672866987 
1.1899999999998854, -1.0557495477523962 
1.1999999999998843, -1.0536212764913575 
1.2099999999998832, -1.0496737173505046 
1.219999999999882, -1.042814121665574 
1.229999999999881, -1.031745309153172 
1.2399999999998799, -1.0155761797636054 
1.2499999999998788, -0.9945645123732636 
1.2599999999998777, -0.9702054751115338 
1.2699999999998766, -0.9445157674771874 
1.2799999999998755, -0.9193140557571955 
1.2899999999998744, -0.8960191145236382 
1.2999999999998733, -0.8757490385241422 
1.3099999999998722, -0.8593570154925791 
1.319999999999871, -0.8472856978582287 
1.32999999999987, -0.8393831249335537 
1.3399999999998689, -0.8349126726277051 
1.3499999999998678, -0.8328247305010953 
1.3599999999998666, -0.8321103863874988 
1.3699999999998655, -0.8320173741404643 
1.3799999999998644, -0.8320745504464716 
1.3899999999998633, -0.8320087206923841 
1.3999999999998622, -0.831646461100531 
1.4099999999998611, -0.8308467282817157 
1.41999999999986, -0.8294789100287074 
1.429999999999859, -0.8274500635764879 
1.4399999999998578, -0.8247650361782279 
1.4499999999998567, -0.8215654608387626 
1.4599999999998556, -0.8180917696247973 
1.4699999999998545, -0.8145858659547758 
1.4799999999998534, -0.8112132039833272 
1.4899999999998523, -0.8080488131704728 
1.4999999999998512, -0.8051085127729053 
1.5099999999998501, -0.8023892687681636 
1.519999999999849, -0.7998977455236207 
1.529999999999848, -0.7976618280711538 
1.5399999999998468, -0.7957280139865704 
1.5499999999998457, -0.7941503215703097 
1.5599999999998446, -0.7929760216542355 
1.5699999999998435, -0.7922318464472717 
1.5799999999998424, -0.7919132822573772 
1.5899999999998413, -0.7919800094369502 
1.5999999999998402, -0.7923605895422166 
1.6099999999998391, -0.7929665076840469 
1.619999999999838, -0.7937110596775464 
1.629999999999837, -0.7945266947560248 
1.6399999999998358, -0.7953761745033805 
1.6499999999998347, -0.796254732583757 
1.6599999999998336, -0.7971807633982417 
1.6699999999998325, -0.7981746179178042 
1.6799999999998314, -0.7992309328978575 
1.6899999999998303, -0.8002967877513927 
1.6999999999998292, -0.8012713691378819 
1.709999999999828, -0.8020357155685552 
1.719999999999827, -0.8024990936666507 
1.729999999999826, -0.8026310425268098 
1.7399999999998248, -0.8024627731512555 
1.7499999999998237, -0.802072968480207 
1.7599999999998226, -0.8015830031721723 
1.7699999999998215, -0.8011723179675521 
1.7799999999998204, -0.8011052812216514 
1.7899999999998193, -0.8017450570527777 
1.7999999999998182, -0.8035241446556404 
1.809999999999817, -0.8068605928667438 
1.819999999999816, -0.8120538776085204 
1.8299999999998149, -0.8192241835835711 
1.8399999999998138, -0.8283307606421797 
1.8499999999998127, -0.8392418190959727 
1.8599999999998116, -0.8517910799654516 
1.8699999999998105, -0.8657628424626796 
1.8799999999998094, -0.880777046912474 
1.8899999999998083, -0.8961062592703714 
1.8999999999998072, -0.9105867819358069 
1.909999999999806, -0.922885728627682 
1.919999999999805, -0.9321127525538575 
1.9299999999998039, -0.9382287202527747 
1.9399999999998028, -0.941842147527949 
1.9499999999998017, -0.9437179827230444 
1.9599999999998006, -0.9444635603218806 
1.9699999999997995, -0.9444660980063013 
1.9799999999997984, -0.9439574291219552 
1.9899999999997973, -0.9431313984591091 
1.9999999999997962, -0.9423295425937965 
2.0099999999998173, -0.9423469211545248 
2.0199999999998384, -0.9448102648317501 
2.0299999999998595, -0.9522558015763988 
2.0399999999998806, -0.9672896157700395 
2.0499999999999017, -0.99092225865209 
2.059999999999923, -1.021550680906704 
2.069999999999944, -1.0557426623189659 
2.079999999999965, -1.0898729338912887 
2.089999999999986, -1.1210733357048785 
2.100000000000007, -1.1473416772864589 
2.1100000000000283, -1.1675326128551977 
2.1200000000000494, -1.1815405428524923 
2.1300000000000705, -1.190286130073746 
2.1400000000000916, -1.195220230687939 
2.1500000000001127, -1.1977073366279727 
2.160000000000134, -1.1987204704440728 
2.170000000000155, -1.198856253111676 
2.180000000000176, -1.1984886332441147 
2.190000000000197, -1.1979534567661319 
2.2000000000002182, -1.1977073729290404 
2.2100000000002393, -1.1983266163977162 
2.2200000000002604, -1.2002139696086565 
2.2300000000002815, -1.2032674495068383 
2.2400000000003026, -1.206971848919735 
2.2500000000003237, -1.2107890005239212 
2.260000000000345, -1.2143836398804806 
2.270000000000366, -1.2176053808967275 
2.280000000000387, -1.2204014899608409 
2.290000000000408, -1.2227577662846383 
2.3000000000004293, -1.224668134225371 
2.3100000000004504, -1.2261191162909861 
2.3200000000004715, -1.2270892650073946 
2.3300000000004926, -1.2275646552273705 
2.3400000000005137, -1.2275597684760617 
2.3500000000005348, -1.227129105155821 
2.360000000000556, -1.2263674999992902 
2.370000000000577, -1.2254053486738843 
2.380000000000598, -1.2243929546819896 
2.390000000000619, -1.2234646182148836 
2.4000000000006403, -1.2227073669419064 
2.4100000000006614, -1.2221727505688207 
2.4200000000006825, -1.2219027668897604 
2.4300000000007036, -1.2219038784604566 
2.4400000000007247, -1.2220918109974153 
2.450000000000746, -1.222294060707188 
2.460000000000767, -1.2223107083386535 
2.470000000000788, -1.2219598333531285 
2.480000000000809, -1.221085592245585 
2.49000000000083, -1.2195621873357259 
2.5000000000008513, -1.2173119981845288 
2.5100000000008724, -1.214318655054031 
2.5200000000008935, -1.210611264277667 
2.5300000000009146, -1.206228401924354 
2.5400000000009357, -1.2011935930172406 
2.550000000000957, -1.1955245381901036 
2.560000000000978, -1.1892864401245704 
2.570000000000999, -1.1827019312285065 
2.58000000000102, -1.1762943628775555 
2.5900000000010412, -1.170897993908813 
2.6000000000010624, -1.1672831659794345 
2.6100000000010835, -1.1655722005651232 
2.6200000000011046, -1.1651599621211322 
2.6300000000011257, -1.1652438112835375 
2.6400000000011468, -1.1652444000908493 
2.650000000001168, -1.1648033188184197 
2.660000000001189, -1.1635831398754477 
2.67000000000121, -1.1610445488804246 
2.680000000001231, -1.156221796491437 
2.6900000000012523, -1.1475497127150738 
2.7000000000012734, -1.1329873473391294 
2.7100000000012945, -1.1107573404826465 
2.7200000000013156, -1.0804731210954768 
2.7300000000013367, -1.04368261926184 
2.740000000001358, -1.003386323476979 
2.750000000001379, -0.9632363752937103 
2.7600000000014, -0.9269360056951174 
2.770000000001421, -0.897570656270234 
2.780000000001442, -0.8767404578299389 
2.7900000000014633, -0.8640663701256006 
2.8000000000014844, -0.8576346326881901 
2.8100000000015055, -0.8550761670834097 
2.8200000000015266, -0.8544574100170765 
2.8300000000015477, -0.8545668939974019 
2.840000000001569, -0.854772453575644 
2.85000000000159, -0.854767921167426 
2.860000000001611, -0.8543744827871722 
2.870000000001632, -0.8534218984052029 
2.8800000000016532, -0.8516943738914261 
2.8900000000016743, -0.8489429748185714 
2.9000000000016954, -0.8449818998354379 
2.9100000000017165, -0.8398385440259432 
2.9200000000017377, -0.8338277190671122 
2.9300000000017588, -0.8274386231240551 
2.94000000000178, -0.8211217284433768 
2.950000000001801, -0.8151594794427238 
2.960000000001822, -0.8096726962057254 
2.970000000001843, -0.8046908982083334 
2.9800000000018643, -0.800217593237945 
2.9900000000018854, -0.7962669132404832 
3.0000000000019065, -0.792873688267729 
3.0100000000019276, -0.7900849757246864 
3.0200000000019487, -0.7879401259231155 
3.03000000000197, -0.7864464665176099 
3.040000000001991, -0.7855603297851703 
3.050000000002012, -0.7851838590739328 
3.060000000002033, -0.7851811881808036 
3.070000000002054, -0.7854061142372555 
3.0800000000020753, -0.7857279878297911 
3.0900000000020964, -0.7860479738811124 
3.1000000000021175, -0.7863066290287797 
3.1100000000021386, -0.7864862635138751 
3.1200000000021597, -0.7866069501807045 
3.130000000002181, -0.7867115663781528 
3.140000000002202, -0.7868403263942236 
3.150000000002223, -0.7870046436455056 
3.160000000002244, -0.7871736744980866 
3.1700000000022652, -0.7872821685369105 
3.1800000000022863, -0.7872576944738187 
3.1900000000023074, -0.7870526505536262 
3.2000000000023285, -0.7866637619399635 
3.2100000000023496, -0.7861354936569612 
3.2200000000023707, -0.7855581245653853 
3.230000000002392, -0.7850700294548018 
3.240000000002413, -0.7848614480807986 
3.250000000002434, -0.7851668288684145 
3.260000000002455, -0.7862342940710434 
3.2700000000024763, -0.7882766260850133 
3.2800000000024974, -0.7914275519670002 
3.2900000000025185, -0.79572932969657 
3.3000000000025396, -0.8011569518906256 
3.3100000000025607, -0.8076603243443149 
3.3200000000025818, -0.8151975854003191 
3.330000000002603, -0.8237371329405903 
3.340000000002624, -0.8332106197152044 
3.350000000002645, -0.8434069475180216 
3.360000000002666, -0.8538364768147874 
3.3700000000026873, -0.8636879985519673 
3.3800000000027084, -0.8720469311897316 
3.3900000000027295, -0.8783188569845543 
3.4000000000027506, -0.8824760374650362 
3.4100000000027717, -0.8849061917406831 
3.420000000002793, -0.8860981668241965 
3.430000000002814, -0.8864446536380843 
3.440000000002835, -0.8862028121718437 
3.450000000002856, -0.885544223482093 
3.460000000002877, -0.8846619851014731 
3.4700000000028983, -0.8839667459701334 
3.4800000000029194, -0.8844319888383717 
3.4900000000029405, -0.8880599527431879 
3.5000000000029616, -0.8981210047006678 
3.5100000000029827, -0.9184416316188514 
3.520000000003004, -0.9513829819259996 
3.530000000003025, -0.9957099033838125 
3.540000000003046, -1.0464753521471546 
3.550000000003067, -1.0971842754485508 
3.5600000000030882, -1.1421804028523512 
3.5700000000031094, -1.1778750564684153 
3.5800000000031305, -1.2031406554623847 
3.5900000000031516, -1.2191170796226296 
3.6000000000031727, -1.228243406057764 
3.6100000000031938, -1.2330092685713008 
3.620000000003215, -1.2352414106294864 
3.630000000003236, -1.236042953337139 
3.640000000003257, -1.2360231379800632 
3.650000000003278, -1.2355602455553636 
3.6600000000032993, -1.235037186561124 
3.6700000000033204, -1.2350004195055055 
3.6800000000033415, -1.2360590416472104 
3.6900000000033626, -1.2384668307482136 
3.7000000000033837, -1.2418786614671173 
3.710000000003405, -1.2456631433958845 
3.720000000003426, -1.249326881835327 
3.730000000003447, -1.2526254668820658 
3.740000000003468, -1.2554729172140908 
3.750000000003489, -1.257849983768661 
3.7600000000035103, -1.2597589150606043 
3.7700000000035314, -1.2612027106013675 
3.7800000000035525, -1.2621763442683913 
3.7900000000035736, -1.2626715390875518 
3.8000000000035947, -1.2626927994645278 
3.810000000003616, -1.2622734474454669 
3.820000000003637, -1.2614831495144707 
3.830000000003658, -1.2604276359705686 
3.840000000003679, -1.2592381243665003 
3.8500000000037002, -1.2580435561544392 
3.8600000000037213, -1.256945098173243 
3.8700000000037424, -1.256030085676874 
3.8800000000037635, -1.2553974664533167 
3.8900000000037847, -1.2551132631200534 
3.9000000000038058, -1.255117890445077 
3.910000000003827, -1.2552150938909408 
3.920000000003848, -1.255157419531755 
3.930000000003869, -1.2547100223121361 
3.94000000000389, -1.2536467116613825 
3.9500000000039113, -1.2517324400200744 
3.9600000000039324, -1.248743181007242 
3.9700000000039535, -1.2445176183637296 
3.9800000000039746, -1.2389877304093095 
3.9900000000039957, -1.2321506999767793 
4.000000000004016, -1.2240136836908386 
4.010000000003993, -1.214584485230086 
4.02000000000397, -1.2039751281781155 
4.030000000003946, -1.1926598756782094 
4.040000000003923, -1.1817881930437772 
4.0500000000039, -1.1730782839121758 
4.0600000000038765, -1.1678059525948972 
4.070000000003853, -1.165736272256623 
4.08000000000383, -1.1655050248225012 
4.090000000003807, -1.1658203921664634 
4.100000000003783, -1.1659641421775075 
4.11000000000376, -1.1655825426876354 
4.120000000003737, -1.1643428370260323 
4.130000000003713, -1.1616185369061274 
4.14000000000369, -1.1560861260820663 
4.150000000003667, -1.1451070179567087 
4.1600000000036434, -1.1240911423937008 
4.17000000000362, -1.0869982448301965 
4.180000000003597, -1.0298568418937044 
4.1900000000035735, -0.9561106469454363 
4.20000000000355, -0.877158494151246 
4.210000000003527, -0.8056297145060881 
4.220000000003504, -0.7489024032861161 
4.23000000000348, -0.7082517139324069 
4.240000000003457, -0.6813539720854642 
4.250000000003434, -0.6647446987643331 
4.26000000000341, -0.6551628815191639 
4.270000000003387, -0.6500405185762919 
4.280000000003364, -0.647557860630219 
4.2900000000033405, -0.646523353776549 
4.300000000003317, -0.6462059153135331 
4.310000000003294, -0.6461787846379021 
4.320000000003271, -0.6461986372376627 
4.330000000003247, -0.6461243033642246 
4.340000000003224, -0.6458710421137397 
4.350000000003201, -0.6453942434295331 
4.360000000003177, -0.6446938316462567 
4.370000000003154, -0.6438232277502804 
4.380000000003131, -0.6428819216491635 
4.390000000003107, -0.64198334757488 
4.400000000003084, -0.6412139678864102 
4.410000000003061, -0.6406069443446522 
4.4200000000030375, -0.6401393682279106 
4.430000000003014, -0.6397488197608526 
4.440000000002991, -0.6393613698191568 
4.450000000002968, -0.6389204585880842 
4.460000000002944, -0.6384057515672327 
4.470000000002921, -0.6378394425120117 
4.480000000002898, -0.6372877811247435 
4.490000000002874, -0.6368675173171882 
4.500000000002851, -0.6367614362269748 
4.510000000002828, -0.6372406548337084 
4.520000000002804, -0.6386871006114787 
4.530000000002781, -0.6416085775363781 
4.540000000002758, -0.6466421578742929 
4.5500000000027345, -0.6545486818371697 
4.560000000002711, -0.6662063126616727 
4.570000000002688, -0.6826036800429293 
4.580000000002665, -0.7047990630945613 
4.590000000002641, -0.733735256205011 
4.600000000002618, -0.7696894994752342 
4.610000000002595, -0.8111748014836513 
4.620000000002571, -0.8538450312967998 
4.630000000002548, -0.8913435802552778 
4.640000000002525, -0.9189519792852417 
4.6500000000025015, -0.936295737946733 
4.660000000002478, -0.9460090476620966 
4.670000000002455, -0.951048307201172 
4.6800000000024315, -0.9534615663127541 
4.690000000002408, -0.9543933892194054 
4.700000000002385, -0.9544044197418202 
4.710000000002362, -0.9537271604548179 
4.720000000002338, -0.9524387560035883 
4.730000000002315, -0.9506621211826711 
4.740000000002292, -0.9490261735279727 
4.750000000002268, -0.949791103359308 
4.760000000002245, -0.9589107614802483 
4.770000000002222, -0.9875978019184064 
4.7800000000021985, -1.0480490106821554 
4.790000000002175, -1.1394115133428346 
4.800000000002152, -1.239739834662095 
4.810000000002129, -1.323927291817532 
4.820000000002105, -1.3825076950497885 
4.830000000002082, -1.4186233341561538 
4.840000000002059, -1.439031657997478 
4.850000000002035, -1.449760754095225 
4.860000000002012, -1.4550211241296418 
4.870000000001989, -1.4573465112463018 
4.880000000001965, -1.4581095865251164 
4.890000000001942, -1.4580301186245954 
4.900000000001919, -1.4575574274292593 
4.9100000000018955, -1.4571076005297767 
4.920000000001872, -1.457062872302555 
4.930000000001849, -1.457544542665274 
