t, s[1].omega / s[0].omega 
0, -1.440050384324079 
0.009999999999999995, -1.4443664855993457 
0.019999999999999934, -1.4473320565477557 
0.029999999999999874, -1.4490597338207643 
0.04000000000000012, -1.4497134216524892 
0.050000000000000405, -1.4495212058606404 
0.06000000000000069, -1.448755115662761 
0.07000000000000098, -1.4476928012070664 
0.08000000000000126, -1.4465131243927 
0.09000000000000155, -1.4452179559302565 
0.10000000000000184, -1.4437962950385033 
0.11000000000000212, -1.4424913969047624 
0.12000000000000241, -1.4416982375515999 
0.130000000000002, -1.441456360288726 
0.1400000000000009, -1.441289661436581 
0.1499999999999998, -1.4405387795050697 
0.1599999999999987, -1.438456630412879 
0.1699999999999976, -1.4339251696505322 
0.1799999999999965, -1.425146091011586 
0.1899999999999954, -1.4096872306000159 
0.1999999999999943, -1.3850556862010917 
0.2099999999999932, -1.3491760765787668 
0.2199999999999921, -1.2999243778147018 
0.229999999999991, -1.2344148338411158 
0.2399999999999899, -1.1505678482847608 
0.2499999999999888, -1.0536488272306892 
0.2599999999999877, -0.9625327554870997 
0.2699999999999866, -0.8985016610794322 
0.2799999999999855, -0.8656242271358483 
0.2899999999999844, -0.8533883685776777 
0.2999999999999833, -0.850606141334276 
0.3099999999999822, -0.850921584608097 
0.3199999999999811, -0.8517090166986534 
0.32999999999998, -0.8520681973171109 
0.3399999999999789, -0.8516474286898943 
0.3499999999999778, -0.850114414897369 
0.35999999999997667, -0.8469201204587868 
0.36999999999997557, -0.8412466817890627 
0.37999999999997447, -0.8322874336642954 
0.38999999999997337, -0.8199693209595227 
0.39999999999997227, -0.8055072640143006 
0.40999999999997117, -0.790833889316446 
0.41999999999997006, -0.777418014007204 
0.42999999999996896, -0.765802927149031 
0.43999999999996786, -0.7559111756996617 
0.44999999999996676, -0.7474505552495316 
0.45999999999996566, -0.7401372971774044 
0.46999999999996456, -0.7337731264575453 
0.47999999999996346, -0.7282541239873225 
0.48999999999996235, -0.7235531521737938 
0.49999999999996125, -0.7196910423065743 
0.5099999999999602, -0.7167005795709559 
0.519999999999959, -0.7145871147202917 
0.529999999999958, -0.7132963340464061 
0.5399999999999568, -0.7127038421386123 
0.5499999999999557, -0.7126332801211327 
0.5599999999999546, -0.7128936952180926 
0.5699999999999535, -0.7133184193934275 
0.5799999999999524, -0.7137936876420026 
0.5899999999999513, -0.7142747650288945 
0.5999999999999502, -0.7147882783524941 
0.6099999999999491, -0.7154158945111873 
0.619999999999948, -0.7162592341653402 
0.6299999999999469, -0.7173956064115388 
0.6399999999999458, -0.7188340321613917 
0.6499999999999447, -0.7204792394772067 
0.6599999999999436, -0.7221273031026968 
0.6699999999999425, -0.7235250804091734 
0.6799999999999414, -0.7244756522606807 
0.6899999999999403, -0.7249108126809894 
0.6999999999999392, -0.7248886305868827 
0.7099999999999381, -0.7245628741411048 
0.719999999999937, -0.7241909967293647 
0.7299999999999359, -0.7242084552778447 
0.7399999999999348, -0.725353260759935 
0.7499999999999337, -0.7287718720889402 
0.7599999999999326, -0.7359756848490697 
0.7699999999999315, -0.748528269263101 
0.7799999999999304, -0.7675295298988161 
0.7899999999999293, -0.7932226823679321 
0.7999999999999282, -0.8250487778634774 
0.8099999999999271, -0.8621012658911432 
0.819999999999926, -0.9035713303042417 
0.8299999999999249, -0.9487487069668594 
0.8399999999999238, -0.9963229823310555 
0.8499999999999227, -1.0431574783559814 
0.8599999999999216, -1.0839667483824986 
0.8699999999999205, -1.1139608676769983 
0.8799999999999194, -1.1324076653216941 
0.8899999999999183, -1.1422150036188279 
0.8999999999999172, -1.1468542447983927 
0.9099999999999161, -1.1486885547740489 
0.919999999999915, -1.1489941008954598 
0.9299999999999139, -1.1484840309109017 
0.9399999999999128, -1.1478706428020813 
0.9499999999999117, -1.148385694934634 
0.9599999999999106, -1.1517413821544316 
0.9699999999999095, -1.158857602897917 
0.9799999999999084, -1.1686885979484916 
0.9899999999999073, -1.179180445501476 
0.9999999999999062, -1.1889027188065309 
1.0099999999999052, -1.1974022618548132 
1.019999999999904, -1.2047563576151576 
1.029999999999903, -1.2111757695238166 
1.039999999999902, -1.216827027717911 
1.0499999999999008, -1.221769219417377 
1.0599999999998997, -1.2259383178318595 
1.0699999999998986, -1.2291892604687786 
1.0799999999998975, -1.231403189144174 
1.0899999999998964, -1.232590688240079 
1.0999999999998953, -1.2329082263191753 
1.1099999999998942, -1.23261074488655 
1.119999999999893, -1.2320158307035838 
1.129999999999892, -1.2314648107157413 
1.1399999999998909, -1.2312055131774098 
1.1499999999998898, -1.2312687841984666 
1.1599999999998887, -1.2315274668530214 
1.1699999999998876, -1.2318826071390916 
1.1799999999998865, -1.2323294676432848 
1.1899999999998854, -1.2328520443242987 
1.1999999999998843, -1.2333231405550862 
1.2099999999998832, -1.233536014646003 
1.219999999999882, -1.2332975483182183 
1.229999999999881, -1.232488209238618 
1.2399999999998799, -1.2310813799612197 
1.2499999999998788, -1.2291285862106671 
1.2599999999998777, -1.2267098352057313 
1.2699999999998766, -1.2238776142951238 
1.2799999999998755, -1.2206319594206088 
1.2899999999998744, -1.2169303469404753 
1.2999999999998733, -1.2127071165013859 
1.3099999999998722, -1.2078877534343384 
1.319999999999871, -1.2024360375599472 
1.32999999999987, -1.1965131672562688 
1.3399999999998689, -1.1907247284250146 
1.3499999999998678, -1.1861085952559196 
1.3599999999998666, -1.1834551621567972 
1.3699999999998655, -1.1825547046815925 
1.3799999999998644, -1.1824652331811325 
1.3899999999998633, -1.1822789262752642 
1.3999999999998622, -1.1813350974489518 
1.4099999999998611, -1.17894568792947 
1.41999999999986, -1.1740460790699836 
1.429999999999859, -1.165042217109116 
1.4399999999998578, -1.1502325713082073 
1.4499999999998567, -1.1289329270714092 
1.4599999999998556, -1.1022184220533364 
1.4699999999998545, -1.0721111446884166 
1.4799999999998534, -1.0402200706099338 
1.4899999999998523, -1.0073425092355301 
1.4999999999998512, -0.9739779033694409 
1.5099999999998501, -0.9411055866325759 
1.519999999999849, -0.9107263794785911 
1.529999999999848, -0.8855883769428265 
1.5399999999998468, -0.8678258643992904 
1.5499999999998457, -0.8575436390184128 
1.5599999999998446, -0.8528915242649282 
1.5699999999998435, -0.851434914322388 
1.5799999999998424, -0.8512955550390273 
1.5899999999998413, -0.8513900306251114 
1.5999999999998402, -0.8511604621272844 
1.6099999999998391, -0.8502620448156305 
1.619999999999838, -0.8483774376658548 
1.629999999999837, -0.8451897766443415 
1.6399999999998358, -0.8405256138292966 
1.6499999999998347, -0.8345754112768414 
1.6599999999998336, -0.8279248172308801 
1.6699999999998325, -0.821266825680877 
1.6799999999998314, -0.8150751478684608 
1.6899999999998303, -0.8095204557210242 
1.6999999999998292, -0.80457387108818 
1.709999999999828, -0.8001335693333168 
1.719999999999827, -0.7961052476767921 
1.729999999999826, -0.792437387646413 
1.7399999999998248, -0.7891267706035495 
1.7499999999998237, -0.7862085473437452 
1.7599999999998226, -0.7837415971890345 
1.7699999999998215, -0.7817925390861575 
1.7799999999998204, -0.7804149483481277 
1.7899999999998193, -0.77962267282518 
1.7999999999998182, -0.7793675010283485 
1.809999999999817, -0.7795378368800915 
1.819999999999816, -0.7799844305414494 
1.8299999999998149, -0.7805610620226434 
1.8399999999998138, -0.7811620524048344 
1.8499999999998127, -0.7817455870108392 
1.8599999999998116, -0.7823374738979754 
1.8699999999998105, -0.7830116097809106 
1.8799999999998094, -0.7838507402333186 
1.8899999999998083, -0.7849003502423038 
1.8999999999998072, -0.7861290200838323 
1.909999999999806, -0.7874100553933758 
1.919999999999805, -0.788547526739326 
1.9299999999998039, -0.7893526888431138 
1.9399999999998028, -0.7897254035066603 
1.9499999999998017, -0.7896852139809385 
1.9599999999998006, -0.7893587621024754 
1.9699999999997995, -0.7889732763005919 
1.9799999999997984, -0.7888796620027017 
1.9899999999997973, -0.7895750660932325 
1.9999999999997962, -0.7916592294516616 
2.0099999999998173, -0.7956831133315986 
2.0199999999998384, -0.8019512866321303 
2.0299999999998595, -0.8104268872494107 
2.0399999999998806, -0.8208227350050168 
2.0499999999999017, -0.832802193432768 
2.059999999999923, -0.8461518498752392 
2.069999999999944, -0.8608548579180859 
2.079999999999965, -0.8770607998442452 
2.089999999999986, -0.8949386190671401 
2.100000000000007, -0.9143503338566612 
2.1100000000000283, -0.9343507597346619 
2.1200000000000494, -0.9529371755682494 
2.1300000000000705, -0.967832573922099 
2.1400000000000916, -0.9779656128835885 
2.1500000000001127, -0.9838916314144116 
2.160000000000134, -0.9868748308903917 
2.170000000000155, -0.9880143723210187 
2.180000000000176, -0.9880168121903308 
2.190000000000197, -0.98735823190277 
2.2000000000002182, -0.9866325883395678 
2.2100000000002393, -0.9870695037323634 
2.2200000000002604, -0.9909602863070809 
2.2300000000002815, -1.001042922560985 
2.2400000000003026, -1.0183675393852671 
2.2500000000003237, -1.0409128734005597 
2.260000000000345, -1.0651786380417076 
2.270000000000366, -1.0885909937830687 
2.280000000000387, -1.1101550793042272 
2.290000000000408, -1.1298245081669192 
2.3000000000004293, -1.147763081883881 
2.3100000000004504, -1.1638786450113674 
2.3200000000004715, -1.1776625289816354 
2.3300000000004926, -1.1884282588120396 
2.3400000000005137, -1.1958541778907423 
2.3500000000005348, -1.2002887429767504 
2.360000000000556, -1.2024987105374796 
2.370000000000577, -1.203252387922753 
2.380000000000598, -1.2031579489400408 
2.390000000000619, -1.2027618717743902 
2.4000000000006403, -1.2026920428927503 
2.4100000000006614, -1.2035541503220895 
2.4200000000006825, -1.2055342247895582 
2.4300000000007036, -1.2082478812336102 
2.4400000000007247, -1.211131542626582 
2.450000000000746, -1.213832135182141 
2.460000000000767, -1.216231350774327 
2.470000000000788, -1.2183009595372387 
2.480000000000809, -1.2200182827982125 
2.49000000000083, -1.221368870551615 
2.5000000000008513, -1.2223641950118993 
2.5100000000008724, -1.223031185095733 
2.5200000000008935, -1.2233827231524503 
2.5300000000009146, -1.2233979511044664 
2.5400000000009357, -1.223032464079109 
2.550000000000957, -1.222254864869908 
2.560000000000978, -1.2210848791242508 
2.570000000000999, -1.2196051653925746 
2.58000000000102, -1.2179305734518353 
2.5900000000010412, -1.2161499923109802 
2.6000000000010624, -1.21431240016456 
2.6100000000010835, -1.2125129480228556 
2.6200000000011046, -1.2109841409037958 
2.6300000000011257, -1.210001913164772 
2.6400000000011468, -1.2096186367707908 
2.650000000001168, -1.2095494928942094 
2.660000000001189, -1.2093471722413134 
2.67000000000121, -1.2085797586242841 
2.680000000001231, -1.2068505783538712 
2.6900000000012523, -1.2037902800472327 
2.7000000000012734, -1.1991476234921281 
2.7100000000012945, -1.1929201599528487 
2.7200000000013156, -1.1853419093089936 
2.7300000000013367, -1.1766915867298793 
2.740000000001358, -1.1671020145417386 
2.750000000001379, -1.1565034084745822 
2.7600000000014, -1.1446862297988791 
2.770000000001421, -1.131474301998428 
2.780000000001442, -1.1170860453437874 
2.7900000000014633, -1.1026712852195646 
2.8000000000014844, -1.0904566977619181 
2.8100000000015055, -1.0825370741070632 
2.8200000000015266, -1.0790633959133964 
2.8300000000015477, -1.0783432439234282 
2.840000000001569, -1.0785349682340648 
2.85000000000159, -1.0785276179359449 
2.860000000001611, -1.0777037640181137 
2.870000000001632, -1.0754367749836846 
2.8800000000016532, -1.0706680098668575 
2.8900000000016743, -1.0616500376003313 
2.9000000000016954, -1.0462640649441968 
2.9100000000017165, -1.023444149163064 
2.9200000000017377, -0.9947145078695332 
2.9300000000017588, -0.9634747159452809 
2.94000000000178, -0.932663703653995 
2.950000000001801, -0.9036825547178357 
2.960000000001822, -0.8768771738465333 
2.970000000001843, -0.8523090161681642 
2.9800000000018643, -0.8302215242295657 
2.9900000000018854, -0.8111689190732658 
3.0000000000019065, -0.7958447526329582 
3.0100000000019276, -0.784695635284335 
3.0200000000019487, -0.7775700423033579 
3.03000000000197, -0.7736927740634643 
3.040000000001991, -0.7719835673677362 
3.050000000002012, -0.7714392121634144 
3.060000000002033, -0.771329605842513 
3.070000000002054, -0.7711922867810024 
3.0800000000020753, -0.7707427094999612 
3.0900000000020964, -0.7698026181025697 
3.1000000000021175, -0.7682897333986636 
3.1100000000021386, -0.7662533567817005 
3.1200000000021597, -0.7638870340809446 
3.130000000002181, -0.761458504111823 
3.140000000002202, -0.7591938281347343 
3.150000000002223, -0.7572064213691144 
3.160000000002244, -0.7554993156423625 
3.1700000000022652, -0.7540063419638867 
3.1800000000022863, -0.752641019476006 
3.1900000000023074, -0.7513406856899685 
3.2000000000023285, -0.7500967628218728 
3.2100000000023496, -0.7489639933121176 
3.2200000000023707, -0.7480490231899282 
3.230000000002392, -0.747483689283897 
3.240000000002413, -0.7473906929419275 
3.250000000002434, -0.7478534517446859 
3.260000000002455, -0.7489025668238354 
3.2700000000024763, -0.7505224988920199 
3.2800000000024974, -0.7526706278548467 
3.2900000000025185, -0.7552983402765461 
3.3000000000025396, -0.7583700450782567 
3.3100000000025607, -0.7618812887354771 
3.3200000000025818, -0.7658753827753613 
3.330000000002603, -0.7704518477231754 
3.340000000002624, -0.7757541761701796 
3.350000000002645, -0.7819178906418508 
3.360000000002666, -0.7889536168417315 
3.3700000000026873, -0.7965685720311019 
3.3800000000027084, -0.8040557778595387 
3.3900000000027295, -0.8104952446127196 
3.4000000000027506, -0.8152406339980857 
3.4100000000027717, -0.818206359559899 
3.420000000002793, -0.8197012656480995 
3.430000000002814, -0.8201198942828178 
3.440000000002835, -0.8197936776072641 
3.450000000002856, -0.8190406667093113 
3.460000000002877, -0.81840044776911 
3.4700000000028983, -0.8191195428291069 
3.4800000000029194, -0.8239096629350943 
3.4900000000029405, -0.8375121861363558 
3.5000000000029616, -0.865661354813035 
3.5100000000029827, -0.9113196534090899 
3.520000000003004, -0.9709006484803231 
3.530000000003025, -1.0358898835596149 
3.540000000003046, -1.098608025518303 
3.550000000003067, -1.1551410336553394 
3.5600000000030882, -1.204060891547877 
3.5700000000031094, -1.2443496896284199 
3.5800000000031305, -1.2748347488182552 
3.5900000000031516, -1.2952656960452114 
3.6000000000031727, -1.3072314325065055 
3.6100000000031938, -1.3133968146226773 
3.620000000003215, -1.3161348905413424 
3.630000000003236, -1.3169831114217874 
3.640000000003257, -1.3168509330187717 
3.650000000003278, -1.316445492704408 
3.6600000000032993, -1.3165494394613169 
3.6700000000033204, -1.317786230889655 
3.6800000000033415, -1.320074304099528 
3.6900000000033626, -1.3227485612347776 
3.7000000000033837, -1.32524372476101 
3.710000000003405, -1.3273643322675523 
3.720000000003426, -1.3290988602183282 
3.730000000003447, -1.3304294617416517 
3.740000000003468, -1.3313069463730662 
3.750000000003489, -1.3316994405542284 
3.7600000000035103, -1.331614406381615 
3.7700000000035314, -1.331080106394088 
3.7800000000035525, -1.3301134045311553 
3.7900000000035736, -1.328702366641774 
3.8000000000035947, -1.326815119789007 
3.810000000003616, -1.3244209092465147 
3.820000000003637, -1.321493455306377 
3.830000000003658, -1.3179874089087842 
3.840000000003679, -1.3138570220688333 
3.8500000000037002, -1.3092433542258344 
3.8600000000037213, -1.3047831569177606 
3.8700000000037424, -1.3015258292414138 
3.8800000000037635, -1.3000333313464552 
3.8900000000037847, -1.2997554674112082 
3.9000000000038058, -1.299669170977856 
3.910000000003827, -1.298936366323266 
3.920000000003848, -1.2967449935377342 
3.930000000003869, -1.2917205769458588 
3.94000000000389, -1.2812003901244673 
3.9500000000039113, -1.2608019161618111 
3.9600000000039324, -1.2256156085955836 
3.9700000000039535, -1.1736308069609487 
3.9800000000039746, -1.1078493009075003 
3.9900000000039957, -1.0340054781971824 
4.000000000004016, -0.9576791485409899 
4.010000000003993, -0.8840759952050645 
4.02000000000397, -0.8186269447707071 
4.030000000003946, -0.7660997505576738 
4.040000000003923, -0.7286697421492568 
4.0500000000039, -0.7051453373912346 
4.0600000000038765, -0.6921355208490383 
4.070000000003853, -0.6858624224748996 
4.08000000000383, -0.6833173841461384 
4.090000000003807, -0.6825431682433271 
4.100000000003783, -0.6824269415367146 
4.11000000000376, -0.6823808712042865 
4.120000000003737, -0.6820902811205045 
4.130000000003713, -0.6813698827313306 
4.14000000000369, -0.6801176365931555 
4.150000000003667, -0.6783384802298938 
4.1600000000036434, -0.6761794010238859 
4.17000000000362, -0.6738995609877017 
4.180000000003597, -0.6717646704375704 
4.1900000000035735, -0.6699473205119377 
4.20000000000355, -0.668498149580412 
4.210000000003527, -0.6673713547396793 
4.220000000003504, -0.6664655403968671 
4.23000000000348, -0.6656663011263799 
4.240000000003457, -0.6648883214764341 
4.250000000003434, -0.6641075675032482 
4.26000000000341, -0.663375623142567 
4.270000000003387, -0.6628200921585833 
4.280000000003364, -0.6626379523873569 
4.2900000000033405, -0.6630806215244707 
4.300000000003317, -0.6644249488844824 
4.310000000003294, -0.6669320500215714 
4.320000000003271, -0.6708096618658785 
4.330000000003247, -0.6761991894881106 
4.340000000003224, -0.6831986879980934 
4.350000000003201, -0.6919164879400003 
4.360000000003177, -0.7025409967518331 
4.370000000003154, -0.7154126664257748 
4.380000000003131, -0.7310810624060496 
4.390000000003107, -0.7502972181439199 
4.400000000003084, -0.7737905907935466 
4.410000000003061, -0.8015363444114343 
4.4200000000030375, -0.8314737941673835 
4.430000000003014, -0.8591052400480624 
4.440000000002991, -0.8800535284118711 
4.450000000002968, -0.8932408015838466 
4.460000000002944, -0.9004410405181794 
4.470000000002921, -0.9039147595610402 
4.480000000002898, -0.9052155110380726 
4.490000000002874, -0.9051596355311432 
4.500000000002851, -0.904116752893616 
4.510000000002828, -0.9023667592042928 
4.520000000002804, -0.9007901216600904 
4.530000000002781, -0.9026325103687824 
4.540000000002758, -0.917092519125396 
4.5500000000027345, -0.9618445989098585 
4.560000000002711, -1.0515592422658098 
4.570000000002688, -1.1703183316503423 
4.580000000002665, -1.2797198515494916 
4.590000000002641, -1.360988034365895 
4.600000000002618, -1.4171065530822102 
4.610000000002595, -1.4553836510249154 
4.620000000002571, -1.4809718412431354 
4.630000000002548, -1.4971387647920653 
4.640000000002525, -1.506466961441862 
4.6500000000025015, -1.511247028027835 
4.660000000002478, -1.513273333365866 
4.670000000002455, -1.5137368412836594 
4.6800000000024315, -1.5134149544765454 
4.690000000002408, -1.5129265154687732 
4.700000000002385, -1.5127131563297835 
4.710000000002362, -1.5127913255439442 
4.720000000002338, -1.5128899136395786 
4.730000000002315, -1.512908343604546 
4.740000000002292, -1.5129819155589113 
4.750000000002268, -1.513125436996687 
4.760000000002245, -1.513041148961234 
4.770000000002222, -1.5122648219178214 
4.7800000000021985, -1.5102548057199878 
4.790000000002175, -1.5063386340097709 
4.800000000002152, -1.4997171724933853 
4.810000000002129, -1.4895528471267458 
4.820000000002105, -1.4749137183464656 
4.830000000002082, -1.454351245922371 
4.840000000002059, -1.4251518805088692 
4.850000000002035, -1.38275067805734 
4.860000000002012, -1.3226737752978828 
4.870000000001989, -1.2507169691632467 
4.880000000001965, -1.1924845291504327 
4.890000000001942, -1.1667989092263489 
4.900000000001919, -1.1629414756827994 
4.9100000000018955, -1.1652582059817373 
4.920000000001872, -1.1674422995110834 
4.930000000001849, -1.1682840285470504 
