t, s[1].omega / s[0].omega 
0, -1.1401002666601658 
0.009999999999999995, -1.149556766126128 
0.019999999999999934, -1.1575793959269824 
0.029999999999999874, -1.163730006365862 
0.04000000000000012, -1.167847860789807 
0.050000000000000405, -1.1701609201372896 
0.06000000000000069, -1.1711168587050438 
0.07000000000000098, -1.1711852022746876 
0.08000000000000126, -1.1708198176169897 
0.09000000000000155, -1.1705289864775057 
0.10000000000000184, -1.1708480820356468 
0.11000000000000212, -1.1720830677431813 
0.12000000000000241, -1.1740912488388944 
0.130000000000002, -1.1764529350495732 
0.1400000000000009, -1.1788141316129273 
0.1499999999999998, -1.181009704249194 
0.1599999999999987, -1.1829798124843305 
0.1699999999999976, -1.184679792136292 
0.1799999999999965, -1.186068626653681 
0.1899999999999954, -1.1871333038795875 
0.1999999999999943, -1.1878929697453446 
0.2099999999999932, -1.1883734642213502 
0.2199999999999921, -1.188575383228767 
0.229999999999991, -1.1884631034298887 
0.2399999999999899, -1.1879866605761726 
0.2499999999999888, -1.1871238269453301 
0.2599999999999877, -1.185913988615524 
0.2699999999999866, -1.1844594567783089 
0.2799999999999855, -1.1828847819544632 
0.2899999999999844, -1.1812789919613698 
0.2999999999999833, -1.1796919573402875 
0.3099999999999822, -1.1782154195764967 
0.3199999999999811, -1.1770422517784436 
0.32999999999998, -1.1763629471167323 
0.3399999999999789, -1.176160957819988 
0.3499999999999778, -1.1761609657082537 
0.35999999999997667, -1.17597915060502 
0.36999999999997557, -1.1752588046717956 
0.37999999999997447, -1.1737024249444141 
0.38999999999997337, -1.1710958205992543 
0.39999999999997227, -1.1673769432997287 
0.40999999999997117, -1.1626703685381563 
0.41999999999997006, -1.1572034374727274 
0.42999999999996896, -1.1511634685237524 
0.43999999999996786, -1.1446154350161706 
0.44999999999996676, -1.1375071182492005 
0.45999999999996566, -1.1297209838313254 
0.46999999999996456, -1.1211621950273598 
0.47999999999996346, -1.111930973808072 
0.48999999999996235, -1.102598449528031 
0.49999999999996125, -1.0943584336109784 
0.5099999999999602, -1.088548434978893 
0.519999999999959, -1.0856121940833896 
0.529999999999958, -1.0847518548824289 
0.5399999999999568, -1.0847305594208758 
0.5499999999999557, -1.0846151232256331 
0.5599999999999546, -1.0838061222683482 
0.5699999999999535, -1.0817336423845234 
0.5799999999999524, -1.077583612912397 
0.5899999999999513, -1.070244418422295 
0.5999999999999502, -1.0587127393255649 
0.6099999999999491, -1.0429142668518039 
0.619999999999948, -1.02405875265084 
0.6299999999999469, -1.0038662821294309 
0.6399999999999458, -0.9835689942945752 
0.6499999999999447, -0.9636666510680849 
0.6599999999999436, -0.9442435887382754 
0.6699999999999425, -0.9253689137059424 
0.6799999999999414, -0.9074047988134243 
0.6899999999999403, -0.8911602815590856 
0.6999999999999392, -0.8777504117317626 
0.7099999999999381, -0.8680782196784838 
0.719999999999937, -0.8622450469601798 
0.7299999999999359, -0.8594553698125038 
0.7399999999999348, -0.858508283803979 
0.7499999999999337, -0.8583492483140432 
0.7599999999999326, -0.8582769676029486 
0.7699999999999315, -0.8578657369153675 
0.7799999999999304, -0.8568220573405781 
0.7899999999999293, -0.8549104461417114 
0.7999999999999282, -0.851993113851744 
0.8099999999999271, -0.848143703181331 
0.819999999999926, -0.8436915176816433 
0.8299999999999249, -0.8390847721216967 
0.8399999999999238, -0.8346801560921262 
0.8499999999999227, -0.8306440639290921 
0.8599999999999216, -0.826988009296571 
0.8699999999999205, -0.8236504331192638 
0.8799999999999194, -0.8205643985269633 
0.8899999999999183, -0.8176959545585044 
0.8999999999999172, -0.8150547104236535 
0.9099999999999161, -0.8126844408495979 
0.919999999999915, -0.8106461502677489 
0.9299999999999139, -0.8090039759748585 
0.9399999999999128, -0.8078146991521404 
0.9499999999999117, -0.8071137697693722 
0.9599999999999106, -0.8068952589203363 
0.9699999999999095, -0.8070967772441353 
0.9799999999999084, -0.8076054249831801 
0.9899999999999073, -0.8082876532550841 
0.9999999999999062, -0.809028949262198 
1.0099999999999052, -0.8097659713966925 
1.019999999999904, -0.8105001171351638 
1.029999999999903, -0.8112868340305305 
1.039999999999902, -0.8122019105897815 
1.0499999999999008, -0.8132957792742415 
1.0599999999998997, -0.8145505951205447 
1.0699999999998986, -0.8158561447471072 
1.0799999999998975, -0.8170275491218831 
1.0899999999998964, -0.8178752591637222 
1.0999999999998953, -0.818289029201917 
1.1099999999998942, -0.8182773952842985 
1.119999999999893, -0.8179590890956782 
1.129999999999892, -0.8175524828594403 
1.1399999999998909, -0.8173882698558023 
1.1499999999998898, -0.8179156757110476 
1.1599999999998887, -0.8196410055177058 
1.1699999999998876, -0.8229755154463676 
1.1799999999998865, -0.828074383900024 
1.1899999999998854, -0.8348004300828263 
1.1999999999998843, -0.8428453460605934 
1.2099999999998832, -0.8519055267955998 
1.219999999999882, -0.8618017162003685 
1.229999999999881, -0.8725132961970502 
1.2399999999998799, -0.8841469823301829 
1.2499999999998788, -0.8968438566185541 
1.2599999999998777, -0.9105896693725791 
1.2699999999998766, -0.9249113852027515 
1.2799999999998755, -0.938644333684965 
1.2899999999998744, -0.950230584123625 
1.2999999999998733, -0.9586151169283637 
1.3099999999998722, -0.9638136943657802 
1.319999999999871, -0.9665558972527742 
1.32999999999987, -0.9676493079357972 
1.3399999999998689, -0.9676918670743347 
1.3499999999998678, -0.9671308924778789 
1.3599999999998666, -0.9665252036638229 
1.3699999999998655, -0.9669462185458866 
1.3799999999998644, -0.9702738891382638 
1.3899999999998633, -0.9787015243291488 
1.3999999999998622, -0.993171370979605 
1.4099999999998611, -1.0123182542127305 
1.41999999999986, -1.0334943823315874 
1.429999999999859, -1.0545502115846501 
1.4399999999998578, -1.0745022601135013 
1.4499999999998567, -1.0931833839907548 
1.4599999999998556, -1.1106789831506472 
1.4699999999998545, -1.126893596860587 
1.4799999999998534, -1.1413153881884792 
1.4899999999998523, -1.1531218257400897 
1.4999999999998512, -1.161694376974475 
1.5099999999998501, -1.1670997610489449 
1.519999999999849, -1.1699987649299106 
1.529999999999848, -1.171192347661368 
1.5399999999998468, -1.1713389001937808 
1.5499999999998457, -1.170980310408309 
1.5599999999998446, -1.1707155938669822 
1.5699999999998435, -1.171252488647919 
1.5799999999998424, -1.1730903283850513 
1.5899999999998413, -1.1761066900689783 
1.5999999999998402, -1.179689118995617 
1.6099999999998391, -1.1832579934324863 
1.619999999999838, -1.1865270688676963 
1.629999999999837, -1.1894223489505171 
1.6399999999998358, -1.1919404681787684 
1.6499999999998347, -1.1940910647754919 
1.6599999999998336, -1.1958953940177914 
1.6699999999998325, -1.1973806668181426 
1.6799999999998314, -1.198555147564322 
1.6899999999998303, -1.1993862970505773 
1.6999999999998292, -1.1998081710940924 
1.709999999999828, -1.1997622982838272 
1.719999999999827, -1.1992466732470188 
1.729999999999826, -1.1983416984167397 
1.7399999999998248, -1.1971997520532098 
1.7499999999998237, -1.1959923866218851 
1.7599999999998226, -1.1948327811035897 
1.7699999999998215, -1.1937534236929923 
1.7799999999998204, -1.1927886122123916 
1.7899999999998193, -1.1920560243152667 
1.7999999999998182, -1.191689584447213 
1.809999999999817, -1.191667069175785 
1.819999999999816, -1.191752711203803 
1.8299999999998149, -1.1916139528108993 
1.8399999999998138, -1.1909423569230453 
1.8499999999998127, -1.189498246484972 
1.8599999999998116, -1.1871428459071995 
1.8699999999998105, -1.1838800781407304 
1.8799999999998094, -1.179843857625968 
1.8899999999998083, -1.1752046246981012 
1.8999999999998072, -1.1700689854315174 
1.909999999999806, -1.164442451858659 
1.919999999999805, -1.1582484941395754 
1.9299999999998039, -1.1513717110265962 
1.9399999999998028, -1.1437364225699678 
1.9499999999998017, -1.135482471971653 
1.9599999999998006, -1.1272405213581345 
1.9699999999997995, -1.1202185626799537 
1.9799999999997984, -1.1155963113907135 
1.9899999999997973, -1.113530583236949 
1.9999999999997962, -1.113081599903912 
2.0099999999998173, -1.1130989686289 
2.0199999999998384, -1.1127770565168889 
2.0299999999998595, -1.1115395821793954 
2.0399999999998806, -1.1087047434839068 
2.0499999999999017, -1.1032325475219993 
2.059999999999923, -1.0937776103639323 
2.069999999999944, -1.0793302385666155 
2.079999999999965, -1.0601617553837481 
2.089999999999986, -1.0378846971489604 
2.100000000000007, -1.014335717190446 
2.1100000000000283, -0.9906405624630235 
2.1200000000000494, -0.9672009855088598 
2.1300000000000705, -0.9441519053319828 
2.1400000000000916, -0.921832296744722 
2.1500000000001127, -0.9011037002561011 
2.160000000000134, -0.8833416654296992 
2.170000000000155, -0.8699078346493769 
2.180000000000176, -0.8613232130310667 
2.190000000000197, -0.856894460721875 
2.2000000000002182, -0.855189991995432 
2.2100000000002393, -0.8548139890935426 
2.2200000000002604, -0.8548047345058049 
2.2300000000002815, -0.8546013058375914 
2.2400000000003026, -0.853855844853652 
2.2500000000003237, -0.8522908926566759 
2.260000000000345, -0.8496761719428985 
2.270000000000366, -0.8459314834745506 
2.280000000000387, -0.8412594924725234 
2.290000000000408, -0.8361208110646728 
2.3000000000004293, -0.8310110969451496 
2.3100000000004504, -0.8262505627995298 
2.3200000000004715, -0.8219446102563639 
2.3300000000004926, -0.8180613835597565 
2.3400000000005137, -0.8145222941934801 
2.3500000000005348, -0.8112623744163072 
2.360000000000556, -0.8082575778548039 
2.370000000000577, -0.8055263767640491 
2.380000000000598, -0.803116841835968 
2.390000000000619, -0.8010910831506779 
2.4000000000006403, -0.7995124919426532 
2.4100000000006614, -0.7984319302348777 
2.4200000000006825, -0.7978677250880244 
2.4300000000007036, -0.7977849630150293 
2.4400000000007247, -0.7980899808312831 
2.450000000000746, -0.7986502907408619 
2.460000000000767, -0.7993323240715833 
2.470000000000788, -0.8000392965590712 
2.480000000000809, -0.8007354740687459 
2.49000000000083, -0.8014493219687502 
2.5000000000008513, -0.8022522387831007 
2.5100000000008724, -0.8032180994542703 
2.5200000000008935, -0.8043769949914422 
2.5300000000009146, -0.8056772859461037 
2.5400000000009357, -0.8069740187925472 
2.550000000000957, -0.8080669838520471 
2.560000000000978, -0.8087839222485668 
2.570000000000999, -0.8090541439027309 
2.58000000000102, -0.8089267169284835 
2.5900000000010412, -0.8085547971929545 
2.6000000000010624, -0.8081940955674997 
2.6100000000010835, -0.8082237379089914 
2.6200000000011046, -0.8091443540790826 
2.6300000000011257, -0.8114910406823777 
2.6400000000011468, -0.8156590342386991 
2.650000000001168, -0.8217508960614245 
2.660000000001189, -0.829575798643293 
2.67000000000121, -0.8388014054060579 
2.680000000001231, -0.8491361999391647 
2.6900000000012523, -0.8604394575324911 
2.7000000000012734, -0.8727409478178467 
2.7100000000012945, -0.8861869287796841 
2.7200000000013156, -0.9008993664292424 
2.7300000000013367, -0.9167003889418955 
2.740000000001358, -0.9327400045282935 
2.750000000001379, -0.9473994986723827 
2.7600000000014, -0.9589890292629605 
2.770000000001421, -0.9668102953668101 
2.780000000001442, -0.9713469070328612 
2.7900000000014633, -0.9735609064509587 
2.8000000000014844, -0.9742826071221886 
2.8100000000015055, -0.9740722235421261 
2.8200000000015266, -0.9733836086307077 
2.8300000000015477, -0.9729073731810033 
2.840000000001569, -0.9740313176970608 
2.85000000000159, -0.9790148622004852 
2.860000000001611, -0.9900401004665133 
2.870000000001632, -1.0073449838562494 
2.8800000000016532, -1.0287113694446193 
2.8900000000016743, -1.051207110421722 
2.9000000000016954, -1.0729101010046789 
2.9100000000017165, -1.0931474771971739 
2.9200000000017377, -1.1119190547873274 
2.9300000000017588, -1.1293073900589992 
2.94000000000178, -1.145091321623748 
2.950000000001801, -1.158628276971819 
2.960000000001822, -1.1691484409496542 
2.970000000001843, -1.1763307208127738 
2.9800000000018643, -1.1805641666959408 
2.9900000000018854, -1.1826351281940826 
3.0000000000019065, -1.1833035985087326 
3.0100000000019276, -1.183165065678099 
3.0200000000019487, -1.182767640708567 
3.03000000000197, -1.182763443787557 
3.040000000001991, -1.1837985905673016 
3.050000000002012, -1.1860850163170644 
3.060000000002033, -1.1892162467450484 
3.070000000002054, -1.1925683547376227 
3.0800000000020753, -1.1957309862250636 
3.0900000000020964, -1.198557909127233 
3.1000000000021175, -1.2010229915944564 
3.1100000000021386, -1.2031221032197066 
3.1200000000021597, -1.2048601245397812 
3.130000000002181, -1.2062586468795775 
3.140000000002202, -1.2073419684022886 
3.150000000002223, -1.2081091471051397 
3.160000000002244, -1.2085203731022998 
3.1700000000022652, -1.2085163229672211 
3.1800000000022863, -1.208062552742675 
3.1900000000023074, -1.2071896493904724 
3.2000000000023285, -1.2060039052200877 
3.2100000000023496, -1.2046563800020647 
3.2200000000023707, -1.2032748522494525 
3.230000000002392, -1.2019171219821865 
3.240000000002413, -1.2006227953690005 
3.250000000002434, -1.1995153677049437 
3.260000000002455, -1.198787196462087 
3.2700000000024763, -1.198515726993707 
3.2800000000024974, -1.1985222300219465 
3.2900000000025185, -1.1984539669051306 
3.3000000000025396, -1.1979440583394692 
3.3100000000025607, -1.1966770807104803 
3.3200000000025818, -1.1944076329581526 
3.330000000002603, -1.1910166466884462 
3.340000000002624, -1.186564337514743 
3.350000000002645, -1.1812415995507974 
3.360000000002666, -1.175235196949705 
3.3700000000026873, -1.168622974716253 
3.3800000000027084, -1.1613551891474672 
3.3900000000027295, -1.1532942365964365 
3.4000000000027506, -1.1442988770730884 
3.4100000000027717, -1.1344073340636134 
3.420000000002793, -1.1241678775594925 
3.430000000002814, -1.1148974605314455 
3.440000000002835, -1.1082245505895538 
3.450000000002856, -1.1048199366642415 
3.460000000002877, -1.1038370052027942 
3.4700000000028983, -1.1038504873255417 
3.4800000000029194, -1.1037988780550072 
3.4900000000029405, -1.1030332345763483 
3.5000000000029616, -1.1009415686257442 
3.5100000000029827, -1.0965793219082947 
3.520000000003004, -1.0884811893342585 
3.530000000003025, -1.0749910545701107 
3.540000000003046, -1.0553880163636977 
3.550000000003067, -1.0308855097003826 
3.5600000000030882, -1.0039548333965314 
3.5700000000031094, -0.9766874529132487 
3.5800000000031305, -0.9501009257479754 
3.5900000000031516, -0.9245054709283445 
3.6000000000031727, -0.9001070317421555 
3.6100000000031938, -0.8774374219309706 
3.620000000003215, -0.8574949695997647 
3.630000000003236, -0.841482595080068 
3.640000000003257, -0.830185087655825 
3.650000000003278, -0.8234301359313978 
3.6600000000032993, -0.8201503097829292 
3.6700000000033204, -0.818965863176112 
3.6800000000033415, -0.8187256103453567 
3.6900000000033626, -0.8186798621830942 
3.7000000000033837, -0.8183864981841682 
3.710000000003405, -0.8175613087006376 
3.720000000003426, -0.8159934989973389 
3.730000000003447, -0.8135632235078317 
3.740000000003468, -0.8103292159082155 
3.750000000003489, -0.8065706960023677 
3.7600000000035103, -0.8026814527794519 
3.7700000000035314, -0.7989879270652728 
3.7800000000035525, -0.7956501814379108 
3.7900000000035736, -0.792681792701511 
3.8000000000035947, -0.7900194475183038 
3.810000000003616, -0.7875871912950136 
3.820000000003637, -0.7853389684746556 
3.830000000003658, -0.7832767234375625 
3.840000000003679, -0.7814454937318142 
3.8500000000037002, -0.7799131155134145 
3.8600000000037213, -0.7787466658775872 
3.8700000000037424, -0.777996034103648 
3.8800000000037635, -0.7776871497502132 
3.8900000000037847, -0.7778196651396108 
3.9000000000038058, -0.7783642402612585 
3.910000000003827, -0.7792621897101742 
3.920000000003848, -0.7804349167304656 
3.930000000003869, -0.7818055850518666 
3.94000000000389, -0.7833259584873952 
3.9500000000039113, -0.7849959978108618 
3.9600000000039324, -0.7868651354955867 
3.9700000000039535, -0.7890102114623383 
3.9800000000039746, -0.7914916809263495 
3.9900000000039957, -0.7942933754565044 
4.000000000004016, -0.7972627686574586 
4.010000000003993, -0.8001011284645051 
4.02000000000397, -0.8024586599460461 
4.030000000003946, -0.8040937671967118 
4.040000000003923, -0.8049599867236878 
4.0500000000039, -0.8051691757495881 
4.0600000000038765, -0.8049228274023543 
4.070000000003853, -0.8045087722995751 
4.08000000000383, -0.8043870102298871 
4.090000000003807, -0.805322884113046 
4.100000000003783, -0.808446900361149 
4.11000000000376, -0.8150586794262601 
4.120000000003737, -0.826126154752292 
4.130000000003713, -0.8417978840982675 
4.14000000000369, -0.8613876258212511 
4.150000000003667, -0.8838564235945453 
4.1600000000036434, -0.9083513323096863 
4.17000000000362, -0.9344319271641037 
4.180000000003597, -0.9619274071907288 
4.1900000000035735, -0.9904815036671112 
4.20000000000355, -1.0188806167816806 
4.210000000003527, -1.0446663370704319 
4.220000000003504, -1.065022718121377 
4.23000000000348, -1.078684590808374 
4.240000000003457, -1.0865707529453914 
4.250000000003434, -1.0905418111351493 
4.26000000000341, -1.0921715565852228 
4.270000000003387, -1.0924418777379685 
4.280000000003364, -1.0919672501469941 
4.2900000000033405, -1.091390416355441 
4.300000000003317, -1.0918118540203738 
4.310000000003294, -1.0948401077101904 
4.320000000003271, -1.1016328704017426 
4.330000000003247, -1.1116631958781953 
4.340000000003224, -1.123095015797835 
4.350000000003201, -1.1342824130045361 
4.360000000003177, -1.1444733896313726 
4.370000000003154, -1.1535735037403567 
4.380000000003131, -1.161740432902166 
4.390000000003107, -1.1691382242609976 
4.400000000003084, -1.1758198678583265 
4.410000000003061, -1.1816769720173919 
4.4200000000030375, -1.186472314942485 
4.430000000003014, -1.1899818630641648 
4.440000000002991, -1.1921596798432073 
4.450000000002968, -1.1931761834730987 
4.460000000002944, -1.193330424150805 
4.470000000002921, -1.1929747384072078 
4.480000000002898, -1.192508826984445 
4.490000000002874, -1.192342016895176 
4.500000000002851, -1.1927259121931872 
4.510000000002828, -1.1936111247967163 
4.520000000002804, -1.1947576990665296 
4.530000000002781, -1.1959659485510747 
4.540000000002758, -1.1971519989548394 
4.5500000000027345, -1.1982639404739777 
4.560000000002711, -1.1992074257434555 
4.570000000002688, -1.1998640410478159 
4.580000000002665, -1.2001492668886473 
4.590000000002641, -1.2000431042646846 
4.600000000002618, -1.1995786369520052 
4.610000000002595, -1.1988035906544274 
4.620000000002571, -1.197742343063521 
4.630000000002548, -1.1963839824942628 
4.640000000002525, -1.1947016827020667 
4.6500000000025015, -1.192685202766382 
4.660000000002478, -1.190357773766983 
4.670000000002455, -1.187761574092896 
4.6800000000024315, -1.1849385452060275 
4.690000000002408, -1.1819715805296964 
4.700000000002385, -1.1790964759577935 
4.710000000002362, -1.1767383080593241 
4.720000000002338, -1.1752794897640961 
4.730000000002315, -1.1747039539517918 
4.740000000002292, -1.1745729709377162 
4.750000000002268, -1.1743274237448191 
4.760000000002245, -1.1734744106977426 
4.770000000002222, -1.17154599456474 
4.7800000000021985, -1.1680395020476606 
4.790000000002175, -1.1625177995861489 
4.800000000002152, -1.1548497465257603 
4.810000000002129, -1.1453240948862624 
4.820000000002105, -1.1344361752976497 
4.830000000002082, -1.122556033392486 
4.840000000002059, -1.109778863587838 
4.850000000002035, -1.0959884997637277 
4.860000000002012, -1.0810526927456234 
4.870000000001989, -1.0651529235496082 
4.880000000001965, -1.0492357688442193 
4.890000000001942, -1.035216505013076 
4.900000000001919, -1.02519202162619 
4.9100000000018955, -1.0198615986456199 
4.920000000001872, -1.01803904112003 
4.930000000001849, -1.017876843051099 
