t, s[1].omega / s[0].omega 
0, -0.6799977108551775 
0.009999999999999995, -0.6798728710017172 
0.019999999999999934, -0.6799183371544688 
0.029999999999999874, -0.6800387472991021 
0.04000000000000012, -0.6801130743925101 
0.050000000000000405, -0.6800413941005853 
0.06000000000000069, -0.6797813832926839 
0.07000000000000098, -0.6793606525460485 
0.08000000000000126, -0.6788764231214017 
0.09000000000000155, -0.6785032622029392 
0.10000000000000184, -0.67851714492071 
0.11000000000000212, -0.6793259546108967 
0.12000000000000241, -0.6814831652614675 
0.130000000000002, -0.6856600221202499 
0.1400000000000009, -0.6925705553234338 
0.1499999999999998, -0.7028789099178949 
0.1599999999999987, -0.7171421526199865 
0.1699999999999976, -0.7358253055050292 
0.1799999999999965, -0.7593710283197487 
0.1899999999999954, -0.7882358040682866 
0.1999999999999943, -0.8227182337701162 
0.2099999999999932, -0.8623170104909162 
0.2199999999999921, -0.9045433898148341 
0.229999999999991, -0.9442516092773039 
0.2399999999999899, -0.9757058987416902 
0.2499999999999888, -0.9964957943225651 
0.2599999999999877, -1.0083377044532533 
0.2699999999999866, -1.0144042722318014 
0.2799999999999855, -1.0172015694346435 
0.2899999999999844, -1.0181818980789978 
0.2999999999999833, -1.0180684273866842 
0.3099999999999822, -1.0172274204648528 
0.3199999999999811, -1.0160365828509408 
0.32999999999998, -1.0154525263877843 
0.3399999999999789, -1.0178811014796034 
0.3499999999999778, -1.0275476979939442 
0.35999999999997667, -1.0483760983849024 
0.36999999999997557, -1.0798851428383383 
0.37999999999997447, -1.1166806102942117 
0.38999999999997337, -1.1528640559185042 
0.39999999999997227, -1.185223723750542 
0.40999999999997117, -1.21285280204394 
0.41999999999997006, -1.235694717010694 
0.42999999999996896, -1.253726680427079 
0.43999999999996786, -1.2669411680795784 
0.44999999999996676, -1.2756989459903871 
0.45999999999996566, -1.2808613705863165 
0.46999999999996456, -1.2834989496655027 
0.47999999999996346, -1.284530488119878 
0.48999999999996235, -1.2846051874751443 
0.49999999999996125, -1.284206342338873 
0.5099999999999602, -1.2838161369659522 
0.519999999999959, -1.2839358894054742 
0.529999999999958, -1.284840070376133 
0.5399999999999568, -1.2863707000424909 
0.5499999999999557, -1.2881417801050135 
0.5599999999999546, -1.2898657608651591 
0.5699999999999535, -1.2914175026408035 
0.5799999999999524, -1.292726606699944 
0.5899999999999513, -1.2937132476985034 
0.5999999999999502, -1.2943041684799297 
0.6099999999999491, -1.294460741717986 
0.619999999999948, -1.2941813620000806 
0.6299999999999469, -1.2934823163214275 
0.6399999999999458, -1.2923739185631629 
0.6499999999999447, -1.2908492379148815 
0.6599999999999436, -1.2888919196214565 
0.6699999999999425, -1.2864924424417175 
0.6799999999999414, -1.2836546018089783 
0.6899999999999403, -1.2803927547266907 
0.6999999999999392, -1.2767685606304304 
0.7099999999999381, -1.2730242052239205 
0.719999999999937, -1.269710364350684 
0.7299999999999359, -1.2674806055624646 
0.7399999999999348, -1.2665227143350444 
0.7499999999999337, -1.266356675278856 
0.7599999999999326, -1.2662797855082588 
0.7699999999999315, -1.2657160027923084 
0.7799999999999304, -1.264119099704953 
0.7899999999999293, -1.260666365599758 
0.7999999999999282, -1.253943740415648 
0.8099999999999271, -1.2418348046607997 
0.819999999999926, -1.2220041494595686 
0.8299999999999249, -1.193009734175544 
0.8399999999999238, -1.1550535491905063 
0.8499999999999227, -1.1095957141346866 
0.8599999999999216, -1.058761493821256 
0.8699999999999205, -1.0056580868669556 
0.8799999999999194, -0.9550966692231487 
0.8899999999999183, -0.9129487689161445 
0.8999999999999172, -0.8833854890638525 
0.9099999999999161, -0.8664561010452647 
0.919999999999915, -0.8587959677709929 
0.9299999999999139, -0.8563141668103821 
0.9399999999999128, -0.8560368317843311 
0.9499999999999117, -0.8563578977464402 
0.9599999999999106, -0.8565525421909707 
0.9699999999999095, -0.8562849183300976 
0.9799999999999084, -0.8553056440307278 
0.9899999999999073, -0.8533012808977307 
0.9999999999999062, -0.8498652223370602 
1.0099999999999052, -0.8446272694199843 
1.019999999999904, -0.8375425032186623 
1.029999999999903, -0.8291074000870996 
1.039999999999902, -0.8201837984058014 
1.0499999999999008, -0.8115513539977546 
1.0599999999998997, -0.8036359058499659 
1.0699999999998986, -0.796545433595212 
1.0799999999998975, -0.7902264981358899 
1.0899999999998964, -0.7845896923547955 
1.0999999999998953, -0.7795735761570375 
1.1099999999998942, -0.7751646813851887 
1.119999999999893, -0.7713926346211205 
1.129999999999892, -0.7683109072311568 
1.1399999999998909, -0.7659676727518564 
1.1499999999998898, -0.7643722325425271 
1.1599999999998887, -0.7634692174322637 
1.1699999999998876, -0.7631353154462728 
1.1799999999998865, -0.7632026623101338 
1.1899999999998854, -0.7634964144772403 
1.1999999999998843, -0.7638685418150623 
1.2099999999998832, -0.7642191946291526 
1.219999999999882, -0.7645070647893548 
1.229999999999881, -0.7647495146031394 
1.2399999999998799, -0.7650076271563981 
1.2499999999998788, -0.7653544649742459 
1.2599999999998777, -0.7658361165726368 
1.2699999999998766, -0.7664404328419607 
1.2799999999998755, -0.767086372040241 
1.2899999999998744, -0.767644658678653 
1.2999999999998733, -0.767988002591489 
1.3099999999998722, -0.7680437529521944 
1.319999999999871, -0.7678180717079275 
1.32999999999987, -0.7673929770407013 
1.3399999999998689, -0.76692288895858 
1.3499999999998678, -0.7666469750144691 
1.3599999999998666, -0.7669058393805657 
1.3699999999998655, -0.7681303124441974 
1.3799999999998644, -0.7707743407593655 
1.3899999999998633, -0.7752043823029734 
1.3999999999998622, -0.7816083989242717 
1.4099999999998611, -0.7899889717597305 
1.41999999999986, -0.800243636613027 
1.429999999999859, -0.8122753530519363 
1.4399999999998578, -0.8260681970685742 
1.4499999999998567, -0.8416836756902208 
1.4599999999998556, -0.859135315570637 
1.4699999999998545, -0.8780932119575514 
1.4799999999998534, -0.8974758003442618 
1.4899999999998523, -0.9153415221087737 
1.4999999999998512, -0.9296571185583277 
1.5099999999998501, -0.9395192443821416 
1.519999999999849, -0.9454419350466484 
1.529999999999848, -0.9485700977138233 
1.5399999999998468, -0.9499225282506378 
1.5499999999998457, -0.9501580258940192 
1.5599999999998446, -0.9496581958483311 
1.5699999999998435, -0.948728480013223 
1.5799999999998424, -0.9479259565735086 
1.5899999999998413, -0.9486096037023236 
1.5999999999998402, -0.9535515280544473 
1.6099999999998391, -0.9666667244615962 
1.619999999999838, -0.9907416827032813 
1.629999999999837, -1.024624303867109 
1.6399999999998358, -1.0635883920554323 
1.6499999999998347, -1.1026524938351465 
1.6599999999998336, -1.1387762658248362 
1.6699999999998325, -1.1706149790851423 
1.6799999999998314, -1.1974561931312802 
1.6899999999998303, -1.218668653885588 
1.6999999999998292, -1.2339379561911703 
1.709999999999828, -1.243751641335269 
1.719999999999827, -1.2493486674809773 
1.729999999999826, -1.2521349998465108 
1.7399999999998248, -1.2532103600790176 
1.7499999999998237, -1.2532921762134468 
1.7599999999998226, -1.252886780418321 
1.7699999999998215, -1.2525130904484587 
1.7799999999998204, -1.252774363075568 
1.7899999999998193, -1.2540861809784187 
1.7999999999998182, -1.256329901112593 
1.809999999999817, -1.2589955409125502 
1.819999999999816, -1.2616266917535062 
1.8299999999998149, -1.2640028313127425 
1.8399999999998138, -1.2660475860958613 
1.8499999999998127, -1.2677222048511152 
1.8599999999998116, -1.2690001688689239 
1.8699999999998105, -1.2698760332073427 
1.8799999999998094, -1.2703618751982597 
1.8899999999998083, -1.270468909581956 
1.8999999999998072, -1.2701925166878254 
1.909999999999806, -1.2695155858418297 
1.919999999999805, -1.2684293431294504 
1.9299999999998039, -1.2669564040247034 
1.9399999999998028, -1.265157616933701 
1.9499999999998017, -1.263112893092594 
1.9599999999998006, -1.260897160780957 
1.9699999999997995, -1.2586116720651557 
1.9799999999997984, -1.2564791341685109 
1.9899999999997973, -1.254851376655846 
1.9999999999997962, -1.2539742544196189 
2.0099999999998173, -1.253720639085917 
2.0199999999998384, -1.253661921862443 
2.0299999999998595, -1.2533285512373318 
2.0399999999998806, -1.2522912994745927 
2.0499999999999017, -1.2500606849005562 
2.059999999999923, -1.2459936663471678 
2.069999999999944, -1.2393571446967542 
2.079999999999965, -1.229579680566101 
2.089999999999986, -1.2164855338807576 
2.100000000000007, -1.200226252665598 
2.1100000000000283, -1.1809779631530737 
2.1200000000000494, -1.1587734483648904 
2.1300000000000705, -1.1337407688050045 
2.1400000000000916, -1.1068346960150004 
2.1500000000001127, -1.0807480580909343 
2.160000000000134, -1.0596663852699388 
2.170000000000155, -1.0466467278703806 
2.180000000000176, -1.0410949009104964 
2.190000000000197, -1.039913233665027 
2.2000000000002182, -1.0402953945701574 
2.2100000000002393, -1.0407608584855894 
2.2200000000002604, -1.0407030110190645 
2.2300000000002815, -1.0397633435962925 
2.2400000000003026, -1.0374038883688785 
2.2500000000003237, -1.0325518235328854 
2.260000000000345, -1.0232486229675095 
2.270000000000366, -1.0066606498977249 
2.280000000000387, -0.9803619129163283 
2.290000000000408, -0.9448624044362491 
2.3000000000004293, -0.9043921477569915 
2.3100000000004504, -0.8641325273209535 
2.3200000000004715, -0.8274319106389975 
2.3300000000004926, -0.7955745704656781 
2.3400000000005137, -0.7687627838664663 
2.3500000000005348, -0.7468620486831588 
2.360000000000556, -0.7296644409824162 
2.370000000000577, -0.7168722347720291 
2.380000000000598, -0.7080087562084528 
2.390000000000619, -0.702390631332426 
2.4000000000006403, -0.6992054435806145 
2.4100000000006614, -0.6976505426911641 
2.4200000000006825, -0.6970521559642896 
2.4300000000007036, -0.6969152453409078 
2.4400000000007247, -0.6969094369246265 
2.450000000000746, -0.6968265678564605 
2.460000000000767, -0.6965437478573809 
2.470000000000788, -0.6960089500074218 
2.480000000000809, -0.6952446120217022 
2.49000000000083, -0.6943452811582895 
2.5000000000008513, -0.693446511519164 
2.5100000000008724, -0.6926720635896275 
2.5200000000008935, -0.6920900073048003 
2.5300000000009146, -0.6916964931580253 
2.5400000000009357, -0.6914251277949914 
2.550000000000957, -0.6911758648800921 
2.560000000000978, -0.6908559436400197 
2.570000000000999, -0.6904168649009552 
2.58000000000102, -0.6898732502715326 
2.5900000000010412, -0.6893067627474762 
2.6000000000010624, -0.6888688427970685 
2.6100000000010835, -0.6887883166978382 
2.6200000000011046, -0.689375465490814 
2.6300000000011257, -0.6910069838143549 
2.6400000000011468, -0.6940836942419236 
2.650000000001168, -0.6989732236354074 
2.660000000001189, -0.705968190273434 
2.67000000000121, -0.7152880814753446 
2.680000000001231, -0.7271289137810039 
2.6900000000012523, -0.7417372287071582 
2.7000000000012734, -0.7594652740256748 
2.7100000000012945, -0.7807372666783848 
2.7200000000013156, -0.8057978109329904 
2.7300000000013367, -0.8340778767463348 
2.740000000001358, -0.8633307057458529 
2.750000000001379, -0.8896667002833787 
2.7600000000014, -0.9096303619333671 
2.770000000001421, -0.9224524101572518 
2.780000000001442, -0.9296775687772392 
2.7900000000014633, -0.9333321558326547 
2.8000000000014844, -0.9348885272768823 
2.8100000000015055, -0.9351740156246567 
2.8200000000015266, -0.9345896197266892 
2.8300000000015477, -0.9333585298304868 
2.840000000001569, -0.9318743901018862 
2.85000000000159, -0.9314461282010937 
2.860000000001611, -0.9357901370055435 
2.870000000001632, -0.9526789918578512 
2.8800000000016532, -0.9922211734424213 
2.8900000000016743, -1.0577968942471674 
2.9000000000016954, -1.1379824809821122 
2.9100000000017165, -1.2149440771178117 
2.9200000000017377, -1.278279531334828 
2.9300000000017588, -1.3262033424044268 
2.94000000000178, -1.3603961923250112 
2.950000000001801, -1.383184117889658 
2.960000000001822, -1.397104904596362 
2.970000000001843, -1.4048102717161055 
2.9800000000018643, -1.4086196098221553 
2.9900000000018854, -1.4101716961738497 
3.0000000000019065, -1.4104634303959052 
3.0100000000019276, -1.4101200565304282 
3.0200000000019487, -1.4096719973923846 
3.03000000000197, -1.4096166981518519 
3.040000000001991, -1.4101665157886476 
3.050000000002012, -1.411109667413815 
3.060000000002033, -1.4121220774852907 
3.070000000002054, -1.413053342066091 
3.0800000000020753, -1.4138593033234512 
3.0900000000020964, -1.414441407814111 
3.1000000000021175, -1.4146305512143016 
3.1100000000021386, -1.4142522671346591 
3.1200000000021597, -1.413164260837874 
3.130000000002181, -1.4112657365708299 
3.140000000002202, -1.4084912280314217 
3.150000000002223, -1.4047787391880693 
3.160000000002244, -1.4000179521103004 
3.1700000000022652, -1.393999237774635 
3.1800000000022863, -1.3863832712879154 
3.1900000000023074, -1.3767695214381157 
3.2000000000023285, -1.3651189121620928 
3.2100000000023496, -1.352773414591522 
3.2200000000023707, -1.3429729871899385 
3.230000000002392, -1.3382739868896667 
3.240000000002413, -1.3375815259317463 
3.250000000002434, -1.3382005055582342 
3.260000000002455, -1.3385205913922371 
3.2700000000024763, -1.3378711238040206 
3.2800000000024974, -1.3355019099745136 
3.2900000000025185, -1.329391869837331 
3.3000000000025396, -1.3133996501516043 
3.3100000000025607, -1.2678106599553745 
3.3200000000025818, -1.1308964459182564 
3.330000000002603, -0.7853601996822704 
3.340000000002624, -0.34107965207675545 
3.350000000002645, -0.10011960832394118 
3.360000000002666, -0.009969241778226386 
3.3700000000026873, 0.02500867814227491 
3.3800000000027084, 0.0404140354333883 
3.3900000000027295, 0.04797648306569153 
3.4000000000027506, 0.05195068538748515 
3.4100000000027717, 0.0540941920331484 
3.420000000002793, 0.05520746440375901 
3.430000000002814, 0.055672033327469686 
3.440000000002835, 0.055653184224513694 
3.450000000002856, 0.05517111242877633 
3.460000000002877, 0.05410033277093708 
3.4700000000028983, 0.052096068911305235 
3.4800000000029194, 0.048397514833583045 
3.4900000000029405, 0.041430350376337466 
3.5000000000029616, 0.028665479038697296 
3.5100000000029827, 0.014297776097407757 
3.520000000003004, 0.09123437027385231 
3.530000000003025, 0.5661003964572897 
3.540000000003046, 0.8791959685870495 
3.550000000003067, 0.9387603969336613 
3.5600000000030882, 0.9521181046945401 
3.5700000000031094, 0.9559017751838926 
3.5800000000031305, 0.9566424856209407 
3.5900000000031516, 0.9556694664207223 
3.6000000000031727, 0.9528042846970616 
3.6100000000031938, 0.9470140741930905 
3.620000000003215, 0.9372041024387607 
3.630000000003236, 0.9248736746822599 
3.640000000003257, 0.9152541791308062 
3.650000000003278, 0.9111133256960484 
3.6600000000032993, 0.9103705675386851 
3.6700000000033204, 0.9105947483842785 
3.6800000000033415, 0.9106487010333888 
3.6900000000033626, 0.9099921943219984 
3.7000000000033837, 0.9078744943122397 
3.710000000003405, 0.9020218071020727 
3.720000000003426, 0.8828917018859539 
3.730000000003447, 0.7914879568781193 
3.740000000003468, 0.21259951537583324 
3.750000000003489, -0.6149094031429402 
3.7600000000035103, 3.5146819419630697 
3.7700000000035314, 3.590356707621801 
3.7800000000035525, 3.591728562845089 
3.7900000000035736, 3.5851269626625024 
3.8000000000035947, 3.295938176824648 
3.810000000003616, 3.398122356219028 
3.820000000003637, 3.414157894361808 
3.830000000003658, 3.414719274753698 
3.840000000003679, 3.4132198783011747 
3.8500000000037002, 3.4080970739548726 
3.8600000000037213, 3.4050637646169095 
3.8700000000037424, 3.4064815029918245 
3.8800000000037635, 3.405392122467135 
3.8900000000037847, 3.4045301808032824 
3.9000000000038058, 3.408007606634122 
3.910000000003827, 3.409201056299292 
3.920000000003848, 3.4085290162698145 
3.930000000003869, 3.4041251451295063 
3.94000000000389, 3.3114329787727064 
3.9500000000039113, 3.5012282320659898 
3.9600000000039324, 3.5277683092399608 
3.9700000000039535, 3.528240459765135 
3.9800000000039746, 3.518859438627561 
3.9900000000039957, 1.2737666077182896 
4.000000000004016, -4.704597440610697 
4.010000000003993, -4.737232317277888 
4.02000000000397, -4.737874059133028 
4.030000000003946, -4.734453617166313 
4.040000000003923, -4.714044058284898 
4.0500000000039, -4.716212585585643 
4.0600000000038765, -4.719408485122189 
4.070000000003853, -4.718549648534571 
4.08000000000383, -4.717650263168815 
4.090000000003807, -4.716180220755395 
4.100000000003783, -4.715538544489925 
4.11000000000376, -4.710654773022794 
4.120000000003737, -4.7154977235667745 
4.130000000003713, -4.71987791305306 
4.14000000000369, -4.719591785950782 
4.150000000003667, -4.713629311811714 
4.1600000000036434, -4.4590148904342595 
4.17000000000362, -5.032632148014209 
4.180000000003597, -5.07063969129241 
4.1900000000035735, -5.071512322605486 
4.20000000000355, -5.0656824579509925 
4.210000000003527, -4.854472687098367 
4.220000000003504, -4.620690346364007 
4.23000000000348, -4.675444358953852 
4.240000000003457, -4.676725695948756 
4.250000000003434, -4.67463365636668 
4.26000000000341, -4.6658627648092725 
4.270000000003387, -4.664404369786189 
4.280000000003364, -4.666211634570027 
4.2900000000033405, -4.665119719374358 
4.300000000003317, -4.6651841281025 
4.310000000003294, -4.664389734354646 
4.320000000003271, -4.663456469704039 
4.330000000003247, -4.6559790896000655 
4.340000000003224, -4.661155115944477 
4.350000000003201, -4.676020695215732 
4.360000000003177, -4.677083811680454 
4.370000000003154, -4.6739602937180305 
4.380000000003131, -4.617803297451742 
4.390000000003107, 2.581641679294497 
4.400000000003084, 3.2960496188887367 
4.410000000003061, 3.3022360923114547 
4.4200000000030375, 3.300644910804268 
4.430000000003014, 3.27884704104432 
4.440000000002991, 3.1013766052426934 
4.450000000002968, 3.1933324067417788 
4.460000000002944, 3.198513078108392 
4.470000000002921, 3.1985671343446276 
4.480000000002898, 3.1975463896610368 
4.490000000002874, 3.19478434646932 
4.500000000002851, 3.192799909237273 
4.510000000002828, 3.192963295127673 
4.520000000002804, 3.191132347335424 
4.530000000002781, 3.1869387304746692 
4.540000000002758, 3.1955867419223036 
4.5500000000027345, 3.200845753408211 
4.560000000002711, 3.201185389153519 
4.570000000002688, 3.19843185677727 
4.580000000002665, 3.15226451767858 
4.590000000002641, 3.264139021092771 
4.600000000002618, 3.730890557450285 
4.610000000002595, 3.734880605393653 
4.620000000002571, 3.731016150577594 
4.630000000002548, 3.5468518064555967 
4.640000000002525, 3.404846081671117 
4.6500000000025015, 3.4411529908587895 
4.660000000002478, 3.4423826054738655 
4.670000000002455, 3.4408037740114787 
4.6800000000024315, 3.4339859967446906 
4.690000000002408, 3.4286738443959606 
4.700000000002385, 3.4315065723293197 
4.710000000002362, 3.4311222767559064 
4.720000000002338, 3.4304622293462304 
4.730000000002315, 3.4324053217749815 
4.740000000002292, 3.4329783867904333 
4.750000000002268, 3.432291743619225 
4.760000000002245, 3.429053895511307 
4.770000000002222, 3.3856729051936147 
4.7800000000021985, 3.470324792507172 
4.790000000002175, 3.4986945282066175 
4.800000000002152, 3.4996652004010818 
4.810000000002129, 3.4932002068066206 
4.820000000002105, 2.605506074759355 
4.830000000002082, -5.1595649075915055 
4.840000000002059, -5.184720256947442 
4.850000000002035, -5.18442567752782 
4.860000000002012, -5.176616959134071 
4.870000000001989, -5.123309997327882 
4.880000000001965, -5.151024152523247 
4.890000000001942, -5.151929501346148 
4.900000000001919, -5.1505340086793465 
4.9100000000018955, -5.14717919837873 
4.920000000001872, -5.147139045080259 
4.930000000001849, -5.145403956214173 
4.940000000001826, -5.1457384287260695 
4.950000000001802, -5.146596938408662 
4.960000000001779, -5.145696079936966 
