t, s[1].omega / s[0].omega 
0, -1.3813367625768538 
0.009999999999999995, -1.4858679502226293 
0.019999999999999934, -1.5440619424522475 
0.029999999999999874, -1.5731408186586227 
0.04000000000000012, -1.5864294335015794 
0.050000000000000405, -1.5920181536559526 
0.06000000000000069, -1.5940096040124385 
0.07000000000000098, -1.5943082844142547 
0.08000000000000126, -1.5939269495836315 
0.09000000000000155, -1.5936447703989074 
0.10000000000000184, -1.5938989249515494 
0.11000000000000212, -1.5944677249799728 
0.12000000000000241, -1.5949316817602128 
0.130000000000002, -1.5952316826648354 
0.1400000000000009, -1.5954975447293493 
0.1499999999999998, -1.595618796415797 
0.1599999999999987, -1.5952014715175955 
0.1699999999999976, -1.5937200554668025 
0.1799999999999965, -1.5904953981079883 
0.1899999999999954, -1.5846114323284635 
0.1999999999999943, -1.574909652388984 
0.2099999999999932, -1.5599005601063052 
0.2199999999999921, -1.537227698068234 
0.229999999999991, -1.5024064366399417 
0.2399999999999899, -1.4471678558304133 
0.2499999999999888, -1.3617214418746277 
0.2599999999999877, -1.2550699531264558 
0.2699999999999866, -1.1736256520627995 
0.2799999999999855, -1.1428882560744817 
0.2899999999999844, -1.1400646030153332 
0.2999999999999833, -1.1434383231108776 
0.3099999999999822, -1.1461317094352823 
0.3199999999999811, -1.1472221806344716 
0.32999999999998, -1.146716417131347 
0.3399999999999789, -1.1440639556712906 
0.3499999999999778, -1.1370425592092395 
0.35999999999997667, -1.118455464093023 
0.36999999999997557, -1.0639818883627414 
0.37999999999997447, -0.8934747994735843 
0.38999999999997337, -0.4835002966310832 
0.39999999999997227, -0.08258263035953782 
0.40999999999997117, 0.07962865845493962 
0.41999999999997006, 0.13355618705261527 
0.42999999999996896, 0.1539595995215352 
0.43999999999996786, 0.16283082758398293 
0.44999999999996676, 0.16703346591527413 
0.45999999999996566, 0.16906167495494454 
0.46999999999996456, 0.1699707014080597 
0.47999999999996346, 0.17028181006977475 
0.48999999999996235, 0.17029791067355982 
0.49999999999996125, 0.17022809546064382 
0.5099999999999602, 0.17025635185400154 
0.519999999999959, 0.17062053590429474 
0.529999999999958, 0.17176949435221037 
0.5399999999999568, 0.1747308085359296 
0.5499999999999557, 0.18191587021625805 
0.5599999999999546, 0.19815000589996162 
0.5699999999999535, 0.2286291235880713 
0.5799999999999524, 0.2688804912818793 
0.5899999999999513, 0.303342986131194 
0.5999999999999502, 0.32434106014760566 
0.6099999999999491, 0.33510970282343433 
0.619999999999948, 0.3402421335740165 
0.6299999999999469, 0.34241485099231256 
0.6399999999999458, 0.3428307978812243 
0.6499999999999447, 0.3418902885049784 
0.6599999999999436, 0.33955649788801223 
0.6699999999999425, 0.33559920499802726 
0.6799999999999414, 0.32993358244018445 
0.6899999999999403, 0.3230585901933591 
0.6999999999999392, 0.3161399953020486 
0.7099999999999381, 0.3103729152416458 
0.719999999999937, 0.3062887118644214 
0.7299999999999359, 0.3037588915542257 
0.7399999999999348, 0.3023944479914867 
0.7499999999999337, 0.30181845887101727 
0.7599999999999326, 0.30173098654444636 
0.7699999999999315, 0.30188218512851095 
0.7799999999999304, 0.30203686607516844 
0.7899999999999293, 0.3019523355911427 
0.7999999999999282, 0.3013479833281916 
0.8099999999999271, 0.2998131886498374 
0.819999999999926, 0.2965453802548244 
0.8299999999999249, 0.28959507585578537 
0.8399999999999238, 0.27337116948143286 
0.8499999999999227, 0.2289722903731542 
0.8599999999999216, 0.08653878287991267 
0.8699999999999205, -0.29680091857535806 
0.8799999999999194, -0.7061585363106418 
0.8899999999999183, -0.87769733907798 
0.8999999999999172, -0.9337736031882178 
0.9099999999999161, -0.953485539621935 
0.919999999999915, -0.9610547775219208 
0.9299999999999139, -0.9638854999091221 
0.9399999999999128, -0.9643645620707127 
0.9499999999999117, -0.9630480195676097 
0.9599999999999106, -0.9593553644592298 
0.9699999999999095, -0.9510657935457788 
0.9799999999999084, -0.9320369930133499 
0.9899999999999073, -0.8847860343061755 
0.9999999999999062, -0.7495165452704984 
1.0099999999999052, -0.09025375350608025 
1.019999999999904, 1.5640472317433676 
1.029999999999903, 1.7114024213519656 
1.039999999999902, 1.7246755700728702 
1.0499999999999008, 1.7266755244268768 
1.0599999999998997, 1.725205802904244 
1.0699999999998986, 1.7171299423122306 
1.0799999999998975, 1.6648383797649415 
1.0899999999998964, 1.2518462925674896 
1.0999999999998953, 1.171198391890167 
1.1099999999998942, 1.245009012726849 
1.119999999999893, 1.2619054133662029 
1.129999999999892, 1.266198064997433 
1.1399999999998909, 1.266919216877138 
1.1499999999998898, 1.2659793574744203 
1.1599999999998887, 1.2640356875579082 
1.1699999999998876, 1.2631952489163223 
1.1799999999998865, 1.2697611557830615 
1.1899999999998854, 1.285273723564705 
1.1999999999998843, 1.2986584721673025 
1.2099999999998832, 1.3054472062910352 
1.219999999999882, 1.308038001098637 
1.229999999999881, 1.3083113117514729 
1.2399999999998799, 1.3063432203505572 
1.2499999999998788, 1.2984443775169736 
1.2599999999998777, 1.253284132781125 
1.2699999999998766, 0.37704393724130303 
1.2799999999998755, -2.76508141521887 
1.2899999999998744, -2.9366854649730154 
1.2999999999998733, -2.9519250769841103 
1.3099999999998722, -2.9540676631574825 
1.319999999999871, -2.9535754034322714 
1.32999999999987, -2.95203428367715 
1.3399999999998689, -2.948508153701095 
1.3499999999998678, -2.9436663792627757 
1.3599999999998666, -2.943436038491521 
1.3699999999998655, -2.9438263368458273 
1.3799999999998644, -2.940768679508987 
1.3899999999998633, -2.933331252727698 
1.3999999999998622, -2.948371145755448 
1.4099999999998611, -2.965745811621551 
1.41999999999986, -2.971048185749315 
1.429999999999859, -2.972330264760664 
1.4399999999998578, -2.9714997535944647 
1.4499999999998567, -2.9671538267103874 
1.4599999999998556, -2.950535908976309 
1.4699999999998545, -2.850515663215767 
1.4799999999998534, -1.3240407145460407 
1.4899999999998523, 0.7847509940300209 
1.4999999999998512, 0.9320698410744089 
1.5099999999998501, 0.9536525558615722 
1.519999999999849, 0.9591794326754373 
1.529999999999848, 0.9608203851206545 
1.5399999999998468, 0.9611719097074728 
1.5499999999998457, 0.9611263561120744 
1.5599999999998446, 0.9612331640134639 
1.5699999999998435, 0.9620011208550636 
1.5799999999998424, 0.9637938477204167 
1.5899999999998413, 0.9664991451728359 
1.5999999999998402, 0.9694505032404324 
1.6099999999998391, 0.9718950687871869 
1.619999999999838, 0.9734447474041021 
1.629999999999837, 0.9740239131733854 
1.6399999999998358, 0.9735217196595368 
1.6499999999998347, 0.9712542630911563 
1.6599999999998336, 0.96423391293274 
1.6699999999998325, 0.9361330053818845 
1.6799999999998314, 0.7106276359774505 
1.6899999999998303, -1.7893837991737656 
1.6999999999998292, -2.6834314647741655 
1.709999999999828, -2.744049215406673 
1.719999999999827, -2.7530909630838236 
1.729999999999826, -2.754479837396633 
1.7399999999998248, -2.753877175710739 
1.7499999999998237, -2.7523837954038344 
1.7599999999998226, -2.749239216504599 
1.7699999999998215, -2.7448417130307154 
1.7799999999998204, -2.743971347783293 
1.7899999999998193, -2.7444559263189356 
1.7999999999998182, -2.7422613256332964 
1.809999999999817, -2.73290268504157 
1.819999999999816, -2.7336459477017483 
1.8299999999998149, -2.774486405610951 
1.8399999999998138, -2.792381001919389 
1.8499999999998127, -2.7975774873827977 
1.8599999999998116, -2.7989610225067363 
1.8699999999998105, -2.798235644041682 
1.8799999999998094, -2.794725154578958 
1.8899999999998083, -2.784254896865413 
1.8999999999998072, -2.744171776182667 
1.909999999999806, -2.4461286563162554 
1.919999999999805, -0.7217029736685531 
1.9299999999998039, 0.08365156171853685 
1.9399999999998028, 0.24138934870181653 
1.9499999999998017, 0.283838437465774 
1.9599999999998006, 0.2989383251108092 
1.9699999999997995, 0.3052572316415393 
1.9799999999997984, 0.30799601373304103 
1.9899999999997973, 0.3088865926258178 
1.9999999999997962, 0.3084660213054653 
2.0099999999998173, 0.3066314281476298 
2.0199999999998384, 0.3025419821203491 
2.0299999999998595, 0.29369248484701704 
2.0399999999998806, 0.2721904090082372 
2.0499999999999017, 0.2068521328900216 
2.059999999999923, -0.07010398449861871 
2.069999999999944, -1.2317572633493399 
2.079999999999965, -2.1694316595020573 
2.089999999999986, -2.34594350969311 
2.100000000000007, -2.3869270799908127 
2.1100000000000283, -2.399877441106634 
2.1200000000000494, -2.4042939771721845 
2.1300000000000705, -2.4053183283563913 
2.1400000000000916, -2.4046001434591435 
2.1500000000001127, -2.4025435008989784 
2.160000000000134, -2.398389881772398 
2.170000000000155, -2.390362452082461 
2.180000000000176, -2.381816227642438 
2.190000000000197, -2.3812785031161754 
2.2000000000002182, -2.3829171773059685 
2.2100000000002393, -2.3822686129631165 
2.2200000000002604, -2.377704341257691 
2.2300000000002815, -2.3698402313799694 
2.2400000000003026, -2.388616209519648 
2.2500000000003237, -2.420163144123056 
2.260000000000345, -2.4341327165402964 
2.270000000000366, -2.4393796098371814 
2.280000000000387, -2.4413211554418277 
2.290000000000408, -2.441421988766885 
2.3000000000004293, -2.439768940688767 
2.3100000000004504, -2.435492948615187 
2.3200000000004715, -2.425549418267702 
2.3300000000004926, -2.398039400598546 
2.3400000000005137, -2.2935583508411272 
2.3500000000005348, -1.9674876676113349 
2.360000000000556, -1.8602557344896808 
2.370000000000577, -1.9063627792451932 
2.380000000000598, -1.923068401472144 
2.390000000000619, -1.9273555110147444 
2.4000000000006403, -1.9277032604349806 
2.4100000000006614, -1.9262628091172544 
2.4200000000006825, -1.9252575777413863 
2.4300000000007036, -1.9292343758046553 
2.4400000000007247, -1.9371854512638618 
2.450000000000746, -1.943612108752888 
2.460000000000767, -1.9473848570748404 
2.470000000000788, -1.9494298714482032 
2.480000000000809, -1.9503205612204053 
2.49000000000083, -1.9501345059412063 
2.5000000000008513, -1.9487000610415 
2.5100000000008724, -1.9456324315415947 
2.5200000000008935, -1.9401665880610988 
2.5300000000009146, -1.9306291606204737 
2.5400000000009357, -1.9128456755610954 
2.550000000000957, -1.8756543870584608 
2.560000000000978, -1.7957460972051653 
2.570000000000999, -1.6870752818126618 
2.58000000000102, -1.6510035505953344 
2.5900000000010412, -1.6612093298950217 
2.6000000000010624, -1.669211940407449 
2.6100000000010835, -1.672031777691993 
2.6200000000011046, -1.6719697152414388 
2.6300000000011257, -1.6694520088102027 
2.6400000000011468, -1.6639433412116165 
2.650000000001168, -1.6607768698442023 
2.660000000001189, -1.684422177985526 
2.67000000000121, -1.7345320463208342 
2.680000000001231, -1.773510101746948 
2.6900000000012523, -1.7951087544407802 
2.7000000000012734, -1.806905186666563 
2.7100000000012945, -1.8137495486854676 
2.7200000000013156, -1.8178229846501766 
2.7300000000013367, -1.8200911612007147 
2.740000000001358, -1.8210136312608498 
2.750000000001379, -1.8208274305603087 
2.7600000000014, -1.819655214248613 
2.770000000001421, -1.8175126921610207 
2.780000000001442, -1.8141802838228347 
2.7900000000014633, -1.809054712724525 
2.8000000000014844, -1.8017795902348257 
2.8100000000015055, -1.7945431021874192 
2.8200000000015266, -1.791510079545405 
2.8300000000015477, -1.791937597505865 
2.840000000001569, -1.7923841808387995 
2.85000000000159, -1.7911220999228064 
2.860000000001611, -1.7858266465602242 
2.870000000001632, -1.766698600912217 
2.8800000000016532, -1.6866701935279718 
2.8900000000016743, -1.4519431336094704 
2.9000000000016954, -2.7838696573101265 
2.9100000000017165, -3.575005715781649 
2.9200000000017377, -3.6076906909383775 
2.9300000000017588, -3.612179534274884 
2.94000000000178, -3.6119301290654726 
2.950000000001801, -3.6078295353042087 
2.960000000001822, -3.586469524889529 
2.970000000001843, -3.2845003596049964 
2.9800000000018643, -3.0637068039745685 
2.9900000000018854, -3.1556887322999683 
3.0000000000019065, -3.16345060672138 
3.0100000000019276, -3.1637723750452165 
3.0200000000019487, -3.163226698133181 
3.03000000000197, -3.1626286160364088 
3.040000000001991, -3.1610160975179484 
3.050000000002012, -3.160246234907349 
3.060000000002033, -3.1596612739749452 
3.070000000002054, -3.154354026339518 
3.0800000000020753, -3.1261645162852787 
3.0900000000020964, -3.181021598172029 
3.1000000000021175, -3.237784446752368 
3.1100000000021386, -3.2479293449435445 
3.1200000000021597, -3.249975737757994 
3.130000000002181, -3.2491568681926886 
3.140000000002202, -3.2444565931515363 
3.150000000002223, -3.224560310317601 
3.160000000002244, -3.0368899758927705 
3.1700000000022652, -0.05285767351319466 
3.1800000000022863, 0.9500743488593798 
3.1900000000023074, 1.022379916500387 
3.2000000000023285, 1.0354670807117743 
3.2100000000023496, 1.0389584413739903 
3.2200000000023707, 1.0397849558254575 
3.230000000002392, 1.0396469317144879 
3.240000000002413, 1.0393527161243514 
3.250000000002434, 1.0398596033514864 
3.260000000002455, 1.042472466136525 
3.2700000000024763, 1.0477607364027717 
3.2800000000024974, 1.0541590285248021 
3.2900000000025185, 1.0593602227580636 
3.3000000000025396, 1.062500923255021 
3.3100000000025607, 1.0638626273619596 
3.3200000000025818, 1.063763510835316 
3.330000000002603, 1.0618120144317613 
3.340000000002624, 1.055240096682601 
3.350000000002645, 1.027513497708918 
3.360000000002666, 0.7788668435407826 
3.3700000000026873, -1.9086833890402217 
3.3800000000027084, -2.6567818862973356 
3.3900000000027295, -2.7073150379021653 
3.4000000000027506, -2.714887542059789 
3.4100000000027717, -2.715920702533272 
3.420000000002793, -2.7152799916693158 
3.430000000002814, -2.7139629423937626 
3.440000000002835, -2.711282065697377 
3.450000000002856, -2.7078744808917032 
3.460000000002877, -2.70728961214826 
3.4700000000028983, -2.707382385314859 
3.4800000000029194, -2.704496388790712 
3.4900000000029405, -2.691645401860648 
3.5000000000029616, -2.689484586100946 
3.5100000000029827, -2.7562403562371682 
3.520000000003004, -2.78325372955821 
3.530000000003025, -2.7905544286033632 
3.540000000003046, -2.7926651913238905 
3.550000000003067, -2.792445507303461 
3.5600000000030882, -2.7898576927317156 
3.5700000000031094, -2.782388291495117 
3.5800000000031305, -2.757286027400297 
3.5900000000031516, -2.6126820275271223 
3.6000000000031727, -1.7562003346256976 
3.6100000000031938, -1.4203456545581425 
3.620000000003215, -1.4953738920061073 
3.630000000003236, -1.5324679614786203 
3.640000000003257, -1.544395421602314 
3.650000000003278, -1.5479995808851186 
3.6600000000032993, -1.548378065408452 
3.6700000000033204, -1.5467486736950673 
3.6800000000033415, -1.5435446062992129 
3.6900000000033626, -1.5424097627765234 
3.7000000000033837, -1.5544951455522926 
3.710000000003405, -1.5822366409546265 
3.720000000003426, -1.6095641207537248 
3.730000000003447, -1.6282485859325715 
3.740000000003468, -1.6399729904810147 
3.750000000003489, -1.6474988069635046 
3.7600000000035103, -1.6524783710078883 
3.7700000000035314, -1.6557417949127042 
3.7800000000035525, -1.657700433171599 
3.7900000000035736, -1.6585703274784642 
3.8000000000035947, -1.658487209079524 
3.810000000003616, -1.6575631467641792 
3.820000000003637, -1.6558940947901017 
3.830000000003658, -1.6534897030223288 
3.840000000003679, -1.6501654571396742 
3.8500000000037002, -1.6457444381655715 
3.8600000000037213, -1.6409121307095116 
3.8700000000037424, -1.6376191988733324 
3.8800000000037635, -1.636792267806861 
3.8900000000037847, -1.63696811553254 
3.9000000000038058, -1.6364883060718203 
3.910000000003827, -1.6339658421248884 
3.920000000003848, -1.6259861928627912 
3.930000000003869, -1.5988585034215084 
3.94000000000389, -1.4839612042648471 
3.9500000000039113, -0.9343870986455126 
3.9600000000039324, 0.07704005841826447 
3.9700000000039535, 0.39692227701329486 
3.9800000000039746, 0.4617907049241549 
3.9900000000039957, 0.4799740299374687 
4.000000000004016, 0.4864448572807635 
4.010000000003993, 0.4889291992529062 
4.02000000000397, 0.48968238951365806 
4.030000000003946, 0.4895197278600171 
4.040000000003923, 0.4888230631904558 
4.0500000000039, 0.48785931155920476 
4.0600000000038765, 0.4868848002475654 
4.070000000003853, 0.48615602013325115 
4.08000000000383, 0.485900526989069 
4.090000000003807, 0.4862790905205393 
4.100000000003783, 0.48734217434102006 
4.11000000000376, 0.4889805289230428 
4.120000000003737, 0.49090937016623337 
4.130000000003713, 0.49274215273620364 
4.14000000000369, 0.494126194252351 
4.150000000003667, 0.49481875597665503 
4.1600000000036434, 0.4946221792093667 
4.17000000000362, 0.49317122859012513 
4.180000000003597, 0.48945639021350196 
4.1900000000035735, 0.4803808882065879 
4.20000000000355, 0.454921055529078 
4.210000000003527, 0.3654288088808134 
4.220000000003504, 0.030518227797054865 
4.23000000000348, -0.5167828479846259 
4.240000000003457, -0.7751417706383543 
4.250000000003434, -0.8555053663582987 
4.26000000000341, -0.8827990463467461 
4.270000000003387, -0.8932809998056663 
4.280000000003364, -0.8974884771152116 
4.2900000000033405, -0.8988267261666726 
4.300000000003317, -0.8983222764108806 
4.310000000003294, -0.8958086732142394 
4.320000000003271, -0.8897446130876551 
4.330000000003247, -0.8753495354135413 
4.340000000003224, -0.8374581953725325 
4.350000000003201, -0.7227776313641772 
4.360000000003177, -0.37384755338314213 
4.370000000003154, 0.15246986777594837 
4.380000000003131, 0.37995367188933926 
4.390000000003107, 0.43976618289645886 
4.400000000003084, 0.4580293145910785 
4.410000000003061, 0.46470277487545575 
4.4200000000030375, 0.4672553363136691 
4.430000000003014, 0.4679355764840059 
4.440000000002991, 0.4675209962230837 
4.450000000002968, 0.46632905084802445 
4.460000000002944, 0.4645783161464269 
4.470000000002921, 0.46254022922944193 
4.480000000002898, 0.46055516829741733 
4.490000000002874, 0.4589484597543024 
4.500000000002851, 0.4579353275140347 
4.510000000002828, 0.45758636862925517 
4.520000000002804, 0.45784286116080786 
4.530000000002781, 0.45854103030170207 
4.540000000002758, 0.45943858935542625 
4.5500000000027345, 0.4602581184562216 
4.560000000002711, 0.46073381817342335 
4.570000000002688, 0.4606122691810741 
4.580000000002665, 0.45955219299174777 
4.590000000002641, 0.45683048552523786 
4.600000000002618, 0.45048108503291795 
4.610000000002595, 0.4341109263400339 
4.620000000002571, 0.38169959242734885 
4.630000000002548, 0.16477477395144996 
4.640000000002525, -0.5080174815913296 
4.6500000000025015, -1.036013854441173 
4.660000000002478, -1.1901368232340608 
4.670000000002455, -1.232501379508695 
4.6800000000024315, -1.2459225774586413 
4.690000000002408, -1.2504804029474732 
4.700000000002385, -1.251632007232605 
4.710000000002362, -1.2509321222873933 
4.720000000002338, -1.248743364169429 
4.730000000002315, -1.2457286640598266 
4.740000000002292, -1.2461087341086126 
4.750000000002268, -1.2619413393048655 
4.760000000002245, -1.302999646771181 
4.770000000002222, -1.3559397646306193 
4.7800000000021985, -1.4009410663095871 
4.790000000002175, -1.4330005326780257 
4.800000000002152, -1.455200519737217 
4.810000000002129, -1.4709377803343773 
4.820000000002105, -1.4822828631124563 
4.830000000002082, -1.4903136084613133 
4.840000000002059, -1.4956372540176521 
4.850000000002035, -1.4987539887792545 
4.860000000002012, -1.500185485142245 
4.870000000001989, -1.5004374499638096 
4.880000000001965, -1.4999632161092606 
4.890000000001942, -1.499172832835692 
4.900000000001919, -1.4983550250772484 
4.9100000000018955, -1.4975388703004968 
4.920000000001872, -1.4966243641448211 
4.930000000001849, -1.4957221721424976 
4.940000000001826, -1.4951553498099437 
4.950000000001802, -1.4949950971497643 
4.960000000001779, -1.4948295581473305 
4.970000000001756, -1.494027788249935 
