t, s[1].omega / s[0].omega 
0, -0.8200894629458049 
0.009999999999999995, -0.8294888350116162 
0.019999999999999934, -0.8393635940536855 
0.029999999999999874, -0.8487014365468364 
0.04000000000000012, -0.8563647207864534 
0.050000000000000405, -0.8617409082600318 
0.06000000000000069, -0.8649510700683128 
0.07000000000000098, -0.8665006244871064 
0.08000000000000126, -0.8668962504147452 
0.09000000000000155, -0.8665222461391426 
0.10000000000000184, -0.8657431722909361 
0.11000000000000212, -0.8652009857073313 
0.12000000000000241, -0.8663518534635116 
0.130000000000002, -0.8721038886129879 
0.1400000000000009, -0.8867333463880257 
0.1499999999999998, -0.9138360722784002 
0.1599999999999987, -0.9530826691984855 
0.1699999999999976, -0.9996422778774757 
0.1799999999999965, -1.0475895706703124 
0.1899999999999954, -1.0931092725794862 
0.1999999999999943, -1.1347044961607964 
0.2099999999999932, -1.1717754848287594 
0.2199999999999921, -1.2034062811176167 
0.229999999999991, -1.228231254207384 
0.2399999999999899, -1.2454707985948046 
0.2499999999999888, -1.255899431423947 
0.2599999999999877, -1.2614140995550875 
0.2699999999999866, -1.26389855862237 
0.2799999999999855, -1.2646538840346473 
0.2899999999999844, -1.264492408179771 
0.2999999999999833, -1.2640824238190138 
0.3099999999999822, -1.2642075856667563 
0.3199999999999811, -1.265569470221107 
0.32999999999998, -1.2682058619006769 
0.3399999999999789, -1.2714586592899395 
0.3499999999999778, -1.2746402183656207 
0.35999999999997667, -1.2774351353533595 
0.36999999999997557, -1.2797918580434648 
0.37999999999997447, -1.2817176608071104 
0.38999999999997337, -1.2832066851511434 
0.39999999999997227, -1.284259451571128 
0.40999999999997117, -1.2848984040592835 
0.41999999999997006, -1.2851513224352582 
0.42999999999996896, -1.2850248939989817 
0.43999999999996786, -1.2844967385009087 
0.44999999999996676, -1.2835359210785646 
0.45999999999996566, -1.282137454290068 
0.46999999999996456, -1.2803418275325584 
0.47999999999996346, -1.2782150330870699 
0.48999999999996235, -1.2758018022567534 
0.49999999999996125, -1.273135297529547 
0.5099999999999602, -1.2703753287060864 
0.519999999999959, -1.26794662420533 
0.529999999999958, -1.2663596589878172 
0.5399999999999568, -1.2657214514547546 
0.5499999999999557, -1.2655788376524075 
0.5599999999999546, -1.2652818384818418 
0.5699999999999535, -1.264232802069585 
0.5799999999999524, -1.261781264233699 
0.5899999999999513, -1.2570410681959427 
0.5999999999999502, -1.248928288471521 
0.6099999999999491, -1.2365744196863468 
0.619999999999948, -1.219819310505772 
0.6299999999999469, -1.1991396833008818 
0.6399999999999458, -1.1750179123805309 
0.6499999999999447, -1.1474751902693827 
0.6599999999999436, -1.1162083744152136 
0.6699999999999425, -1.0814020966346842 
0.6799999999999414, -1.0451557544877816 
0.6899999999999403, -1.0124162185736665 
0.6999999999999392, -0.9888698741641309 
0.7099999999999381, -0.9763920188215526 
0.719999999999937, -0.9720134460106064 
0.7299999999999359, -0.9714754312345125 
0.7399999999999348, -0.9719758278633028 
0.7499999999999337, -0.9722558751398693 
0.7599999999999326, -0.9717738079802526 
0.7699999999999315, -0.9700662756939773 
0.7799999999999304, -0.9663617477085221 
0.7899999999999293, -0.9593595198979262 
0.7999999999999282, -0.9474061460487109 
0.8099999999999271, -0.9295387524835812 
0.819999999999926, -0.906895827854588 
0.8299999999999249, -0.8824729350730001 
0.8399999999999238, -0.859073427317288 
0.8499999999999227, -0.83803225530998 
0.8599999999999216, -0.8195146550186776 
0.8699999999999205, -0.8032303745262231 
0.8799999999999194, -0.7888760263722107 
0.8899999999999183, -0.7763044967064798 
0.8999999999999172, -0.7655461326108999 
0.9099999999999161, -0.7567435635503261 
0.919999999999915, -0.7500266609619923 
0.9299999999999139, -0.7453742936835772 
0.9399999999999128, -0.7425395943285942 
0.9499999999999117, -0.7410893415358395 
0.9599999999999106, -0.7405252744051641 
0.9699999999999095, -0.7404015374601751 
0.9799999999999084, -0.7403815870925355 
0.9899999999999073, -0.7402412852739667 
0.9999999999999062, -0.7398564333696129 
1.0099999999999052, -0.7392004961287824 
1.019999999999904, -0.7383443008078137 
1.029999999999903, -0.7374291789576357 
1.039999999999902, -0.7366074487064049 
1.0499999999999008, -0.7359823799136458 
1.0599999999998997, -0.7355778975205565 
1.0699999999998986, -0.7353392379405947 
1.0799999999998975, -0.7351570289573394 
1.0899999999998964, -0.7349118263229169 
1.0999999999998953, -0.7345258873444322 
1.1099999999998942, -0.7339986143057412 
1.119999999999893, -0.7334173889979907 
1.129999999999892, -0.7329558143919617 
1.1399999999998909, -0.7328668609218106 
1.1499999999998898, -0.7334600655743574 
1.1599999999998887, -0.7350489298781839 
1.1699999999998876, -0.7378780479270872 
1.1799999999998865, -0.7420683878667795 
1.1899999999998854, -0.7476176172658066 
1.1999999999998843, -0.7544559781953294 
1.2099999999998832, -0.7625252689811218 
1.219999999999882, -0.7718477547439363 
1.229999999999881, -0.7825695197557941 
1.2399999999998799, -0.794969200179585 
1.2499999999998788, -0.8094005168229286 
1.2599999999998777, -0.8260842208764068 
1.2699999999998766, -0.8446452110844543 
1.2799999999998755, -0.8635537771826532 
1.2899999999998744, -0.8802854613749942 
1.2999999999998733, -0.8927697462901587 
1.3099999999998722, -0.9006767706726648 
1.319999999999871, -0.9050137976361402 
1.32999999999987, -0.9070051251401132 
1.3399999999998689, -0.9075208568654096 
1.3499999999998678, -0.9070637331896914 
1.3599999999998666, -0.9059920754365743 
1.3699999999998655, -0.9049434086149919 
1.3799999999998644, -0.9056812240720371 
1.3899999999998633, -0.9124281649455426 
1.3999999999998622, -0.9323582690775192 
1.4099999999998611, -0.9719083544451227 
1.41999999999986, -1.0292952049452193 
1.429999999999859, -1.0935568025949887 
1.4399999999998578, -1.1537680607683667 
1.4499999999998567, -1.2052357201650363 
1.4599999999998556, -1.2476981340486768 
1.4699999999998545, -1.281937571973424 
1.4799999999998534, -1.3082923624662055 
1.4899999999998523, -1.3269106578482361 
1.4999999999998512, -1.3386193088708271 
1.5099999999998501, -1.3450970657039762 
1.519999999999849, -1.3481858352508582 
1.529999999999848, -1.349285725263068 
1.5399999999998468, -1.349300288259604 
1.5499999999998457, -1.3489030830321362 
1.5599999999998446, -1.3487670285403097 
1.5699999999998435, -1.3494145239628292 
1.5799999999998424, -1.3508198994596898 
1.5899999999998413, -1.3525074211232746 
1.5999999999998402, -1.3540810943811692 
1.6099999999998391, -1.3554268198601926 
1.619999999999838, -1.3565339733936637 
1.629999999999837, -1.357327304625745 
1.6399999999998358, -1.3576755651402694 
1.6499999999998347, -1.3574696318503912 
1.6599999999998336, -1.3566625044217517 
1.6699999999998325, -1.355261988290841 
1.6799999999998314, -1.3532939019564671 
1.6899999999998303, -1.3507598248465398 
1.6999999999998292, -1.347614202846041 
1.709999999999828, -1.3437609911180728 
1.719999999999827, -1.3390470132749548 
1.729999999999826, -1.333259788129128 
1.7399999999998248, -1.326247607597822 
1.7499999999998237, -1.3183548086675034 
1.7599999999998226, -1.3109980277195477 
1.7699999999998215, -1.3061725620753175 
1.7799999999998204, -1.3044355212418912 
1.7899999999998193, -1.3044063311872474 
1.7999999999998182, -1.3045065208763253 
1.809999999999817, -1.303767096809707 
1.819999999999816, -1.3012582366703607 
1.8299999999998149, -1.2950189279876176 
1.8399999999998138, -1.2801766793775085 
1.8499999999998127, -1.245578648215032 
1.8599999999998116, -1.172079461402395 
1.8699999999998105, -1.0466395923510374 
1.8799999999998094, -0.8910065276814093 
1.8899999999998083, -0.7487161859108957 
1.8999999999998072, -0.6420221879004957 
1.909999999999806, -0.5690468251312684 
1.919999999999805, -0.5206488439528434 
1.9299999999998039, -0.4887280508396795 
1.9399999999998028, -0.46765044273032996 
1.9499999999998017, -0.45374354093769254 
1.9599999999998006, -0.4446336535606824 
1.9699999999997995, -0.4387688215066407 
1.9799999999997984, -0.43511744613015885 
1.9899999999997973, -0.4329842462593293 
1.9999999999997962, -0.4318978521152578 
2.0099999999998173, -0.43154148727771524 
2.0199999999998384, -0.43171052519403713 
2.0299999999998595, -0.43228838556456656 
2.0399999999998806, -0.43323634536065647 
2.0499999999999017, -0.43459418605033545 
2.059999999999923, -0.4364886743149821 
2.069999999999944, -0.4391485172372841 
2.079999999999965, -0.44292820207053574 
2.089999999999986, -0.44833933929794556 
2.100000000000007, -0.45605241964647875 
2.1100000000000283, -0.46673599096152374 
2.1200000000000494, -0.48050607208777174 
2.1300000000000705, -0.4960794252069792 
2.1400000000000916, -0.510759607241913 
2.1500000000001127, -0.5221301212302489 
2.160000000000134, -0.5295655241160298 
2.170000000000155, -0.5338085045725176 
2.180000000000176, -0.5358485076670891 
2.190000000000197, -0.5363523675181133 
2.2000000000002182, -0.5355532601440657 
2.2100000000002393, -0.5331969215423109 
2.2200000000002604, -0.52824996705238 
2.2300000000002815, -0.5179053624548218 
2.2400000000003026, -0.4945525315002685 
2.2500000000003237, -0.4377665521493916 
2.260000000000345, -0.30816998652247757 
2.270000000000366, -0.11250333606005933 
2.280000000000387, 0.03520281133798519 
2.290000000000408, 0.10317011795916964 
2.3000000000004293, 0.13115430856312474 
2.3100000000004504, 0.14334634422446574 
2.3200000000004715, 0.14904165558619573 
2.3300000000004926, 0.1517523851025216 
2.3400000000005137, 0.15292452320855493 
2.3500000000005348, 0.15323467071849184 
2.360000000000556, 0.15306380596909608 
2.370000000000577, 0.15267779291352823 
2.380000000000598, 0.15229385871400747 
2.390000000000619, 0.15211183051822055 
2.4000000000006403, 0.1523571463073319 
2.4100000000006614, 0.15336834700201357 
2.4200000000006825, 0.15575863459253728 
2.4300000000007036, 0.16065334418612418 
2.4400000000007247, 0.16978409404188094 
2.450000000000746, 0.18459485015280136 
2.460000000000767, 0.2037406429790935 
2.470000000000788, 0.22229639543966706 
2.480000000000809, 0.23603676527726042 
2.49000000000083, 0.24445200830250546 
2.5000000000008513, 0.24900777230453555 
2.5100000000008724, 0.2511227277718521 
2.5200000000008935, 0.2516204990199755 
2.5300000000009146, 0.2508149041447239 
2.5400000000009357, 0.24866739141088434 
2.550000000000957, 0.24494847003961753 
2.560000000000978, 0.23951385571406253 
2.570000000000999, 0.23271944559290195 
2.58000000000102, 0.22560689763150274 
2.5900000000010412, 0.21940996661677867 
2.6000000000010624, 0.21482228255273292 
2.6100000000010835, 0.2118548282244323 
2.6200000000011046, 0.2101861247956444 
2.6300000000011257, 0.20946943110458113 
2.6400000000011468, 0.20943032352315974 
2.650000000001168, 0.20984382915132213 
2.660000000001189, 0.2104867306349416 
2.67000000000121, 0.21111490699086682 
2.680000000001231, 0.21147318696578848 
2.6900000000012523, 0.21130361684824103 
2.7000000000012734, 0.2102980585114671 
2.7100000000012945, 0.2079385468646834 
2.7200000000013156, 0.20311072152762394 
2.7300000000013367, 0.1931298495465633 
2.740000000001358, 0.1711760111969593 
2.750000000001379, 0.1208664903682221 
2.7600000000014, 0.018397528502673368 
2.770000000001421, -0.11569558165948317 
2.780000000001442, -0.20969278455067322 
2.7900000000014633, -0.25300548932432754 
2.8000000000014844, -0.2710234169228382 
2.8100000000015055, -0.27891979545191337 
2.8200000000015266, -0.28261405293275277 
2.8300000000015477, -0.28431722249909175 
2.840000000001569, -0.2848847382633243 
2.85000000000159, -0.2846427880057288 
2.860000000001611, -0.2836980599280654 
2.870000000001632, -0.28209310928464637 
2.8800000000016532, -0.2799248923223666 
2.8900000000016743, -0.27742571260032006 
2.9000000000016954, -0.2749462020445844 
2.9100000000017165, -0.27283565917106234 
2.9200000000017377, -0.27132834049236854 
2.9300000000017588, -0.2705274551102891 
2.94000000000178, -0.27045643948091275 
2.950000000001801, -0.2710980004446045 
2.960000000001822, -0.27238078857235215 
2.970000000001843, -0.2741306846019156 
2.9800000000018643, -0.2760520411180002 
2.9900000000018854, -0.2777982820987525 
3.0000000000019065, -0.27909326307262006 
3.0100000000019276, -0.27979191319415947 
3.0200000000019487, -0.27983677659888684 
3.03000000000197, -0.27915647780868663 
3.040000000001991, -0.27753582794548315 
3.050000000002012, -0.2743948026017142 
3.060000000002033, -0.26823952725292616 
3.070000000002054, -0.2550815097464265 
3.0800000000020753, -0.2240913057700456 
3.0900000000020964, -0.1511299773926447 
3.1000000000021175, -0.02109869986787927 
3.1100000000021386, 0.10571717384926907 
3.1200000000021597, 0.17551091344321743 
3.130000000002181, 0.20569749279670488 
3.140000000002202, 0.21867339213275616 
3.150000000002223, 0.22452202527806064 
3.160000000002244, 0.22714184623513378 
3.1700000000022652, 0.2280856990423002 
3.1800000000022863, 0.22802688303638224 
3.1900000000023074, 0.22731749718234404 
3.2000000000023285, 0.22622034019542503 
3.2100000000023496, 0.22499521282358642 
3.2200000000023707, 0.22390299481415793 
3.230000000002392, 0.2231821591743112 
3.240000000002413, 0.22304782685464608 
3.250000000002434, 0.2237248340579922 
3.260000000002455, 0.2254796679029734 
3.2700000000024763, 0.22857981868588922 
3.2800000000024974, 0.23310189442077317 
3.2900000000025185, 0.23864211946273653 
3.3000000000025396, 0.2442739197775355 
3.3100000000025607, 0.24900989845213067 
3.3200000000025818, 0.2523248052391549 
3.330000000002603, 0.2541875967964943 
3.340000000002624, 0.25474805984551213 
3.350000000002645, 0.25404287102115347 
3.360000000002666, 0.25179461563023076 
3.3700000000026873, 0.24720368741165905 
3.3800000000027084, 0.2387130779222125 
3.3900000000027295, 0.2241928260604545 
3.4000000000027506, 0.2028628068258136 
3.4100000000027717, 0.17864064792808304 
3.420000000002793, 0.1584910071133232 
3.430000000002814, 0.14558658516896975 
3.440000000002835, 0.13847610733877064 
3.450000000002856, 0.13476939968023802 
3.460000000002877, 0.13286493350808043 
3.4700000000028983, 0.13191676575940597 
3.4800000000029194, 0.13149262078129634 
3.4900000000029405, 0.13134068076561564 
3.5000000000029616, 0.13126566567671932 
3.5100000000029827, 0.13106798140809933 
3.520000000003004, 0.1305107068200773 
3.530000000003025, 0.12927553165554076 
3.540000000003046, 0.12684813889651886 
3.550000000003067, 0.12221839452946323 
3.5600000000030882, 0.11309580591364407 
3.5700000000031094, 0.09376411170727969 
3.5800000000031305, 0.049519412735199386 
3.5900000000031516, -0.050120908955356716 
3.6000000000031727, -0.21685186223760936 
3.6100000000031938, -0.3672039441109832 
3.620000000003215, -0.44493415337522696 
3.630000000003236, -0.47750875198074877 
3.640000000003257, -0.49134451102905247 
3.650000000003278, -0.4975897168688085 
3.6600000000032993, -0.5004158503094408 
3.6700000000033204, -0.5014005450266297 
3.6800000000033415, -0.5010805005599446 
3.6900000000033626, -0.4994609087223226 
3.7000000000033837, -0.4961666468033957 
3.710000000003405, -0.4905416102182967 
3.720000000003426, -0.4819820903098341 
3.730000000003447, -0.4706658592522589 
3.740000000003468, -0.4580812544403696 
3.750000000003489, -0.4463220872719161 
3.7600000000035103, -0.4367434751011718 
3.7700000000035314, -0.4295688611749034 
3.7800000000035525, -0.4243956612530265 
3.7900000000035736, -0.4206971164966709 
3.8000000000035947, -0.41802791088580304 
3.810000000003616, -0.41605711319461625 
3.820000000003637, -0.4145545135322223 
3.830000000003658, -0.4133781347671574 
3.840000000003679, -0.41246843826869145 
3.8500000000037002, -0.411846753248341 
3.8600000000037213, -0.4116211935344988 
3.8700000000037424, -0.4120083710205914 
3.8800000000037635, -0.41338170220244796 
3.8900000000037847, -0.41636181056978927 
3.9000000000038058, -0.42197593199049804 
3.910000000003827, -0.43193448694217773 
3.920000000003848, -0.4491039807958388 
3.930000000003869, -0.4782736068862599 
3.94000000000389, -0.5271946032729607 
3.9500000000039113, -0.6071800418801471 
3.9600000000039324, -0.7304820433564441 
3.9700000000039535, -0.8995315390270257 
3.9800000000039746, -1.09103102332332 
3.9900000000039957, -1.2594528938311587 
4.000000000004016, -1.372115301284111 
4.010000000003993, -1.4316282554033903 
4.02000000000397, -1.4584946208522718 
4.030000000003946, -1.4696570556042974 
4.040000000003923, -1.473987947280675 
4.0500000000039, -1.4753247488134482 
4.0600000000038765, -1.4752933049446129 
4.070000000003853, -1.4748524171089499 
4.08000000000383, -1.474974888885709 
4.090000000003807, -1.4763293664326145 
4.100000000003783, -1.478572201060047 
4.11000000000376, -1.4808445118001663 
4.120000000003737, -1.4826945528023772 
4.130000000003713, -1.4841036790699367 
4.14000000000369, -1.4851015085201755 
4.150000000003667, -1.4856009024426071 
4.1600000000036434, -1.4854638343987845 
4.17000000000362, -1.484579893591785 
4.180000000003597, -1.4828844271600858 
4.1900000000035735, -1.4803357840483085 
4.20000000000355, -1.4768654183502938 
4.210000000003527, -1.472316854705071 
4.220000000003504, -1.4663768505573112 
4.23000000000348, -1.4584859406608832 
4.240000000003457, -1.4478211495336153 
4.250000000003434, -1.4338288369626506 
4.26000000000341, -1.4181136823387557 
4.270000000003387, -1.4059425147345312 
4.280000000003364, -1.401223565597403 
4.2900000000033405, -1.401345946683861 
4.300000000003317, -1.4023005987395216 
4.310000000003294, -1.4023358610849397 
4.320000000003271, -1.400614414665297 
4.330000000003247, -1.3952192313006209 
4.340000000003224, -1.3793848325072051 
4.350000000003201, -1.3259263081222583 
4.360000000003177, -1.1116506614381925 
4.370000000003154, -0.40676998494472505 
4.380000000003131, 0.22588900672844484 
4.390000000003107, 0.38742441679111783 
4.400000000003084, 0.42714873552011834 
4.410000000003061, 0.43995751021167856 
4.4200000000030375, 0.4448532654502671 
4.430000000003014, 0.44674015570430453 
4.440000000002991, 0.44720384327890655 
4.450000000002968, 0.4468689695521177 
4.460000000002944, 0.4460645250633325 
4.470000000002921, 0.4450499409577489 
4.480000000002898, 0.44408364700084624 
4.490000000002874, 0.4434194769807588 
4.500000000002851, 0.4432795275732112 
4.510000000002828, 0.443825890530366 
4.520000000002804, 0.44512024302297465 
4.530000000002781, 0.44706177217202026 
4.540000000002758, 0.44934982905592874 
4.5500000000027345, 0.45155296109341253 
4.560000000002711, 0.45327108385876735 
4.570000000002688, 0.45424494708185986 
4.580000000002665, 0.45430636601481655 
4.590000000002641, 0.4531827800760512 
4.600000000002618, 0.450117055129392 
4.610000000002595, 0.44288019590344 
4.620000000002571, 0.42432153902960434 
4.630000000002548, 0.36846790140558217 
4.640000000002525, 0.18947121364974 
4.6500000000025015, -0.1539119105749926 
4.660000000002478, -0.38215373429095223 
4.670000000002455, -0.4635833799901573 
4.6800000000024315, -0.49232581912480355 
4.690000000002408, -0.5040695477312008 
4.700000000002385, -0.5094399493921673 
4.710000000002362, -0.511940542813198 
4.720000000002338, -0.5128519839119907 
4.730000000002315, -0.5126114420755168 
4.740000000002292, -0.5112368322245543 
4.750000000002268, -0.5084753439185844 
4.760000000002245, -0.5039373816894338 
4.770000000002222, -0.49739331797595465 
4.7800000000021985, -0.489213871705905 
4.790000000002175, -0.480496260042188 
4.800000000002152, -0.4725007421713653 
4.810000000002129, -0.46596340730343433 
4.820000000002105, -0.46098519259706067 
4.830000000002082, -0.4573242835596115 
4.840000000002059, -0.4546581795970213 
4.850000000002035, -0.4526964224321284 
4.860000000002012, -0.4512087271492053 
4.870000000001989, -0.45003111686135916 
4.880000000001965, -0.4490711232241149 
4.890000000001942, -0.4483119721488752 
4.900000000001919, -0.4478166068225032 
4.9100000000018955, -0.44773913073632193 
4.920000000001872, -0.4483535378568203 
