t, s[1].omega / s[0].omega 
0, -0.39983170562308684 
0.009999999999999995, -0.3861350075354137 
0.019999999999999934, -0.3770458404312967 
0.029999999999999874, -0.37084216972910944 
0.04000000000000012, -0.3664764789669367 
0.050000000000000405, -0.36332436513293886 
0.06000000000000069, -0.36101951295380624 
0.07000000000000098, -0.3593615030182814 
0.08000000000000126, -0.3582664374911705 
0.09000000000000155, -0.3577427912236216 
0.10000000000000184, -0.3578858208684138 
0.11000000000000212, -0.3588901126677747 
0.12000000000000241, -0.36108457360955837 
0.130000000000002, -0.3650008229483813 
0.1400000000000009, -0.37149793082124544 
0.1499999999999998, -0.38198908159504447 
0.1599999999999987, -0.39885815595466173 
0.1699999999999976, -0.42622587447839794 
0.1799999999999965, -0.4712943846646354 
0.1899999999999954, -0.5462566087811844 
0.1999999999999943, -0.6686944774663222 
0.2099999999999932, -0.8510458466050729 
0.2199999999999921, -1.0676714614468188 
0.229999999999991, -1.2469909426829853 
0.2399999999999899, -1.3490736071232086 
0.2499999999999888, -1.3943498557898606 
0.2599999999999877, -1.412399362208388 
0.2699999999999866, -1.419325235781718 
0.2799999999999855, -1.4217269295105956 
0.2899999999999844, -1.4221275484401283 
0.2999999999999833, -1.4216591079239536 
0.3099999999999822, -1.4213331087777472 
0.3199999999999811, -1.4223985664841376 
0.32999999999998, -1.4253936402810905 
0.3399999999999789, -1.429391341773946 
0.3499999999999778, -1.4331585493631536 
0.35999999999997667, -1.4361908930307634 
0.36999999999997557, -1.4385065087369386 
0.37999999999997447, -1.4402012586325659 
0.38999999999997337, -1.4413015451214075 
0.39999999999997227, -1.4418053886881141 
0.40999999999997117, -1.4417244018803541 
0.41999999999997006, -1.4410784166228434 
0.42999999999996896, -1.4398702142029793 
0.43999999999996786, -1.4380696746783355 
0.44999999999996676, -1.4356154745963932 
0.45999999999996566, -1.4324144129667449 
0.46999999999996456, -1.4283103787655143 
0.47999999999996346, -1.423067382808856 
0.48999999999996235, -1.4165778306350887 
0.49999999999996125, -1.4095127979212827 
0.5099999999999602, -1.4037874532624204 
0.519999999999959, -1.4010703467707004 
0.529999999999958, -1.4007225843628475 
0.5399999999999568, -1.400935300122112 
0.5499999999999557, -1.4004461197929436 
0.5599999999999546, -1.3982475625809232 
0.5699999999999535, -1.3922258209135403 
0.5799999999999524, -1.3761977207324168 
0.5899999999999513, -1.3314903163599914 
0.5999999999999502, -1.2088238036721 
0.6099999999999491, -0.9460290027928799 
0.619999999999948, -0.6280503582767261 
0.6299999999999469, -0.4170480437727758 
0.6399999999999458, -0.31130806909224834 
0.6499999999999447, -0.2593351983964728 
0.6599999999999436, -0.23205188496076268 
0.6699999999999425, -0.21663595590651158 
0.6799999999999414, -0.2073806037378266 
0.6899999999999403, -0.20158295630668605 
0.6999999999999392, -0.19788284289830108 
0.7099999999999381, -0.19557095467790606 
0.719999999999937, -0.1942858415113719 
0.7299999999999359, -0.19387935715788027 
0.7399999999999348, -0.19436627304631116 
0.7499999999999337, -0.19592991663412845 
0.7599999999999326, -0.1989871046536947 
0.7699999999999315, -0.20434925266413825 
0.7799999999999304, -0.21358077274302628 
0.7899999999999293, -0.22981153760705153 
0.7999999999999282, -0.25966152155931066 
0.8099999999999271, -0.3178852548076651 
0.819999999999926, -0.4372745412158802 
0.8299999999999249, -0.6752379143717031 
0.8399999999999238, -1.0446408829673124 
0.8499999999999227, -1.3831855853362258 
0.8599999999999216, -1.5629881232466303 
0.8699999999999205, -1.633569454744022 
0.8799999999999194, -1.658866547783893 
0.8899999999999183, -1.6678354143648506 
0.8999999999999172, -1.6708252714954952 
0.9099999999999161, -1.671424128588395 
0.919999999999915, -1.6710924372603693 
0.9299999999999139, -1.6708306736084153 
0.9399999999999128, -1.6712923738959298 
0.9499999999999117, -1.6722359528430697 
0.9599999999999106, -1.6730433214189357 
0.9699999999999095, -1.6735589907572277 
0.9799999999999084, -1.6739257131211502 
0.9899999999999073, -1.6740558717766327 
0.9999999999999062, -1.6735498398757767 
1.0099999999999052, -1.6718357055400221 
1.019999999999904, -1.6681053713065903 
1.029999999999903, -1.6611597693103863 
1.039999999999902, -1.649273937067889 
1.0499999999999008, -1.6298125137590636 
1.0599999999998997, -1.597951389173039 
1.0699999999998986, -1.543739355796161 
1.0799999999998975, -1.4489590613418355 
1.0899999999998964, -1.3021756855433961 
1.0999999999998953, -1.15449867003235 
1.1099999999998942, -1.078793216462538 
1.119999999999893, -1.0612720667604856 
1.129999999999892, -1.062792518525288 
1.1399999999998909, -1.0665234585742214 
1.1499999999998898, -1.0688767695288683 
1.1599999999998887, -1.0696530315678905 
1.1699999999998876, -1.0688765118571069 
1.1799999999998865, -1.0659094104735192 
1.1899999999998854, -1.0584947991775393 
1.1999999999998843, -1.0399801091587602 
1.2099999999998832, -0.9911532181975451 
1.219999999999882, -0.865357632663503 
1.229999999999881, -0.622784861838226 
1.2399999999998799, -0.3729444447564184 
1.2499999999998788, -0.23043199762868566 
1.2599999999998777, -0.165277926502663 
1.2699999999998766, -0.13474823534809904 
1.2799999999998755, -0.11912732916537432 
1.2899999999998744, -0.11043040270464541 
1.2999999999998733, -0.10525600598395217 
1.3099999999998722, -0.10203084816243477 
1.319999999999871, -0.09997527641943275 
1.32999999999987, -0.09869550664924101 
1.3399999999998689, -0.0980176364024811 
1.3499999999998678, -0.09792932851018354 
1.3599999999998666, -0.09859141446749735 
1.3699999999998655, -0.10043728855916509 
1.3799999999998644, -0.10445746757239176 
1.3899999999998633, -0.11298764196029809 
1.3999999999998622, -0.13211028938952327 
1.4099999999998611, -0.18011688391081865 
1.41999999999986, -0.32206769661718665 
1.429999999999859, -0.7888759316372088 
1.4399999999998578, -1.6469650968907499 
1.4499999999998567, -2.04154918734588 
1.4599999999998556, -2.1446002796221615 
1.4699999999998545, -2.1778552723273314 
1.4799999999998534, -2.1907500253362775 
1.4899999999998523, -2.19593825220626 
1.4999999999998512, -2.1976370437268744 
1.5099999999998501, -2.1974994834264887 
1.519999999999849, -2.196196327615508 
1.529999999999848, -2.1937566148939824 
1.5399999999998468, -2.1893995400701756 
1.5499999999998457, -2.1828186933095557 
1.5599999999998446, -2.1781196381126056 
1.5699999999998435, -2.1782265218095427 
1.5799999999998424, -2.17889291036731 
1.5899999999998413, -2.1774440333965344 
1.5999999999998402, -2.1707271401579455 
1.6099999999998391, -2.1496237867933554 
1.619999999999838, -2.16069423001758 
1.629999999999837, -2.2903765181292854 
1.6399999999998358, -2.3555159965359267 
1.6499999999998347, -2.3757969834723514 
1.6599999999998336, -2.38326796278543 
1.6699999999998325, -2.386253896709092 
1.6799999999998314, -2.387001303396981 
1.6899999999998303, -2.3861038631849323 
1.6999999999998292, -2.3833600240121853 
1.709999999999828, -2.377376575361961 
1.719999999999827, -2.363018571645002 
1.729999999999826, -2.32524758950753 
1.7399999999998248, -2.2728076107563284 
1.7499999999998237, -2.27371747113708 
1.7599999999998226, -2.2829499660235655 
1.7699999999998215, -2.2853770007806444 
1.7799999999998204, -2.2845900064824436 
1.7899999999998193, -2.2824322497349763 
1.7999999999998182, -2.2843323350018943 
1.809999999999817, -2.2919828460720986 
1.819999999999816, -2.297804036027405 
1.8299999999998149, -2.3005645543051614 
1.8399999999998138, -2.3016633861490003 
1.8499999999998127, -2.3015297720879238 
1.8599999999998116, -2.299709554404953 
1.8699999999998105, -2.2947590115191425 
1.8799999999998094, -2.2826840688487313 
1.8899999999998083, -2.250496441323283 
1.8999999999998072, -2.141091669760516 
1.909999999999806, -1.6473431040239432 
1.919999999999805, -0.5796436941946155 
1.9299999999998039, -0.11537482760898773 
1.9399999999998028, 0.008676277759113104 
1.9499999999998017, 0.04898987339063297 
1.9599999999998006, 0.0650732014884011 
1.9699999999997995, 0.07236737769701243 
1.9799999999997984, 0.07584411033245668 
1.9899999999997973, 0.07736566392387016 
1.9999999999997962, 0.07767016692267112 
2.0099999999998173, 0.07698630688682612 
2.0199999999998384, 0.07520492548789978 
2.0299999999998595, 0.0718248972783974 
2.0399999999998806, 0.06562362924050798 
2.0499999999999017, 0.053659371085998 
2.059999999999923, 0.028107479198480924 
2.069999999999944, -0.03503529539836695 
2.079999999999965, -0.22150368448287377 
2.089999999999986, -0.7678552683000672 
2.100000000000007, -1.5261139016615002 
2.1100000000000283, -1.866573890687959 
2.1200000000000494, -1.9626019035624331 
2.1300000000000705, -1.9903097184691965 
2.1400000000000916, -1.9988977376921313 
2.1500000000001127, -2.0013992945010757 
2.160000000000134, -2.001658054724432 
2.170000000000155, -2.00112724778328 
2.180000000000176, -2.000530738010972 
2.190000000000197, -1.9998190036567336 
2.2000000000002182, -1.9986724977630097 
2.2100000000002393, -1.997555869735152 
2.2200000000002604, -1.997142092080423 
2.2300000000002815, -1.9968386070328612 
2.2400000000003026, -1.9952194154347382 
2.2500000000003237, -1.989398167419417 
2.260000000000345, -1.967445557769662 
2.270000000000366, -1.856452857352305 
2.280000000000387, -1.1262149862015225 
2.290000000000408, 0.2167586328322903 
2.3000000000004293, 0.5074397414492171 
2.3100000000004504, 0.558673238405867 
2.3200000000004715, 0.5726483408973537 
2.3300000000004926, 0.5775050927823996 
2.3400000000005137, 0.579232502170316 
2.3500000000005348, 0.5795648478762833 
2.360000000000556, 0.5791359878611201 
2.370000000000577, 0.5782644544281703 
2.380000000000598, 0.5772028738025458 
2.390000000000619, 0.5762095905127274 
2.4000000000006403, 0.5755327910315697 
2.4100000000006614, 0.5753565796926857 
2.4200000000006825, 0.5757475940457033 
2.4300000000007036, 0.5766240919156644 
2.4400000000007247, 0.5777659641323329 
2.450000000000746, 0.5788779447516942 
2.460000000000767, 0.5796750425931558 
2.470000000000788, 0.5799174040130933 
2.480000000000809, 0.5793350356033615 
2.49000000000083, 0.5773800951411658 
2.5000000000008513, 0.5725148980192664 
2.5100000000008724, 0.5594991779898255 
2.5200000000008935, 0.5149125716339779 
2.5300000000009146, 0.2870466989137582 
2.5400000000009357, -0.7694574710175414 
2.550000000000957, -1.5562719391989979 
2.560000000000978, -1.7064412177834178 
2.570000000000999, -1.7373905873469948 
2.58000000000102, -1.745417354030088 
2.5900000000010412, -1.7474448794212265 
2.6000000000010624, -1.7473869911980013 
2.6100000000010835, -1.74679193279943 
2.6200000000011046, -1.7472256789268301 
2.6300000000011257, -1.7494192071932004 
2.6400000000011468, -1.7521471896708853 
2.650000000001168, -1.754227892144905 
2.660000000001189, -1.7555628221434887 
2.67000000000121, -1.7563421620305015 
2.680000000001231, -1.756492388507463 
2.6900000000012523, -1.755717380471421 
2.7000000000012734, -1.7535985543807822 
2.7100000000012945, -1.7495616513384278 
2.7200000000013156, -1.742771133047913 
2.7300000000013367, -1.7318296608206603 
2.740000000001358, -1.7139216159646593 
2.750000000001379, -1.6827076960975424 
2.7600000000014, -1.6246539632538775 
2.770000000001421, -1.5248259512444835 
2.780000000001442, -1.4189118673223982 
2.7900000000014633, -1.3780426929484137 
2.8000000000014844, -1.3799760833287356 
2.8100000000015055, -1.3866790078290225 
2.8200000000015266, -1.3902173232009758 
2.8300000000015477, -1.391148703746023 
2.840000000001569, -1.389941130205235 
2.85000000000159, -1.3855764209744863 
2.860000000001611, -1.3739424749810725 
2.870000000001632, -1.344412880203718 
2.8800000000016532, -1.299622722415235 
2.8900000000016743, -1.5263513884093611 
2.9000000000016954, -2.3257784576502436 
2.9100000000017165, -2.5503530091247195 
2.9200000000017377, -2.5905911200612257 
2.9300000000017588, -2.6018966381808597 
2.94000000000178, -2.6056919789804707 
2.950000000001801, -2.6064559079853593 
2.960000000001822, -2.6052985812030607 
2.970000000001843, -2.6019172005531765 
2.9800000000018643, -2.5935022941253885 
2.9900000000018854, -2.5700796961764807 
3.0000000000019065, -2.534010830171666 
3.0100000000019276, -2.5360656830567687 
3.0200000000019487, -2.542829753828345 
3.03000000000197, -2.54392914353834 
3.040000000001991, -2.542352680544064 
3.050000000002012, -2.541592725223446 
3.060000000002033, -2.546505131212037 
3.070000000002054, -2.551351102596364 
3.0800000000020753, -2.5534415013090555 
3.0900000000020964, -2.5540614810930253 
3.1000000000021175, -2.553430282771732 
3.1100000000021386, -2.5502499861752375 
3.1200000000021597, -2.5395171566621206 
3.130000000002181, -2.4971827602537946 
3.140000000002202, -2.2459673348184803 
3.150000000002223, -0.6673247468651018 
3.160000000002244, 0.3801147368079817 
3.1700000000022652, 0.5226590456672178 
3.1800000000022863, 0.5528028778206705 
3.1900000000023074, 0.5622251840350458 
3.2000000000023285, 0.5657549895357123 
3.2100000000023496, 0.5670758205490319 
3.2200000000023707, 0.5674046099592521 
3.230000000002392, 0.5672635179740737 
3.240000000002413, 0.5670113196918642 
3.250000000002434, 0.5671663325329546 
3.260000000002455, 0.568861933521675 
3.2700000000024763, 0.574438789325433 
3.2800000000024974, 0.5868380748642449 
3.2900000000025185, 0.6053640629259374 
3.3000000000025396, 0.6233631991561579 
3.3100000000025607, 0.6355933434426357 
3.3200000000025818, 0.642227552388029 
3.330000000002603, 0.6452748623801267 
3.340000000002624, 0.6461337288615646 
3.350000000002645, 0.6452509021453836 
3.360000000002666, 0.642023955626527 
3.3700000000026873, 0.633812335849593 
3.3800000000027084, 0.6121191270250272 
3.3900000000027295, 0.553176122468992 
3.4000000000027506, 0.4342858479043528 
3.4100000000027717, 0.3303660457997231 
3.420000000002793, 0.29544494814583133 
3.430000000002814, 0.28996722350481396 
3.440000000002835, 0.2905404410805539 
3.450000000002856, 0.2916475775342176 
3.460000000002877, 0.2923673477465926 
3.4700000000028983, 0.2926207089333683 
3.4800000000029194, 0.2924012523247791 
3.4900000000029405, 0.2916073919758462 
3.5000000000029616, 0.28994281558308865 
3.5100000000029827, 0.28670291793698444 
3.520000000003004, 0.280150668444205 
3.530000000003025, 0.2653884036785277 
3.540000000003046, 0.22540749134934832 
3.550000000003067, 0.08208630335499564 
3.5600000000030882, -0.5595937416281237 
3.5700000000031094, -1.7259160790804415 
3.5800000000031305, -2.102610743312009 
3.5900000000031516, -2.1764944135418753 
3.6000000000031727, -2.194230143539468 
3.6100000000031938, -2.1990132615366735 
3.620000000003215, -2.199940397176343 
3.630000000003236, -2.199510799324278 
3.640000000003257, -2.198701010314818 
3.650000000003278, -2.197547257533505 
3.6600000000032993, -2.1956711676682197 
3.6700000000033204, -2.1938855951655 
3.6800000000033415, -2.193400314448591 
3.6900000000033626, -2.1931375100115447 
3.7000000000033837, -2.1909828740251585 
3.710000000003405, -2.181716007854347 
3.720000000003426, -2.132078152536322 
3.730000000003447, -1.7301940561763391 
3.740000000003468, 1.1219011695374523 
3.750000000003489, 2.6085798637506104 
3.7600000000035103, 2.6298758592380893 
3.7700000000035314, 2.631150902111497 
3.7800000000035525, 2.626884905839231 
3.7900000000035736, 2.5648865779799186 
3.8000000000035947, -1.8012603442055741 
3.810000000003616, -3.1608145126325473 
3.820000000003637, -3.1982582641645836 
3.830000000003658, -3.2017679434934436 
3.840000000003679, -3.201475544027717 
3.8500000000037002, -3.2003690898430106 
3.8600000000037213, -3.197765411389445 
3.8700000000037424, -3.1945643207733987 
3.8800000000037635, -3.1947202644042063 
3.8900000000037847, -3.1939227423207406 
3.9000000000038058, -3.187642633933744 
3.910000000003827, -3.1865945402700495 
3.920000000003848, -3.210886883933534 
3.930000000003869, -3.2195189427199438 
3.94000000000389, -3.2214234427186574 
3.9500000000039113, -3.2208702734451444 
3.9600000000039324, -3.2165868146191707 
3.9700000000039535, -3.196088814077356 
3.9800000000039746, -2.9889009194073295 
3.9900000000039957, 0.41731036752561285 
4.000000000004016, 1.170223086622943 
4.010000000003993, 1.2133202742563454 
4.02000000000397, 1.2209656554358976 
4.030000000003946, 1.2228429909527518 
4.040000000003923, 1.2230735783437792 
4.0500000000039, 1.222612990926866 
4.0600000000038765, 1.2217433891922944 
4.070000000003853, 1.2205907145070074 
4.08000000000383, 1.2193289021341878 
4.090000000003807, 1.218225482891215 
4.100000000003783, 1.2174799176132032 
4.11000000000376, 1.2170320169962103 
4.120000000003737, 1.216549392109529 
4.130000000003713, 1.2154090812287754 
4.14000000000369, 1.2120506219656275 
4.150000000003667, 1.1996842434625037 
4.1600000000036434, 1.1189345744892942 
4.17000000000362, -0.6924996896742209 
4.180000000003597, -3.138621753130667 
4.1900000000035735, -3.237438727791858 
4.20000000000355, -3.2501086891618174 
4.210000000003527, -3.2523906926688126 
4.220000000003504, -3.251497593155476 
4.23000000000348, -3.247414776710138 
4.240000000003457, -3.2315764057223872 
4.250000000003434, -3.1786186881142964 
4.26000000000341, -3.1828203454682518 
4.270000000003387, -3.192051581372184 
4.280000000003364, -3.192658457274155 
4.2900000000033405, -3.1918285507942468 
4.300000000003317, -3.1928600745645292 
4.310000000003294, -3.1934872283086086 
4.320000000003271, -3.193208217624402 
4.330000000003247, -3.192599356955184 
4.340000000003224, -3.188576681622006 
4.350000000003201, -3.1538167514302353 
4.360000000003177, -2.689680068023372 
4.370000000003154, -3.957321554530517 
4.380000000003131, -4.033399586360271 
4.390000000003107, -4.039061140897914 
4.400000000003084, -4.038610303489249 
4.410000000003061, -4.032714333879339 
4.4200000000030375, -3.976331324282922 
4.430000000003014, -1.3413898054743498 
4.440000000002991, 0.5956518188803978 
4.450000000002968, 0.8415243231174193 
4.460000000002944, 0.8807174505088093 
4.470000000002921, 0.8906606390558143 
4.480000000002898, 0.8936978811518257 
4.490000000002874, 0.894255976292712 
4.500000000002851, 0.8934302513253847 
4.510000000002828, 0.8914314377382236 
4.520000000002804, 0.8886319041456797 
4.530000000002781, 0.8884314135879657 
4.540000000002758, 0.9031030055415877 
4.5500000000027345, 0.9388975542006515 
4.560000000002711, 0.9705248199358942 
4.570000000002688, 0.9860599637680287 
4.580000000002665, 0.9922303503516412 
4.590000000002641, 0.99425541473818 
4.600000000002618, 0.9939975213699386 
4.610000000002595, 0.9911838198080103 
4.620000000002571, 0.98193804542699 
4.630000000002548, 0.944902730694633 
4.640000000002525, 0.730021741174206 
4.6500000000025015, 0.05190789986969877 
4.660000000002478, -0.24881701124271705 
4.670000000002455, -0.3039714541310123 
4.6800000000024315, -0.3175874208671945 
4.690000000002408, -0.3227883761343214 
4.700000000002385, -0.3254218162353658 
4.710000000002362, -0.3269024764061096 
4.720000000002338, -0.32769231051138636 
4.730000000002315, -0.32797131390340695 
4.740000000002292, -0.3278095053257597 
4.750000000002268, -0.32723593667100503 
4.760000000002245, -0.3262908451929135 
4.770000000002222, -0.3250742146684669 
4.7800000000021985, -0.32376853891104634 
4.790000000002175, -0.3226097843293301 
4.800000000002152, -0.3218238621862749 
4.810000000002129, -0.3215828272659293 
4.820000000002105, -0.322004779721309 
4.830000000002082, -0.3231657210911236 
4.840000000002059, -0.3250766668594177 
4.850000000002035, -0.32761350082531826 
4.860000000002012, -0.3304589228864566 
4.870000000001989, -0.3331624971955375 
4.880000000001965, -0.33532259811440623 
4.890000000001942, -0.33672716928325835 
4.900000000001919, -0.3373338511464713 
4.9100000000018955, -0.3371470734987688 
4.920000000001872, -0.3360815037099255 
4.930000000001849, -0.33380137615067157 
4.940000000001826, -0.32939338647946764 
4.950000000001802, -0.3204557680242376 
