t, s[1].omega / s[0].omega 
0, -1.0013400620086557 
0.009999999999999995, -1.13017909898764 
0.019999999999999934, -1.232104729049309 
0.029999999999999874, -1.2953673397325214 
0.04000000000000012, -1.327502473588166 
0.050000000000000405, -1.3419317267623854 
0.06000000000000069, -1.3479451675272258 
0.07000000000000098, -1.3501374918781317 
0.08000000000000126, -1.350514839978013 
0.09000000000000155, -1.3500661365156579 
0.10000000000000184, -1.3497071768627906 
0.11000000000000212, -1.3506347444297955 
0.12000000000000241, -1.3535883181933333 
0.130000000000002, -1.3579255601162832 
0.1400000000000009, -1.3623650084492713 
0.1499999999999998, -1.366167294581283 
0.1599999999999987, -1.3692125146268637 
0.1699999999999976, -1.3715900494498026 
0.1799999999999965, -1.3733715279218006 
0.1899999999999954, -1.374594881621085 
0.1999999999999943, -1.3752958294290107 
0.2099999999999932, -1.3755082443987399 
0.2199999999999921, -1.3752453982360477 
0.229999999999991, -1.3744927217510707 
0.2399999999999899, -1.373224218128483 
0.2499999999999888, -1.371428796749203 
0.2599999999999877, -1.3691158541958788 
0.2699999999999866, -1.3662795638436847 
0.2799999999999855, -1.3628741847100203 
0.2899999999999844, -1.3589463992604072 
0.2999999999999833, -1.3549583665148854 
0.3099999999999822, -1.3518679071327884 
0.3199999999999811, -1.3503624814383342 
0.32999999999998, -1.3500543519616148 
0.3399999999999789, -1.3499521486789647 
0.3499999999999778, -1.3491819179929758 
0.35999999999997667, -1.346861306954033 
0.36999999999997557, -1.341418671301651 
0.37999999999997447, -1.3296103793167044 
0.38999999999997337, -1.305611124390929 
0.39999999999997227, -1.261962972559386 
0.40999999999997117, -1.1942979294691247 
0.41999999999997006, -1.1059657479271023 
0.42999999999996896, -1.0063058492086085 
0.43999999999996786, -0.905994663417523 
0.44999999999996676, -0.8147868089457905 
0.45999999999996566, -0.7400953130322959 
0.46999999999996456, -0.6851541495319411 
0.47999999999996346, -0.6486730254526781 
0.48999999999996235, -0.6266127355273036 
0.49999999999996125, -0.6143966674481703 
0.5099999999999602, -0.6082255895192171 
0.519999999999959, -0.6054409654517747 
0.529999999999958, -0.6043793822446156 
0.5399999999999568, -0.604077213294657 
0.5499999999999557, -0.6040010847113543 
0.5599999999999546, -0.6038591996017614 
0.5699999999999535, -0.6034947739950834 
0.5799999999999524, -0.6028456083032856 
0.5899999999999513, -0.6019436388263264 
0.5999999999999502, -0.6009142237235694 
0.6099999999999491, -0.5999395390073381 
0.619999999999948, -0.5991928563069783 
0.6299999999999469, -0.5987849584470633 
0.6399999999999458, -0.5987433321406413 
0.6499999999999447, -0.599010753054489 
0.6599999999999436, -0.5994542274227534 
0.6699999999999425, -0.5998970405156021 
0.6799999999999414, -0.6001779692287545 
0.6899999999999403, -0.6002074609896487 
0.6999999999999392, -0.5999894558446315 
0.7099999999999381, -0.5996192436374314 
0.719999999999937, -0.5992958873157559 
0.7299999999999359, -0.5993821091352812 
0.7399999999999348, -0.6005310463327804 
0.7499999999999337, -0.6038885396306654 
0.7599999999999326, -0.6113551745637428 
0.7699999999999315, -0.6258291098098689 
0.7799999999999304, -0.6512303461497823 
0.7899999999999293, -0.691958215741827 
0.7999999999999282, -0.7514569418724163 
0.8099999999999271, -0.8301736763559662 
0.819999999999926, -0.924234717943361 
0.8299999999999249, -1.0259079252904153 
0.8399999999999238, -1.1248804621081874 
0.8499999999999227, -1.2096130866042167 
0.8599999999999216, -1.2711228743364598 
0.8699999999999205, -1.3083449184048375 
0.8799999999999194, -1.3276039831208366 
0.8899999999999183, -1.336526306592037 
0.8999999999999172, -1.340258959215123 
0.9099999999999161, -1.3414607727196883 
0.919999999999915, -1.3414089683973671 
0.9299999999999139, -1.3409273911419723 
0.9399999999999128, -1.3409667454404277 
0.9499999999999117, -1.342490803969582 
0.9599999999999106, -1.3456043343959405 
0.9699999999999095, -1.3493958473891798 
0.9799999999999084, -1.3529468273082126 
0.9899999999999073, -1.35590502167304 
0.9999999999999062, -1.358270546171525 
1.0099999999999052, -1.3600949613826163 
1.019999999999904, -1.3613928687338102 
1.029999999999903, -1.3621730002784753 
1.039999999999902, -1.362460528529606 
1.0499999999999008, -1.3622828957585513 
1.0599999999998997, -1.3616464283850909 
1.0699999999998986, -1.3605309164718977 
1.0799999999998975, -1.3589076543970031 
1.0899999999998964, -1.3567615523247925 
1.0999999999998953, -1.354085868961432 
1.1099999999998942, -1.3508456492604002 
1.119999999999893, -1.346997132797468 
1.129999999999892, -1.3427021288930845 
1.1399999999998909, -1.3386472998884198 
1.1499999999998898, -1.335867328773874 
1.1599999999998887, -1.3347557673981285 
1.1699999999998876, -1.3346126844854065 
1.1799999999998865, -1.3344205444393913 
1.1899999999998854, -1.3333548202189214 
1.1999999999998843, -1.3304513320359121 
1.2099999999998832, -1.3238568441259009 
1.219999999999882, -1.309851035924138 
1.229999999999881, -1.2822778201758775 
1.2399999999998799, -1.2344631775640342 
1.2499999999998788, -1.1643503661329924 
1.2599999999998777, -1.0772901482594588 
1.2699999999998766, -0.9825945228970481 
1.2799999999998755, -0.8895445488172955 
1.2899999999998744, -0.8062404264595682 
1.2999999999998733, -0.7387054734893898 
1.3099999999998722, -0.6893860997002431 
1.319999999999871, -0.6568773889017201 
1.32999999999987, -0.6374270505220015 
1.3399999999998689, -0.6268379894109903 
1.3499999999998678, -0.6216329629715316 
1.3599999999998666, -0.6193883356322252 
1.3699999999998655, -0.6186002691567033 
1.3799999999998644, -0.6184069899244595 
1.3899999999998633, -0.6183352576503004 
1.3999999999998622, -0.6181259055160947 
1.4099999999998611, -0.6176404261508552 
1.41999999999986, -0.6168324507707399 
1.429999999999859, -0.6157544633919143 
1.4399999999998578, -0.6145542381113316 
1.4499999999998567, -0.6134275933999265 
1.4599999999998556, -0.61254587713602 
1.4699999999998545, -0.6120054369953913 
1.4799999999998534, -0.6118143313420915 
1.4899999999998523, -0.611898645824206 
1.4999999999998512, -0.6121203946851369 
1.5099999999998501, -0.6123168190924032 
1.519999999999849, -0.6123569866335995 
1.529999999999848, -0.6121863258248749 
1.5399999999998468, -0.6118410014646534 
1.5499999999998457, -0.6114502806769134 
1.5599999999998446, -0.6112589313712885 
1.5699999999998435, -0.6116886217604254 
1.5799999999998424, -0.6134380875450833 
1.5899999999998413, -0.617600939719833 
1.5999999999998402, -0.6257528139087551 
1.6099999999998391, -0.6399342725649027 
1.619999999999838, -0.6624583037864753 
1.629999999999837, -0.6955297383705075 
1.6399999999998358, -0.7407757728762137 
1.6499999999998347, -0.7988657241973847 
1.6599999999998336, -0.8692582675235594 
1.6699999999998325, -0.9496622072336475 
1.6799999999998314, -1.0345472071741908 
1.6899999999998303, -1.113669402770641 
1.6999999999998292, -1.175187273490848 
1.709999999999828, -1.2140619686683922 
1.719999999999827, -1.2346476587914603 
1.729999999999826, -1.2443322481330683 
1.7399999999998248, -1.248474360663606 
1.7499999999998237, -1.2498941821368719 
1.7599999999998226, -1.2499190787550445 
1.7699999999998215, -1.2493252497750147 
1.7799999999998204, -1.249047484101526 
1.7899999999998193, -1.2504822821369441 
1.7999999999998182, -1.2546788072821022 
1.809999999999817, -1.26108340602068 
1.819999999999816, -1.2680574522982817 
1.8299999999998149, -1.2743936788466657 
1.8399999999998138, -1.2797275326193558 
1.8499999999998127, -1.2841323218612193 
1.8599999999998116, -1.287768886057867 
1.8699999999998105, -1.2907668594644763 
1.8799999999998094, -1.293209533365767 
1.8899999999998083, -1.2951287277087102 
1.8999999999998072, -1.2965029350353858 
1.909999999999806, -1.2972817681093034 
1.919999999999805, -1.2974364639272447 
1.9299999999998039, -1.2970053426532608 
1.9399999999998028, -1.2961084738735855 
1.9499999999998017, -1.2949252440217998 
1.9599999999998006, -1.293624748893413 
1.9699999999997995, -1.2922838195681874 
1.9799999999997984, -1.2909139085994747 
1.9899999999997973, -1.2896149878096375 
1.9999999999997962, -1.288638403159641 
2.0099999999998173, -1.2881739507224204 
2.0199999999998384, -1.2880834895904534 
2.0299999999998595, -1.2879509714843047 
2.0399999999998806, -1.2873032155398703 
2.0499999999999017, -1.2856775768789241 
2.059999999999923, -1.2825856372085698 
2.069999999999944, -1.277567527704778 
2.079999999999965, -1.2703638959461694 
2.089999999999986, -1.2610071358847739 
2.100000000000007, -1.2496624771502503 
2.1100000000000283, -1.2363492042464663 
2.1200000000000494, -1.2207749763331737 
2.1300000000000705, -1.2023831171416106 
2.1400000000000916, -1.1807397463653881 
2.1500000000001127, -1.1565501458245122 
2.160000000000134, -1.1330523574088995 
2.170000000000155, -1.1154328146272716 
2.180000000000176, -1.106481864246624 
2.190000000000197, -1.1040568170990221 
2.2000000000002182, -1.1043371253930385 
2.2100000000002393, -1.1049281817032282 
2.2200000000002604, -1.1048461611267977 
2.2300000000002815, -1.1035317649921925 
2.2400000000003026, -1.1000631351668368 
2.2500000000003237, -1.092364198321174 
2.260000000000345, -1.0761298166098376 
2.270000000000366, -1.0443905438580796 
2.280000000000387, -0.991312102148321 
2.290000000000408, -0.9208522780842705 
2.3000000000004293, -0.8470764837833089 
2.3100000000004504, -0.7819727350953825 
2.3200000000004715, -0.7293849230427328 
2.3300000000004926, -0.6883284037116033 
2.3400000000005137, -0.6566533160974279 
2.3500000000005348, -0.6324484154256284 
2.360000000000556, -0.6142551548499456 
2.370000000000577, -0.6009470517896834 
2.380000000000598, -0.5915862816211475 
2.390000000000619, -0.585337550390575 
2.4000000000006403, -0.5814427299581145 
2.4100000000006614, -0.5792335506896273 
2.4200000000006825, -0.5781540645263432 
2.4300000000007036, -0.5777725870929802 
2.4400000000007247, -0.5777772176869497 
2.450000000000746, -0.5779610793877954 
2.460000000000767, -0.5782076994443894 
2.470000000000788, -0.5784826384025769 
2.480000000000809, -0.57882755271534 
2.49000000000083, -0.5793458548962593 
2.5000000000008513, -0.5801746365481799 
2.5100000000008724, -0.5814491563196651 
2.5200000000008935, -0.5832639452570986 
2.5300000000009146, -0.585621250293585 
2.5400000000009357, -0.5883683485943983 
2.550000000000957, -0.5911772616905089 
2.560000000000978, -0.5936414672000627 
2.570000000000999, -0.595453351523311 
2.58000000000102, -0.5965061532245864 
2.5900000000010412, -0.5968525152998407 
2.6000000000010624, -0.5966100325339408 
2.6100000000010835, -0.5959158026061953 
2.6200000000011046, -0.5949787478843183 
2.6300000000011257, -0.5943029341022001 
2.6400000000011468, -0.5953330051099621 
2.650000000001168, -0.6023099601002639 
2.660000000001189, -0.6277289358647111 
2.67000000000121, -0.7076421599999547 
2.680000000001231, -0.9250583792476992 
2.6900000000012523, -1.3062567808189676 
2.7000000000012734, -1.611146303738917 
2.7100000000012945, -1.7532999244718286 
2.7200000000013156, -1.8154951826721644 
2.7300000000013367, -1.844984151836727 
2.740000000001358, -1.859584156312236 
2.750000000001379, -1.8666341757223317 
2.7600000000014, -1.8696604562247763 
2.770000000001421, -1.8704953226559848 
2.780000000001442, -1.8701223166854384 
2.7900000000014633, -1.8691193361429395 
2.8000000000014844, -1.8677142566101685 
2.8100000000015055, -1.8657215990990899 
2.8200000000015266, -1.8631598063397732 
2.8300000000015477, -1.861087349047588 
2.840000000001569, -1.8604584357731508 
2.85000000000159, -1.8603730348545071 
2.860000000001611, -1.8592799568746847 
2.870000000001632, -1.855017969102224 
2.8800000000016532, -1.8398812697561748 
2.8900000000016743, -1.7716945530424553 
2.9000000000016954, -1.335200517128397 
2.9100000000017165, 0.18422195184842124 
2.9200000000017377, 0.686199906318506 
2.9300000000017588, 0.7535276640386347 
2.94000000000178, 0.7685709329866228 
2.950000000001801, 0.7731178947840793 
2.960000000001822, 0.7743642433139665 
2.970000000001843, 0.7740156394359351 
2.9800000000018643, 0.7724409975019344 
2.9900000000018854, 0.7696152641771825 
3.0000000000019065, 0.7655762076854588 
3.0100000000019276, 0.7608152878385137 
3.0200000000019487, 0.7563052890716208 
3.03000000000197, 0.7529177685033466 
3.040000000001991, 0.7508723006196701 
3.050000000002012, 0.7498384581784294 
3.060000000002033, 0.7493276407523568 
3.070000000002054, 0.7488979890783789 
3.0800000000020753, 0.7481251459347185 
3.0900000000020964, 0.7463791110224018 
3.1000000000021175, 0.7421374604722752 
3.1100000000021386, 0.730101156702611 
3.1200000000021597, 0.6826428050677006 
3.130000000002181, 0.3260869434618755 
3.140000000002202, -1.9373538789548115 
3.150000000002223, -2.6413526455351173 
3.160000000002244, -2.7132683847134595 
3.1700000000022652, -2.726821293571656 
3.1800000000022863, -2.7298366047067075 
3.1900000000023074, -2.729777270519383 
3.2000000000023285, -2.728225652742667 
3.2100000000023496, -2.7246765123807886 
3.2200000000023707, -2.7170627094898645 
3.230000000002392, -2.7104198347133686 
3.240000000002413, -2.7117658908415008 
3.250000000002434, -2.712603815565177 
3.260000000002455, -2.7102303972716575 
3.2700000000024763, -2.7049939860504346 
3.2800000000024974, -2.7140227194437454 
3.2900000000025185, -2.729414506472683 
3.3000000000025396, -2.735627323340776 
3.3100000000025607, -2.7375925057986494 
3.3200000000025818, -2.737619519476791 
3.330000000002603, -2.7354524068703574 
3.340000000002624, -2.7283249979310478 
3.350000000002645, -2.703589974805241 
3.360000000002666, -2.571088176984808 
3.3700000000026873, -1.2540018765561303 
3.3800000000027084, 0.4506191655349615 
3.3900000000027295, 0.6493180651666949 
3.4000000000027506, 0.683441934091719 
3.4100000000027717, 0.6930110098977253 
3.420000000002793, 0.6962850259951499 
3.430000000002814, 0.6972850448810828 
3.440000000002835, 0.6972164841193962 
3.450000000002856, 0.6965535655450891 
3.460000000002877, 0.6957104264922055 
3.4700000000028983, 0.6957486107212235 
3.4800000000029194, 0.6997581197516458 
3.4900000000029405, 0.7133202672233747 
3.5000000000029616, 0.7370419584635877 
3.5100000000029827, 0.7598429193133539 
3.520000000003004, 0.7738835154152166 
3.530000000003025, 0.780712124498675 
3.540000000003046, 0.7835297301612112 
3.550000000003067, 0.7840700792783172 
3.5600000000030882, 0.782684926011539 
3.5700000000031094, 0.7781612006086631 
3.5800000000031305, 0.7652079940766356 
3.5900000000031516, 0.7220162801793413 
3.6000000000031727, 0.5704556050247757 
3.6100000000031938, 0.3097859945167779 
3.620000000003215, 0.201917844009376 
3.630000000003236, 0.18943079044248073 
3.640000000003257, 0.19211678846700825 
3.650000000003278, 0.1950323141952967 
3.6600000000032993, 0.1968028147183142 
3.6700000000033204, 0.197691218691548 
3.6800000000033415, 0.19795893953644803 
3.6900000000033626, 0.19771257135943215 
3.7000000000033837, 0.19690615818334717 
3.710000000003405, 0.19530791677997675 
3.720000000003426, 0.1923637131201198 
3.730000000003447, 0.1867969077412672 
3.740000000003468, 0.1753791668977352 
3.750000000003489, 0.14854301675759934 
3.7600000000035103, 0.0712023869678586 
3.7700000000035314, -0.21226422147690277 
3.7800000000035525, -1.0769441694496977 
3.7900000000035736, -1.7753521245223225 
3.8000000000035947, -1.9502736567753824 
3.810000000003616, -1.9899905206048605 
3.820000000003637, -2.000561685337847 
3.830000000003658, -2.003426340214151 
3.840000000003679, -2.00376088800954 
3.8500000000037002, -2.003304964090173 
3.8600000000037213, -2.0029699870282887 
3.8700000000037424, -2.0027619083111325 
3.8800000000037635, -2.0022084761943018 
3.8900000000037847, -2.001524190266703 
3.9000000000038058, -2.001230326899503 
3.910000000003827, -2.000897855535032 
3.920000000003848, -1.999286800665789 
3.930000000003869, -1.9938067865212221 
3.94000000000389, -1.9748766922400272 
3.9500000000039113, -1.894625540894412 
3.9600000000039324, -1.4791469999286728 
3.9700000000039535, -0.3795509821221074 
3.9800000000039746, 0.1303096395695992 
3.9900000000039957, 0.24433184230893917 
4.000000000004016, 0.27700687654329487 
4.010000000003993, 0.28909337220746373 
4.02000000000397, 0.29429602096222307 
4.030000000003946, 0.2966784295454313 
4.040000000003923, 0.2977308227895105 
4.0500000000039, 0.2981034589117736 
4.0600000000038765, 0.2981336117562915 
4.070000000003853, 0.2980463349273443 
4.08000000000383, 0.2980800414523529 
4.090000000003807, 0.29866825033116745 
4.100000000003783, 0.30085834769846065 
4.11000000000376, 0.3072531937878266 
4.120000000003737, 0.3231079678689589 
4.130000000003713, 0.3532168264982089 
4.14000000000369, 0.390732440167746 
4.150000000003667, 0.42025511310526903 
4.1600000000036434, 0.43707716650328987 
4.17000000000362, 0.44531738917902225 
4.180000000003597, 0.44901888306202453 
4.1900000000035735, 0.4502808767367227 
4.20000000000355, 0.44990438501126395 
4.210000000003527, 0.4479090416479111 
4.220000000003504, 0.4436990820315718 
4.23000000000348, 0.4361686176795905 
4.240000000003457, 0.42437974694795855 
4.250000000003434, 0.4093344266929776 
4.26000000000341, 0.39480034263525715 
4.270000000003387, 0.3842581827073008 
4.280000000003364, 0.3781192344035693 
4.2900000000033405, 0.3749777949941703 
4.300000000003317, 0.3734636239988306 
4.310000000003294, 0.3727315380092017 
4.320000000003271, 0.37230983151423064 
4.330000000003247, 0.3718993023775571 
4.340000000003224, 0.3712355916969077 
4.350000000003201, 0.3699711056837739 
4.360000000003177, 0.3674767141672315 
4.370000000003154, 0.3623101005649542 
4.380000000003131, 0.35040424208555604 
4.390000000003107, 0.31722996676013826 
4.400000000003084, 0.1920581775194885 
4.410000000003061, -0.42895049733594065 
4.4200000000030375, -1.6047417058655928 
4.430000000003014, -1.947781427334118 
4.440000000002991, -2.009191820283825 
4.450000000002968, -2.0232281343896297 
4.460000000002944, -2.0268247262812507 
4.470000000002921, -2.0273468033663584 
4.480000000002898, -2.02693098677188 
4.490000000002874, -2.0266880180896534 
4.500000000002851, -2.0267498128343533 
4.510000000002828, -2.026523185566094 
4.520000000002804, -2.0260449568037684 
4.530000000002781, -2.02580607344922 
4.540000000002758, -2.0254954140598724 
4.5500000000027345, -2.0239633203322134 
4.560000000002711, -2.018784024194878 
4.570000000002688, -2.001343680966033 
4.580000000002665, -1.9310060707941479 
4.590000000002641, -1.5873007328602908 
4.600000000002618, -0.5688566790568265 
4.610000000002595, 0.03286643612098035 
4.620000000002571, 0.1788078173020365 
4.630000000002548, 0.2205901189574146 
4.640000000002525, 0.23597963116797405 
4.6500000000025015, 0.24264584219840887 
4.660000000002478, 0.2457765753007489 
4.670000000002455, 0.24724257386591525 
4.6800000000024315, 0.24782892591079544 
4.690000000002408, 0.24790128539980275 
4.700000000002385, 0.247641545527518 
4.710000000002362, 0.24715848845655458 
4.720000000002338, 0.24660913692199027 
4.730000000002315, 0.24654817717914845 
4.740000000002292, 0.24925760958811533 
4.750000000002268, 0.2633889272478614 
4.760000000002245, 0.3117529964907278 
4.770000000002222, 0.4044258416370374 
4.7800000000021985, 0.48511991618749617 
4.790000000002175, 0.5241846315462553 
4.800000000002152, 0.5397891775174177 
4.810000000002129, 0.545988240017938 
4.820000000002105, 0.5482758453112865 
4.830000000002082, 0.5485256937926819 
4.840000000002059, 0.5471782595967707 
4.850000000002035, 0.5439125737988728 
4.860000000002012, 0.5378726958742506 
4.870000000001989, 0.5281935821659665 
4.880000000001965, 0.5154382494328231 
4.890000000001942, 0.5026472276472642 
4.900000000001919, 0.49312942546892796 
4.9100000000018955, 0.4876059136200753 
4.920000000001872, 0.4848884535025217 
4.930000000001849, 0.4836638898148496 
4.940000000001826, 0.4830917637986524 
4.950000000001802, 0.4826917550067577 
4.960000000001779, 0.4821358084916872 
