t, s[1].omega / s[0].omega 
0, -1.1999974340054185 
0.009999999999999995, -1.1996071506714434 
0.019999999999999934, -1.1989307258097566 
0.029999999999999874, -1.1979227903896184 
0.04000000000000012, -1.196556437729654 
0.050000000000000405, -1.1948571217334232 
0.06000000000000069, -1.1928964083961946 
0.07000000000000098, -1.1907438049045775 
0.08000000000000126, -1.1884353543820576 
0.09000000000000155, -1.1860389056521474 
0.10000000000000184, -1.1837823853101948 
0.11000000000000212, -1.182049818185821 
0.12000000000000241, -1.1811057313949425 
0.130000000000002, -1.1808047476342154 
0.1400000000000009, -1.1806692929181037 
0.1499999999999998, -1.180168258289292 
0.1599999999999987, -1.1788295957172925 
0.1699999999999976, -1.1762156291224461 
0.1799999999999965, -1.1719720121886685 
0.1899999999999954, -1.165998505187463 
0.1999999999999943, -1.1585425188235488 
0.2099999999999932, -1.1500308394155423 
0.2199999999999921, -1.1407874384026129 
0.229999999999991, -1.130891573191996 
0.2399999999999899, -1.1202044096085055 
0.2499999999999888, -1.1084759656482313 
0.2599999999999877, -1.0955285145820965 
0.2699999999999866, -1.0816029440853638 
0.2799999999999855, -1.0678325495414653 
0.2899999999999844, -1.056293426790478 
0.2999999999999833, -1.0488379664079712 
0.3099999999999822, -1.0455203518067127 
0.3199999999999811, -1.0447610243355552 
0.32999999999998, -1.0448465700250211 
0.3399999999999789, -1.0447007151413978 
0.3499999999999778, -1.0436770312707577 
0.35999999999997667, -1.0411157301471847 
0.36999999999997557, -1.0360315413516372 
0.37999999999997447, -1.027129886359087 
0.38999999999997337, -1.0134627116476753 
0.39999999999997227, -0.9954923109504528 
0.40999999999997117, -0.9751877035626043 
0.41999999999997006, -0.954682424859999 
0.42999999999996896, -0.9351586420136153 
0.43999999999996786, -0.9168719912124155 
0.44999999999996676, -0.8996549394053839 
0.45999999999996566, -0.8833211066332123 
0.46999999999996456, -0.8679000395412961 
0.47999999999996346, -0.8537560649196445 
0.48999999999996235, -0.8415624465282283 
0.49999999999996125, -0.8320517780156728 
0.5099999999999602, -0.8256002525428425 
0.519999999999959, -0.8219477044611976 
0.529999999999958, -0.8203176818111378 
0.5399999999999568, -0.8198036874955255 
0.5499999999999557, -0.8196706764455401 
0.5599999999999546, -0.8194251082034976 
0.5699999999999535, -0.8187505508324563 
0.5799999999999524, -0.8174467545410284 
0.5899999999999513, -0.8154385818249568 
0.5999999999999502, -0.8128272504206059 
0.6099999999999491, -0.8098836399987542 
0.619999999999948, -0.806930409336325 
0.6299999999999469, -0.8042012141129072 
0.6399999999999458, -0.8017858040181063 
0.6499999999999447, -0.7996597560103966 
0.6599999999999436, -0.7977430503180394 
0.6699999999999425, -0.795955417080286 
0.6799999999999414, -0.7942578323582203 
0.6899999999999403, -0.7926716031328029 
0.6999999999999392, -0.7912706973805429 
0.7099999999999381, -0.7901533638584148 
0.719999999999937, -0.7894077447963902 
0.7299999999999359, -0.7890883170336379 
0.7399999999999348, -0.7892117009933124 
0.7499999999999337, -0.7897654419596621 
0.7599999999999326, -0.7907164255992103 
0.7699999999999315, -0.7920138807344175 
0.7799999999999304, -0.793594308426171 
0.7899999999999293, -0.7953971331552764 
0.7999999999999282, -0.7973893391574151 
0.8099999999999271, -0.7995863953710576 
0.819999999999926, -0.802054987575192 
0.8299999999999249, -0.8048898469602902 
0.8399999999999238, -0.8081633692173377 
0.8499999999999227, -0.8118488079879732 
0.8599999999999216, -0.8157370800687056 
0.8699999999999205, -0.8194231292920244 
0.8799999999999194, -0.8224474208577611 
0.8899999999999183, -0.824520585532591 
0.8999999999999172, -0.8256224491542816 
0.9099999999999161, -0.8259252828253963 
0.919999999999915, -0.8256953072979829 
0.9299999999999139, -0.8253006179738385 
0.9399999999999128, -0.8253403627213702 
0.9499999999999117, -0.826817043618197 
0.9599999999999106, -0.8311482390236463 
0.9699999999999095, -0.8397576027426755 
0.9799999999999084, -0.8533206422625407 
0.9899999999999073, -0.8713161604129013 
0.9999999999999062, -0.8924025356406334 
1.0099999999999052, -0.9152402801085383 
1.019999999999904, -0.9390374886159369 
1.029999999999903, -0.9635929903055264 
1.039999999999902, -0.989008032834219 
1.0499999999999008, -1.0151888215428284 
1.0599999999998997, -1.0411837973160478 
1.0699999999998986, -1.0647861666756102 
1.0799999999998975, -1.0833725442048259 
1.0899999999998964, -1.095757800973073 
1.0999999999998953, -1.1028085891690347 
1.1099999999998942, -1.1062526100106793 
1.119999999999893, -1.107536636309171 
1.129999999999892, -1.1075825853699022 
1.1399999999998909, -1.1070627893760427 
1.1499999999998898, -1.1068436433375506 
1.1599999999998887, -1.108289952886527 
1.1699999999998876, -1.1127872587201857 
1.1799999999998865, -1.1204781398281978 
1.1899999999998854, -1.1299530793152353 
1.1999999999998843, -1.1395276390612294 
1.2099999999998832, -1.1482747728824103 
1.219999999999882, -1.1559983629659114 
1.229999999999881, -1.1628354013860724 
1.2399999999998799, -1.1689854226124299 
1.2499999999998788, -1.1745953591355331 
1.2599999999998777, -1.1797041620390147 
1.2699999999998766, -1.1842090484190393 
1.2799999999998755, -1.1878908017121803 
1.2899999999998744, -1.1905343297779645 
1.2999999999998733, -1.192074816248974 
1.3099999999998722, -1.1926427256246253 
1.319999999999871, -1.192507310247033 
1.32999999999987, -1.1920235942385211 
1.3399999999998689, -1.1915944746469127 
1.3499999999998678, -1.1915477295195522 
1.3599999999998666, -1.1919597941597102 
1.3699999999998655, -1.192662776305326 
1.3799999999998644, -1.1934610535275822 
1.3899999999998633, -1.1942797770027969 
1.3999999999998622, -1.1951097757064624 
1.4099999999998611, -1.1958845355702374 
1.41999999999986, -1.196456014213139 
1.429999999999859, -1.1966695919500228 
1.4399999999998578, -1.1964377974717464 
1.4499999999998567, -1.1957624799094384 
1.4599999999998556, -1.1947080586981953 
1.4699999999998545, -1.1933468517280674 
1.4799999999998534, -1.1917129865655274 
1.4899999999998523, -1.1897934457929664 
1.4999999999998512, -1.1875539959722219 
1.5099999999998501, -1.1849724307766296 
1.519999999999849, -1.1820472359401915 
1.529999999999848, -1.1787793993967783 
1.5399999999998468, -1.1751831363174303 
1.5499999999998457, -1.171393811442898 
1.5599999999998446, -1.1678190243535362 
1.5699999999998435, -1.165080559599009 
1.5799999999998424, -1.163573817913841 
1.5899999999998413, -1.163072764222195 
1.5999999999998402, -1.1629201914542326 
1.6099999999998391, -1.162448343988871 
1.619999999999838, -1.1610882973432335 
1.629999999999837, -1.1582504836280039 
1.6399999999998358, -1.1532920183871667 
1.6499999999998347, -1.1457513462124171 
1.6599999999998336, -1.1357050121411412 
1.6699999999998325, -1.123781494805641 
1.6799999999998314, -1.1107110146708012 
1.6899999999998303, -1.0969018240140094 
1.6999999999998292, -1.0823669032515097 
1.709999999999828, -1.0668832317380814 
1.719999999999827, -1.0502487712578874 
1.729999999999826, -1.0326627223474056 
1.7399999999998248, -1.0152120657802215 
1.7499999999998237, -1.000021491747898 
1.7599999999998226, -0.9892918756261215 
1.7699999999998215, -0.9836236175208095 
1.7799999999998204, -0.9816565783922341 
1.7899999999998193, -0.9814258139614696 
1.7999999999998182, -0.981513437119405 
1.809999999999817, -0.9811366834169984 
1.819999999999816, -0.9797679150356015 
1.8299999999998149, -0.9768029279687804 
1.8399999999998138, -0.97144857283833 
1.8499999999998127, -0.9629807069510582 
1.8599999999998116, -0.9513804304913471 
1.8699999999998105, -0.9377086601293569 
1.8799999999998094, -0.923524592695194 
1.8899999999998083, -0.9099621240155489 
1.8999999999998072, -0.8974392067841555 
1.909999999999806, -0.8859118466137602 
1.919999999999805, -0.8751835275682256 
1.9299999999998039, -0.8650908660185062 
1.9399999999998028, -0.8555972388601474 
1.9499999999998017, -0.8468407759977621 
1.9599999999998006, -0.8391346375199056 
1.9699999999997995, -0.832878816829328 
1.9799999999997984, -0.828370497282112 
1.9899999999997973, -0.8256086818686649 
1.9999999999997962, -0.8242528178496282 
2.0099999999998173, -0.823772895678043 
2.0199999999998384, -0.8236494808223096 
2.0299999999998595, -0.8234828492697073 
2.0399999999998806, -0.8230048492709345 
2.0499999999999017, -0.8220658234397902 
2.059999999999923, -0.8206445498541284 
2.069999999999944, -0.8188596824912528 
2.079999999999965, -0.8169265938430984 
2.089999999999986, -0.8150592619936722 
2.100000000000007, -0.81338734441319 
2.1100000000000283, -0.8119352952372809 
2.1200000000000494, -0.8106486740378536 
2.1300000000000705, -0.8094397997404362 
2.1400000000000916, -0.8082376921331719 
2.1500000000001127, -0.8070281253787546 
2.160000000000134, -0.8058692621705168 
2.170000000000155, -0.804878447906735 
2.180000000000176, -0.8041961771961214 
2.190000000000197, -0.8039408763169218 
2.2000000000002182, -0.8041754229413358 
2.2100000000002393, -0.8049020175612484 
2.2200000000002604, -0.8060814277893691 
2.2300000000002815, -0.8076565044436492 
2.2400000000003026, -0.8095660252782908 
2.2500000000003237, -0.8117523889493949 
2.260000000000345, -0.8141737805010291 
2.270000000000366, -0.8168226642695642 
2.280000000000387, -0.8197399176665486 
2.290000000000408, -0.8230101537028709 
2.3000000000004293, -0.82672846895147 
2.3100000000004504, -0.8309328944614514 
2.3200000000004715, -0.8355059571925837 
2.3300000000004926, -0.8400956599612691 
2.3400000000005137, -0.8441737691889374 
2.3500000000005348, -0.8472756421447393 
2.360000000000556, -0.8492246577718661 
2.370000000000577, -0.8501319010940739 
2.380000000000598, -0.8502540886592269 
2.390000000000619, -0.8499132701630854 
2.4000000000006403, -0.8495619682867082 
2.4100000000006614, -0.8499616263606626 
2.4200000000006825, -0.8523340492242897 
2.4300000000007036, -0.8581988978136792 
2.4400000000007247, -0.8687024609840694 
2.450000000000746, -0.8838576632155423 
2.460000000000767, -0.9025176484434068 
2.470000000000788, -0.9231559223272952 
2.480000000000809, -0.9446517312076563 
2.49000000000083, -0.9665405814896152 
2.5000000000008513, -0.9888341599042662 
2.5100000000008724, -1.011647612095922 
2.5200000000008935, -1.0347016381796428 
2.5300000000009146, -1.056799556542304 
2.5400000000009357, -1.0758362929400473 
2.550000000000957, -1.0899472411489184 
2.560000000000978, -1.0988406062303633 
2.570000000000999, -1.1036467906017178 
2.58000000000102, -1.1057994313749464 
2.5900000000010412, -1.1063696132997358 
2.6000000000010624, -1.1060751854852178 
2.6100000000010835, -1.1056118653813 
2.6200000000011046, -1.1060275108066502 
2.6300000000011257, -1.1086786754108409 
2.6400000000011468, -1.1143273302822005 
2.650000000001168, -1.1222880459830353 
2.660000000001189, -1.131025846799662 
2.67000000000121, -1.1393555597822438 
2.680000000001231, -1.146823866833603 
2.6900000000012523, -1.1534381341851023 
2.7000000000012734, -1.1593584850721774 
2.7100000000012945, -1.1647428577303591 
2.7200000000013156, -1.169682320028063 
2.7300000000013367, -1.1741574519846742 
2.740000000001358, -1.178018759061595 
2.750000000001379, -1.1810408883222652 
2.7600000000014, -1.183056071050513 
2.770000000001421, -1.184066845576877 
2.780000000001442, -1.184248715715514 
2.7900000000014633, -1.1838929593610286 
2.8000000000014844, -1.1833675165426327 
2.8100000000015055, -1.1830508705923626 
2.8200000000015266, -1.1831707921716195 
2.8300000000015477, -1.1836861816539015 
2.840000000001569, -1.1844006515814567 
2.85000000000159, -1.1851735954756832 
2.860000000001611, -1.1859757131102584 
2.870000000001632, -1.186783918449096 
2.8800000000016532, -1.1874914028882997 
2.8900000000016743, -1.1879359021295735 
2.9000000000016954, -1.1879846421603468 
2.9100000000017165, -1.1875879957084494 
2.9200000000017377, -1.1867798193327668 
2.9300000000017588, -1.1856356132364039 
2.94000000000178, -1.184216551870177 
2.950000000001801, -1.1825365942868307 
2.960000000001822, -1.1805698744282516 
2.970000000001843, -1.1782845518696974 
2.9800000000018643, -1.1756711205373207 
2.9900000000018854, -1.1727391067661026 
3.0000000000019065, -1.169497422309702 
3.0100000000019276, -1.1659863044880443 
3.0200000000019487, -1.1624036419569355 
3.03000000000197, -1.1592131077691232 
3.040000000001991, -1.15697675128551 
3.050000000002012, -1.1558958056390811 
3.060000000002033, -1.1555910131430875 
3.070000000002054, -1.155405807483754 
3.0800000000020753, -1.1547360306152314 
3.0900000000020964, -1.1530497844319318 
3.1000000000021175, -1.1497911605188553 
3.1100000000021386, -1.1444364151507558 
3.1200000000021597, -1.1367685620407995 
3.130000000002181, -1.1270977028351896 
3.140000000002202, -1.1160754402105302 
3.150000000002223, -1.1042589063145 
3.160000000002244, -1.0918641506356692 
3.1700000000022652, -1.0788020650128178 
3.1800000000022863, -1.064844125412166 
3.1900000000023074, -1.0498574341217872 
3.2000000000023285, -1.0341609920169483 
3.2100000000023496, -1.0189370629163688 
3.2200000000023707, -1.006199885763997 
3.230000000002392, -0.9977122849121287 
3.240000000002413, -0.9935872931322354 
3.250000000002434, -0.9923603765322844 
3.260000000002455, -0.992311097280178 
3.2700000000024763, -0.9922873787807986 
3.2800000000024974, -0.9916305286141421 
3.2900000000025185, -0.9898100881756058 
3.3000000000025396, -0.9861601473693653 
3.3100000000025607, -0.9798753125485973 
3.3200000000025818, -0.9704133770308132 
3.330000000002603, -0.9581220737675524 
3.340000000002624, -0.9442959110866902 
3.350000000002645, -0.9303708259743686 
3.360000000002666, -0.9171928387120779 
3.3700000000026873, -0.904974855644203 
3.3800000000027084, -0.8935985527656157 
3.3900000000027295, -0.8828756818096005 
3.4000000000027506, -0.8726956342367984 
3.4100000000027717, -0.8631070293366843 
3.420000000002793, -0.8543586175216487 
3.430000000002814, -0.8468688887577219 
3.440000000002835, -0.8410743623997791 
3.450000000002856, -0.8371881794430347 
3.460000000002877, -0.835036756437289 
3.4700000000028983, -0.8341249720491751 
3.4800000000029194, -0.8338614232225947 
3.4900000000029405, -0.8337445449836881 
3.5000000000029616, -0.8334186895912838 
3.5100000000029827, -0.8326561349555874 
3.520000000003004, -0.8313487016497492 
3.530000000003025, -0.8295308397865861 
3.540000000003046, -0.8273813593126329 
3.550000000003067, -0.825149697143201 
3.5600000000030882, -0.8230434564907128 
3.5700000000031094, -0.8211619403571071 
3.5800000000031305, -0.8194996488727077 
3.5900000000031516, -0.8179877037159897 
3.6000000000031727, -0.8165450647163974 
3.6100000000031938, -0.8151252102567721 
3.620000000003215, -0.8137444787744064 
3.630000000003236, -0.8124823002026427 
3.640000000003257, -0.8114550523371278 
3.650000000003278, -0.8107757957789055 
3.6600000000032993, -0.8105193456808581 
3.6700000000033204, -0.810710007756368 
3.6800000000033415, -0.8113324187576838 
3.6900000000033626, -0.8123488169271388 
3.7000000000033837, -0.8137081192561639 
3.710000000003405, -0.8153489392454596 
3.720000000003426, -0.8172087800886769 
3.730000000003447, -0.8192445798424408 
3.740000000003468, -0.8214553126235031 
3.750000000003489, -0.8238904840742233 
3.7600000000035103, -0.8266333152534117 
3.7700000000035314, -0.8297561674878114 
3.7800000000035525, -0.8332504096801795 
3.7900000000035736, -0.8369470120898402 
3.8000000000035947, -0.840489970036608 
3.810000000003616, -0.8434463140524688 
3.820000000003637, -0.8455142132155071 
3.830000000003658, -0.8466424125441977 
3.840000000003679, -0.8469804537305657 
3.8500000000037002, -0.8467853587254254 
3.8600000000037213, -0.846416184408555 
3.8700000000037424, -0.8464339313664111 
3.8800000000037635, -0.8477180253056756 
3.8900000000037847, -0.851406706870948 
3.9000000000038058, -0.8584916475525294 
3.910000000003827, -0.8692549544069896 
3.920000000003848, -0.883094654962466 
3.930000000003869, -0.8989530394254087 
3.94000000000389, -0.9159122578004018 
3.9500000000039113, -0.9334990149743637 
3.9600000000039324, -0.9516599421508454 
3.9700000000039535, -0.9705624360041595 
3.9800000000039746, -0.99028569171741 
3.9900000000039957, -1.0103781846580293 
4.000000000004016, -1.029451807811395 
4.010000000003993, -1.0454513681202269 
4.02000000000397, -1.056907695079864 
4.030000000003946, -1.0638889133004061 
4.040000000003923, -1.0675199849829715 
4.0500000000039, -1.0690053819865406 
4.0600000000038765, -1.0692057863860964 
4.070000000003853, -1.068748160066907 
4.08000000000383, -1.0683788747093512 
4.090000000003807, -1.0693146900837236 
4.100000000003783, -1.0730658097090187 
4.11000000000376, -1.080349232916882 
4.120000000003737, -1.0902510794337839 
4.130000000003713, -1.1010078812276047 
4.14000000000369, -1.1113045732220759 
4.150000000003667, -1.1206466925572625 
4.1600000000036434, -1.1290539133982125 
4.17000000000362, -1.1367195241263808 
4.180000000003597, -1.1438233838182141 
4.1900000000035735, -1.1504352983082458 
4.20000000000355, -1.1564509820382403 
4.210000000003527, -1.1615908200684022 
4.220000000003504, -1.1655289442734937 
4.23000000000348, -1.1681027585107782 
4.240000000003457, -1.1694135967265562 
4.250000000003434, -1.1697517264315647 
4.26000000000341, -1.1694940795709976 
4.270000000003387, -1.1690816709773257 
4.280000000003364, -1.1689858772684096 
4.2900000000033405, -1.1695264705907036 
4.300000000003317, -1.1706754865606026 
4.310000000003294, -1.1721448902032567 
4.320000000003271, -1.1736661439973752 
4.330000000003247, -1.1751226456910808 
4.340000000003224, -1.176476396736519 
4.350000000003201, -1.177664687686889 
4.360000000003177, -1.1785907917256429 
4.370000000003154, -1.1791799218292625 
4.380000000003131, -1.1794189870466334 
4.390000000003107, -1.1793476615233174 
4.400000000003084, -1.179016084469605 
4.410000000003061, -1.1784429363719444 
4.4200000000030375, -1.1776029447796668 
4.430000000003014, -1.1764512046110254 
4.440000000002991, -1.1749666714522777 
4.450000000002968, -1.1731816963989046 
4.460000000002944, -1.1711695451065132 
4.470000000002921, -1.1689966183424398 
4.480000000002898, -1.166702648504033 
4.490000000002874, -1.1643734456665942 
4.500000000002851, -1.162249635100618 
4.510000000002828, -1.1606861867779985 
4.520000000002804, -1.1598804134188583 
4.530000000002781, -1.159643849052073 
4.540000000002758, -1.1595122723733193 
4.5500000000027345, -1.1589937199555445 
4.560000000002711, -1.15766144153338 
4.570000000002688, -1.1551472999789736 
4.580000000002665, -1.1512058216658017 
4.590000000002641, -1.1458481992666347 
4.600000000002618, -1.1393622520551876 
4.610000000002595, -1.1321266740468947 
4.620000000002571, -1.1243930051582856 
4.630000000002548, -1.1162089042597194 
4.640000000002525, -1.1074623366527034 
4.6500000000025015, -1.0979681757314927 
4.660000000002478, -1.0875956687388153 
4.670000000002455, -1.0765032276665074 
4.6800000000024315, -1.065472659007923 
4.690000000002408, -1.0560011477705298 
4.700000000002385, -1.0495744029407001 
4.710000000002362, -1.0464692013720842 
4.720000000002338, -1.04560531510126 
4.730000000002315, -1.0455785330708665 
4.740000000002292, -1.0453963258396919 
4.750000000002268, -1.044426129841652 
4.760000000002245, -1.0420613261716578 
4.770000000002222, -1.0374868908432364 
4.7800000000021985, -1.0297562136669498 
4.790000000002175, -1.0183457155263027 
4.800000000002152, -1.0038270550461061 
4.810000000002129, -0.9877079461282792 
4.820000000002105, -0.9714442978899275 
4.830000000002082, -0.9557848250583355 
4.840000000002059, -0.9408541860259314 
4.850000000002035, -0.9265011328567125 
4.860000000002012, -0.9125794934264164 
4.870000000001989, -0.8991364249503704 
4.880000000001965, -0.8865395741969762 
4.890000000001942, -0.8754891062444077 
4.900000000001919, -0.8667942650409628 
4.9100000000018955, -0.8609302914794134 
4.920000000001872, -0.8577018959837724 
4.930000000001849, -0.8563506584927886 
