t, s[1].omega / s[0].omega 
0, -1.1605251755479586 
0.009999999999999995, -1.2083511188747142 
0.019999999999999934, -1.2451723799400656 
0.029999999999999874, -1.269907734261479 
0.04000000000000012, -1.2842842165058808 
0.050000000000000405, -1.2916370598916351 
0.06000000000000069, -1.2949355144322725 
0.07000000000000098, -1.2960497393147468 
0.08000000000000126, -1.296020966815408 
0.09000000000000155, -1.2955815168020135 
0.10000000000000184, -1.2955616747299668 
0.11000000000000212, -1.296802904262225 
0.12000000000000241, -1.2994846771703519 
0.130000000000002, -1.3029181140425763 
0.1400000000000009, -1.3062895541823276 
0.1499999999999998, -1.3092126770907861 
0.1599999999999987, -1.311632988652525 
0.1699999999999976, -1.3135753232213847 
0.1799999999999965, -1.3150440680873294 
0.1899999999999954, -1.3160411407150105 
0.1999999999999943, -1.3165881741483452 
0.2099999999999932, -1.3167142983248992 
0.2199999999999921, -1.3164304511783822 
0.229999999999991, -1.3157194515862134 
0.2399999999999899, -1.3145530981525009 
0.2499999999999888, -1.3129227807281083 
0.2599999999999877, -1.3108541631067085 
0.2699999999999866, -1.308382421978216 
0.2799999999999855, -1.3055148260581197 
0.2899999999999844, -1.3022853499004723 
0.2999999999999833, -1.2989586503671817 
0.3099999999999822, -1.2961599508893236 
0.3199999999999811, -1.2945074169333821 
0.32999999999998, -1.2939628329648105 
0.3399999999999789, -1.2938510155633653 
0.3499999999999778, -1.2934103314992926 
0.35999999999997667, -1.2919577033989509 
0.36999999999997557, -1.288606918982253 
0.37999999999997447, -1.2819123462024453 
0.38999999999997337, -1.2697996206450197 
0.39999999999997227, -1.2502180400546803 
0.40999999999997117, -1.2223181095157603 
0.41999999999997006, -1.1867805253358032 
0.42999999999996896, -1.1447730604318562 
0.43999999999996786, -1.0970503706533543 
0.44999999999996676, -1.0444266669685123 
0.45999999999996566, -0.989441711071599 
0.46999999999996456, -0.9377798983183917 
0.47999999999996346, -0.8967376158996894 
0.48999999999996235, -0.8704734370103276 
0.49999999999996125, -0.8573652892685943 
0.5099999999999602, -0.8525389326936287 
0.519999999999959, -0.8515601506759529 
0.529999999999958, -0.8518103346516558 
0.5399999999999568, -0.8520838144672828 
0.5499999999999557, -0.8518552763257228 
0.5599999999999546, -0.8507882556697458 
0.5699999999999535, -0.8484908994547992 
0.5799999999999524, -0.8444644783552387 
0.5899999999999513, -0.838287077646538 
0.5999999999999502, -0.8300133956472722 
0.6099999999999491, -0.8204117028866964 
0.619999999999948, -0.8106110660048435 
0.6299999999999469, -0.8014798063194547 
0.6399999999999458, -0.7933741800524061 
0.6499999999999447, -0.7862836540216098 
0.6599999999999436, -0.7800527015735026 
0.6699999999999425, -0.7745196226675211 
0.6799999999999414, -0.7695745001547244 
0.6899999999999403, -0.7651719189585334 
0.6999999999999392, -0.7613227838511284 
0.7099999999999381, -0.7580769660106961 
0.719999999999937, -0.7554992598925517 
0.7299999999999359, -0.7536376091279144 
0.7399999999999348, -0.7524886420622021 
0.7499999999999337, -0.7519759106608356 
0.7599999999999326, -0.7519561629828316 
0.7699999999999315, -0.7522528581227204 
0.7799999999999304, -0.752699539889202 
0.7899999999999293, -0.7531756024825625 
0.7999999999999282, -0.7536276693675414 
0.8099999999999271, -0.7540743890585666 
0.819999999999926, -0.7545902953665975 
0.8299999999999249, -0.7552691955982472 
0.8399999999999238, -0.7561784859737882 
0.8499999999999227, -0.7573174710800087 
0.8599999999999216, -0.7585904013690098 
0.8699999999999205, -0.7598143824525971 
0.8799999999999194, -0.7607807993589228 
0.8899999999999183, -0.7613439917054853 
0.8999999999999172, -0.7614742748296032 
0.9099999999999161, -0.7612552452556524 
0.919999999999915, -0.7608691837872891 
0.9299999999999139, -0.7606143338507747 
0.9399999999999128, -0.7609515450948964 
0.9499999999999117, -0.7625290551636099 
0.9599999999999106, -0.766110027357349 
0.9699999999999095, -0.7723730841795236 
0.9799999999999084, -0.7816808673816528 
0.9899999999999073, -0.7939918249541387 
0.9999999999999062, -0.8089923638587868 
1.0099999999999052, -0.8263455555922581 
1.019999999999904, -0.8458929948061906 
1.029999999999903, -0.8677153614789249 
1.039999999999902, -0.8920053715272793 
1.0499999999999008, -0.9186662974052924 
1.0599999999998997, -0.9465806410454742 
1.0699999999998986, -0.9730293051980163 
1.0799999999998975, -0.9945542321173912 
1.0899999999998964, -1.0092750841893563 
1.0999999999998953, -1.0178804007348863 
1.1099999999998942, -1.022282321909356 
1.119999999999893, -1.0241597373802425 
1.129999999999892, -1.0245519412008486 
1.1399999999998909, -1.0240536668905598 
1.1499999999998898, -1.0231969647444417 
1.1599999999998887, -1.0229909459619548 
1.1699999999998876, -1.02550487092635 
1.1799999999998865, -1.0336071251750298 
1.1899999999998854, -1.0488825125485963 
1.1999999999998843, -1.0696612280549798 
1.2099999999998832, -1.0923127447419296 
1.219999999999882, -1.1140141543699908 
1.229999999999881, -1.133669149696713 
1.2399999999998799, -1.151258908322618 
1.2499999999998788, -1.167052895820963 
1.2599999999998777, -1.1811442440175972 
1.2699999999998766, -1.1932726601113008 
1.2799999999998755, -1.202944787416147 
1.2899999999998744, -1.2098289382327343 
1.2999999999998733, -1.2140836853277013 
1.3099999999998722, -1.2162748285736857 
1.319999999999871, -1.2170564423976895 
1.32999999999987, -1.2169909157084005 
1.3399999999998689, -1.2165944310549919 
1.3499999999998678, -1.21643850201535 
1.3599999999998666, -1.2170468606223934 
1.3699999999998655, -1.2185651319081119 
1.3799999999998644, -1.2206669198057996 
1.3899999999998633, -1.2228994795681776 
1.3999999999998622, -1.224994728651887 
1.4099999999998611, -1.2268651730194668 
1.41999999999986, -1.2284701506623654 
1.429999999999859, -1.2297542393855891 
1.4399999999998578, -1.230670791343688 
1.4499999999998567, -1.2312122291864929 
1.4599999999998556, -1.2314045942754188 
1.4699999999998545, -1.2312759835409375 
1.4799999999998534, -1.2308278567897415 
1.4899999999998523, -1.2300325335673876 
1.4999999999998512, -1.2288594520403515 
1.5099999999998501, -1.2273103814165043 
1.519999999999849, -1.225434244544632 
1.529999999999848, -1.2233031103096896 
1.5399999999998468, -1.220971961196876 
1.5499999999998457, -1.2184975487388938 
1.5599999999998446, -1.2160522469105464 
1.5699999999998435, -1.213999282023305 
1.5799999999998424, -1.2127097632367225 
1.5899999999998413, -1.2122059987916347 
1.5999999999998402, -1.2120891470273303 
1.6099999999998391, -1.2118155710703815 
1.619999999999838, -1.2108865770599198 
1.629999999999837, -1.20881034234563 
1.6399999999998358, -1.2050444898905117 
1.6499999999998347, -1.1991057859369691 
1.6599999999998336, -1.1908205255417181 
1.6699999999998325, -1.1804331386545013 
1.6799999999998314, -1.168377595737764 
1.6899999999998303, -1.1549375256584233 
1.6999999999998292, -1.1400977113866966 
1.709999999999828, -1.123629229428087 
1.719999999999827, -1.1053757964281832 
1.729999999999826, -1.085800427749438 
1.7399999999998248, -1.0666722287025077 
1.7499999999998237, -1.0510035049189708 
1.7599999999998226, -1.0412007808624808 
1.7699999999998215, -1.0370066124417157 
1.7799999999998204, -1.0361314522916794 
1.7899999999998193, -1.0363769126887818 
1.7999999999998182, -1.0365062460699572 
1.809999999999817, -1.035900508859296 
1.819999999999816, -1.034014866309524 
1.8299999999998149, -1.0299680993275628 
1.8399999999998138, -1.0222934240468893 
1.8499999999998127, -1.00914494480061 
1.8599999999998116, -0.9894553841337979 
1.8699999999998105, -0.9644016657835236 
1.8799999999998094, -0.9370462964770045 
1.8899999999998083, -0.9102289141384281 
1.8999999999998072, -0.8853486450968125 
1.909999999999806, -0.8626891860200265 
1.919999999999805, -0.8421331887367461 
1.9299999999998039, -0.8236216597788095 
1.9399999999998028, -0.8073344634886693 
1.9499999999998017, -0.7936653722622887 
1.9599999999998006, -0.7830273013085756 
1.9699999999997995, -0.775572174298566 
1.9799999999997984, -0.7710070712097317 
1.9899999999997973, -0.7686546863035923 
1.9999999999997962, -0.7677024585565309 
2.0099999999998173, -0.7674405184775022 
2.0199999999998384, -0.7673597856876786 
2.0299999999998595, -0.7671310776107425 
2.0399999999998806, -0.7665499739631737 
2.0499999999999017, -0.7655103041630068 
2.059999999999923, -0.7640181394449055 
2.069999999999944, -0.7622054204099686 
2.079999999999965, -0.7602879601025611 
2.089999999999986, -0.758473074283555 
2.100000000000007, -0.7568840857993615 
2.1100000000000283, -0.755542795887602 
2.1200000000000494, -0.754394500304022 
2.1300000000000705, -0.7533498040198957 
2.1400000000000916, -0.7523303152849956 
2.1500000000001127, -0.751306834560612 
2.160000000000134, -0.7503185217615658 
2.170000000000155, -0.7494705383609392 
2.180000000000176, -0.7489142867109208 
2.190000000000197, -0.7488139564425884 
2.2000000000002182, -0.7493063595776895 
2.2100000000002393, -0.7504693908692897 
2.2200000000002604, -0.7523144021569999 
2.2300000000002815, -0.7548037697411665 
2.2400000000003026, -0.7578808017886789 
2.2500000000003237, -0.761498584207734 
2.260000000000345, -0.7656431992911601 
2.270000000000366, -0.7703521902688621 
2.280000000000387, -0.7757261000125922 
2.290000000000408, -0.7819228815446264 
2.3000000000004293, -0.7891140756930334 
2.3100000000004504, -0.7973685375127888 
2.3200000000004715, -0.8064443865644065 
2.3300000000004926, -0.8155977103058651 
2.3400000000005137, -0.8237159092050795 
2.3500000000005348, -0.8298916932835112 
2.360000000000556, -0.8338981231068907 
2.370000000000577, -0.8360734284478497 
2.380000000000598, -0.8369147917489574 
2.390000000000619, -0.8368325711103154 
2.4000000000006403, -0.8361480316007557 
2.4100000000006614, -0.8352829632574101 
2.4200000000006825, -0.835188598076722 
2.4300000000007036, -0.838116170940746 
2.4400000000007247, -0.8484876170184339 
2.450000000000746, -0.8725587554416382 
2.460000000000767, -0.9149612164962455 
2.470000000000788, -0.9736014295711138 
2.480000000000809, -1.0396113575064274 
2.49000000000083, -1.1037886483553745 
2.5000000000008513, -1.1612374225687372 
2.5100000000008724, -1.2105241556736772 
2.5200000000008935, -1.251147957860184 
2.5300000000009146, -1.282385873861798 
2.5400000000009357, -1.3039423272736823 
2.550000000000957, -1.3170038368671226 
2.560000000000978, -1.3239597246734447 
2.570000000000999, -1.3271782535298358 
2.58000000000102, -1.3282984797145407 
2.5900000000010412, -1.3283022090943637 
2.6000000000010624, -1.3278982169230003 
2.6100000000010835, -1.3278308907107856 
2.6200000000011046, -1.328745342334286 
2.6300000000011257, -1.3306734861319787 
2.6400000000011468, -1.3330391502135186 
2.650000000001168, -1.3352876319728753 
2.660000000001189, -1.3372096347792646 
2.67000000000121, -1.3387871426692883 
2.680000000001231, -1.339993042323508 
2.6900000000012523, -1.3407574438091214 
2.7000000000012734, -1.3410236143109227 
2.7100000000012945, -1.3407811904428926 
2.7200000000013156, -1.3400539744874558 
2.7300000000013367, -1.3388656504738718 
2.740000000001358, -1.3372127061703831 
2.750000000001379, -1.335062278406912 
2.7600000000014, -1.3323671868078817 
2.770000000001421, -1.3290702065047801 
2.780000000001442, -1.3250864663219224 
2.7900000000014633, -1.3203330465261205 
2.8000000000014844, -1.314947137236241 
2.8100000000015055, -1.3096648507090816 
2.8200000000015266, -1.3057628687111178 
2.8300000000015477, -1.3039693113440232 
2.840000000001569, -1.3036588519352321 
2.85000000000159, -1.303644696338197 
2.860000000001611, -1.303006578077634 
2.870000000001632, -1.3009102946085531 
2.8800000000016532, -1.2959032116008846 
2.8900000000016743, -1.2849097393265818 
2.9000000000016954, -1.2621435243052037 
2.9100000000017165, -1.2197339745535576 
2.9200000000017377, -1.1529344463905304 
2.9300000000017588, -1.0663223834519513 
2.94000000000178, -0.9715465711880121 
2.950000000001801, -0.8798153086324791 
2.960000000001822, -0.7986386805794561 
2.970000000001843, -0.7321994083335556 
2.9800000000018643, -0.681878752850839 
2.9900000000018854, -0.646628498190411 
3.0000000000019065, -0.6237691930336945 
3.0100000000019276, -0.6100420015972013 
3.0200000000019487, -0.6024373552858695 
3.03000000000197, -0.5986005429003706 
3.040000000001991, -0.5968928453611679 
3.050000000002012, -0.5962696436557453 
3.060000000002033, -0.5961057069979202 
3.070000000002054, -0.5960407497767422 
3.0800000000020753, -0.5958737037424854 
3.0900000000020964, -0.5955088451816937 
3.1000000000021175, -0.5949414803301615 
3.1100000000021386, -0.5942556601716721 
3.1200000000021597, -0.5936013102784946 
3.130000000002181, -0.5931429458780589 
3.140000000002202, -0.5930064928112058 
3.150000000002223, -0.5932479118106283 
3.160000000002244, -0.5938387003165919 
3.1700000000022652, -0.5946598780315606 
3.1800000000022863, -0.595520020530186 
3.1900000000023074, -0.5962147502301981 
3.2000000000023285, -0.5966019632480022 
3.2100000000023496, -0.5966412973889271 
3.2200000000023707, -0.5963887193823347 
3.230000000002392, -0.5959886108343806 
3.240000000002413, -0.595711956644611 
3.250000000002434, -0.5960785682608645 
3.260000000002455, -0.598107149145746 
3.2700000000024763, -0.6037512706184675 
3.2800000000024974, -0.6165555192289646 
3.2900000000025185, -0.6423839924437396 
3.3000000000025396, -0.689466160540058 
3.3100000000025607, -0.7658625183481707 
3.3200000000025818, -0.8727873602859896 
3.330000000002603, -0.9986990687971191 
3.340000000002624, -1.1241378939417603 
3.350000000002645, -1.2330046843656015 
3.360000000002666, -1.3168562586520862 
3.3700000000026873, -1.373694751426443 
3.3800000000027084, -1.4071617554139668 
3.3900000000027295, -1.4244476448708487 
3.4000000000027506, -1.43248195729881 
3.4100000000027717, -1.4358094734158333 
3.420000000002793, -1.4368173575402312 
3.430000000002814, -1.4367069305320272 
3.440000000002835, -1.4363049001801895 
3.450000000002856, -1.4364335796830177 
3.460000000002877, -1.4375676991706314 
3.4700000000028983, -1.4393791885047829 
3.4800000000029194, -1.4412094216579896 
3.4900000000029405, -1.4427317440053193 
3.5000000000029616, -1.4439339173008694 
3.5100000000029827, -1.44480946066521 
3.520000000003004, -1.4452391524719488 
3.530000000003025, -1.445065079027724 
3.540000000003046, -1.4441670409797527 
3.550000000003067, -1.442482075129703 
3.5600000000030882, -1.4399848137799034 
3.5700000000031094, -1.4366391065733342 
3.5800000000031305, -1.43234046093368 
3.5900000000031516, -1.4268628074783334 
3.6000000000031727, -1.419798711064726 
3.6100000000031938, -1.4105348177599413 
3.620000000003215, -1.3985472731055715 
3.630000000003236, -1.3845954940972587 
3.640000000003257, -1.372277850526817 
3.650000000003278, -1.365801879121816 
3.6600000000032993, -1.3646918574957998 
3.6700000000033204, -1.3654251079090276 
3.6800000000033415, -1.3657661776567953 
3.6900000000033626, -1.3647818232576205 
3.7000000000033837, -1.3612493912043475 
3.710000000003405, -1.3514330013416622 
3.720000000003426, -1.3223393379754644 
3.730000000003447, -1.2251822470380271 
3.740000000003468, -0.9082876097232118 
3.750000000003489, -0.3526480311906568 
3.7600000000035103, -0.03145426726664629 
3.7700000000035314, 0.07402655192777666 
3.7800000000035525, 0.11055682973801984 
3.7900000000035736, 0.12547786010739959 
3.8000000000035947, 0.13238001632561008 
3.810000000003616, 0.13579994842670753 
3.820000000003637, 0.13751223570717608 
3.830000000003658, 0.13831593793356511 
3.840000000003679, 0.13861787078532922 
3.8500000000037002, 0.1386475015560176 
3.8600000000037213, 0.13855052216504785 
3.8700000000037424, 0.13845305357173313 
3.8800000000037635, 0.13856229742656917 
3.8900000000037847, 0.1394465764545454 
3.9000000000038058, 0.14297734267400977 
3.910000000003827, 0.15543030251857576 
3.920000000003848, 0.19412460717157215 
3.930000000003869, 0.2779453762343639 
3.94000000000389, 0.3713458581003626 
3.9500000000039113, 0.4256770187877601 
3.9600000000039324, 0.44892257615334363 
3.9700000000039535, 0.4584399751315032 
3.9800000000039746, 0.4623293981612718 
3.9900000000039957, 0.46360008871035846 
4.000000000004016, 0.4632728437411105 
4.010000000003993, 0.46153426543187737 
4.02000000000397, 0.4581706611090509 
4.030000000003946, 0.4529054553615944 
4.040000000003923, 0.44591824628500526 
4.0500000000039, 0.43827590771927116 
4.0600000000038765, 0.4315175427732111 
4.070000000003853, 0.42660602295762323 
4.08000000000383, 0.4235524606040529 
4.090000000003807, 0.42187130308184156 
4.100000000003783, 0.42104244838969446 
4.11000000000376, 0.4206641945176458 
4.120000000003737, 0.4204339192138268 
4.130000000003713, 0.4200880658701882 
4.14000000000369, 0.4193311512744651 
4.150000000003667, 0.41771093723183544 
4.1600000000036434, 0.4142958543377454 
4.17000000000362, 0.40664603568376956 
4.180000000003597, 0.3867281665042166 
4.1900000000035735, 0.3192386633963641 
4.20000000000355, -0.009836472211261401 
4.210000000003527, -1.1769682377828394 
4.220000000003504, -1.813597836587045 
4.23000000000348, -1.9263483710275462 
4.240000000003457, -1.9497607161633332 
4.250000000003434, -1.9557171261602924 
4.26000000000341, -1.9570130019749385 
4.270000000003387, -1.9567814456786707 
4.280000000003364, -1.9564501750739178 
4.2900000000033405, -1.9567754607154129 
4.300000000003317, -1.9572913446493234 
4.310000000003294, -1.9574186524659052 
4.320000000003271, -1.957364994094491 
4.330000000003247, -1.9573206670935388 
4.340000000003224, -1.9567526520865222 
4.350000000003201, -1.9545328231166945 
4.360000000003177, -1.9481321893189354 
4.370000000003154, -1.9299866694354293 
4.380000000003131, -1.8752093600014508 
4.390000000003107, -1.7008678434646562 
4.400000000003084, -1.2175730522168553 
4.410000000003061, -0.5528130003965324 
4.4200000000030375, -0.2011583302374047 
4.430000000003014, -0.07512835129854352 
4.440000000002991, -0.026838409543260427 
4.450000000002968, -0.005462985255182979 
4.460000000002944, 0.00494047369656489 
4.470000000002921, 0.010242055449537782 
4.480000000002898, 0.012987221804324042 
4.490000000002874, 0.014198176041971503 
4.500000000002851, 0.014293731736951188 
4.510000000002828, 0.013338907023219073 
4.520000000002804, 0.011075970212532432 
4.530000000002781, 0.006763571133365844 
4.540000000002758, -0.0012930658698150342 
4.5500000000027345, -0.01705300070562441 
4.560000000002711, -0.05268651086177519 
4.570000000002688, -0.14549982435788258 
4.580000000002665, -0.41930674600558604 
4.590000000002641, -1.0632147787028745 
4.600000000002618, -1.656887210132302 
4.610000000002595, -1.892163755074701 
4.620000000002571, -1.9719634555167667 
4.630000000002548, -2.0009567828291956 
4.640000000002525, -2.0119025860362245 
4.6500000000025015, -2.015838608961674 
4.660000000002478, -2.0168149787163703 
4.670000000002455, -2.0164492227291024 
4.6800000000024315, -2.0155166539067424 
4.690000000002408, -2.0142131053611925 
4.700000000002385, -2.0122373742389397 
4.710000000002362, -2.0098600385920387 
4.720000000002338, -2.0084839475831204 
4.730000000002315, -2.008334230855681 
4.740000000002292, -2.007818986545546 
4.750000000002268, -2.004952570469556 
4.760000000002245, -1.9939101902955279 
4.770000000002222, -1.9402236160210733 
4.7800000000021985, -1.5259482517897793 
4.790000000002175, 0.7611238862432411 
4.800000000002152, 1.3818724266119566 
4.810000000002129, 1.4223827103381241 
4.820000000002105, 1.4289951690432043 
4.830000000002082, 1.4299533701361575 
4.840000000002059, 1.4281421873760727 
4.850000000002035, 1.421155033356111 
4.860000000002012, 1.395233232795286 
4.870000000001989, 1.3106669799713762 
4.880000000001965, 1.2464456995867268 
4.890000000001942, 1.2603837114249914 
4.900000000001919, 1.2711326819932918 
4.9100000000018955, 1.274901462268271 
4.920000000001872, 1.275552719930452 
4.930000000001849, 1.2741234407698105 
