t, s[1].omega / s[0].omega 
0, -1.0201003744207549 
0.009999999999999995, -1.029955545774484 
0.019999999999999934, -1.0390071550839484 
0.029999999999999874, -1.0465019073130852 
0.04000000000000012, -1.0519214403334245 
0.050000000000000405, -1.0552711134807535 
0.06000000000000069, -1.056956205146213 
0.07000000000000098, -1.0574812176960915 
0.08000000000000126, -1.0573026571249553 
0.09000000000000155, -1.0568904676663433 
0.10000000000000184, -1.056875545495453 
0.11000000000000212, -1.058053127995395 
0.12000000000000241, -1.0610260463315622 
0.130000000000002, -1.065736988935748 
0.1400000000000009, -1.0715099113909874 
0.1499999999999998, -1.0775734775253518 
0.1599999999999987, -1.0834433757317352 
0.1699999999999976, -1.0889409309596663 
0.1799999999999965, -1.0940588834799756 
0.1899999999999954, -1.0988513647640001 
0.1999999999999943, -1.103371496785298 
0.2099999999999932, -1.1076226868656127 
0.2199999999999921, -1.1115134981059545 
0.229999999999991, -1.1148494699345703 
0.2399999999999899, -1.1174040470111017 
0.2499999999999888, -1.1190429717270227 
0.2599999999999877, -1.1197990210473112 
0.2699999999999866, -1.1198486169875828 
0.2799999999999855, -1.119459532875243 
0.2899999999999844, -1.1189699862063187 
0.2999999999999833, -1.1187499648667802 
0.3099999999999822, -1.1190689198860477 
0.3199999999999811, -1.1199530153736645 
0.32999999999998, -1.121218838797798 
0.3399999999999789, -1.122653192063816 
0.3499999999999778, -1.1241262132030259 
0.35999999999997667, -1.1255663124422925 
0.36999999999997557, -1.1268976893477236 
0.37999999999997447, -1.1280315539192407 
0.38999999999997337, -1.1289022181462607 
0.39999999999997227, -1.1294945436685704 
0.40999999999997117, -1.1298359903802628 
0.41999999999997006, -1.1299616865850906 
0.42999999999996896, -1.1298783520699203 
0.43999999999996786, -1.129552426434377 
0.44999999999996676, -1.1289319127762767 
0.45999999999996566, -1.127988910841855 
0.46999999999996456, -1.1267551544244965 
0.47999999999996346, -1.1253267032523493 
0.48999999999996235, -1.1238292438352202 
0.49999999999996125, -1.122363481843839 
0.5099999999999602, -1.1209867219675875 
0.519999999999959, -1.119763373905425 
0.529999999999958, -1.1188173157694619 
0.5399999999999568, -1.1182806814381725 
0.5499999999999557, -1.1181560636288954 
0.5599999999999546, -1.11825252239327 
0.5699999999999535, -1.1182712832133634 
0.5799999999999524, -1.1179258205288454 
0.5899999999999513, -1.1170018351024475 
0.5999999999999502, -1.1153856582825807 
0.6099999999999491, -1.113090403786225 
0.619999999999948, -1.1102438152708056 
0.6299999999999469, -1.1070139980623839 
0.6399999999999458, -1.1035246096962918 
0.6499999999999447, -1.0998211537820408 
0.6599999999999436, -1.0958907424352615 
0.6699999999999425, -1.0917001069569812 
0.6799999999999414, -1.087225410827609 
0.6899999999999403, -1.0824804784541882 
0.6999999999999392, -1.0775771481762804 
0.7099999999999381, -1.072821990231732 
0.719999999999937, -1.0687440319072323 
0.7299999999999359, -1.0658817172142594 
0.7399999999999348, -1.0643918218718869 
0.7499999999999337, -1.0639037833137 
0.7599999999999326, -1.0637956697778772 
0.7699999999999315, -1.0635075219088086 
0.7799999999999304, -1.062604335840057 
0.7899999999999293, -1.0606957723826524 
0.7999999999999282, -1.057411297355967 
0.8099999999999271, -1.0525249530739527 
0.819999999999926, -1.0461411426874332 
0.8299999999999249, -1.0386994547077195 
0.8399999999999238, -1.0307267153506054 
0.8499999999999227, -1.0225836115048528 
0.8599999999999216, -1.014402726494863 
0.8699999999999205, -1.0061667611092018 
0.8799999999999194, -0.9978163612997724 
0.8899999999999183, -0.9893509626760286 
0.8999999999999172, -0.9809355485620743 
0.9099999999999161, -0.9729997375244004 
0.919999999999915, -0.9662239817774181 
0.9299999999999139, -0.9612738623795638 
0.9399999999999128, -0.9583738562620887 
0.9499999999999117, -0.9571310350755862 
0.9599999999999106, -0.9568105298265778 
0.9699999999999095, -0.9567223072584408 
0.9799999999999084, -0.9563716537307348 
0.9899999999999073, -0.9554021525983325 
0.9999999999999062, -0.9535147032271306 
1.0099999999999052, -0.9504836940912196 
1.019999999999904, -0.9462793690187159 
1.029999999999903, -0.941163314885538 
1.039999999999902, -0.935592555896591 
1.0499999999999008, -0.9299883105151878 
1.0599999999998997, -0.9245870238379872 
1.0699999999998986, -0.9194492606078007 
1.0799999999998975, -0.9145425540988116 
1.0899999999998964, -0.909817592431879 
1.0999999999998953, -0.9052532335760171 
1.1099999999998942, -0.900877284127468 
1.119999999999893, -0.8967780518705355 
1.129999999999892, -0.8931107205014077 
1.1399999999998909, -0.8900788800032504 
1.1499999999998898, -0.8878651269290486 
1.1599999999998887, -0.886527366024184 
1.1699999999998876, -0.8859374424965774 
1.1799999999998865, -0.8858219817666386 
1.1899999999998854, -0.8858680582629402 
1.1999999999998843, -0.8858096767722399 
1.2099999999998832, -0.8854646630982685 
1.219999999999882, -0.8847483246810839 
1.229999999999881, -0.8836828057857293 
1.2399999999998799, -0.882383383263071 
1.2499999999998788, -0.8810032601967462 
1.2599999999998777, -0.8796631081508508 
1.2699999999998766, -0.8784101087698243 
1.2799999999998755, -0.8772207780299738 
1.2899999999998744, -0.8760344006494163 
1.2999999999998733, -0.8747986398598542 
1.3099999999998722, -0.8735081965278588 
1.319999999999871, -0.8722205837829728 
1.32999999999987, -0.8710439009025303 
1.3399999999998689, -0.8701024910839438 
1.3499999999998678, -0.8694962955714555 
1.3599999999998666, -0.8692762842906566 
1.3699999999998655, -0.8694475043848259 
1.3799999999998644, -0.869986629757828 
1.3899999999998633, -0.8708518236328308 
1.3999999999998622, -0.8719805611444965 
1.4099999999998611, -0.8732909770416516 
1.41999999999986, -0.8746996169456723 
1.429999999999859, -0.8761496025981709 
1.4399999999998578, -0.8776310104948694 
1.4499999999998567, -0.8791783814145309 
1.4599999999998556, -0.8808421214171309 
1.4699999999998545, -0.8826425199262374 
1.4799999999998534, -0.8845229918916763 
1.4899999999998523, -0.8863285315548797 
1.4999999999998512, -0.8878414525694718 
1.5099999999998501, -0.8888736288939139 
1.519999999999849, -0.8893515029381598 
1.529999999999848, -0.8893349435162696 
1.5399999999998468, -0.8889926609825212 
1.5499999999998457, -0.8885910831973849 
1.5599999999998446, -0.8885022969813946 
1.5699999999998435, -0.8891727029669246 
1.5799999999998424, -0.8909960651377924 
1.5899999999998413, -0.8941402597514221 
1.5999999999998402, -0.8984785503863668 
1.6099999999998391, -0.9036961587950199 
1.619999999999838, -0.9094672076866361 
1.629999999999837, -0.9155687776735082 
1.6399999999998358, -0.9219041637647967 
1.6499999999998347, -0.9284771997348363 
1.6599999999998336, -0.9353493394811914 
1.6699999999998325, -0.9425763769099806 
1.6799999999998314, -0.9501070811732726 
1.6899999999998303, -0.9576556625636823 
1.6999999999998292, -0.9646496264058675 
1.709999999999828, -0.9704093443367616 
1.719999999999827, -0.9745083110228652 
1.729999999999826, -0.9769651084137569 
1.7399999999998248, -0.9781027368950047 
1.7499999999998237, -0.9783174861473753 
1.7599999999998226, -0.9779950467925504 
1.7699999999998215, -0.9775967896321909 
1.7799999999998204, -0.977816909806398 
1.7899999999998193, -0.9796024921814863 
1.7999999999998182, -0.983794481550408 
1.809999999999817, -0.9905476258746229 
1.819999999999816, -0.9991876215731242 
1.8299999999998149, -1.0087159905056409 
1.8399999999998138, -1.0183681872927974 
1.8499999999998127, -1.027784087786578 
1.8599999999998116, -1.0368983099294407 
1.8699999999998105, -1.0457742228339293 
1.8799999999998094, -1.0544625757255626 
1.8899999999998083, -1.06287489747224 
1.8999999999998072, -1.0706870793808827 
1.909999999999806, -1.0773734354141813 
1.919999999999805, -1.0824510492189605 
1.9299999999998039, -1.085767911891357 
1.9399999999998028, -1.0875431378022982 
1.9499999999998017, -1.0881749270924408 
1.9599999999998006, -1.088079071889511 
1.9699999999997995, -1.0876892557589752 
1.9799999999997984, -1.0875432863532088 
1.9899999999997973, -1.0882568467163207 
1.9999999999997962, -1.0902399194130035 
2.0099999999998173, -1.0933954534482102 
2.0199999999998384, -1.0972210038373693 
2.0299999999998595, -1.101196801931881 
2.0399999999998806, -1.105016846564282 
2.0499999999999017, -1.1085672880942705 
2.059999999999923, -1.1118273060225212 
2.069999999999944, -1.114810546340064 
2.079999999999965, -1.1175450490402556 
2.089999999999986, -1.120052582410371 
2.100000000000007, -1.1223150997724716 
2.1100000000000283, -1.1242494842672621 
2.1200000000000494, -1.1257228841160178 
2.1300000000000705, -1.1266166210605173 
2.1400000000000916, -1.1268975017631129 
2.1500000000001127, -1.1266461681552344 
2.160000000000134, -1.1260444661657023 
2.170000000000155, -1.1253460108859719 
2.180000000000176, -1.1248126262987939 
2.190000000000197, -1.1246068036653647 
2.2000000000002182, -1.124729255422353 
2.2100000000002393, -1.1250867381890848 
2.2200000000002604, -1.1256066144662094 
2.2300000000002815, -1.126260207033818 
2.2400000000003026, -1.1269962095445663 
2.2500000000003237, -1.1276947743763015 
2.260000000000345, -1.1282010644708207 
2.270000000000366, -1.1283916535620744 
2.280000000000387, -1.1282157569867663 
2.290000000000408, -1.1276964526307618 
2.3000000000004293, -1.1268977653978811 
2.3100000000004504, -1.1258767995766923 
2.3200000000004715, -1.1246513147545754 
2.3300000000004926, -1.1232016932060034 
2.3400000000005137, -1.1215014161961996 
2.3500000000005348, -1.1195522169186714 
2.360000000000556, -1.1173974410302925 
2.370000000000577, -1.1151041358786016 
2.380000000000598, -1.112739660737546 
2.390000000000619, -1.1103909397721528 
2.4000000000006403, -1.1082275052589459 
2.4100000000006614, -1.106513009338413 
2.4200000000006825, -1.1054660672727221 
2.4300000000007036, -1.1050599303703115 
2.4400000000007247, -1.1049962460626488 
2.450000000000746, -1.1048719441100643 
2.460000000000767, -1.1043228653364696 
2.470000000000788, -1.1030555094743888 
2.480000000000809, -1.100858535347406 
2.49000000000083, -1.0976622890455467 
2.5000000000008513, -1.0935885516036379 
2.5100000000008724, -1.0888920936661486 
2.5200000000008935, -1.0838195254965015 
2.5300000000009146, -1.0785093276702018 
2.5400000000009357, -1.0729862815260758 
2.550000000000957, -1.0672093200791946 
2.560000000000978, -1.061126690254123 
2.570000000000999, -1.0547350983768387 
2.58000000000102, -1.048170160658614 
2.5900000000010412, -1.0418234656501142 
2.6000000000010624, -1.0363638377460604 
2.6100000000010835, -1.0324701048282887 
2.6200000000011046, -1.0303570026493742 
2.6300000000011257, -1.029597118912108 
2.6400000000011468, -1.0294547205436113 
2.650000000001168, -1.0292786975329997 
2.660000000001189, -1.0285955481388038 
2.67000000000121, -1.0270076265056813 
2.680000000001231, -1.024117834555041 
2.6900000000012523, -1.0196083804068858 
2.7000000000012734, -1.0134535827737916 
2.7100000000012945, -1.0060379834663495 
2.7200000000013156, -0.9979700077578204 
2.7300000000013367, -0.9897571651717086 
2.740000000001358, -0.9816497627517068 
2.750000000001379, -0.9736891363474008 
2.7600000000014, -0.965824261107643 
2.770000000001421, -0.9580131626659016 
2.780000000001442, -0.9503043642295357 
2.7900000000014633, -0.9429109384796386 
2.8000000000014844, -0.9362487923332983 
2.8100000000015055, -0.9308532527213828 
2.8200000000015266, -0.9271257361181199 
2.8300000000015477, -0.9250623628858532 
2.840000000001569, -0.9242331994693549 
2.85000000000159, -0.9240304235154468 
2.860000000001611, -0.9239177486128416 
2.870000000001632, -0.9235068381179085 
2.8800000000016532, -0.9225193273622638 
2.8900000000016743, -0.9207591122743362 
2.9000000000016954, -0.9181545955756738 
2.9100000000017165, -0.9148257641306149 
2.9200000000017377, -0.911063826959183 
2.9300000000017588, -0.9071943236011546 
2.94000000000178, -0.9034403636120496 
2.950000000001801, -0.8998857480354893 
2.960000000001822, -0.8965187681477721 
2.970000000001843, -0.8932957008943243 
2.9800000000018643, -0.8901884592309092 
2.9900000000018854, -0.8872057936507873 
3.0000000000019065, -0.8843920109770458 
3.0100000000019276, -0.8818171930985897 
3.0200000000019487, -0.8795714508888366 
3.03000000000197, -0.8777594739921575 
3.040000000001991, -0.8764771960478133 
3.050000000002012, -0.875764301764886 
3.060000000002033, -0.8755608464310318 
3.070000000002054, -0.8757090172035525 
3.0800000000020753, -0.8760044567091887 
3.0900000000020964, -0.8762603946348848 
3.1000000000021175, -0.8763526760077852 
3.1100000000021386, -0.8762408152043925 
3.1200000000021597, -0.8759659511344695 
3.130000000002181, -0.8756205535860596 
3.140000000002202, -0.8752970181732799 
3.150000000002223, -0.8750406862905009 
3.160000000002244, -0.8748290243488899 
3.1700000000022652, -0.8745833622746977 
3.1800000000022863, -0.874209250905085 
3.1900000000023074, -0.8736484729920265 
3.2000000000023285, -0.8729167014974315 
3.2100000000023496, -0.872113306477457 
3.2200000000023707, -0.8714064046274024 
3.230000000002392, -0.8709948443605489 
3.240000000002413, -0.8710492598040167 
3.250000000002434, -0.87165631050067 
3.260000000002455, -0.8728033707186006 
3.2700000000024763, -0.8744110074411982 
3.2800000000024974, -0.8763798937762719 
3.2900000000025185, -0.87861924476463 
3.3000000000025396, -0.8810553721334269 
3.3100000000025607, -0.8836372959694712 
3.3200000000025818, -0.8863472075822048 
3.330000000002603, -0.8892063420803715 
3.340000000002624, -0.8922613837539004 
3.350000000002645, -0.8955439358467052 
3.360000000002666, -0.899007946501194 
3.3700000000026873, -0.9024708964424069 
3.3800000000027084, -0.9056169423147082 
3.3900000000027295, -0.9081102041918145 
3.4000000000027506, -0.9097552602195507 
3.4100000000027717, -0.9105635560578118 
3.420000000002793, -0.9106989020993685 
3.430000000002814, -0.9104113589706024 
3.440000000002835, -0.9100433423148747 
3.450000000002856, -0.9100882035946855 
3.460000000002877, -0.9111931810578773 
3.4700000000028983, -0.9139822481599718 
3.4800000000029194, -0.9187419616317769 
3.4900000000029405, -0.9252549213219721 
3.5000000000029616, -0.9329708940903313 
3.5100000000029827, -0.9413330300126855 
3.520000000003004, -0.9499824691856762 
3.530000000003025, -0.9587817279883571 
3.540000000003046, -0.9677443712983844 
3.550000000003067, -0.9769377408689668 
3.5600000000030882, -0.986362600446179 
3.5700000000031094, -0.9958012708772583 
3.5800000000031305, -1.0047023082217645 
3.5900000000031516, -1.012284175735818 
3.6000000000031727, -1.017928664649871 
3.6100000000031938, -1.0215270311374778 
3.620000000003215, -1.0234184850904136 
3.630000000003236, -1.024089236759393 
3.640000000003257, -1.0239883167700636 
3.650000000003278, -1.0235598104672803 
3.6600000000032993, -1.0234022944948284 
3.6700000000033204, -1.0243640728187131 
3.6800000000033415, -1.027297751596398 
3.6900000000033626, -1.0324908429423314 
3.7000000000033837, -1.0394031716899006 
3.710000000003405, -1.0470978565887876 
3.720000000003426, -1.0548247433748785 
3.730000000003447, -1.0622220434053842 
3.740000000003468, -1.0692135891055563 
3.750000000003489, -1.0758526318428134 
3.7600000000035103, -1.082209975653186 
3.7700000000035314, -1.088291332603637 
3.7800000000035525, -1.0939670334263352 
3.7900000000035736, -1.0989523734681481 
3.8000000000035947, -1.102905620601167 
3.810000000003616, -1.105616963653962 
3.820000000003637, -1.1071231550854104 
3.830000000003658, -1.1076549946196856 
3.840000000003679, -1.1075296650736894 
3.8500000000037002, -1.1071173884164158 
3.8600000000037213, -1.10686150708396 
3.8700000000037424, -1.1072121836619186 
3.8800000000037635, -1.1084113192594396 
3.8900000000037847, -1.1103424257394399 
3.9000000000038058, -1.112666840544861 
3.910000000003827, -1.115079104511119 
3.920000000003848, -1.1174122924286611 
3.930000000003869, -1.1195900426228054 
3.94000000000389, -1.1215624591314446 
3.9500000000039113, -1.1232941177432603 
3.9600000000039324, -1.1247783468145296 
3.9700000000039535, -1.1260349219731118 
3.9800000000039746, -1.127082051931286 
3.9900000000039957, -1.127902998562375 
4.000000000004016, -1.1284350319630796 
4.010000000003993, -1.128595981086207 
4.02000000000397, -1.1283360139710166 
4.030000000003946, -1.1276810009388862 
4.040000000003923, -1.1267441400675193 
4.0500000000039, -1.1257013177042148 
4.0600000000038765, -1.1247281186360636 
4.070000000003853, -1.1239258819693236 
4.08000000000383, -1.1233105914547763 
4.090000000003807, -1.1228842931948577 
4.100000000003783, -1.1226912328933825 
4.11000000000376, -1.122770260568583 
4.120000000003737, -1.1230572033839221 
4.130000000003713, -1.1233656290307592 
4.14000000000369, -1.1234651277779935 
4.150000000003667, -1.1231669179414883 
4.1600000000036434, -1.1223689937187147 
4.17000000000362, -1.1210707725437596 
4.180000000003597, -1.1193548886416083 
4.1900000000035735, -1.1173321031929333 
4.20000000000355, -1.1150816520383768 
4.210000000003527, -1.1126272161532202 
4.220000000003504, -1.1099541031775277 
4.23000000000348, -1.1070434959145024 
4.240000000003457, -1.1038956630064427 
4.250000000003434, -1.1005333909784212 
4.26000000000341, -1.0970112941538799 
4.270000000003387, -1.0934683856782683 
4.280000000003364, -1.0902005071472887 
4.2900000000033405, -1.0876263783099744 
4.300000000003317, -1.0860494005712955 
4.310000000003294, -1.085395485804516 
4.320000000003271, -1.0852430934073827 
4.330000000003247, -1.085082717372424 
4.340000000003224, -1.0844821113160292 
4.350000000003201, -1.0830810361630494 
4.360000000003177, -1.0805652497617024 
4.370000000003154, -1.0767373424190159 
4.380000000003131, -1.0716456114294535 
4.390000000003107, -1.0655993138707631 
4.400000000003084, -1.0589965798987215 
4.410000000003061, -1.0521258094071926 
4.4200000000030375, -1.045099351194611 
4.430000000003014, -1.0379020544409965 
4.440000000002991, -1.0304732807910084 
4.450000000002968, -1.0227903237526674 
4.460000000002944, -1.0149692857176704 
4.470000000002921, -1.007384608638683 
4.480000000002898, -1.000709967184657 
4.490000000002874, -0.9956973041243193 
4.500000000002851, -0.9927059800485711 
4.510000000002828, -0.9914216907576124 
4.520000000002804, -0.9911017758581151 
4.530000000002781, -0.9910158151984392 
4.540000000002758, -0.9906349403687237 
4.5500000000027345, -0.9895688879146609 
4.560000000002711, -0.9874634211168084 
4.570000000002688, -0.9840081262508262 
4.580000000002665, -0.9790882774276624 
4.590000000002641, -0.9729423282157799 
4.600000000002618, -0.9660940282585069 
4.610000000002595, -0.9590729322084502 
4.620000000002571, -0.9522002542923238 
4.630000000002548, -0.9455760966640842 
4.640000000002525, -0.9391749361141579 
4.6500000000025015, -0.9329413274495902 
4.660000000002478, -0.9268536964855686 
4.670000000002455, -0.9209673152361958 
4.6800000000024315, -0.9154485084125458 
4.690000000002408, -0.9105827567432584 
4.700000000002385, -0.9067083414693204 
4.710000000002362, -0.9040574134419131 
4.720000000002338, -0.9025976517350343 
4.730000000002315, -0.9020216243618222 
4.740000000002292, -0.901894348937709 
4.750000000002268, -0.9018132471381624 
4.760000000002245, -0.9014751299383426 
4.770000000002222, -0.9006760803174834 
4.7800000000021985, -0.8993144079669415 
4.790000000002175, -0.8974170897459957 
4.800000000002152, -0.8951423078570931 
4.810000000002129, -0.8927123203953222 
4.820000000002105, -0.8903127965587085 
4.830000000002082, -0.8880345297909443 
4.840000000002059, -0.8858798770753852 
4.850000000002035, -0.8838055984539357 
4.860000000002012, -0.8817713146512727 
4.870000000001989, -0.8797740593389858 
4.880000000001965, -0.8778578788234912 
4.890000000001942, -0.8760988587602538 
4.900000000001919, -0.8745787955635697 
4.9100000000018955, -0.8733660522829944 
4.920000000001872, -0.8725120460530611 
4.930000000001849, -0.8720524521889075 
