t, s[1].omega / s[0].omega 
0, -0.7399811809648273 
0.009999999999999995, -0.7382515123844048 
0.019999999999999934, -0.7367967753136079 
0.029999999999999874, -0.7355385414677852 
0.04000000000000012, -0.7343843214338259 
0.050000000000000405, -0.7332705421641066 
0.06000000000000069, -0.7321921702487088 
0.07000000000000098, -0.7312118620874637 
0.08000000000000126, -0.7304500471685887 
0.09000000000000155, -0.7300604717860197 
0.10000000000000184, -0.7301955850835629 
0.11000000000000212, -0.730971030016418 
0.12000000000000241, -0.7324438343008837 
0.130000000000002, -0.7346139619136198 
0.1400000000000009, -0.7374455592348946 
0.1499999999999998, -0.7408958684219388 
0.1599999999999987, -0.74494262692686 
0.1699999999999976, -0.7496075826282317 
0.1799999999999965, -0.7549754870577222 
0.1899999999999954, -0.761202947746639 
0.1999999999999943, -0.7685015772434197 
0.2099999999999932, -0.7770629328451025 
0.2199999999999921, -0.7868769846197983 
0.229999999999991, -0.7974512547799085 
0.2399999999999899, -0.8076711351674903 
0.2499999999999888, -0.8162036315097818 
0.2599999999999877, -0.8222733066612264 
0.2699999999999866, -0.8259593079599498 
0.2799999999999855, -0.8278084117619914 
0.2899999999999844, -0.8283763746056634 
0.2999999999999833, -0.8280571648726005 
0.3099999999999822, -0.8271517530280214 
0.3199999999999811, -0.8261300369255767 
0.32999999999998, -0.8262232025094098 
0.3399999999999789, -0.8305931346152615 
0.3499999999999778, -0.8458717943915355 
0.35999999999997667, -0.8819576227823982 
0.36999999999997557, -0.9458749033792225 
0.37999999999997447, -1.0316174941286231 
0.38999999999997337, -1.1214479141605882 
0.39999999999997227, -1.2007784274869262 
0.40999999999997117, -1.2649864857525155 
0.41999999999997006, -1.314817568086384 
0.42999999999996896, -1.3517752387140882 
0.43999999999996786, -1.377138481651181 
0.44999999999996676, -1.3927553488156514 
0.45999999999996566, -1.4012841808005545 
0.46999999999996456, -1.4053766908311178 
0.47999999999996346, -1.4069541905567626 
0.48999999999996235, -1.4071793415893286 
0.49999999999996125, -1.4068152375672627 
0.5099999999999602, -1.4065559139870296 
0.519999999999959, -1.4069615757302785 
0.529999999999958, -1.408058589075631 
0.5399999999999568, -1.4093989103280882 
0.5499999999999557, -1.4106133986130982 
0.5599999999999546, -1.4116275658059245 
0.5699999999999535, -1.4124482484802 
0.5799999999999524, -1.4129702247076095 
0.5899999999999513, -1.413001459007285 
0.5999999999999502, -1.4123618462763514 
0.6099999999999491, -1.4109323264309834 
0.619999999999948, -1.4086610434795575 
0.6299999999999469, -1.4055344362981201 
0.6399999999999458, -1.4015170206955578 
0.6499999999999447, -1.3964874463425487 
0.6599999999999436, -1.3901850413376962 
0.6699999999999425, -1.3821625413783374 
0.6799999999999414, -1.3718287802025508 
0.6899999999999403, -1.358924514864396 
0.6999999999999392, -1.344857763870507 
0.7099999999999381, -1.3335988364266216 
0.719999999999937, -1.3283825419278061 
0.7299999999999359, -1.3277624841266147 
0.7399999999999348, -1.3284558933750632 
0.7499999999999337, -1.3286251222944088 
0.7599999999999326, -1.3274267103183521 
0.7699999999999315, -1.3235677054045838 
0.7799999999999304, -1.313214159320903 
0.7899999999999293, -1.283935031598832 
0.7999999999999282, -1.194870408273575 
0.8099999999999271, -0.946125929839751 
0.819999999999926, -0.5386063231922614 
0.8299999999999249, -0.25400095804016143 
0.8399999999999238, -0.13343317031735275 
0.8499999999999227, -0.08413943593389232 
0.8599999999999216, -0.061635849002979894 
0.8699999999999205, -0.05014007791852347 
0.8799999999999194, -0.043730896962709605 
0.8899999999999183, -0.03993219639176132 
0.8999999999999172, -0.037604208073574064 
0.9099999999999161, -0.03619286370964542 
0.919999999999915, -0.03544257964843613 
0.9299999999999139, -0.03529005613172379 
0.9399999999999128, -0.035853313638639875 
0.9499999999999117, -0.037516535924396785 
0.9599999999999106, -0.04120300264743735 
0.9699999999999095, -0.04916773463145033 
0.9799999999999084, -0.06753577036702756 
0.9899999999999073, -0.11592311892776457 
0.9999999999999062, -0.2726872973822187 
1.0099999999999052, -0.9088330789130994 
1.019999999999904, -2.1698241624092076 
1.029999999999903, -2.4930540092420475 
1.039999999999902, -2.546972183856708 
1.0499999999999008, -2.561591242831903 
1.0599999999998997, -2.5664728379556765 
1.0699999999998986, -2.5677103392477205 
1.0799999999998975, -2.56695433946523 
1.0899999999998964, -2.5643448650366083 
1.0999999999998953, -2.5582308022255242 
1.1099999999998942, -2.5430426439677847 
1.119999999999893, -2.5206054715247546 
1.129999999999892, -2.519828044348409 
1.1399999999998909, -2.524514161541738 
1.1499999999998898, -2.525155608655637 
1.1599999999998887, -2.5229915679902857 
1.1699999999998876, -2.5214511700107685 
1.1799999999998865, -2.5286367759379913 
1.1899999999998854, -2.5363673649448524 
1.1999999999998843, -2.5398061918869628 
1.2099999999998832, -2.540998028681297 
1.219999999999882, -2.540777764904922 
1.229999999999881, -2.5384962582561323 
1.2399999999998799, -2.531424074520358 
1.2499999999998788, -2.5090532187792114 
1.2599999999998777, -2.415591668862951 
1.2699999999998766, -1.7811677209596646 
1.2799999999998755, -0.014477340888872706 
1.2899999999998744, 0.42406697073222316 
1.2999999999998733, 0.49614721378919374 
1.3099999999998722, 0.515333176771799 
1.319999999999871, 0.5220827371885214 
1.32999999999987, 0.5246802013764297 
1.3399999999998689, 0.5254675063940051 
1.3499999999998678, 0.5252138228888541 
1.3599999999998666, 0.5241296391235968 
1.3699999999998655, 0.5221853043083734 
1.3799999999998644, 0.5194813425607998 
1.3899999999998633, 0.5179990867618178 
1.3999999999998622, 0.5291118970701694 
1.4099999999998611, 0.5820057224925252 
1.41999999999986, 0.6663584165856451 
1.429999999999859, 0.7198141154297327 
1.4399999999998578, 0.7412822295439299 
1.4499999999998567, 0.7492442665077425 
1.4599999999998556, 0.7520386277333146 
1.4699999999998545, 0.7523762636032366 
1.4799999999998534, 0.7507415447059989 
1.4899999999998523, 0.7460878678094058 
1.4999999999998512, 0.7348071448524809 
1.5099999999998501, 0.7083616531568094 
1.519999999999849, 0.6586008256543485 
1.529999999999848, 0.6070776821946449 
1.5399999999998468, 0.5840585877402883 
1.5499999999998457, 0.5800810743229006 
1.5599999999998446, 0.581053291402009 
1.5699999999998435, 0.5823543001817322 
1.5799999999998424, 0.5830815607397956 
1.5899999999998413, 0.5830855242536594 
1.5999999999998402, 0.5821658267935372 
1.6099999999998391, 0.579686839465986 
1.619999999999838, 0.5737182909938193 
1.629999999999837, 0.5574758244193937 
1.6399999999998358, 0.4981450252891236 
1.6499999999998347, 0.13314134378259282 
1.6599999999998336, -1.7217075760256537 
1.6699999999998325, -2.475339362982726 
1.6799999999998314, -2.572829028456415 
1.6899999999998303, -2.594284620249746 
1.6999999999998292, -2.6004034071185513 
1.709999999999828, -2.6018061712369414 
1.719999999999827, -2.6011342847798287 
1.729999999999826, -2.598893237753821 
1.7399999999998248, -2.5938421298539867 
1.7499999999998237, -2.5832428428381413 
1.7599999999998226, -2.574394004207746 
1.7699999999998215, -2.576255159038073 
1.7799999999998204, -2.577785400710643 
1.7899999999998193, -2.576272621575498 
1.7999999999998182, -2.5716860318474417 
1.809999999999817, -2.5752823105064695 
1.819999999999816, -2.5908265451801733 
1.8299999999998149, -2.5993200589766716 
1.8399999999998138, -2.6024090180098005 
1.8499999999998127, -2.6032462620202166 
1.8599999999998116, -2.602366873582981 
1.8699999999998105, -2.598763204647512 
1.8799999999998094, -2.5884567244848826 
1.8899999999998083, -2.554356538185517 
1.8999999999998072, -2.379381963240237 
1.909999999999806, -1.1035965856297802 
1.919999999999805, 0.2051173300071601 
1.9299999999998039, 0.41957911227421985 
1.9399999999998028, 0.4644752529030115 
1.9499999999998017, 0.4783903910100549 
1.9599999999998006, 0.4836602584900415 
1.9699999999997995, 0.48565294202372655 
1.9799999999997984, 0.48598008846653473 
1.9899999999997973, 0.4850566838118125 
1.9999999999997962, 0.482638215352812 
2.0099999999998173, 0.47765522683917416 
2.0199999999998384, 0.4673511370023017 
2.0299999999998595, 0.44631765400155193 
2.0399999999998806, 0.4270303269294932 
2.0499999999999017, 0.6239849335354483 
2.059999999999923, 0.9991519004211937 
2.069999999999944, 1.0957372773108296 
2.079999999999965, 1.1148383763093588 
2.089999999999986, 1.1196952302980754 
2.100000000000007, 1.1205163301060432 
2.1100000000000283, 1.1189028034183206 
2.1200000000000494, 1.1131982852664144 
2.1300000000000705, 1.095029348969695 
2.1400000000000916, 1.0343603932801038 
2.1500000000001127, 0.9184138269415447 
2.160000000000134, 0.8786148156837962 
2.170000000000155, 0.8889271635133025 
2.180000000000176, 0.8974822990907292 
2.190000000000197, 0.9013880880262034 
2.2000000000002182, 0.9027021951289169 
2.2100000000002393, 0.9022661235128007 
2.2200000000002604, 0.8997237166562458 
2.2300000000002815, 0.8926614399312168 
2.2400000000003026, 0.8716003571825093 
2.2500000000003237, 0.8015420243029092 
2.260000000000345, 0.8100262421284169 
2.270000000000366, 1.4261346818245768 
2.280000000000387, 1.5453476985691934 
2.290000000000408, 1.560478068832039 
2.3000000000004293, 1.5632879105295463 
2.3100000000004504, 1.5625871231213608 
2.3200000000004715, 1.5574167979914613 
2.3300000000004926, 1.5311091874867304 
2.3400000000005137, 1.2932775853620107 
2.3500000000005348, 0.7063727275007018 
2.360000000000556, 0.7898032318699252 
2.370000000000577, 0.8418653953469961 
2.380000000000598, 0.8574889288218553 
2.390000000000619, 0.8627114484728571 
2.4000000000006403, 0.8642807149516514 
2.4100000000006614, 0.8639414711559203 
2.4200000000006825, 0.8617794313968744 
2.4300000000007036, 0.8566096949512012 
2.4400000000007247, 0.8454762254628821 
2.450000000000746, 0.8303239534668219 
2.460000000000767, 0.8812509743617947 
2.470000000000788, 1.0342532539159472 
2.480000000000809, 1.1041377021065704 
2.49000000000083, 1.1226017010304157 
2.5000000000008513, 1.1277867066550358 
2.5100000000008724, 1.128831094690533 
2.5200000000008935, 1.1274137632729977 
2.5300000000009146, 1.121838564344879 
2.5400000000009357, 1.1016888254769084 
2.550000000000957, 1.0077044425037531 
2.560000000000978, 0.7051159114298213 
2.570000000000999, 0.5787961872989663 
2.58000000000102, 0.6023031241339127 
2.5900000000010412, 0.6202335195056586 
2.6000000000010624, 0.6282840303751543 
2.6100000000010835, 0.6317534594236316 
2.6200000000011046, 0.6329666676127648 
2.6300000000011257, 0.63266912750043 
2.6400000000011468, 0.630685529499871 
2.650000000001168, 0.6255743377580127 
2.660000000001189, 0.6120854704018712 
2.67000000000121, 0.5671905383554087 
2.680000000001231, 0.3438667524614052 
2.6900000000012523, -1.2097609908431424 
2.7000000000012734, -3.2513863886477283 
2.7100000000012945, -3.355996302314929 
2.7200000000013156, -3.367972584828022 
2.7300000000013367, -3.370097254317277 
2.740000000001358, -3.369001526820515 
2.750000000001379, -3.3638094903061195 
2.7600000000014, -3.3389838440068202 
2.770000000001421, -3.1577462957409894 
2.780000000001442, -3.1476303925279323 
2.7900000000014633, -3.1780292046776317 
2.8000000000014844, -3.181186808073419 
2.8100000000015055, -3.1807613723611334 
2.8200000000015266, -3.1805944392030256 
2.8300000000015477, -3.180302637835222 
2.840000000001569, -3.1792636237190908 
2.85000000000159, -3.178870368316469 
2.860000000001611, -3.1770413684187995 
2.870000000001632, -3.1640288689528595 
2.8800000000016532, -3.0985049795358783 
2.8900000000016743, -3.286540672329031 
2.9000000000016954, -3.339957620869611 
2.9100000000017165, -3.3479164186706334 
2.9200000000017377, -3.3492302829692533 
2.9300000000017588, -3.3476260458885263 
2.94000000000178, -3.3406849941126238 
2.950000000001801, -3.3039749743538684 
2.960000000001822, -2.657676745182837 
2.970000000001843, 0.032557120269294304 
2.9800000000018643, 0.5469198919008788 
2.9900000000018854, 0.628368861783428 
3.0000000000019065, 0.6486777821058267 
3.0100000000019276, 0.6554269972122528 
3.0200000000019487, 0.6577906357342406 
3.03000000000197, 0.6581482216085581 
3.040000000001991, 0.6570551377338936 
3.050000000002012, 0.6541708647615854 
3.060000000002033, 0.6480956483948173 
3.070000000002054, 0.6358562576076723 
3.0800000000020753, 0.619700338107216 
3.0900000000020964, 0.677509890876658 
3.1000000000021175, 0.8966783753616092 
3.1100000000021386, 1.0071009633041146 
3.1200000000021597, 1.034523664581006 
3.130000000002181, 1.041994565187294 
3.140000000002202, 1.0439500467365854 
3.150000000002223, 1.0433839476959577 
3.160000000002244, 1.0399662779505146 
3.1700000000022652, 1.0295037999454657 
3.1800000000022863, 0.9947693834665408 
3.1900000000023074, 0.8904749837940438 
3.2000000000023285, 0.7753899885201568 
3.2100000000023496, 0.7621364738514409 
3.2200000000023707, 0.7731717501751345 
3.230000000002392, 0.7801156646966239 
3.240000000002413, 0.7833095607770184 
3.250000000002434, 0.7843678623542334 
3.260000000002455, 0.7838614556080643 
3.2700000000024763, 0.7813782822547588 
3.2800000000024974, 0.774659897583366 
3.2900000000025185, 0.7546495080504492 
3.3000000000025396, 0.6754102223706019 
3.3100000000025607, 0.3035713887642367 
3.3200000000025818, 1.337608844353048 
3.330000000002603, 2.789138153793379 
3.340000000002624, 2.8081585629646595 
3.350000000002645, 2.8089218175358406 
3.360000000002666, 2.8029290635304047 
3.3700000000026873, 2.640884166812875 
3.3800000000027084, -3.666921605877976 
3.3900000000027295, -3.8655306010606916 
3.4000000000027506, -3.8723731149288425 
3.4100000000027717, -3.8720626826860176 
3.420000000002793, -3.8696614030921226 
3.430000000002814, -3.861803328483331 
3.440000000002835, -3.858741980026642 
3.450000000002856, -3.860951492745329 
3.460000000002877, -3.859297040995751 
3.4700000000028983, -3.8598441872032465 
3.4800000000029194, -3.8626361726003844 
3.4900000000029405, -3.862871184188117 
3.5000000000029616, -3.8619005434442677 
3.5100000000029827, -3.8534936573693175 
3.520000000003004, -3.648382957161318 
3.530000000003025, -4.346858749498743 
3.540000000003046, -4.4611889444644275 
3.550000000003067, -4.466207297947735 
3.5600000000030882, -4.464889020754668 
3.5700000000031094, -4.452888016307555 
3.5800000000031305, -3.8957325440512536 
3.5900000000031516, 2.1592789988826953 
3.6000000000031727, 2.242414364336257 
3.6100000000031938, 2.2479135936602077 
3.620000000003215, 2.2483830955371262 
3.630000000003236, 2.2474761157711103 
3.640000000003257, 2.2448547300213333 
3.650000000003278, 2.2401657594206457 
3.6600000000032993, 2.2370180781495668 
3.6700000000033204, 2.2372311199748682 
3.6800000000033415, 2.237188430035617 
3.6900000000033626, 2.234114210270863 
3.7000000000033837, 2.220769369727944 
3.710000000003405, 2.2237752930355255 
3.720000000003426, 2.2800446827179295 
3.730000000003447, 2.2942209626930747 
3.740000000003468, 2.2964701962552896 
3.750000000003489, 2.2951162142913364 
3.7600000000035103, 2.284216897008986 
3.7700000000035314, 1.9497533817529493 
3.7800000000035525, -4.159851278748053 
3.7900000000035736, -4.246310177947668 
3.8000000000035947, -4.250521319047636 
3.810000000003616, -4.24915978046178 
3.820000000003637, -4.2407430902420735 
3.830000000003658, -4.1904692878878915 
3.840000000003679, -4.206155797473754 
3.8500000000037002, -4.21058528121601 
3.8600000000037213, -4.209912511230522 
3.8700000000037424, -4.209519286119699 
3.8800000000037635, -4.207919993563945 
3.8900000000037847, -4.207390026774355 
3.9000000000038058, -4.204353732665638 
3.910000000003827, -4.19393584795397 
3.920000000003848, -4.217669958762445 
3.930000000003869, -4.223463390575932 
3.94000000000389, -4.223451329127373 
3.9500000000039113, -4.218340969939648 
3.9600000000039324, -4.127667573959567 
3.9700000000039535, 2.1926730861872104 
3.9800000000039746, 2.459625027672926 
3.9900000000039957, 2.4677807351985717 
4.000000000004016, 2.4676637942912016 
4.010000000003993, 2.4616504805457757 
4.02000000000397, 2.405023841798151 
4.030000000003946, 2.192790676865676 
4.040000000003923, 2.277204881122949 
4.0500000000039, 2.288770208486231 
4.0600000000038765, 2.2900611727789273 
4.070000000003853, 2.2897846686322283 
4.08000000000383, 2.2900760691116586 
4.090000000003807, 2.2909316777081346 
4.100000000003783, 2.291170239303995 
4.11000000000376, 2.2908258777101063 
4.120000000003737, 2.290185702481121 
4.130000000003713, 2.2878190988116383 
4.14000000000369, 2.271902139626837 
4.150000000003667, 1.9286096938628758 
4.1600000000036434, 2.929998924184022 
4.17000000000362, 3.0267579053955735 
4.180000000003597, 3.0303741518980796 
4.1900000000035735, 3.0276130391844207 
4.20000000000355, 2.9768291226494656 
4.210000000003527, -4.261953085229555 
4.220000000003504, -4.543265171943409 
4.23000000000348, -4.548204665145615 
4.240000000003457, -4.546802741505676 
4.250000000003434, -4.538400661786066 
4.26000000000341, -4.518175534851879 
4.270000000003387, -4.527826554746894 
4.280000000003364, -4.527873475220474 
4.2900000000033405, -4.5274802097636835 
4.300000000003317, -4.526746652920039 
4.310000000003294, -4.525844732696397 
4.320000000003271, -4.523612687824051 
4.330000000003247, -4.51002532145322 
4.340000000003224, -4.535591627192659 
4.350000000003201, -4.541871019874728 
4.360000000003177, -4.541553043595179 
4.370000000003154, -4.533797631405628 
4.380000000003131, -4.117600940164037 
4.390000000003107, 2.8349854557039604 
4.400000000003084, 2.877491059558384 
4.410000000003061, 2.8793912387968756 
4.4200000000030375, 2.8755644191322363 
4.430000000003014, 2.8207894778911866 
4.440000000002991, 2.231364460951752 
4.450000000002968, 2.475567431960522 
4.460000000002944, 2.4886562215098964 
4.470000000002921, 2.4898720893825326 
4.480000000002898, 2.489706924925731 
4.490000000002874, 2.4892883850800662 
4.500000000002851, 2.488078646636505 
4.510000000002828, 2.4865029709438713 
4.520000000002804, 2.485892345570685 
4.530000000002781, 2.4850954507066034 
4.540000000002758, 2.4798640940731898 
4.5500000000027345, 2.442696423397585 
4.560000000002711, 2.5077974770810116 
4.570000000002688, 2.5850133130400343 
4.580000000002665, 2.5926168051352945 
4.590000000002641, 2.592635674793582 
4.600000000002618, 2.586322906513696 
4.610000000002595, 2.4370125212634894 
4.620000000002571, -4.386555290605882 
4.630000000002548, -4.497092389299115 
4.640000000002525, -4.500807650827201 
4.6500000000025015, -4.498961347662415 
4.660000000002478, -4.486243800301946 
4.670000000002455, -4.440865886257276 
4.6800000000024315, -4.462350642466921 
4.690000000002408, -4.4635520367406345 
4.700000000002385, -4.462843039418984 
4.710000000002362, -4.46155142421839 
4.720000000002338, -4.4601360124572755 
4.730000000002315, -4.459197053559137 
4.740000000002292, -4.4516995541810065 
4.750000000002268, -4.462690838614097 
4.760000000002245, -4.4686377619071465 
4.770000000002222, -4.468623286300884 
4.7800000000021985, -4.463449995555616 
4.790000000002175, -4.29636934354462 
4.800000000002152, 3.2274152004871524 
4.810000000002129, 3.306341734058737 
4.820000000002105, 3.3083388635959046 
4.830000000002082, 3.302782817532126 
4.840000000002059, 3.0072537044078844 
4.850000000002035, -3.7403013919865806 
4.860000000002012, -3.887817168484806 
4.870000000001989, -3.8932685288471256 
4.880000000001965, -3.8927624042502607 
4.890000000001942, -3.890336744363067 
4.900000000001919, -3.8832021672334194 
4.9100000000018955, -3.8819293108880544 
4.920000000001872, -3.883167657499821 
4.930000000001849, -3.88091258721404 
4.940000000001826, -3.882684930778411 
4.950000000001802, -3.8855889703614785 
4.960000000001779, -3.885768854608474 
4.970000000001756, -3.8843869547483694 
4.980000000001732, -3.8715994296134624 
4.990000000001709, -3.415120767313668 
5.000000000001686, -4.737715197833431 
