t, s[1].omega / s[0].omega 
0, -0.26003244261620967 
0.009999999999999995, -0.26415280496493593 
0.019999999999999934, -0.27033482651314944 
0.029999999999999874, -0.2788070988952844 
0.04000000000000012, -0.2889853433261984 
0.050000000000000405, -0.2992662808971667 
0.06000000000000069, -0.3078655246472092 
0.07000000000000098, -0.3139310467272595 
0.08000000000000126, -0.3176268315022778 
0.09000000000000155, -0.319495736419948 
0.10000000000000184, -0.3199712245105345 
0.11000000000000212, -0.3191958126631653 
0.12000000000000241, -0.31694088218884964 
0.130000000000002, -0.31246872261197395 
0.1400000000000009, -0.3043190389501623 
0.1499999999999998, -0.2903590785832174 
0.1599999999999987, -0.2691480952696004 
0.1699999999999976, -0.24290647266253088 
0.1799999999999965, -0.2177420696662801 
0.1899999999999954, -0.19846436277692087 
0.1999999999999943, -0.18562988742024986 
0.2099999999999932, -0.17758402797130063 
0.2199999999999921, -0.1726127543305253 
0.229999999999991, -0.16954560519168121 
0.2399999999999899, -0.1676663599067964 
0.2499999999999888, -0.1665291662262104 
0.2599999999999877, -0.16583464227902817 
0.2699999999999866, -0.16537123123292227 
0.2799999999999855, -0.164995282685664 
0.2899999999999844, -0.1646233771792875 
0.2999999999999833, -0.16422437962089856 
0.3099999999999822, -0.1638139486784347 
0.3199999999999811, -0.16346138639698818 
0.32999999999998, -0.1633168046055094 
0.3399999999999789, -0.16362743011293157 
0.3499999999999778, -0.16433791435180756 
0.35999999999997667, -0.1604039299510181 
0.36999999999997557, -0.09522069319696885 
0.37999999999997447, 0.41422623541612447 
0.38999999999997337, 1.015309327021822 
0.39999999999997227, 1.1158192038540429 
0.40999999999997117, 1.1332548797077135 
0.41999999999997006, 1.1375009131496836 
0.42999999999996896, 1.1380322455856509 
0.43999999999996786, 1.1361477170470426 
0.44999999999996676, 1.1300138119884446 
0.45999999999996566, 1.1117524606780822 
0.46999999999996456, 1.0608321372706029 
0.47999999999996346, 0.9890004890248495 
0.48999999999996235, 0.969841208508144 
0.49999999999996125, 0.9766351811307145 
0.5099999999999602, 0.9821863844425571 
0.519999999999959, 0.9846837042364978 
0.529999999999958, 0.9851785997448719 
0.5399999999999568, 0.9838805181230805 
0.5499999999999557, 0.979569917569922 
0.5599999999999546, 0.967013838244039 
0.5699999999999535, 0.9253358915875026 
0.5799999999999524, 0.8501638832251134 
0.5899999999999513, 1.286452790864482 
0.5999999999999502, 1.4995029618041378 
0.6099999999999491, 1.5258583617577126 
0.619999999999948, 1.5307673835102324 
0.6299999999999469, 1.53107882935339 
0.6399999999999458, 1.528055964506281 
0.6499999999999447, 1.5143092151140674 
0.6599999999999436, 1.4151468876284738 
0.6699999999999425, 0.7550288976870129 
0.6799999999999414, 0.6271448124095935 
0.6899999999999403, 0.7094733753657807 
0.6999999999999392, 0.7377910160875198 
0.7099999999999381, 0.7474098811002909 
0.719999999999937, 0.7509191478964751 
0.7299999999999359, 0.7518419277171479 
0.7399999999999348, 0.7510742316102073 
0.7499999999999337, 0.7482750389949335 
0.7599999999999326, 0.7414462640577394 
0.7699999999999315, 0.7241499728930634 
0.7799999999999304, 0.680822403264686 
0.7899999999999293, 0.6938237144426315 
0.7999999999999282, 1.1221231694675293 
0.8099999999999271, 1.2870966902095513 
0.819999999999926, 1.3130354570985903 
0.8299999999999249, 1.3186480257602553 
0.8399999999999238, 1.3194961190161036 
0.8499999999999227, 1.317582723185462 
0.8599999999999216, 1.3099797601049494 
0.8699999999999205, 1.2771388011354234 
0.8799999999999194, 1.1028983660930236 
0.8899999999999183, 0.8503777870513927 
0.8999999999999172, 0.8740528942085766 
0.9099999999999161, 0.9022275657466169 
0.919999999999915, 0.9125594398720127 
0.9299999999999139, 0.9162227337014544 
0.9399999999999128, 0.9171004901229688 
0.9499999999999117, 0.9161596162716069 
0.9599999999999106, 0.9129236528006442 
0.9699999999999095, 0.9050031737729247 
0.9799999999999084, 0.8868073137080286 
0.9899999999999073, 0.87338814398317 
0.9999999999999062, 1.012239331659519 
1.0099999999999052, 1.161665997918967 
1.019999999999904, 1.2009264069564873 
1.029999999999903, 1.2105009595492418 
1.039999999999902, 1.2129083664517009 
1.0499999999999008, 1.2124574109461903 
1.0599999999998997, 1.2087907960106414 
1.0699999999998986, 1.195342875622126 
1.0799999999998975, 1.1301465976800966 
1.0899999999998964, 0.8114554871506561 
1.0999999999998953, 0.5668328289164999 
1.1099999999998942, 0.5951294889885572 
1.119999999999893, 0.6210571211791263 
1.129999999999892, 0.6320460151889731 
1.1399999999998909, 0.6366400285834868 
1.1499999999998898, 0.6383819284300883 
1.1599999999998887, 0.63845198430156 
1.1699999999998876, 0.6369311897246379 
1.1799999999998865, 0.6327983953243113 
1.1899999999998854, 0.6222551784076839 
1.1999999999998843, 0.5899787562204677 
1.2099999999998832, 0.451904859146053 
1.219999999999882, -0.3515645210437613 
1.229999999999881, -3.446362771702089 
1.2399999999998799, -3.7344371516590726 
1.2499999999998788, -3.749673176898628 
1.2599999999998777, -3.751596958590458 
1.2699999999998766, -3.749827937575816 
1.2799999999998755, -3.740775221073129 
1.2899999999998744, -3.6518752489762476 
1.2999999999998733, -3.072666041764349 
1.3099999999998722, -3.285589035112545 
1.319999999999871, -3.302298941995327 
1.32999999999987, -3.303558834203715 
1.3399999999998689, -3.3029675147869946 
1.3499999999998678, -3.302228951866939 
1.3599999999998666, -3.300301499268987 
1.3699999999998655, -3.2992025479472247 
1.3799999999998644, -3.298881667478793 
1.3899999999998633, -3.294428589258648 
1.3999999999998622, -3.2765857065817166 
1.4099999999998611, -3.314667572226985 
1.41999999999986, -3.341505484842172 
1.429999999999859, -3.346723393583472 
1.4399999999998578, -3.3473771608355123 
1.4499999999998567, -3.3451734093229666 
1.4599999999998556, -3.3352054545334076 
1.4699999999998545, -3.2670224247311785 
1.4799999999998534, -1.3110004131292894 
1.4899999999998523, 1.227440038415009 
1.4999999999998512, 1.3164230813191606 
1.5099999999998501, 1.3278845648487894 
1.519999999999849, 1.3304384793140909 
1.529999999999848, 1.3308976027017523 
1.5399999999998468, 1.330667108597177 
1.5499999999998457, 1.3301650370567044 
1.5599999999998446, 1.3295180318585031 
1.5699999999998435, 1.328784761778168 
1.5799999999998424, 1.3280904369672233 
1.5899999999998413, 1.3275743008875804 
1.5999999999998402, 1.3271955151267834 
1.6099999999998391, 1.3266245958010696 
1.619999999999838, 1.3250764310921794 
1.629999999999837, 1.3200102164572534 
1.6399999999998358, 1.2965360868096485 
1.6499999999998347, 1.0174931117315968 
1.6599999999998336, -2.871211283928969 
1.6699999999998325, -3.353446145647324 
1.6799999999998314, -3.3814678051992617 
1.6899999999998303, -3.3860682468762335 
1.6999999999998292, -3.3860261366910565 
1.709999999999828, -3.382994761678372 
1.719999999999827, -3.3709153420285483 
1.729999999999826, -3.3077998096739223 
1.7399999999998248, -3.286900639206782 
1.7499999999998237, -3.305196496762946 
1.7599999999998226, -3.3071982655498298 
1.7699999999998215, -3.3064948917876604 
1.7799999999998204, -3.3068026480185844 
1.7899999999998193, -3.3068670542848793 
1.7999999999998182, -3.3062205432881706 
1.809999999999817, -3.3056881152958235 
1.819999999999816, -3.3019707865959553 
1.8299999999998149, -3.2699189151446584 
1.8399999999998138, -3.245571813999053 
1.8499999999998127, -3.511139402829694 
1.8599999999998116, -3.537605531793808 
1.8699999999998105, -3.5415735503012704 
1.8799999999998094, -3.5413073089091354 
1.8899999999998083, -3.5371996458771378 
1.8999999999998072, -3.5168761577584626 
1.909999999999806, -3.2048211049120083 
1.919999999999805, 0.0572124489630912 
1.9299999999998039, 0.8016756790131012 
1.9399999999998028, 0.8827703569522674 
1.9499999999998017, 0.8993375122047524 
1.9599999999998006, 0.9041206335771358 
1.9699999999997995, 0.9054129802718658 
1.9799999999997984, 0.9051627239208742 
1.9899999999997973, 0.9039270181280917 
1.9999999999997962, 0.9021558506753372 
2.0099999999998173, 0.9017823036010842 
2.0199999999998384, 0.9091699848373487 
2.0299999999998595, 0.9306820139470255 
2.0399999999998806, 0.9557733952736006 
2.0499999999999017, 0.9714634798359837 
2.059999999999923, 0.9786743574711314 
2.069999999999944, 0.9814361777524387 
2.079999999999965, 0.9818023050982015 
2.089999999999986, 0.9800175148666657 
2.100000000000007, 0.9738813829693717 
2.1100000000000283, 0.9514540911997799 
2.1200000000000494, 0.8269310529843719 
2.1300000000000705, 0.08273327520535405 
2.1400000000000916, -0.6638082542121192 
2.1500000000001127, -0.8600792702678843 
2.160000000000134, -0.9171052674907347 
2.170000000000155, -0.9373117922694346 
2.180000000000176, -0.9453225789072921 
2.190000000000197, -0.9484874108961229 
2.2000000000002182, -0.9492335819905924 
2.2100000000002393, -0.9481638587955041 
2.2200000000002604, -0.9447014550293037 
2.2300000000002815, -0.9364047965370679 
2.2400000000003026, -0.9156748844264113 
2.2500000000003237, -0.8568901601502823 
2.260000000000345, -0.6670957159634712 
2.270000000000366, -0.15948386030425932 
2.280000000000387, 0.2989070012284214 
2.290000000000408, 0.4351354708081024 
2.3000000000004293, 0.4709852610416698 
2.3100000000004504, 0.48268745610549485 
2.3200000000004715, 0.48708460893251715 
2.3300000000004926, 0.4886306340842178 
2.3400000000005137, 0.48873187149043973 
2.3500000000005348, 0.4878881765925871 
2.360000000000556, 0.48633212154547734 
2.370000000000577, 0.4842880467159114 
2.380000000000598, 0.4820707737619512 
2.390000000000619, 0.48004812496225135 
2.4000000000006403, 0.4785241771742248 
2.4100000000006614, 0.47765291973437485 
2.4200000000006825, 0.477431495802174 
2.4300000000007036, 0.4777353943396242 
2.4400000000007247, 0.47835548100221936 
2.450000000000746, 0.47903549157204717 
2.460000000000767, 0.4795122328680342 
2.470000000000788, 0.47953062960152276 
2.480000000000809, 0.47878443204996335 
2.49000000000083, 0.47670645625361663 
2.5000000000008513, 0.47185619226124603 
2.5100000000008724, 0.45975700046993123 
2.5200000000008935, 0.4228841649794668 
2.5300000000009146, 0.2700753330754946 
2.5400000000009357, -0.39076012976720503 
2.550000000000957, -1.1867518759470217 
2.560000000000978, -1.416882618713033 
2.570000000000999, -1.4701930560725676 
2.58000000000102, -1.4849186211467107 
2.5900000000010412, -1.489403914461353 
2.6000000000010624, -1.4903825275449392 
2.6100000000010835, -1.4897684555770698 
2.6200000000011046, -1.48863818705417 
2.6300000000011257, -1.489092039469352 
2.6400000000011468, -1.493885375782222 
2.650000000001168, -1.5024519410226027 
2.660000000001189, -1.5111922342570305 
2.67000000000121, -1.5180443346826697 
2.680000000001231, -1.5229643978370686 
2.6900000000012523, -1.526451141695759 
2.7000000000012734, -1.5288808661899012 
2.7100000000012945, -1.5304617676467265 
2.7200000000013156, -1.5313098675992265 
2.7300000000013367, -1.5314849641354018 
2.740000000001358, -1.5310015016060998 
2.750000000001379, -1.5298441763666324 
2.7600000000014, -1.5279865431691522 
2.770000000001421, -1.5253825393716025 
2.780000000001442, -1.5219029568273688 
2.7900000000014633, -1.5173072605549092 
2.8000000000014844, -1.5115601487698795 
2.8100000000015055, -1.505650403735848 
2.8200000000015266, -1.501671314607655 
2.8300000000015477, -1.5004955451673203 
2.840000000001569, -1.5006676482752836 
2.85000000000159, -1.5005224850808319 
2.860000000001611, -1.4989363323878935 
2.870000000001632, -1.4940312957128716 
2.8800000000016532, -1.4798705508869934 
2.8900000000016743, -1.4346500220874014 
2.9000000000016954, -1.2756499215525572 
2.9100000000017165, -0.8195445862926235 
2.9200000000017377, -0.2880553430452536 
2.9300000000017588, -0.056575394896234435 
2.94000000000178, 0.021332269263870378 
2.950000000001801, 0.050909580521933784 
2.960000000001822, 0.0639956921852627 
2.970000000001843, 0.07043286729134844 
2.9800000000018643, 0.07379144056499644 
2.9900000000018854, 0.07555909575305533 
3.0000000000019065, 0.0764243709616902 
3.0100000000019276, 0.07672088357364887 
3.0200000000019487, 0.07659298439253902 
3.03000000000197, 0.07605200897432172 
3.040000000001991, 0.07497194383223667 
3.050000000002012, 0.0730269894541473 
3.060000000002033, 0.06957289340158221 
3.070000000002054, 0.06376324240506627 
3.0800000000020753, 0.058227469444482996 
3.0900000000020964, 0.09646126803868053 
3.1000000000021175, 0.42784630681272795 
3.1100000000021386, 0.8580675811449299 
3.1200000000021597, 0.9614607975939965 
3.130000000002181, 0.9826171795788212 
3.140000000002202, 0.9882787724526454 
3.150000000002223, 0.9895785658820578 
3.160000000002244, 0.9886270414852139 
3.1700000000022652, 0.9849184643098923 
3.1800000000022863, 0.9752291899066508 
3.1900000000023074, 0.9512183465236965 
3.2000000000023285, 0.9060494499942534 
3.2100000000023496, 0.8671102269168486 
3.2200000000023707, 0.8577481649622232 
3.230000000002392, 0.8600507870668996 
3.240000000002413, 0.8628160786233963 
3.250000000002434, 0.8642550277627306 
3.260000000002455, 0.8643939493037957 
3.2700000000024763, 0.8630131388790717 
3.2800000000024974, 0.8587524214045817 
3.2900000000025185, 0.8460816783152263 
3.3000000000025396, 0.7962406110778149 
3.3100000000025607, 0.4796725852432228 
3.3200000000025818, -1.8654774313673357 
3.330000000002603, -4.013838836855032 
3.340000000002624, -4.0535564540315745 
3.350000000002645, -4.057131658257484 
3.360000000002666, -4.055849859870756 
3.3700000000026873, -4.0471136812972315 
3.3800000000027084, -3.922800693675876 
3.3900000000027295, -2.6939415592466127 
3.4000000000027506, -3.1152412430367695 
3.4100000000027717, -3.1419558695026146 
3.420000000002793, -3.1444973688655393 
3.430000000002814, -3.14408719082824 
3.440000000002835, -3.1434340474486917 
3.450000000002856, -3.141896613137944 
3.460000000002877, -3.140013026493264 
3.4700000000028983, -3.13985669045705 
3.4800000000029194, -3.1382838392119035 
3.4900000000029405, -3.1279902772903942 
3.5000000000029616, -3.1164601367673255 
3.5100000000029827, -3.1799513761408815 
3.520000000003004, -3.1998310068776235 
3.530000000003025, -3.203999871394582 
3.540000000003046, -3.2044106757365993 
3.550000000003067, -3.2020508215657713 
3.5600000000030882, -3.192763791008617 
3.5700000000031094, -3.1422269642173672 
3.5800000000031305, -2.2290129957835587 
3.5900000000031516, 0.8489511893564327 
3.6000000000031727, 1.069644241092878 
3.6100000000031938, 1.0947133921389778 
3.620000000003215, 1.1004077833896706 
3.630000000003236, 1.1019146317698065 
3.640000000003257, 1.1021215169948095 
3.650000000003278, 1.102018777918008 
3.6600000000032993, 1.1023086102680897 
3.6700000000033204, 1.1036378322172333 
3.6800000000033415, 1.106198266798835 
3.6900000000033626, 1.1093386499852786 
3.7000000000033837, 1.1120653872738522 
3.710000000003405, 1.1138296987295526 
3.720000000003426, 1.1145649021189348 
3.730000000003447, 1.1142415641746943 
3.740000000003468, 1.1122838967821982 
3.750000000003489, 1.1058374237879394 
3.7600000000035103, 1.0776566504721752 
3.7700000000035314, 0.7913186647853041 
3.7800000000035525, -2.3919368894821735 
3.7900000000035736, -2.978181984462004 
3.8000000000035947, -3.0155805774267406 
3.810000000003616, -3.0211867207094776 
3.820000000003637, -3.021575211821088 
3.830000000003658, -3.020200464583428 
3.840000000003679, -3.0166749848411323 
3.8500000000037002, -3.0085929553455797 
3.8600000000037213, -3.0040301737460857 
3.8700000000037424, -3.0062358996919896 
3.8800000000037635, -3.0059763037821607 
3.8900000000037847, -3.0024167392970473 
3.9000000000038058, -3.0040989329016408 
3.910000000003827, -3.013986853327118 
3.920000000003848, -3.0182516897007483 
3.930000000003869, -3.0192956120471 
3.94000000000389, -3.018609882117932 
3.9500000000039113, -3.014349629252345 
3.9600000000039324, -2.993830530769151 
3.9700000000039535, -2.8061409946501024 
3.9800000000039746, -0.028086120343002292 
3.9900000000039957, 0.975497140527995 
4.000000000004016, 1.0389023968007849 
4.010000000003993, 1.050169410876687 
4.02000000000397, 1.0531488632511683 
4.030000000003946, 1.0537884028967908 
4.040000000003923, 1.0534246810515497 
4.0500000000039, 1.0524388911526192 
4.0600000000038765, 1.050994558428231 
4.070000000003853, 1.0492942780990084 
4.08000000000383, 1.0476573089587238 
4.090000000003807, 1.0464010864481357 
4.100000000003783, 1.0456366838543718 
4.11000000000376, 1.045207517812895 
4.120000000003737, 1.0447791141895744 
4.130000000003713, 1.0438559596052426 
4.14000000000369, 1.0414173149312285 
4.150000000003667, 1.0340138088535764 
4.1600000000036434, 1.0023590332486223 
4.17000000000362, 0.6982993813694249 
4.180000000003597, -2.3593880962803544 
4.1900000000035735, -2.985945503480987 
4.20000000000355, -3.0329684534784778 
4.210000000003527, -3.0414498888767776 
4.220000000003504, -3.042910465095555 
4.23000000000348, -3.041821879639727 
4.240000000003457, -3.038118032083985 
4.250000000003434, -3.0265720371195433 
4.26000000000341, -3.0028362361218983 
4.270000000003387, -3.0043898041750885 
4.280000000003364, -3.009016113146429 
4.2900000000033405, -3.0087890763765524 
4.300000000003317, -3.0072471494343023 
4.310000000003294, -3.009768290681959 
4.320000000003271, -3.012812660978768 
4.330000000003247, -3.013671130597414 
4.340000000003224, -3.013524227992065 
4.350000000003201, -3.0114298531780745 
4.360000000003177, -3.0000111061896666 
4.370000000003154, -2.8839357921106687 
4.380000000003131, 0.2311452218638444 
4.390000000003107, 1.490890348457571 
4.400000000003084, 1.534856432560246 
4.410000000003061, 1.5410660789131554 
4.4200000000030375, 1.5418033775416917 
4.430000000003014, 1.5398605388636197 
4.440000000002991, 1.5328893053384298 
4.450000000002968, 1.5102576514062487 
4.460000000002944, 1.4606156658916052 
4.470000000002921, 1.4405335837613316 
4.480000000002898, 1.4488946879056692 
4.490000000002874, 1.454065860349084 
4.500000000002851, 1.4555130642693674 
4.510000000002828, 1.4546420228971382 
4.520000000002804, 1.4510399989058296 
4.530000000002781, 1.4435945507380128 
4.540000000002758, 1.4453789070138299 
4.5500000000027345, 1.4848481587502378 
4.560000000002711, 1.5157521694749114 
4.570000000002688, 1.5262140897654344 
4.580000000002665, 1.529106408249645 
4.590000000002641, 1.528987030192317 
4.600000000002618, 1.525606911980486 
4.610000000002595, 1.5088120237522014 
4.620000000002571, 1.302795068562212 
4.630000000002548, -2.4549359292592317 
4.640000000002525, -3.0205245696345306 
4.6500000000025015, -3.048072740465323 
4.660000000002478, -3.051545041398575 
4.670000000002455, -3.0513304743420244 
4.6800000000024315, -3.049969518422281 
4.690000000002408, -3.046771049935191 
4.700000000002385, -3.041756960877504 
4.710000000002362, -3.041266331706444 
4.720000000002338, -3.041762836016354 
4.730000000002315, -3.038823833693904 
4.740000000002292, -3.03253345424936 
4.750000000002268, -3.046932984601204 
4.760000000002245, -3.0601548264741463 
4.770000000002222, -3.0639153153067196 
4.7800000000021985, -3.0645682471272213 
4.790000000002175, -3.0629900374232264 
4.800000000002152, -3.0560282265092424 
4.810000000002129, -3.0219387645581737 
4.820000000002105, -2.6401938674524765 
4.830000000002082, 0.5427022012616576 
4.840000000002059, 1.0168508459711407 
4.850000000002035, 1.0562452819295518 
4.860000000002012, 1.0642857991544667 
4.870000000001989, 1.0664930423737422 
4.880000000001965, 1.0669760713764131 
4.890000000001942, 1.0668291184881018 
4.900000000001919, 1.0664918569436204 
4.9100000000018955, 1.0662130320532455 
4.920000000001872, 1.0661304214095166 
4.930000000001849, 1.0662627854293354 
4.940000000001826, 1.0665237018257736 
4.950000000001802, 1.0667709160698713 
4.960000000001779, 1.0668383957279053 
4.970000000001756, 1.066499574468097 
4.980000000001732, 1.065285524839457 
4.990000000001709, 1.0617816530120379 
