t, s[1].omega / s[0].omega 
0, -1.6393690894936017 
0.009999999999999995, -1.550588024583641 
0.019999999999999934, -1.3835518814755035 
0.029999999999999874, -1.111702921605979 
0.04000000000000012, -0.8223592057962497 
0.050000000000000405, -0.6398781021200814 
0.06000000000000069, -0.5555531938185853 
0.07000000000000098, -0.5203717951817101 
0.08000000000000126, -0.5061387166738436 
0.09000000000000155, -0.5005944471289304 
0.10000000000000184, -0.49862459691044025 
0.11000000000000212, -0.49806676858579274 
0.12000000000000241, -0.49798242384638947 
0.130000000000002, -0.49794774102598804 
0.1400000000000009, -0.4977599769546779 
0.1499999999999998, -0.4973238238198038 
0.1599999999999987, -0.4966231713854349 
0.1699999999999976, -0.49572752403434056 
0.1799999999999965, -0.49478872342758684 
0.1899999999999954, -0.4940010270492995 
0.1999999999999943, -0.4935414848049346 
0.2099999999999932, -0.4935291132099609 
0.2199999999999921, -0.4940108094647046 
0.229999999999991, -0.4949504367336033 
0.2399999999999899, -0.49621124742226447 
0.2499999999999888, -0.49756159941118233 
0.2599999999999877, -0.4987388451702456 
0.2699999999999866, -0.4995442443025568 
0.2799999999999855, -0.4998940458398022 
0.2899999999999844, -0.4998017078349399 
0.2999999999999833, -0.499338338140077 
0.3099999999999822, -0.4986290965479718 
0.3199999999999811, -0.49793581444246104 
0.32999999999998, -0.4979335455059397 
0.3399999999999789, -0.5005314773757943 
0.3499999999999778, -0.5114575358302124 
0.35999999999997667, -0.5492362365163573 
0.36999999999997557, -0.6784393183849697 
0.37999999999997447, -1.0834952272587535 
0.38999999999997337, -1.693670995203639 
0.39999999999997227, -1.9724444873565008 
0.40999999999997117, -2.0577032207521264 
0.41999999999997006, -2.0886913554769473 
0.42999999999996896, -2.101827953366108 
0.43999999999996786, -2.1075884563659018 
0.44999999999996676, -2.1097746289452184 
0.45999999999996566, -2.1100099296353987 
0.46999999999996456, -2.1090340055301566 
0.47999999999996346, -2.107085256336526 
0.48999999999996235, -2.103766470347341 
0.49999999999996125, -2.0984084386388995 
0.5099999999999602, -2.092740254942194 
0.519999999999959, -2.090975571403392 
0.529999999999958, -2.091681847275857 
0.5399999999999568, -2.091414479348436 
0.5499999999999557, -2.0880751368130874 
0.5599999999999546, -2.0751122969659583 
0.5699999999999535, -2.034324886009379 
0.5799999999999524, -2.101775405919766 
0.5899999999999513, -2.353370693465421 
0.5999999999999502, -2.4358189942702633 
0.6099999999999491, -2.457720409670899 
0.619999999999948, -2.4653261748749524 
0.6299999999999469, -2.468165403387134 
0.6399999999999458, -2.468669592537342 
0.6499999999999447, -2.4674433604643715 
0.6599999999999436, -2.464119517053029 
0.6699999999999425, -2.456485535455721 
0.6799999999999414, -2.43639907008371 
0.6899999999999403, -2.391575124929761 
0.6999999999999392, -2.372205098359477 
0.7099999999999381, -2.3823856285887697 
0.719999999999937, -2.3864077348268724 
0.7299999999999359, -2.3863206287539453 
0.7399999999999348, -2.3842776810773993 
0.7499999999999337, -2.384782784367899 
0.7599999999999326, -2.391312320827863 
0.7699999999999315, -2.3967971241106616 
0.7799999999999304, -2.399311172729214 
0.7899999999999293, -2.4002213301899324 
0.7999999999999282, -2.3998987093661013 
0.8099999999999271, -2.3976283653668924 
0.819999999999926, -2.3910647099924884 
0.8299999999999249, -2.3724714657098684 
0.8399999999999238, -2.3095598382351663 
0.8499999999999227, -2.006199863602819 
0.8599999999999216, -0.7111979191741102 
0.8699999999999205, 0.139374707280653 
0.8799999999999194, 0.30361783026280004 
0.8899999999999183, 0.34459387026816624 
0.8999999999999172, 0.3586026462150616 
0.9099999999999161, 0.36429221923992977 
0.919999999999915, 0.36665492555427626 
0.9299999999999139, 0.36731496538398173 
0.9399999999999128, 0.3667677175614817 
0.9499999999999117, 0.36491287707976217 
0.9599999999999106, 0.3609757114253859 
0.9699999999999095, 0.3527368074893734 
0.9799999999999084, 0.3338760859525872 
0.9899999999999073, 0.2860362847142795 
0.9999999999999062, 0.19076574084142267 
1.0099999999999052, 0.6961298640922793 
1.019999999999904, 1.5991347534995368 
1.029999999999903, 1.6693138405025163 
1.039999999999902, 1.6780603797938394 
1.0499999999999008, 1.6792390573955056 
1.0599999999998997, 1.6770914552555944 
1.0699999999998986, 1.6664313044850043 
1.0799999999998975, 1.5900094131158287 
1.0899999999998964, 1.0495863509063237 
1.0999999999998953, 1.0168550427476633 
1.1099999999998942, 1.0916090882221134 
1.119999999999893, 1.1100154139990301 
1.129999999999892, 1.1151317906645508 
1.1399999999998909, 1.1163164758809079 
1.1499999999998898, 1.115642727185237 
1.1599999999998887, 1.1134534815373343 
1.1699999999998876, 1.1101632650791633 
1.1799999999998865, 1.1105551662413577 
1.1899999999998854, 1.128253471819225 
1.1999999999998843, 1.158303133377332 
1.2099999999998832, 1.1776278729600944 
1.219999999999882, 1.185713989522252 
1.229999999999881, 1.188504979707579 
1.2399999999998799, 1.1887037037046126 
1.2499999999998788, 1.1864435503972035 
1.2599999999998777, 1.177880560315463 
1.2699999999998766, 1.134485858656833 
1.2799999999998755, 0.6261538679850698 
1.2899999999998744, -1.6048786551640564 
1.2999999999998733, -2.0497232073414757 
1.3099999999998722, -2.101263227887279 
1.319999999999871, -2.110979767507954 
1.32999999999987, -2.1129569238248282 
1.3399999999998689, -2.1128002781082484 
1.3499999999998678, -2.1124369021132057 
1.3599999999998666, -2.1129281020641493 
1.3699999999998655, -2.1136552332918646 
1.3799999999998644, -2.1138602452542283 
1.3899999999998633, -2.1138270812899784 
1.3999999999998622, -2.113703883832628 
1.4099999999998611, -2.112731450886689 
1.41999999999986, -2.1091836793957968 
1.429999999999859, -2.0977609909266484 
1.4399999999998578, -2.05627128304337 
1.4499999999998567, -1.8714562135349113 
1.4599999999998556, -1.1009482526937302 
1.4699999999998545, -0.16780435668678279 
1.4799999999998534, 0.11362064941326186 
1.4899999999998523, 0.18671588635741462 
1.4999999999998512, 0.21136328739490046 
1.5099999999998501, 0.22150030166087892 
1.519999999999849, 0.22617406834722945 
1.529999999999848, 0.22840040234466455 
1.5399999999998468, 0.22935660660827542 
1.5499999999998457, 0.22953814113864487 
1.5599999999998446, 0.22912794672495362 
1.5699999999998435, 0.22811324549947187 
1.5799999999998424, 0.22629966442195606 
1.5899999999998413, 0.22330937283650348 
1.5999999999998402, 0.21897416872904021 
1.6099999999998391, 0.2171633239505087 
1.619999999999838, 0.2512433484907482 
1.629999999999837, 0.43666677863343484 
1.6399999999998358, 0.6753165341815148 
1.6499999999998347, 0.7633916135324692 
1.6599999999998336, 0.7873966908640787 
1.6699999999998325, 0.7948270301801632 
1.6799999999998314, 0.7971195503949529 
1.6899999999998303, 0.7970839137846979 
1.6999999999998292, 0.7950807076803438 
1.709999999999828, 0.7900626628000632 
1.719999999999827, 0.7792813035220083 
1.729999999999826, 0.758994336392482 
1.7399999999998248, 0.7314259195213891 
1.7499999999998237, 0.7099360445850234 
1.7599999999998226, 0.7011173315318717 
1.7699999999998215, 0.6994326468561944 
1.7799999999998204, 0.6997902474510169 
1.7899999999998193, 0.7002594407007662 
1.7999999999998182, 0.7002512653154385 
1.809999999999817, 0.6994087412558326 
1.819999999999816, 0.6970059252132638 
1.8299999999998149, 0.6908468145646599 
1.8399999999998138, 0.6724593786257327 
1.8499999999998127, 0.5929803071872424 
1.8599999999998116, -0.0667534567389082 
1.8699999999998105, -2.294896869463332 
1.8799999999998094, -2.681855744761013 
1.8899999999998083, -2.7311864196417477 
1.8999999999998072, -2.7427292316015697 
1.909999999999806, -2.7457952103168295 
1.919999999999805, -2.745836744251384 
1.9299999999998039, -2.744016668734211 
1.9399999999998028, -2.739404384571248 
1.9499999999998017, -2.727317933692011 
1.9599999999998006, -2.7088853395020016 
1.9699999999997995, -2.7094068704673155 
1.9799999999997984, -2.713174912915845 
1.9899999999997973, -2.713046643891879 
1.9999999999997962, -2.710494599223753 
2.0099999999998173, -2.7117468156019577 
2.0199999999998384, -2.7191371841912355 
2.0299999999998595, -2.7233773561569135 
2.0399999999998806, -2.724786973934063 
2.0499999999999017, -2.7247824951235287 
2.059999999999923, -2.722784593911272 
2.069999999999944, -2.71517652350467 
2.079999999999965, -2.6827869540106577 
2.089999999999986, -2.4541451576958546 
2.100000000000007, -0.4777602951143309 
2.1100000000000283, 0.602987232984737 
2.1200000000000494, 0.7105216197231904 
2.1300000000000705, 0.7315294738949274 
2.1400000000000916, 0.7377726346482394 
2.1500000000001127, 0.7399266226813103 
2.160000000000134, 0.7405887785958958 
2.170000000000155, 0.7406577317545053 
2.180000000000176, 0.740602336434287 
2.190000000000197, 0.7408220837459438 
2.2000000000002182, 0.7417587635270041 
2.2100000000002393, 0.7438276617149948 
2.2200000000002604, 0.7471322640165775 
2.2300000000002815, 0.7511710100501219 
2.2400000000003026, 0.7550188311228968 
2.2500000000003237, 0.7579309192740024 
2.260000000000345, 0.7596486689121017 
2.270000000000366, 0.7601867279785657 
2.280000000000387, 0.7594390938917729 
2.290000000000408, 0.7566363120594745 
2.3000000000004293, 0.748692329837926 
2.3100000000004504, 0.7214171280908136 
2.3200000000004715, 0.5755346918995563 
2.3300000000004926, -0.4435044459845073 
2.3400000000005137, -1.5821970992689849 
2.3500000000005348, -1.7830743200984578 
2.360000000000556, -1.819131549277629 
2.370000000000577, -1.827786312999948 
2.380000000000598, -1.8298749100717284 
2.390000000000619, -1.8298096746427936 
2.4000000000006403, -1.829263693665408 
2.4100000000006614, -1.829785545075821 
2.4200000000006825, -1.8317601757934834 
2.4300000000007036, -1.833870001660316 
2.4400000000007247, -1.835284652090797 
2.450000000000746, -1.8361177699049396 
2.460000000000767, -1.836487718293086 
2.470000000000788, -1.8361273316476765 
2.480000000000809, -1.8344980481433821 
2.49000000000083, -1.8307363712610374 
2.5000000000008513, -1.8233717198755983 
2.5100000000008724, -1.8098031624393773 
2.5200000000008935, -1.784858138858502 
2.5300000000009146, -1.736354541702979 
2.5400000000009357, -1.6333940281147936 
2.550000000000957, -1.4218622755370103 
2.560000000000978, -1.148540182141771 
2.570000000000999, -0.9947709034396567 
2.58000000000102, -0.9542436373701625 
2.5900000000010412, -0.9516388726042028 
2.6000000000010624, -0.9556583226669645 
2.6100000000010835, -0.9589773398671442 
2.6200000000011046, -0.960713588824467 
2.6300000000011257, -0.9610255230581727 
2.6400000000011468, -0.9598465219486734 
2.650000000001168, -0.9564341728721566 
2.660000000001189, -0.9486483580724847 
2.67000000000121, -0.9313037043243874 
2.680000000001231, -0.8936842573714252 
2.6900000000012523, -0.8218004214900585 
2.7000000000012734, -0.7178990437603884 
2.7100000000012945, -0.6137644981728886 
2.7200000000013156, -0.5360000339382164 
2.7300000000013367, -0.4855397625438725 
2.740000000001358, -0.45366612047954363 
2.750000000001379, -0.43307426116079445 
2.7600000000014, -0.4192999191260137 
2.770000000001421, -0.4097904205311685 
2.780000000001442, -0.4030782591258471 
2.7900000000014633, -0.39829884261166765 
2.8000000000014844, -0.3949304304423762 
2.8100000000015055, -0.39265364350776183 
2.8200000000015266, -0.3912742492448754 
2.8300000000015477, -0.3906809219589925 
2.840000000001569, -0.39082396067707253 
2.85000000000159, -0.39170836756320326 
2.860000000001611, -0.39339916084190935 
2.870000000001632, -0.39604035329482545 
2.8800000000016532, -0.3998931249103976 
2.8900000000016743, -0.40540534363674663 
2.9000000000016954, -0.4133374274273616 
2.9100000000017165, -0.42499387155805124 
2.9200000000017377, -0.4426428040202107 
2.9300000000017588, -0.47017664495730144 
2.94000000000178, -0.5135706611577173 
2.950000000001801, -0.5785367845540951 
2.960000000001822, -0.6605018878429993 
2.970000000001843, -0.7368434059669429 
2.9800000000018643, -0.7876401439622968 
2.9900000000018854, -0.8142876422353613 
3.0000000000019065, -0.826815053555835 
3.0100000000019276, -0.8324258344409442 
3.0200000000019487, -0.8346531648805335 
3.03000000000197, -0.8349623095522608 
3.040000000001991, -0.8337532722151101 
3.050000000002012, -0.8306847848341473 
3.060000000002033, -0.8244913671240246 
3.070000000002054, -0.8121952670913363 
3.0800000000020753, -0.7873370999015813 
3.0900000000020964, -0.7366070404279889 
3.1000000000021175, -0.6138287151637042 
3.1100000000021386, 0.9712911911883703 
3.1200000000021597, 2.4898917830717386 
3.130000000002181, 2.517095488744588 
3.140000000002202, 2.5191057481127506 
3.150000000002223, 2.516126601398804 
3.160000000002244, 2.484480235962149 
3.1700000000022652, -0.006478322546916204 
3.1800000000022863, -2.9044202473847873 
3.1900000000023074, -2.9991897484371957 
3.2000000000023285, -3.0073177068954062 
3.2100000000023496, -3.0079519834061914 
3.2200000000023707, -3.0072667090728276 
3.230000000002392, -3.0061003709082814 
3.240000000002413, -3.003592673286244 
3.250000000002434, -3.0019458535923444 
3.260000000002455, -3.002039929969744 
3.2700000000024763, -2.999903009503298 
3.2800000000024974, -2.988343969842128 
3.2900000000025185, -2.9870416599254423 
3.3000000000025396, -3.041724997181289 
3.3100000000025607, -3.0589672222118502 
3.3200000000025818, -3.063044586209681 
3.330000000002603, -3.063605998118967 
3.340000000002624, -3.061665406083855 
3.350000000002645, -3.0544804183717265 
3.360000000002666, -3.0240255527500235 
3.3700000000026873, -2.7295142872396285 
3.3800000000027084, 0.063757232659886 
3.3900000000027295, 0.804651816282443 
3.4000000000027506, 0.8741296477258007 
3.4100000000027717, 0.8883560707114452 
3.420000000002793, 0.8924916049652444 
3.430000000002814, 0.8936349520963646 
3.440000000002835, 0.8935598027238709 
3.450000000002856, 0.892955692961355 
3.460000000002877, 0.8925456461229532 
3.4700000000028983, 0.8939176970566981 
3.4800000000029194, 0.8998131449066445 
3.4900000000029405, 0.9112501587002677 
3.5000000000029616, 0.9238999849804891 
3.5100000000029827, 0.9329566925868196 
3.520000000003004, 0.9378584470996832 
3.530000000003025, 0.9399277983648032 
3.540000000003046, 0.9400983840037289 
3.550000000003067, 0.9382935310519654 
3.5600000000030882, 0.9323264869126305 
3.5700000000031094, 0.9107783034193451 
3.5800000000031305, 0.7866560480988342 
3.5900000000031516, -0.21365958278232222 
3.6000000000031727, -1.4023221947264697 
3.6100000000031938, -1.6273490225769272 
3.620000000003215, -1.6698668254172877 
3.630000000003236, -1.6804365744744767 
3.640000000003257, -1.6832231115278506 
3.650000000003278, -1.6833689703623307 
3.6600000000032993, -1.6825023985229848 
3.6700000000033204, -1.6823494586357792 
3.6800000000033415, -1.6849904892188132 
3.6900000000033626, -1.6898636073849254 
3.7000000000033837, -1.6944580984335016 
3.710000000003405, -1.6977127250734196 
3.720000000003426, -1.699824565930113 
3.730000000003447, -1.7010826176021303 
3.740000000003468, -1.7015414184599063 
3.750000000003489, -1.7011293928636575 
3.7600000000035103, -1.699736663271333 
3.7700000000035314, -1.6972118337759494 
3.7800000000035525, -1.6933007656436647 
3.7900000000035736, -1.6875122506932918 
3.8000000000035947, -1.6788360151332782 
3.810000000003616, -1.6652086144643943 
3.820000000003637, -1.6431387360768568 
3.830000000003658, -1.6109776975089027 
3.840000000003679, -1.5808619693779247 
3.8500000000037002, -1.5706169834913901 
3.8600000000037213, -1.5727879419657758 
3.8700000000037424, -1.575578406277344 
3.8800000000037635, -1.576405025141771 
3.8900000000037847, -1.5750524493110745 
3.9000000000038058, -1.56999160608046 
3.910000000003827, -1.555385457743174 
3.920000000003848, -1.5186957900052298 
3.930000000003869, -1.522921875553771 
3.94000000000389, -1.942125278680151 
3.9500000000039113, -2.2861569528630454 
3.9600000000039324, -2.367075569620881 
3.9700000000039535, -2.3896697392361554 
3.9800000000039746, -2.3979304312243763 
3.9900000000039957, -2.401102725997034 
4.000000000004016, -2.4017904677317152 
4.010000000003993, -2.400796791714032 
4.02000000000397, -2.398048057467283 
4.030000000003946, -2.392120939730616 
4.040000000003923, -2.3785310036415845 
4.0500000000039, -2.3555268239789227 
4.0600000000038765, -2.347993820099226 
4.070000000003853, -2.3528864697735647 
4.08000000000383, -2.3547732454037753 
4.090000000003807, -2.353587418144674 
4.100000000003783, -2.350019712714717 
4.11000000000376, -2.3517271160067206 
4.120000000003737, -2.364768315935987 
4.130000000003713, -2.374522658460397 
4.14000000000369, -2.378827803366602 
4.150000000003667, -2.3805263763585875 
4.1600000000036434, -2.380685460700273 
4.17000000000362, -2.3791739961666063 
4.180000000003597, -2.3749254826194295 
4.1900000000035735, -2.3647679128337384 
4.20000000000355, -2.3378425106930605 
4.210000000003527, -2.2426195630496624 
4.220000000003504, -1.782640399502052 
4.23000000000348, -0.8658936723148767 
4.240000000003457, -0.5078430096444658 
4.250000000003434, -0.4143994988178685 
4.26000000000341, -0.38647297981307027 
4.270000000003387, -0.37727802753309103 
4.280000000003364, -0.3742183113280072 
4.2900000000033405, -0.3733100031591634 
4.300000000003317, -0.3731362534991288 
4.310000000003294, -0.3731460854332734 
4.320000000003271, -0.3731079613876575 
4.330000000003247, -0.37292211572424433 
4.340000000003224, -0.372562371350212 
4.350000000003201, -0.3720691154438567 
4.360000000003177, -0.3715530409112527 
4.370000000003154, -0.3711820515769519 
4.380000000003131, -0.37114788867233967 
4.390000000003107, -0.37163530689714985 
4.400000000003084, -0.3728103217177943 
4.410000000003061, -0.3748088492826733 
4.4200000000030375, -0.37768404655656024 
4.430000000003014, -0.38129713725354764 
4.440000000002991, -0.3852329887748841 
4.450000000002968, -0.388896058144269 
4.460000000002944, -0.39178323298313433 
4.470000000002921, -0.39367574262542593 
4.480000000002898, -0.3945893809575964 
4.490000000002874, -0.3946005468922139 
4.500000000002851, -0.3936878593450498 
4.510000000002828, -0.3915825593894383 
4.520000000002804, -0.3874868144637925 
4.530000000002781, -0.3792793362135818 
4.540000000002758, -0.36098789799925907 
4.5500000000027345, -0.3148218681306545 
4.560000000002711, -0.19656095093857998 
4.570000000002688, 0.014040135595595074 
4.580000000002665, 0.18542066794279036 
4.590000000002641, 0.259918107591043 
4.600000000002618, 0.2877216162192732 
4.610000000002595, 0.2988223806129934 
4.620000000002571, 0.3035782848642132 
4.630000000002548, 0.30553924797018234 
4.640000000002525, 0.3060330405714618 
4.6500000000025015, 0.30561589594311833 
4.660000000002478, 0.304586916371554 
4.670000000002455, 0.3031979282624265 
4.6800000000024315, 0.30172388025843067 
4.690000000002408, 0.30044751579771056 
4.700000000002385, 0.29961634510370616 
4.710000000002362, 0.29942529485726777 
4.720000000002338, 0.3000276245656724 
4.730000000002315, 0.3015292280371105 
4.740000000002292, 0.3039214318069968 
4.750000000002268, 0.3069718493981654 
4.760000000002245, 0.3101977405459563 
4.770000000002222, 0.3130321203491329 
4.7800000000021985, 0.3150637116216357 
4.790000000002175, 0.3161115873208774 
4.800000000002152, 0.31609234936405867 
4.810000000002129, 0.3147914306349319 
4.820000000002105, 0.311548417257743 
4.830000000002082, 0.30464236781064724 
4.840000000002059, 0.28989218625420665 
4.850000000002035, 0.25839519246407855 
4.860000000002012, 0.19958167741372418 
4.870000000001989, 0.12479673719356685 
4.880000000001965, 0.0695370884913148 
4.890000000001942, 0.04261228222290027 
4.900000000001919, 0.031378271931961736 
4.9100000000018955, 0.026572652952818476 
4.920000000001872, 0.024311881853399574 
4.930000000001849, 0.023140572913520098 
4.940000000001826, 0.022492891641215193 
4.950000000001802, 0.022116205224540813 
4.960000000001779, 0.021856602852958814 
