t, s[1].omega / s[0].omega 
0, -1.4800049690619876 
0.009999999999999995, -1.480192481686456 
0.019999999999999934, -1.4797641319656316 
0.029999999999999874, -1.478706898224329 
0.04000000000000012, -1.477015760116646 
0.050000000000000405, -1.4746899157909503 
0.06000000000000069, -1.4716773723757282 
0.07000000000000098, -1.4678452941942546 
0.08000000000000126, -1.4632089271651023 
0.09000000000000155, -1.458486314156358 
0.10000000000000184, -1.4551504364319654 
0.11000000000000212, -1.4539407329575036 
0.12000000000000241, -1.4539182398413462 
0.130000000000002, -1.453732578324736 
0.1400000000000009, -1.452355729925745 
0.1499999999999998, -1.4483060476862755 
0.1599999999999987, -1.4376827406466206 
0.1699999999999976, -1.4091253244785398 
0.1799999999999965, -1.3317352316200763 
0.1899999999999954, -1.1484019353861492 
0.1999999999999943, -0.8564152751489005 
0.2099999999999932, -0.59170847942194 
0.2199999999999921, -0.43242510776815946 
0.229999999999991, -0.3488942381994247 
0.2399999999999899, -0.30457031530417433 
0.2499999999999888, -0.27974492440239185 
0.2599999999999877, -0.26505319116798653 
0.2699999999999866, -0.25596989315249397 
0.2799999999999855, -0.25019839643177344 
0.2899999999999844, -0.24651681658543842 
0.2999999999999833, -0.24425605466023873 
0.3099999999999822, -0.24305428588987602 
0.3199999999999811, -0.24273989330212614 
0.32999999999998, -0.24328082289972439 
0.3399999999999789, -0.24477615702144653 
0.3499999999999778, -0.24748622835745132 
0.35999999999997667, -0.2519157647070075 
0.36999999999997557, -0.25899340659974246 
0.37999999999997447, -0.27045408397616366 
0.38999999999997337, -0.2896847214067876 
0.39999999999997227, -0.32366630120428563 
0.40999999999997117, -0.38733715325290374 
0.41999999999997006, -0.5107948511095065 
0.42999999999996896, -0.731122298720148 
0.43999999999996786, -1.00872437928342 
0.44999999999996676, -1.2063608393381453 
0.45999999999996566, -1.2948849226306547 
0.46999999999996456, -1.3278251838824344 
0.47999999999996346, -1.339832355620866 
0.48999999999996235, -1.3441561872585424 
0.49999999999996125, -1.345363353799526 
0.5099999999999602, -1.3450878324572244 
0.519999999999959, -1.344223773871492 
0.529999999999958, -1.3441287988030644 
0.5399999999999568, -1.346910108950427 
0.5499999999999557, -1.3534854414267126 
0.5599999999999546, -1.3619961172692945 
0.5699999999999535, -1.3700106154554006 
0.5799999999999524, -1.376525817036432 
0.5899999999999513, -1.381592394642776 
0.5999999999999502, -1.3855207200814876 
0.6099999999999491, -1.3885603973282705 
0.619999999999948, -1.390868160464918 
0.6299999999999469, -1.3925311220186187 
0.6399999999999458, -1.393579460009718 
0.6499999999999447, -1.3940056969806738 
0.6599999999999436, -1.3938025080780343 
0.6699999999999425, -1.3930024571366375 
0.6799999999999414, -1.3916946230335925 
0.6899999999999403, -1.3899966353147137 
0.6999999999999392, -1.3879795192671744 
0.7099999999999381, -1.3856411854154096 
0.719999999999937, -1.383073653981691 
0.7299999999999359, -1.3807093468505331 
0.7399999999999348, -1.3791721378870465 
0.7499999999999337, -1.3786158583912098 
0.7599999999999326, -1.3784866058607497 
0.7699999999999315, -1.3780128812384906 
0.7799999999999304, -1.3764418874622926 
0.7899999999999293, -1.3727206881960274 
0.7999999999999282, -1.3649697563948038 
0.8099999999999271, -1.3501437411013477 
0.819999999999926, -1.324547558673752 
0.8299999999999249, -1.2854319796418312 
0.8399999999999238, -1.2320813281730414 
0.8499999999999227, -1.1651077005267814 
0.8599999999999216, -1.0859102878960836 
0.8699999999999205, -0.9986325106056724 
0.8799999999999194, -0.91304155318741 
0.8899999999999183, -0.8423484917087585 
0.8999999999999172, -0.7946614886684716 
0.9099999999999161, -0.7684041346732546 
0.919999999999915, -0.7565596687528366 
0.9299999999999139, -0.7523479818454037 
0.9399999999999128, -0.7514185495606991 
0.9499999999999117, -0.7515479175490779 
0.9599999999999106, -0.7517419944711675 
0.9699999999999095, -0.7515567630526849 
0.9799999999999084, -0.7507280151621485 
0.9899999999999073, -0.7490159305097366 
0.9999999999999062, -0.7462047696086853 
1.0099999999999052, -0.7422331898854999 
1.019999999999904, -0.7373518324406539 
1.029999999999903, -0.7320986036730388 
1.039999999999902, -0.7270404372149417 
1.0499999999999008, -0.7225289584704677 
1.0599999999998997, -0.7186609080967441 
1.0699999999998986, -0.7153730969891107 
1.0799999999998975, -0.7125451523379238 
1.0899999999998964, -0.7100659397268251 
1.0999999999998953, -0.7078682104926847 
1.1099999999998942, -0.7059395240821311 
1.119999999999893, -0.7043144011224858 
1.129999999999892, -0.7030544779475731 
1.1399999999998909, -0.7022253331080908 
1.1499999999998898, -0.7018777668959029 
1.1599999999998887, -0.702037802269335 
1.1699999999998876, -0.7027051439228696 
1.1799999999998865, -0.7038573713349612 
1.1899999999998854, -0.705458269122573 
1.1999999999998843, -0.7074709659030971 
1.2099999999998832, -0.7098763389965969 
1.219999999999882, -0.7126937636558596 
1.229999999999881, -0.7159972398969984 
1.2399999999998799, -0.7199177565030349 
1.2499999999998788, -0.7246209423613543 
1.2599999999998777, -0.7302417247046574 
1.2699999999998766, -0.736751680108564 
1.2799999999998755, -0.7437813305181286 
1.2899999999998744, -0.7505659732179544 
1.2999999999998733, -0.7562326752921259 
1.3099999999998722, -0.7602697043344225 
1.319999999999871, -0.7626904432108664 
1.32999999999987, -0.7638070700549893 
1.3399999999998689, -0.7639606859080917 
1.3499999999998678, -0.7634217503473757 
1.3599999999998666, -0.7624650031148492 
1.3699999999998655, -0.7616428685481789 
1.3799999999998644, -0.7624403922987485 
1.3899999999998633, -0.7686557728337944 
1.3999999999998622, -0.7886020563954573 
1.4099999999998611, -0.8362362945344737 
1.41999999999986, -0.9244559893825564 
1.429999999999859, -1.0466238489721327 
1.4399999999998578, -1.1723369150232925 
1.4499999999998567, -1.2762032139991815 
1.4599999999998556, -1.3530462239041756 
1.4699999999998545, -1.407181130879768 
1.4799999999998534, -1.4434972623749256 
1.4899999999998523, -1.4660301398850213 
1.4999999999998512, -1.4786595875255677 
1.5099999999998501, -1.4849893072919282 
1.519999999999849, -1.487722432899519 
1.529999999999848, -1.488517852194434 
1.5399999999998468, -1.4883438047864785 
1.5499999999998457, -1.4879169760078903 
1.5599999999998446, -1.4878397230357694 
1.5699999999998435, -1.4882972458582073 
1.5799999999998424, -1.488974486952672 
1.5899999999998413, -1.4895557232104044 
1.5999999999998402, -1.4900248865665533 
1.6099999999998391, -1.4904394863889596 
1.619999999999838, -1.4906555615170969 
1.629999999999837, -1.490354610341782 
1.6399999999998358, -1.4891739430805964 
1.6499999999998347, -1.48674601410139 
1.6599999999998336, -1.4827191139087126 
1.6699999999998325, -1.476787439873039 
1.6799999999998314, -1.4686346030408077 
1.6899999999998303, -1.457732829861595 
1.6999999999998292, -1.4430342625434882 
1.709999999999828, -1.4226501654329422 
1.719999999999827, -1.3940343799674615 
1.729999999999826, -1.356694119270251 
1.7399999999998248, -1.3190155124393386 
1.7499999999998237, -1.296295148658296 
1.7599999999998226, -1.2907642743681076 
1.7699999999998215, -1.2922455052125268 
1.7799999999998204, -1.294131938603181 
1.7899999999998193, -1.2947543702525048 
1.7999999999998182, -1.2937111075243526 
1.809999999999817, -1.2898877248931917 
1.819999999999816, -1.2792549780644922 
1.8299999999998149, -1.2469934270013474 
1.8399999999998138, -1.1307339200683377 
1.8499999999998127, -0.6800335464992499 
1.8599999999998116, 0.13479751321966796 
1.8699999999998105, 0.4409656229315059 
1.8799999999998094, 0.5064882715403713 
1.8899999999998083, 0.5246361715934089 
1.8999999999998072, 0.5309425669478468 
1.909999999999806, 0.5332438497013394 
1.919999999999805, 0.5337596848032066 
1.9299999999998039, 0.5332295252936082 
1.9399999999998028, 0.5319510269753684 
1.9499999999998017, 0.5301389966787232 
1.9599999999998006, 0.5280718274557445 
1.9699999999997995, 0.5260972680374224 
1.9799999999997984, 0.5245352246572564 
1.9899999999997973, 0.5235744109463794 
1.9999999999997962, 0.5232391866470316 
2.0099999999998173, 0.5234164441153057 
2.0199999999998384, 0.5239008199729072 
2.0299999999998595, 0.5244412765904901 
2.0399999999998806, 0.5247808516196552 
2.0499999999999017, 0.5246615639275315 
2.059999999999923, 0.5237467971601708 
2.069999999999944, 0.5213654898905105 
2.079999999999965, 0.5157177082600058 
2.089999999999986, 0.5007818426403444 
2.100000000000007, 0.44986246955172027 
2.1100000000000283, 0.19433413721742726 
2.1200000000000494, -0.8861252128492426 
2.1300000000000705, -1.6170915846293963 
2.1400000000000916, -1.7543637838901927 
2.1500000000001127, -1.7828496293748508 
2.160000000000134, -1.7902284369302066 
2.170000000000155, -1.79203368493223 
2.180000000000176, -1.7919186262969327 
2.190000000000197, -1.7914225070880803 
2.2000000000002182, -1.7919618851732313 
2.2100000000002393, -1.7938204530140065 
2.2200000000002604, -1.7957981357058437 
2.2300000000002815, -1.7971483119091183 
2.2400000000003026, -1.7979678245288142 
2.2500000000003237, -1.798358330504135 
2.260000000000345, -1.798064170138166 
2.270000000000366, -1.796587386697458 
2.280000000000387, -1.7931717045592586 
2.290000000000408, -1.7866030488090388 
2.3000000000004293, -1.7748696706139255 
2.3100000000004504, -1.754242765973435 
2.3200000000004715, -1.7165092019632677 
2.3300000000004926, -1.6418099023178467 
2.3400000000005137, -1.4915573707503904 
2.3500000000005348, -1.2696735996691524 
2.360000000000556, -1.1153827084353682 
2.370000000000577, -1.0716615039994781 
2.380000000000598, -1.0707227923112634 
2.390000000000619, -1.0761412330480655 
2.4000000000006403, -1.0799378592968871 
2.4100000000006614, -1.0816659103445065 
2.4200000000006825, -1.081707490910754 
2.4300000000007036, -1.0799042087284967 
2.4400000000007247, -1.0749005322650325 
2.450000000000746, -1.0622989827773046 
2.460000000000767, -1.028209793839386 
2.470000000000788, -0.9283573849053008 
2.480000000000809, -0.6630843067384513 
2.49000000000083, -0.275574616644537 
2.5000000000008513, -0.04585593101842898 
2.5100000000008724, 0.040098953952795856 
2.5200000000008935, 0.07260938837867473 
2.5300000000009146, 0.08657905828572927 
2.5400000000009357, 0.09324125941994618 
2.550000000000957, 0.09660853794623023 
2.560000000000978, 0.09831853649088114 
2.570000000000999, 0.09913292432274005 
2.58000000000102, 0.099451809446667 
2.5900000000010412, 0.0995077275818603 
2.6000000000010624, 0.09944941997571713 
2.6100000000010835, 0.09939547968340859 
2.6200000000011046, 0.09950758353578229 
2.6300000000011257, 0.10017389935079712 
2.6400000000011468, 0.1026025075429938 
2.650000000001168, 0.11086221936477506 
2.660000000001189, 0.1377767426988608 
2.67000000000121, 0.20864471445131896 
2.680000000001231, 0.31597799320611236 
2.6900000000012523, 0.3944098667318657 
2.7000000000012734, 0.4301572023599255 
2.7100000000012945, 0.444608799245764 
2.7200000000013156, 0.45053594278395936 
2.7300000000013367, 0.45282320968758016 
2.740000000001358, 0.4532015015191173 
2.750000000001379, 0.45218803843238664 
2.7600000000014, 0.44976951003250304 
2.770000000001421, 0.445744653391243 
2.780000000001442, 0.4401155737280903 
2.7900000000014633, 0.4335124816977853 
2.8000000000014844, 0.4271506418735398 
2.8100000000015055, 0.42210315730417164 
2.8200000000015266, 0.4187120155350657 
2.8300000000015477, 0.4167250718179088 
2.840000000001569, 0.41570639864003534 
2.85000000000159, 0.41526404892128016 
2.860000000001611, 0.41508761806833033 
2.870000000001632, 0.41491450927511125 
2.8800000000016532, 0.41448120016077616 
2.8900000000016743, 0.4134471517953441 
2.9000000000016954, 0.4112144819212933 
2.9100000000017165, 0.4064037152454123 
2.9200000000017377, 0.39503405688200155 
2.9300000000017588, 0.36248216733764016 
2.94000000000178, 0.2354648523706362 
2.950000000001801, -0.39187016622803766 
2.960000000001822, -1.462333171861794 
2.970000000001843, -1.7696116539835014 
2.9800000000018643, -1.8279862783186331 
2.9900000000018854, -1.8419205409752948 
3.0000000000019065, -1.845639630814344 
3.0100000000019276, -1.846236309326942 
3.0200000000019487, -1.8458090951480766 
3.03000000000197, -1.845712612748412 
3.040000000001991, -1.8466669969143443 
3.050000000002012, -1.847974153303003 
3.060000000002033, -1.848849784002558 
3.070000000002054, -1.8493274043005097 
3.0800000000020753, -1.8495643561249069 
3.0900000000020964, -1.8492647520361671 
3.1000000000021175, -1.8477583079918454 
3.1100000000021386, -1.8438907551685513 
3.1200000000021597, -1.8353801430870742 
3.130000000002181, -1.817613636897584 
3.140000000002202, -1.7809793994857859 
3.150000000002223, -1.7032327451150107 
3.160000000002244, -1.5303102551131558 
3.1700000000022652, -1.1846368656669177 
3.1800000000022863, -0.7790362944918405 
3.1900000000023074, -0.5417699688096864 
3.2000000000023285, -0.44274999834528417 
3.2100000000023496, -0.40293872443820405 
3.2200000000023707, -0.38628694800065083 
3.230000000002392, -0.37908744157498553 
3.240000000002413, -0.37596014227690555 
3.250000000002434, -0.37465118012585036 
3.260000000002455, -0.37415675277653626 
3.2700000000024763, -0.3740073285808617 
3.2800000000024974, -0.3739792876876525 
3.2900000000025185, -0.3739780205904511 
3.3000000000025396, -0.3739954168218718 
3.3100000000025607, -0.3740973310578822 
3.3200000000025818, -0.37441522544091194 
3.330000000002603, -0.37513173110663234 
3.340000000002624, -0.3764671432832951 
3.350000000002645, -0.37867504456122253 
3.360000000002666, -0.38202880552884055 
3.3700000000026873, -0.3867417480295082 
3.3800000000027084, -0.39276276999524573 
3.3900000000027295, -0.39953209964649516 
3.4000000000027506, -0.4060323096697612 
3.4100000000027717, -0.41130596645824813 
3.420000000002793, -0.41494115899600426 
3.430000000002814, -0.4170349719470795 
3.440000000002835, -0.41785502494547433 
3.450000000002856, -0.4175682755909059 
3.460000000002877, -0.4160831543315783 
3.4700000000028983, -0.4128532305242884 
3.4800000000029194, -0.40637690336867316 
3.4900000000029405, -0.3928000115977742 
3.5000000000029616, -0.3623644790576233 
3.5100000000029827, -0.294608297719906 
3.520000000003004, -0.17488260492285704 
3.530000000003025, -0.04832799287983762 
3.540000000003046, 0.02982900922650942 
3.550000000003067, 0.06664529609783827 
3.5600000000030882, 0.08344273420686574 
3.5700000000031094, 0.0914549850349256 
3.5800000000031305, 0.09541087289106408 
3.5900000000031516, 0.09731014891495707 
3.6000000000031727, 0.09806974068527916 
3.6100000000031938, 0.09817234193763034 
3.620000000003215, 0.09792518620262283 
3.630000000003236, 0.09755973051045233 
3.640000000003257, 0.0972689434665463 
3.650000000003278, 0.09723660756230376 
3.6600000000032993, 0.09769524057373016 
3.6700000000033204, 0.09904867387432928 
3.6800000000033415, 0.10212133475030358 
3.6900000000033626, 0.108605490074008 
3.7000000000033837, 0.12145925757484896 
3.710000000003405, 0.14361113036526768 
3.720000000003426, 0.17293735721356251 
3.730000000003447, 0.2004530313081073 
3.740000000003468, 0.21946093535425507 
3.750000000003489, 0.2303259231916742 
3.7600000000035103, 0.23596632186795002 
3.7700000000035314, 0.23861978329019418 
3.7800000000035525, 0.23947693852345425 
3.7900000000035736, 0.23904639036440267 
3.8000000000035947, 0.23746425180540678 
3.810000000003616, 0.23472099396579255 
3.820000000003637, 0.23089438105441315 
3.830000000003658, 0.2263630015508411 
3.840000000003679, 0.22180677790888975 
3.8500000000037002, 0.21790852488047188 
3.8600000000037213, 0.21504718270934395 
3.8700000000037424, 0.21327146517788798 
3.8800000000037635, 0.21246157733880033 
3.8900000000037847, 0.2124635553623501 
3.9000000000038058, 0.21312281608682349 
3.910000000003827, 0.21425203882846447 
3.920000000003848, 0.21559696545308732 
3.930000000003869, 0.2168519848129334 
3.94000000000389, 0.21772149716980382 
3.9500000000039113, 0.2179593267661156 
3.9600000000039324, 0.21732160680013934 
3.9700000000039535, 0.21541016239719307 
3.9800000000039746, 0.21135427179671362 
3.9900000000039957, 0.2031182680147719 
4.000000000004016, 0.1859584952682438 
4.010000000003993, 0.15011029093074693 
4.02000000000397, 0.0846794658006397 
4.030000000003946, 0.002685642249838127 
4.040000000003923, -0.05816919359825405 
4.0500000000039, -0.0889575610342895 
4.0600000000038765, -0.10246596716821225 
4.070000000003853, -0.10844189878816017 
4.08000000000383, -0.11119147249444572 
4.090000000003807, -0.11241998590211755 
4.100000000003783, -0.1128144033868693 
4.11000000000376, -0.11267010496225979 
4.120000000003737, -0.11214098974099587 
4.130000000003713, -0.11135569335562852 
4.14000000000369, -0.11047534684893381 
4.150000000003667, -0.10970633567200042 
4.1600000000036434, -0.10927963123048864 
4.17000000000362, -0.10943275223605542 
4.180000000003597, -0.11043273439593415 
4.1900000000035735, -0.11264767741930433 
4.20000000000355, -0.116636930866722 
4.210000000003527, -0.1231681102595936 
4.220000000003504, -0.13293234547718252 
4.23000000000348, -0.14571459496063893 
4.240000000003457, -0.15959221178394487 
4.250000000003434, -0.17175330796541838 
4.26000000000341, -0.1805350121198215 
4.270000000003387, -0.18601143882193955 
4.280000000003364, -0.1890221810717684 
4.2900000000033405, -0.19032994717861373 
4.300000000003317, -0.1903691398354375 
4.310000000003294, -0.18926544707303034 
4.320000000003271, -0.18691121075712927 
4.330000000003247, -0.1830841150600163 
4.340000000003224, -0.17768553978041637 
4.350000000003201, -0.1710758107078077 
4.360000000003177, -0.16417942134509472 
4.370000000003154, -0.15805528475475533 
4.380000000003131, -0.1533264398810326 
4.390000000003107, -0.15006995142380877 
4.400000000003084, -0.14807892248283416 
4.410000000003061, -0.14710679344919692 
4.4200000000030375, -0.14695577903381643 
4.430000000003014, -0.14745724740259275 
4.440000000002991, -0.14841582645746534 
4.450000000002968, -0.1495792946029496 
4.460000000002944, -0.15067085880790804 
4.470000000002921, -0.1514569152017251 
4.480000000002898, -0.15178061111750968 
4.490000000002874, -0.15152630645989856 
4.500000000002851, -0.1505275683575083 
4.510000000002828, -0.14841489026331245 
4.520000000002804, -0.14431845947242444 
4.530000000002781, -0.13620529868176562 
4.540000000002758, -0.11958462828101879 
4.5500000000027345, -0.08672637187132431 
4.560000000002711, -0.03331280001243388 
4.570000000002688, 0.026165529921290436 
4.580000000002665, 0.06996082516808563 
4.590000000002641, 0.09466757533189214 
4.600000000002618, 0.10725688510809087 
4.610000000002595, 0.11355928245182242 
4.620000000002571, 0.11664114473136844 
4.630000000002548, 0.11794841847085144 
4.640000000002525, 0.11816960127112827 
4.6500000000025015, 0.11767538719838164 
4.660000000002478, 0.11673264507877028 
4.670000000002455, 0.11559508303821901 
4.6800000000024315, 0.11451433066700818 
4.690000000002408, 0.11371831604254523 
4.700000000002385, 0.11341012262665992 
4.710000000002362, 0.113813944639927 
4.720000000002338, 0.11526123601406346 
4.730000000002315, 0.11828410144380004 
4.740000000002292, 0.12361183588294902 
4.750000000002268, 0.13181781788829885 
4.760000000002245, 0.14247018899572325 
4.770000000002222, 0.15363571386762373 
4.7800000000021985, 0.1630153661024834 
4.790000000002175, 0.16954680820434204 
4.800000000002152, 0.17346137951489637 
4.810000000002129, 0.17541455336685619 
4.820000000002105, 0.17591565195097308 
4.830000000002082, 0.17518062736902318 
4.840000000002059, 0.17315650025964927 
4.850000000002035, 0.16961876745766866 
4.860000000002012, 0.16439795307627358 
4.870000000001989, 0.1577608257682022 
4.880000000001965, 0.15064173420470606 
4.890000000001942, 0.1442582156803985 
4.900000000001919, 0.1393924530831383 
4.9100000000018955, 0.13615625851242366 
4.920000000001872, 0.1342883951326026 
