t, s[1].omega / s[0].omega 
0, -0.5199858450808276 
0.009999999999999995, -0.5188331582920835 
0.019999999999999934, -0.5181409925517231 
0.029999999999999874, -0.5177813033263768 
0.04000000000000012, -0.5175963635390256 
0.050000000000000405, -0.5174351116190767 
0.06000000000000069, -0.5171942010851625 
0.07000000000000098, -0.5168445344582515 
0.08000000000000126, -0.5164402134958188 
0.09000000000000155, -0.5161311484727766 
0.10000000000000184, -0.5162081893368566 
0.11000000000000212, -0.5172092802890471 
0.12000000000000241, -0.5201235192523231 
0.130000000000002, -0.526750337001425 
0.1400000000000009, -0.5402889880775975 
0.1499999999999998, -0.5661829488014346 
0.1599999999999987, -0.6128826664134213 
0.1699999999999976, -0.6909837186284526 
0.1799999999999965, -0.8074825850347495 
0.1899999999999954, -0.9552464632481363 
0.1999999999999943, -1.1104076477117826 
0.2099999999999932, -1.246432949133308 
0.2199999999999921, -1.347805072971433 
0.229999999999991, -1.4123299168640169 
0.2399999999999899, -1.4476364117045597 
0.2499999999999888, -1.4647056667777356 
0.2599999999999877, -1.4722302375093048 
0.2699999999999866, -1.4751851525221007 
0.2799999999999855, -1.4759661991382278 
0.2899999999999844, -1.4757481712982963 
0.2999999999999833, -1.4753835205234906 
0.3099999999999822, -1.475678446967114 
0.3199999999999811, -1.4769154827467312 
0.32999999999998, -1.4785956469256398 
0.3399999999999789, -1.4801315996274407 
0.3499999999999778, -1.4813477375041177 
0.35999999999997667, -1.4822800754037408 
0.36999999999997557, -1.4828724085905338 
0.37999999999997447, -1.4829430041292735 
0.38999999999997337, -1.4822900604348104 
0.39999999999997227, -1.4807524326975132 
0.40999999999997117, -1.4782207939498835 
0.41999999999997006, -1.4746138579813177 
0.42999999999996896, -1.4698110795412114 
0.43999999999996786, -1.463555330007788 
0.44999999999996676, -1.4553351979757603 
0.45999999999996566, -1.444261044936341 
0.46999999999996456, -1.4291639679498256 
0.47999999999996346, -1.4097854992302201 
0.48999999999996235, -1.3898473381710394 
0.49999999999996125, -1.3770181147349292 
0.5099999999999602, -1.3736118724854025 
0.519999999999959, -1.374522718126267 
0.529999999999958, -1.375602118498824 
0.5399999999999568, -1.3754990261869073 
0.5499999999999557, -1.373451635278779 
0.5599999999999546, -1.3672664578263805 
0.5699999999999535, -1.3490187724004925 
0.5799999999999524, -1.286243775420336 
0.5899999999999513, -1.0292535867656565 
0.5999999999999502, -0.22985108314258737 
0.6099999999999491, 0.3531375240938182 
0.619999999999948, 0.48214775153734124 
0.6299999999999469, 0.5131765217628735 
0.6399999999999458, 0.5231012528113406 
0.6499999999999447, 0.5267640715923316 
0.6599999999999436, 0.5279639394040536 
0.6699999999999425, 0.5278995812894959 
0.6799999999999414, 0.5270177233968695 
0.6899999999999403, 0.5255602232529472 
0.6999999999999392, 0.5237734903452708 
0.7099999999999381, 0.5219653105037255 
0.719999999999937, 0.5204518141594436 
0.7299999999999359, 0.5194636569126313 
0.7399999999999348, 0.5190896436195028 
0.7499999999999337, 0.519275673345008 
0.7599999999999326, 0.5198524552828877 
0.7699999999999315, 0.5205767782936945 
0.7799999999999304, 0.5211822338036958 
0.7899999999999293, 0.5214139379721199 
0.7999999999999282, 0.5210001411953724 
0.8099999999999271, 0.5194998892045982 
0.819999999999926, 0.515857351963971 
0.8299999999999249, 0.5068991438035083 
0.8399999999999238, 0.4806378448713565 
0.8499999999999227, 0.3748745573502975 
0.8599999999999216, -0.18663315702667965 
0.8699999999999205, -1.2569540695239616 
0.8799999999999194, -1.5917735695414135 
0.8899999999999183, -1.6578498246453297 
0.8999999999999172, -1.6740239073389862 
0.9099999999999161, -1.6785491748908339 
0.919999999999915, -1.6794549846927675 
0.9299999999999139, -1.6789670605046503 
0.9399999999999128, -1.678486602562776 
0.9499999999999117, -1.679700373394634 
0.9599999999999106, -1.682892603623559 
0.9699999999999095, -1.686388799748909 
0.9799999999999084, -1.6890299877858257 
0.9899999999999073, -1.6907858750230376 
0.9999999999999062, -1.6918616268678224 
1.0099999999999052, -1.6922503638837614 
1.019999999999904, -1.6917927035743805 
1.029999999999903, -1.690282354037706 
1.039999999999902, -1.6874774223998714 
1.0499999999999008, -1.683050203606203 
1.0599999999998997, -1.6764462679361514 
1.0699999999998986, -1.6665655079460666 
1.0799999999998975, -1.651112488753763 
1.0899999999998964, -1.6256803419993475 
1.0999999999998953, -1.5852562825205936 
1.1099999999998942, -1.5379090467317371 
1.119999999999893, -1.512398954631764 
1.129999999999892, -1.5113081494262737 
1.1399999999998909, -1.5153901244410484 
1.1499999999998898, -1.5176432103133124 
1.1599999999998887, -1.517737769861386 
1.1699999999998876, -1.5154102302538341 
1.1799999999998865, -1.5082940085168073 
1.1899999999998854, -1.488757521922674 
1.1999999999998843, -1.4479183019607134 
1.2099999999998832, -1.5195380443298958 
1.219999999999882, -2.050478092373097 
1.229999999999881, -2.3291574018784695 
1.2399999999998799, -2.390704796495749 
1.2499999999998788, -2.4087935838312076 
1.2599999999998777, -2.4155346201723544 
1.2699999999998766, -2.417992980551059 
1.2799999999998755, -2.418229474332495 
1.2899999999998744, -2.4168263709152034 
1.2999999999998733, -2.413456402408051 
1.3099999999998722, -2.4060100365259283 
1.319999999999871, -2.389026401903235 
1.32999999999987, -2.3669460825135116 
1.3399999999998689, -2.365849120440324 
1.3499999999998678, -2.370375999563153 
1.3599999999998666, -2.3712622745367837 
1.3699999999998655, -2.3692513023474957 
1.3799999999998644, -2.366008590203073 
1.3899999999998633, -2.371955378873732 
1.3999999999998622, -2.384556349074054 
1.4099999999998611, -2.3917235709249023 
1.41999999999986, -2.3947208231910024 
1.429999999999859, -2.3957504072585056 
1.4399999999998578, -2.3952957238461843 
1.4499999999998567, -2.392843295649265 
1.4599999999998556, -2.386598700216687 
1.4699999999998545, -2.3710004581919515 
1.4799999999998534, -2.324057317860141 
1.4899999999998523, -2.1196490676475763 
1.4999999999998512, -1.2404829451227546 
1.5099999999998501, -0.4462894191391407 
1.519999999999849, -0.2200851387573516 
1.529999999999848, -0.15248767405374836 
1.5399999999998468, -0.1276617382673642 
1.5499999999998457, -0.11704398419180155 
1.5599999999998446, -0.11202376994015459 
1.5699999999998435, -0.10952146537227318 
1.5799999999998424, -0.1082917289085128 
1.5899999999998413, -0.10779594428576038 
1.5999999999998402, -0.10781202958059607 
1.6099999999998391, -0.10829307876638897 
1.619999999999838, -0.10932719007245384 
1.629999999999837, -0.11115555460161816 
1.6399999999998358, -0.11425408688740239 
1.6499999999998347, -0.11953637872499659 
1.6599999999998336, -0.12884537781740824 
1.6699999999998325, -0.14617854918545647 
1.6799999999998314, -0.18072839560661427 
1.6899999999998303, -0.25297282831418383 
1.6999999999998292, -0.3934011817272855 
1.709999999999828, -0.5854094182070912 
1.719999999999827, -0.7326102243166218 
1.729999999999826, -0.8041594230723661 
1.7399999999998248, -0.8336000499877103 
1.7499999999998237, -0.8456736595659029 
1.7599999999998226, -0.8506841638668989 
1.7699999999998215, -0.8524767652288261 
1.7799999999998204, -0.8523823669382372 
1.7899999999998193, -0.8505532879705611 
1.7999999999998182, -0.84612349947176 
1.809999999999817, -0.8363399526061851 
1.819999999999816, -0.8131522231986523 
1.8299999999998149, -0.7493697214340923 
1.8399999999998138, -0.5275288396906893 
1.8499999999998127, 0.239824553156261 
1.8599999999998116, 0.8187212183812698 
1.8699999999998105, 0.9146468653917272 
1.8799999999998094, 0.933442417766196 
1.8899999999998083, 0.9385313804700275 
1.8999999999998072, 0.9396783099141117 
1.909999999999806, 0.9387656977772872 
1.919999999999805, 0.9355382597684022 
1.9299999999998039, 0.9281914270062861 
1.9399999999998028, 0.9135210786747677 
1.9499999999998017, 0.8912451323047769 
1.9599999999998006, 0.8715522992135789 
1.9699999999997995, 0.8632042884368966 
1.9799999999997984, 0.8621096502458914 
1.9899999999997973, 0.8628913914949473 
1.9999999999997962, 0.8635008839423641 
2.0099999999998173, 0.8633463041065774 
2.0199999999998384, 0.8619108758915786 
2.0299999999998595, 0.8577015931203527 
2.0399999999998806, 0.8449072217757738 
2.0499999999999017, 0.7907363435878082 
2.059999999999923, 0.34063221397644605 
2.069999999999944, -2.5509619124775265 
2.079999999999965, -3.1270673837656324 
2.089999999999986, -3.1664013940714026 
2.100000000000007, -3.1736518922728125 
2.1100000000000283, -3.1748723744536456 
2.1200000000000494, -3.1733919714459002 
2.1300000000000705, -3.167960687881256 
2.1400000000000916, -3.145548466949075 
2.1500000000001127, -3.0547364251632017 
2.160000000000134, -3.0580923653437044 
2.170000000000155, -3.0734269217460986 
2.180000000000176, -3.0751845832055595 
2.190000000000197, -3.074452187905463 
2.2000000000002182, -3.0748286700202576 
2.2100000000002393, -3.0755007235164133 
2.2200000000002604, -3.0751749040232723 
2.2300000000002815, -3.074814001546126 
2.2400000000003026, -3.072962520867498 
2.2500000000003237, -3.06077725896021 
2.260000000000345, -2.9095143615442547 
2.270000000000366, -3.333316543006488 
2.280000000000387, -3.882746446136643 
2.290000000000408, -3.903076568175345 
2.3000000000004293, -3.905348715200025 
2.3100000000004504, -3.90360147305418 
2.3200000000004715, -3.893544240496405 
2.3300000000004926, -3.7591912821806246 
2.3400000000005137, -1.419754760938945 
2.3500000000005348, -1.446637133137628 
2.360000000000556, -1.619683574379414 
2.370000000000577, -1.6652148536329925 
2.380000000000598, -1.6770410707682928 
2.390000000000619, -1.6801746294374904 
2.4000000000006403, -1.6802771585816647 
2.4100000000006614, -1.678836582949608 
2.4200000000006825, -1.677554051026331 
2.4300000000007036, -1.6807786556842728 
2.4400000000007247, -1.6903881956090472 
2.450000000000746, -1.7009553376840956 
2.460000000000767, -1.7086265594631964 
2.470000000000788, -1.7135230422694097 
2.480000000000809, -1.716594136126535 
2.49000000000083, -1.7184231010405615 
2.5000000000008513, -1.7192671551181196 
2.5100000000008724, -1.7192328461585427 
2.5200000000008935, -1.7183424138080894 
2.5300000000009146, -1.7165357354341306 
2.5400000000009357, -1.713643313713776 
2.550000000000957, -1.7093006485388156 
2.560000000000978, -1.7027377135727118 
2.570000000000999, -1.6925970982736966 
2.58000000000102, -1.6779648376736351 
2.5900000000010412, -1.6627409676549127 
2.6000000000010624, -1.6555681342674895 
2.6100000000010835, -1.6559673060449094 
2.6200000000011046, -1.657511773573031 
2.6300000000011257, -1.6576475991725395 
2.6400000000011468, -1.6554558503556975 
2.650000000001168, -1.647967958280398 
2.660000000001189, -1.6233160943046865 
2.67000000000121, -1.5450825179130703 
2.680000000001231, -1.551371271568431 
2.6900000000012523, -2.5722678707832967 
2.7000000000012734, -2.876743614987209 
2.7100000000012945, -2.91292201797343 
2.7200000000013156, -2.9211369687486184 
2.7300000000013367, -2.923206853229045 
2.740000000001358, -2.9226498657211697 
2.750000000001379, -2.919539938221307 
2.7600000000014, -2.9101855460391692 
2.770000000001421, -2.872465085866655 
2.780000000001442, -2.7729059640284484 
2.7900000000014633, -2.7882032620573396 
2.8000000000014844, -2.8016890391366442 
2.8100000000015055, -2.803558178354052 
2.8200000000015266, -2.8027717108859074 
2.8300000000015477, -2.8029472981711674 
2.840000000001569, -2.8046173395548686 
2.85000000000159, -2.8052564475265704 
2.860000000001611, -2.8052061275689306 
2.870000000001632, -2.8046033272141537 
2.8800000000016532, -2.8011468898128387 
2.8900000000016743, -2.78142404187564 
2.9000000000016954, -2.5294842388181733 
2.9100000000017165, 1.1279126658397918 
2.9200000000017377, 1.7226766319308322 
2.9300000000017588, 1.7478014904103722 
2.94000000000178, 1.7513391053801448 
2.950000000001801, 1.750797175092453 
2.960000000001822, 1.7459180992710652 
2.970000000001843, 1.7223776309164733 
2.9800000000018643, 1.5918279873712564 
2.9900000000018854, 1.499640706811159 
3.0000000000019065, 1.540001762445062 
3.0100000000019276, 1.552089780202738 
3.0200000000019487, 1.554875091888569 
3.03000000000197, 1.5547637559345386 
3.040000000001991, 1.5532293861342976 
3.050000000002012, 1.5520455871386774 
3.060000000002033, 1.5561837056237768 
3.070000000002054, 1.566282116124678 
3.0800000000020753, 1.5743772392374356 
3.0900000000020964, 1.578149968570546 
3.1000000000021175, 1.579234330369582 
3.1100000000021386, 1.5784622403550699 
3.1200000000021597, 1.5742828142606646 
3.130000000002181, 1.5515435925824757 
3.140000000002202, 1.1094364156403855 
3.150000000002223, -3.331143136202145 
3.160000000002244, -3.526110554284543 
3.1700000000022652, -3.5388592755958554 
3.1800000000022863, -3.5400904358176595 
3.1900000000023074, -3.53844100703002 
3.2000000000023285, -3.5323024609184692 
3.2100000000023496, -3.510972002441745 
3.2200000000023707, -3.508042443751015 
3.230000000002392, -3.5134920746248945 
3.240000000002413, -3.5131286027189517 
3.250000000002434, -3.512552273372692 
3.260000000002455, -3.5143087401236435 
3.2700000000024763, -3.5146073901522668 
3.2800000000024974, -3.514245693890957 
3.2900000000025185, -3.5120773599754087 
3.3000000000025396, -3.493174861327396 
3.3100000000025607, -3.198510805227159 
3.3200000000025818, -3.93876789240569 
3.330000000002603, -3.998858365961104 
3.340000000002624, -4.003859035933401 
3.350000000002645, -4.003274557723035 
3.360000000002666, -3.997063139211901 
3.3700000000026873, -3.9376066446189313 
3.3800000000027084, -0.5648571647491255 
3.3900000000027295, 1.4191643760520676 
3.4000000000027506, 1.4925022877188219 
3.4100000000027717, 1.5018948369309357 
3.420000000002793, 1.5037736875172583 
3.430000000002814, 1.5039577439304552 
3.440000000002835, 1.503889258368841 
3.450000000002856, 1.5042426392175166 
3.460000000002877, 1.5050976056748617 
3.4700000000028983, 1.5059975708964073 
3.4800000000029194, 1.506543950287845 
3.4900000000029405, 1.506664631311663 
3.5000000000029616, 1.506303003488205 
3.5100000000029827, 1.5049228271745185 
3.520000000003004, 1.5000003864975702 
3.530000000003025, 1.4736023945855647 
3.540000000003046, 0.9769879057860473 
3.550000000003067, -3.3148299421908454 
3.5600000000030882, -3.517677437162585 
3.5700000000031094, -3.532938115797749 
3.5800000000031305, -3.53511561539921 
3.5900000000031516, -3.5338119308859115 
3.6000000000031727, -3.5278549476450096 
3.6100000000031938, -3.495041420775082 
3.620000000003215, -3.4202838196229415 
3.630000000003236, -3.450748337800267 
3.640000000003257, -3.4557471379821223 
3.650000000003278, -3.4553732553224967 
3.6600000000032993, -3.4552109158638276 
3.6700000000033204, -3.4551228921801034 
3.6800000000033415, -3.4541930951782938 
3.6900000000033626, -3.453736384476558 
3.7000000000033837, -3.450680454588325 
3.710000000003405, -3.4258926755619896 
3.720000000003426, -3.445896015852268 
3.730000000003447, -3.5487995542685646 
3.740000000003468, -3.5619919992793867 
3.750000000003489, -3.5640218534099524 
3.7600000000035103, -3.5627468334557486 
3.7700000000035314, -3.555737720285434 
3.7800000000035525, -3.5092323126963096 
3.7900000000035736, -1.8475059951151418 
3.8000000000035947, 1.3451012010677714 
3.810000000003616, 1.4434164944677395 
3.820000000003637, 1.4546329808984377 
3.830000000003658, 1.4569361457409638 
3.840000000003679, 1.4572874697719778 
3.8500000000037002, 1.457124997454444 
3.8600000000037213, 1.4569047746809567 
3.8700000000037424, 1.4566961640259648 
3.8800000000037635, 1.4564138831690472 
3.8900000000037847, 1.45606703016276 
3.9000000000038058, 1.4557399129138509 
3.910000000003827, 1.4553336129082235 
3.920000000003848, 1.4543378402463476 
3.930000000003869, 1.451122400118861 
3.94000000000389, 1.43732450423567 
3.9500000000039113, 1.3077499680166664 
3.9600000000039324, -2.382576892013657 
3.9700000000039535, -3.513173303404306 
3.9800000000039746, -3.549717200073612 
3.9900000000039957, -3.5547686810992554 
4.000000000004016, -3.554686651816354 
4.010000000003993, -3.551200028147324 
4.02000000000397, -3.534845623829824 
4.030000000003946, -3.421413778707567 
4.040000000003923, -3.418019386179915 
4.0500000000039, -3.4380637604415996 
4.0600000000038765, -3.4396520474980035 
4.070000000003853, -3.4390454951403577 
4.08000000000383, -3.438957383253914 
4.090000000003807, -3.437976492880067 
4.100000000003783, -3.437161791718603 
4.11000000000376, -3.436387598600562 
4.120000000003737, -3.429731298769176 
4.130000000003713, -3.3956374785166874 
4.14000000000369, -3.4779502361611363 
4.150000000003667, -3.5105862289957046 
4.1600000000036434, -3.51559612004761 
4.17000000000362, -3.515873836976097 
4.180000000003597, -3.5127481942722225 
4.1900000000035735, -3.497566521484044 
4.20000000000355, -3.3269448011370186 
4.210000000003527, 0.7746456607231409 
4.220000000003504, 1.4284382802052211 
4.23000000000348, 1.4596957441334841 
4.240000000003457, 1.464866352255918 
4.250000000003434, 1.465924320597258 
4.26000000000341, 1.4658806949780026 
4.270000000003387, 1.4654495337167555 
4.280000000003364, 1.4647878297061399 
4.2900000000033405, 1.463906664493204 
4.300000000003317, 1.4629564251332123 
4.310000000003294, 1.4622182862617488 
4.320000000003271, 1.4617432761684124 
4.330000000003247, 1.4611341165830072 
4.340000000003224, 1.4593891166404465 
4.350000000003201, 1.4530213552838278 
4.360000000003177, 1.4166031350586488 
4.370000000003154, 0.6842153427218384 
4.380000000003131, -3.5090333742694453 
4.390000000003107, -3.667509784368807 
4.400000000003084, -3.679299244573813 
4.410000000003061, -3.6807157230446967 
4.4200000000030375, -3.6786645752070464 
4.430000000003014, -3.6689584590220976 
4.440000000002991, -3.5833252140130165 
4.450000000002968, -3.4179562275316178 
4.460000000002944, -3.485400872203151 
4.470000000002921, -3.491117786694738 
4.480000000002898, -3.4909199114478766 
4.490000000002874, -3.490418794540742 
4.500000000002851, -3.4892865723822952 
4.510000000002828, -3.487685852467525 
4.520000000002804, -3.487444520007928 
4.530000000002781, -3.484544551555353 
4.540000000002758, -3.468449479943368 
4.5500000000027345, -3.4947313079929345 
4.560000000002711, -3.523535046952264 
4.570000000002688, -3.528603731239387 
4.580000000002665, -3.5290004812186098 
4.590000000002641, -3.526126424246553 
4.600000000002618, -3.5109218009175267 
4.610000000002595, -3.32467887099222 
4.620000000002571, 0.9675198167908429 
4.630000000002548, 1.4966620962476844 
4.640000000002525, 1.5222687936182029 
4.6500000000025015, 1.5265100178213555 
4.660000000002478, 1.5271970832004693 
4.670000000002455, 1.5266223187477777 
4.6800000000024315, 1.5250311557374483 
4.690000000002408, 1.5222613765911024 
4.700000000002385, 1.5186917101665096 
4.710000000002362, 1.5157906288532776 
4.720000000002338, 1.5145852269189874 
4.730000000002315, 1.5143468032927347 
4.740000000002292, 1.5137640405893862 
4.750000000002268, 1.5111686802093156 
4.760000000002245, 1.5003157693684397 
4.770000000002222, 1.4273479080813243 
4.7800000000021985, 0.8805642488940275 
4.790000000002175, 2.5257601745617704 
4.800000000002152, 2.6034228642053305 
4.810000000002129, 2.6078874770314964 
4.820000000002105, 2.606409220442612 
4.830000000002082, 2.5900616450151612 
4.840000000002059, 1.3010370534016034 
4.850000000002035, -3.555720654056528 
4.860000000002012, -3.6222516194635097 
4.870000000001989, -3.626401999050475 
4.880000000001965, -3.6258957275470727 
4.890000000001942, -3.623745738006858 
4.900000000001919, -3.617647754226413 
4.9100000000018955, -3.6145458069463934 
4.920000000001872, -3.6162221183599286 
4.930000000001849, -3.6144480135147523 
4.940000000001826, -3.6132511717110622 
4.950000000001802, -3.6190721382215756 
4.960000000001779, -3.6211294661734064 
4.970000000001756, -3.6210708662564395 
4.980000000001732, -3.6184192243626456 
