t, s[1].omega / s[0].omega 
0, -0.5799977573547301 
0.009999999999999995, -0.5800170095561246 
0.019999999999999934, -0.5804731225776718 
0.029999999999999874, -0.5812279604252927 
0.04000000000000012, -0.5820646199451982 
0.050000000000000405, -0.5827497863118174 
0.06000000000000069, -0.5831217605134942 
0.07000000000000098, -0.5831425713414531 
0.08000000000000126, -0.5829014441759243 
0.09000000000000155, -0.5826225522034656 
0.10000000000000184, -0.5827396753022291 
0.11000000000000212, -0.5840853077451914 
0.12000000000000241, -0.5882336369499581 
0.130000000000002, -0.5980007311199873 
0.1400000000000009, -0.6179414726612056 
0.1499999999999998, -0.6542476270873603 
0.1599999999999987, -0.712856219930169 
0.1699999999999976, -0.7952060900021427 
0.1799999999999965, -0.8949314522840364 
0.1899999999999954, -1.0008673191448545 
0.1999999999999943, -1.103654120042379 
0.2099999999999932, -1.1977047298947134 
0.2199999999999921, -1.2782107813784356 
0.229999999999991, -1.339538132101682 
0.2399999999999899, -1.3789801170105391 
0.2499999999999888, -1.4002382471007107 
0.2599999999999877, -1.4101881513832875 
0.2699999999999866, -1.4142825061485091 
0.2799999999999855, -1.415535041853321 
0.2899999999999844, -1.4154741664608823 
0.2999999999999833, -1.4151887630742388 
0.3099999999999822, -1.415765798266619 
0.3199999999999811, -1.417690219780973 
0.32999999999998, -1.4203177053654035 
0.3399999999999789, -1.4227433444048878 
0.3499999999999778, -1.4246277961814824 
0.35999999999997667, -1.4260455537121568 
0.36999999999997557, -1.4270640300578772 
0.37999999999997447, -1.4275960095176228 
0.38999999999997337, -1.4275022629089693 
0.39999999999997227, -1.4267011648555932 
0.40999999999997117, -1.42518980443225 
0.41999999999997006, -1.4230018011911365 
0.42999999999996896, -1.4201425220967872 
0.43999999999996786, -1.416541101720318 
0.44999999999996676, -1.4120238521282242 
0.45999999999996566, -1.4062681518479163 
0.46999999999996456, -1.3987257273175095 
0.47999999999996346, -1.388699116788302 
0.48999999999996235, -1.376095749247018 
0.49999999999996125, -1.3631738129869828 
0.5099999999999602, -1.3545240616378948 
0.519999999999959, -1.3518628486233526 
0.529999999999958, -1.3522019457941807 
0.5399999999999568, -1.3525610097292446 
0.5499999999999557, -1.3514965785687258 
0.5599999999999546, -1.3474301284109393 
0.5699999999999535, -1.335806241303 
0.5799999999999524, -1.3012512833088805 
0.5899999999999513, -1.193407731199177 
0.5999999999999502, -0.914847970828536 
0.6099999999999491, -0.5457269009081231 
0.619999999999948, -0.3214099532920272 
0.6299999999999469, -0.222990882103773 
0.6399999999999458, -0.17881804131873397 
0.6499999999999447, -0.15681548180350063 
0.6599999999999436, -0.14474797077717816 
0.6699999999999425, -0.13762621068851083 
0.6799999999999414, -0.13320870747428856 
0.6899999999999403, -0.13040463782310244 
0.6999999999999392, -0.12866547477490436 
0.7099999999999381, -0.12773985670791832 
0.719999999999937, -0.12758082054967734 
0.7299999999999359, -0.12833924879026237 
0.7399999999999348, -0.13044453862805178 
0.7499999999999337, -0.13483974701320117 
0.7599999999999326, -0.1435820131616009 
0.7699999999999315, -0.16144089669497186 
0.7799999999999304, -0.20048356752427282 
0.7899999999999293, -0.29357674114584753 
0.7999999999999282, -0.5227596356732674 
0.8099999999999271, -0.961932487343355 
0.819999999999926, -1.3952883090709471 
0.8299999999999249, -1.6352989734476968 
0.8399999999999238, -1.7498080792025839 
0.8499999999999227, -1.8056110005837023 
0.8599999999999216, -1.8327399437619505 
0.8699999999999205, -1.8452693349946379 
0.8799999999999194, -1.8505156335694353 
0.8899999999999183, -1.8522255782949935 
0.8999999999999172, -1.8522471220116867 
0.9099999999999161, -1.8516079665112168 
0.919999999999915, -1.8508088573939308 
0.9299999999999139, -1.849646734196984 
0.9399999999999128, -1.847825462990453 
0.9499999999999117, -1.8459751377399598 
0.9599999999999106, -1.8451410744638104 
0.9699999999999095, -1.844878264422104 
0.9799999999999084, -1.8435879815753864 
0.9899999999999073, -1.8387401757668846 
0.9999999999999062, -1.822063003615602 
1.0099999999999052, -1.7550138320782231 
1.019999999999904, -1.445304348617463 
1.029999999999903, -0.623509523199299 
1.039999999999902, -0.10522054983410711 
1.0499999999999008, 0.04552606981786773 
1.0599999999998997, 0.09369700159923447 
1.0699999999998986, 0.11266849566805925 
1.0799999999998975, 0.12131718669848071 
1.0899999999998964, 0.12559777484319457 
1.0999999999998953, 0.12776017132436226 
1.1099999999998942, 0.12878348689498104 
1.119999999999893, 0.12913637900786673 
1.129999999999892, 0.1290441247924573 
1.1399999999998909, 0.12858672709031452 
1.1499999999998898, 0.12772942632272505 
1.1599999999998887, 0.1263285226935572 
1.1699999999998876, 0.12421715191571854 
1.1799999999998865, 0.12209539070049827 
1.1899999999998854, 0.1286792535204866 
1.1999999999998843, 0.21001465131866204 
1.2099999999998832, 0.5600992433155506 
1.219999999999882, 0.8509833250830902 
1.229999999999881, 0.921744215049405 
1.2399999999998799, 0.9386007449077475 
1.2499999999998788, 0.9434277985041181 
1.2599999999998777, 0.9443484838572358 
1.2699999999998766, 0.9428072437386572 
1.2799999999998755, 0.9373830461320318 
1.2899999999998744, 0.9209904587311417 
1.2999999999998733, 0.8660966887436672 
1.3099999999998722, 0.7176080938120679 
1.319999999999871, 0.58201022422336 
1.32999999999987, 0.5578273310479125 
1.3399999999998689, 0.562995573806653 
1.3499999999998678, 0.5683427435509645 
1.3599999999998666, 0.5713910414869355 
1.3699999999998655, 0.5727770430291824 
1.3799999999998644, 0.572919271526092 
1.3899999999998633, 0.5717408915149368 
1.3999999999998622, 0.5683984933820609 
1.4099999999998611, 0.5600154120330545 
1.41999999999986, 0.535619125893623 
1.429999999999859, 0.43564282733238224 
1.4399999999998578, -0.23397250419507382 
1.4499999999998567, -1.9397408787604882 
1.4599999999998556, -2.3683017414931387 
1.4699999999998545, -2.4478815657693596 
1.4799999999998534, -2.470357749034026 
1.4899999999998523, -2.477857038024612 
1.4999999999998512, -2.4800261254431257 
1.5099999999998501, -2.4797877461518425 
1.519999999999849, -2.478022020236256 
1.529999999999848, -2.474100570253963 
1.5399999999998468, -2.465180994773971 
1.5499999999998457, -2.4521591261913303 
1.5599999999998446, -2.449823911330612 
1.5699999999998435, -2.452414719083395 
1.5799999999998424, -2.4519030260167294 
1.5899999999998413, -2.4461892673722154 
1.5999999999998402, -2.438828105973348 
1.6099999999998391, -2.4690456972271635 
1.619999999999838, -2.498510413849092 
1.629999999999837, -2.509042924128284 
1.6399999999998358, -2.512710403115776 
1.6499999999998347, -2.513765717440818 
1.6599999999998336, -2.512967862741087 
1.6699999999998325, -2.5098013303515296 
1.6799999999998314, -2.5021517774063935 
1.6899999999998303, -2.4824509151593546 
1.6999999999998292, -2.4119693846379056 
1.709999999999828, -1.9665721732722379 
1.719999999999827, -0.5692342910914681 
1.729999999999826, -0.05718757295540279 
1.7399999999998248, 0.058654205614906064 
1.7499999999998237, 0.09435416673339046 
1.7599999999998226, 0.10822812842054501 
1.7699999999998215, 0.11438527655819279 
1.7799999999998204, 0.11721821327220275 
1.7899999999998193, 0.11832789348050672 
1.7999999999998182, 0.11831161721985266 
1.809999999999817, 0.11729136758415004 
1.819999999999816, 0.11502813430742391 
1.8299999999998149, 0.11078690514543876 
1.8399999999998138, 0.10280888009902991 
1.8499999999998127, 0.08668749879151451 
1.8599999999998116, 0.04986147078782591 
1.8699999999998105, -0.04974479815109616 
1.8799999999998094, -0.36598682922901005 
1.8899999999998083, -1.1626746631221683 
1.8999999999998072, -1.8521270286821045 
1.909999999999806, -2.0628946206968317 
1.919999999999805, -2.114071723727348 
1.9299999999998039, -2.127672085577973 
1.9399999999998028, -2.1313263337328068 
1.9499999999998017, -2.1318164034815137 
1.9599999999998006, -2.1313274934030075 
1.9699999999997995, -2.1307250718388624 
1.9799999999997984, -2.1296664599314057 
1.9899999999997973, -2.1277536118589646 
1.9999999999997962, -2.1260950909631324 
2.0099999999998173, -2.125679536252358 
2.0199999999998384, -2.1250042557463007 
2.0299999999998595, -2.1212284421995924 
2.0399999999998806, -2.10434022552478 
2.0499999999999017, -1.9927903801110074 
2.059999999999923, -0.6798350627377687 
2.069999999999944, 1.0424587835514925 
2.079999999999965, 1.170624071734101 
2.089999999999986, 1.187938032119331 
2.100000000000007, 1.191786609911376 
2.1100000000000283, 1.1919220387897567 
2.1200000000000494, 1.1892019601293933 
2.1300000000000705, 1.1802961779159233 
2.1400000000000916, 1.1506419106296284 
2.1500000000001127, 1.0618614293723028 
2.160000000000134, 0.9643490370892669 
2.170000000000155, 0.9551857293188057 
2.180000000000176, 0.9653592247690275 
2.190000000000197, 0.9712212911251091 
2.2000000000002182, 0.9735803284389165 
2.2100000000002393, 0.9737560230208269 
2.2200000000002604, 0.9716827251126233 
2.2300000000002815, 0.9649534092240474 
2.2400000000003026, 0.9418918051186973 
2.2500000000003237, 0.8263133266441688 
2.260000000000345, 0.10622417726539217 
2.270000000000366, -0.04567406177016695 
2.280000000000387, 7.946104102288496 
2.290000000000408, 7.936912416833882 
2.3000000000004293, -9.627403842314006 
2.3100000000004504, -9.631535950146455 
2.3200000000004715, 7.187647615706375 
2.3300000000004926, 7.95036066259631 
2.3400000000005137, 7.915395355645993 
2.3500000000005348, 7.694677996022634 
2.360000000000556, 7.694163367756799 
2.370000000000577, 7.668321567115477 
2.380000000000598, 7.681072332238363 
2.390000000000619, 7.6783405313869055 
2.4000000000006403, 7.675522417006772 
2.4100000000006614, 7.673527744429931 
2.4200000000006825, 7.672992375533683 
2.4300000000007036, 7.670684748966655 
2.4400000000007247, 7.669292029515812 
2.450000000000746, 7.671969666962515 
2.460000000000767, 7.645848130260495 
2.470000000000788, 7.70887906300523 
2.480000000000809, 7.706836180784303 
2.49000000000083, -9.69540196325765 
2.5000000000008513, -9.723105413998752 
2.5100000000008724, -8.913390416966902 
2.5200000000008935, 7.490129857621611 
2.5300000000009146, 7.486585335629053 
2.5400000000009357, -9.188615611984648 
2.550000000000957, -9.201830619725992 
2.560000000000978, -9.04273045019272 
2.570000000000999, -9.137413514949312 
2.58000000000102, -9.132580341798112 
2.5900000000010412, -9.126913461853436 
2.6000000000010624, -9.125442432531297 
2.6100000000010835, -9.121104138331857 
2.6200000000011046, -9.119091818457253 
2.6300000000011257, -9.117664433030285 
2.6400000000011468, -9.112824770451384 
2.650000000001168, -9.115370423889761 
2.660000000001189, -9.112152419434778 
2.67000000000121, -9.122305433767798 
2.680000000001231, -9.128536846521492 
2.6900000000012523, -8.109503545689574 
2.7000000000012734, 9.242708047905577 
2.7100000000012945, 9.18046022689216 
2.7200000000013156, -10.834972542759076 
2.7300000000013367, -10.82028023715328 
2.740000000001358, 9.228947300739845 
2.750000000001379, 9.222931857744163 
2.7600000000014, -7.082911619671549 
2.770000000001421, -7.147825820352216 
2.780000000001442, -7.144598673082197 
2.7900000000014633, -7.116276343899753 
2.8000000000014844, -7.129830817304606 
2.8100000000015055, -7.128155699806385 
2.8200000000015266, -7.123897715906438 
2.8300000000015477, -7.123039223514645 
2.840000000001569, -7.123122207154125 
2.85000000000159, -7.121836392062474 
2.860000000001611, -7.112986338649099 
2.870000000001632, -7.12623103216031 
2.8800000000016532, -7.127448230074572 
2.8900000000016743, -7.102731020027524 
2.9000000000016954, -7.781581185482905 
2.9100000000017165, -7.79504129698486 
2.9200000000017377, -7.77691208404543 
2.9300000000017588, 5.469761046992474 
2.94000000000178, 5.499492737177922 
2.950000000001801, 5.492434239355238 
2.960000000001822, -6.930726306026797 
2.970000000001843, -7.0310928194484985 
2.9800000000018643, -7.028237176446607 
2.9900000000018854, -6.951278776069961 
3.0000000000019065, -6.9953847858373 
3.0100000000019276, -6.994073757601472 
3.0200000000019487, -6.987295821272096 
3.03000000000197, -6.988540039952154 
3.040000000001991, -6.987354658270628 
3.050000000002012, -6.986093607710158 
3.060000000002033, -6.983284771127468 
3.070000000002054, -6.983416333172093 
3.0800000000020753, -6.98811352007787 
3.0900000000020964, -6.983165125545104 
3.1000000000021175, -7.053310313577434 
3.1100000000021386, -7.171603474139863 
3.1200000000021597, -7.168983795338356 
3.130000000002181, -4.231631968348994 
3.140000000002202, 4.90649256477429 
3.150000000002223, 4.909327111964407 
3.160000000002244, 4.884298940869826 
3.1700000000022652, -6.543239821180083 
3.1800000000022863, -6.571407881122477 
3.1900000000023074, -6.568232773789751 
3.2000000000023285, -6.492114359859966 
3.2100000000023496, -6.534343289091247 
3.2200000000023707, -6.533674793014074 
3.230000000002392, -6.528975764915797 
3.240000000002413, -6.52833572763272 
3.250000000002434, -6.526372064101281 
3.260000000002455, -6.527141380251396 
3.2700000000024763, -6.5256734100013505 
3.2800000000024974, -6.512332748835213 
3.2900000000025185, -6.532722836918251 
3.3000000000025396, -6.534029804947378 
3.3100000000025607, -6.521062727680752 
3.3200000000025818, 7.22281548664823 
3.330000000002603, 7.372550835950841 
3.340000000002624, 7.342200725819405 
3.350000000002645, -9.12142386076533 
3.360000000002666, -9.122887453696638 
3.3700000000026873, 6.1886630221607835 
3.3800000000027084, 7.391517788780986 
3.3900000000027295, 7.380559363795053 
3.4000000000027506, 7.261642394773692 
3.4100000000027717, 7.265682505681616 
3.420000000002793, 7.2510487172832345 
3.430000000002814, 7.255197256501736 
3.440000000002835, 7.254035916672923 
3.450000000002856, 7.250299772333541 
3.460000000002877, 7.249585444643534 
3.4700000000028983, 7.248511910000365 
3.4800000000029194, 7.248106055420737 
3.4900000000029405, 7.24113853732168 
3.5000000000029616, 7.252306475109256 
3.5100000000029827, 7.252785515662988 
3.520000000003004, 6.847457735677193 
3.530000000003025, 7.5066174410851145 
3.540000000003046, 7.501291940267893 
3.550000000003067, -9.178564389485746 
3.5600000000030882, -9.190843096404093 
3.5700000000031094, -8.781477125375151 
3.5800000000031305, 7.492967455134651 
3.5900000000031516, 7.488785169711379 
3.6000000000031727, 6.831932919321299 
3.6100000000031938, 6.865651147550546 
3.620000000003215, 6.858730345374674 
3.630000000003236, 6.846352351666356 
3.640000000003257, 6.84876942381148 
3.650000000003278, 6.846027192031144 
3.6600000000032993, 6.843823052655883 
3.6700000000033204, 6.8416291482821165 
3.6800000000033415, 6.842558027065205 
3.6900000000033626, 6.841058742337006 
3.7000000000033837, 6.826390158610897 
3.710000000003405, 6.846672317728261 
3.720000000003426, 6.845172468090209 
3.730000000003447, 6.364975836234911 
3.740000000003468, 7.0968430376957015 
3.750000000003489, 7.090803063380255 
3.7600000000035103, -8.775243076392165 
3.7700000000035314, -8.793175729726434 
3.7800000000035525, -8.724548769452051 
3.7900000000035736, 7.0867505339498065 
3.8000000000035947, 7.0866454885282 
3.810000000003616, 6.356932127170234 
3.820000000003637, 6.773738364618974 
3.830000000003658, 6.771430022428264 
3.840000000003679, 6.750499741831068 
3.8500000000037002, 6.760131710054582 
3.8600000000037213, 6.75867828582291 
3.8700000000037424, 6.755004311490874 
3.8800000000037635, 6.754155604161565 
3.8900000000037847, 6.7538816863537265 
3.9000000000038058, 6.753619720679815 
3.910000000003827, 6.7480161321876695 
3.920000000003848, 6.758451117547248 
3.930000000003869, 6.762711506130477 
3.94000000000389, 6.732162606629194 
3.9500000000039113, 7.548428475179101 
3.9600000000039324, 7.550199931302326 
3.9700000000039535, -8.55975698372949 
3.9800000000039746, -9.244450489379902 
3.9900000000039957, -9.228874997317021 
4.000000000004016, 7.548910109043132 
4.010000000003993, 7.550985310184212 
4.02000000000397, 6.953940243033283 
4.030000000003946, 7.3111958659480605 
4.040000000003923, 7.307306798484146 
4.0500000000039, 7.294116340307154 
4.0600000000038765, 7.297205317159303 
4.070000000003853, 7.29424873279835 
4.08000000000383, 7.2924320355603385 
4.090000000003807, 7.289967175118552 
4.100000000003783, 7.290413240634988 
4.11000000000376, 7.288236307735272 
4.120000000003737, 7.283700178712671 
4.130000000003713, 7.292392398935424 
4.14000000000369, 7.282163709410179 
4.150000000003667, 7.397415471696538 
4.1600000000036434, 7.401420439196883 
4.17000000000362, -2.0834161701271414 
4.180000000003597, -9.136698841907657 
4.1900000000035735, -9.127531779715202 
4.20000000000355, 7.351043915057323 
4.210000000003527, 7.364742321022317 
4.220000000003504, 6.820924015640429 
4.23000000000348, -7.090531460752738 
4.240000000003457, -7.092955697721964 
4.250000000003434, -7.079845401692556 
4.26000000000341, -7.073285834427776 
4.270000000003387, -7.074222578765514 
4.280000000003364, -7.071207502827754 
4.2900000000033405, -7.069375756877415 
4.300000000003317, -7.067041946345388 
4.310000000003294, -7.067830882493077 
4.320000000003271, -7.065973997316261 
4.330000000003247, -7.051351228845005 
4.340000000003224, -7.07318905966265 
4.350000000003201, -7.0715274448908785 
4.360000000003177, -6.4520662455900295 
4.370000000003154, -7.845850249722604 
4.380000000003131, -7.8461496476380646 
4.390000000003107, -7.448845982681879 
4.400000000003084, 5.549859577318296 
4.410000000003061, 5.553161348524441 
4.4200000000030375, 5.497600733278063 
4.430000000003014, -7.067005321817827 
4.440000000002991, -7.073456718328352 
4.450000000002968, -7.063014761941784 
4.460000000002944, -7.0310188632253885 
4.470000000002921, -7.0378729269389835 
4.480000000002898, -7.035031602476624 
4.490000000002874, -7.030743466959495 
4.500000000002851, -7.030131257624409 
4.510000000002828, -7.029897603538272 
4.520000000002804, -7.0281508843956715 
4.530000000002781, -7.019739768402415 
4.540000000002758, -7.030165873497739 
4.5500000000027345, -7.029616237330542 
4.560000000002711, -6.977314758009099 
4.570000000002688, -7.182873606445777 
4.580000000002665, -7.187727868106944 
4.590000000002641, -7.168726381827059 
4.600000000002618, 4.90021327114477 
4.610000000002595, 4.941627143349672 
4.620000000002571, 4.938382530578654 
4.630000000002548, -0.6988615511881386 
4.640000000002525, -6.698281263373902 
4.6500000000025015, -6.698903075573289 
4.660000000002478, -6.676470784776299 
4.670000000002455, -6.652788268222624 
4.6800000000024315, -6.656915671815992 
4.690000000002408, -6.654243029509726 
4.700000000002385, -6.649645198775684 
4.710000000002362, -6.649477874967895 
4.720000000002338, -6.649428028385108 
4.730000000002315, -6.647990107553139 
4.740000000002292, -6.6430076573424115 
4.750000000002268, -6.6488322766439865 
4.760000000002245, -6.652930240098447 
4.770000000002222, -6.647635749352586 
4.7800000000021985, -6.709755992717431 
4.790000000002175, -7.24022194861749 
4.800000000002152, -7.238730415995339 
4.810000000002129, -6.716811526105746 
4.820000000002105, 4.980873963013104 
4.830000000002082, 4.986649919195551 
4.840000000002059, 4.973086881657151 
4.850000000002035, -5.931847049264993 
4.860000000002012, -6.038714061607054 
4.870000000001989, -6.037948527289649 
4.880000000001965, -6.022282864003378 
4.890000000001942, -6.014916813143609 
4.900000000001919, -6.017987356641153 
4.9100000000018955, -6.016882078372617 
4.920000000001872, -6.013560697217001 
4.930000000001849, -6.012949767382542 
4.940000000001826, -6.010467618937442 
4.950000000001802, -6.014300483572385 
4.960000000001779, -6.013135394689495 
4.970000000001756, -5.986094493559498 
4.980000000001732, -6.070810800255747 
4.990000000001709, -6.084083034550529 
5.000000000001686, -6.081291317140589 
5.0100000000016625, -5.791002266932642 
5.020000000001639, 3.90833573438395 
