t, s[1].omega / s[0].omega 
0, -0.9200221159157623 
0.009999999999999995, -0.922254703047131 
0.019999999999999934, -0.9244197909071815 
0.029999999999999874, -0.9262985574542855 
0.04000000000000012, -0.9276752972599909 
0.050000000000000405, -0.9284390720229141 
0.06000000000000069, -0.9286227488391559 
0.07000000000000098, -0.9283787928792098 
0.08000000000000126, -0.9279556044008915 
0.09000000000000155, -0.9277001834531318 
0.10000000000000184, -0.9280360843716299 
0.11000000000000212, -0.9293483283801598 
0.12000000000000241, -0.9318086002792348 
0.130000000000002, -0.9352968743904881 
0.1400000000000009, -0.9395058504658488 
0.1499999999999998, -0.9441194139776823 
0.1599999999999987, -0.9489208309619895 
0.1699999999999976, -0.9538062322549807 
0.1799999999999965, -0.9587560654332122 
0.1899999999999954, -0.9638022236967974 
0.1999999999999943, -0.9689895018340101 
0.2099999999999932, -0.9743152757370834 
0.2199999999999921, -0.9796479226559004 
0.229999999999991, -0.984670900901501 
0.2399999999999899, -0.9889444143616103 
0.2499999999999888, -0.9921082180649566 
0.2599999999999877, -0.9940632573619211 
0.2699999999999866, -0.9949638998433384 
0.2799999999999855, -0.995090338175417 
0.2899999999999844, -0.9947743108053473 
0.2999999999999833, -0.9944341365276406 
0.3099999999999822, -0.9946352492063335 
0.3199999999999811, -0.9960094926466743 
0.32999999999998, -0.9989557104689807 
0.3399999999999789, -1.0033696520019608 
0.3499999999999778, -1.0087388018259609 
0.35999999999997667, -1.0144954960486532 
0.36999999999997557, -1.0202626758966111 
0.37999999999997447, -1.0258786038095575 
0.38999999999997337, -1.0313194599284634 
0.39999999999997227, -1.0366238100024172 
0.40999999999997117, -1.0418348854353154 
0.41999999999997006, -1.0469397978544248 
0.42999999999996896, -1.0518046096861156 
0.43999999999996786, -1.0561511012619718 
0.44999999999996676, -1.0596416359820946 
0.45999999999996566, -1.0620520999734702 
0.46999999999996456, -1.063384474008338 
0.47999999999996346, -1.0638291781716136 
0.48999999999996235, -1.0636719179042373 
0.49999999999996125, -1.0632634893730137 
0.5099999999999602, -1.063039792823974 
0.519999999999959, -1.0634666556819883 
0.529999999999958, -1.0648352655168618 
0.5399999999999568, -1.0670820870720046 
0.5499999999999557, -1.0698727270823958 
0.5599999999999546, -1.0728537102686553 
0.5699999999999535, -1.0758021816621415 
0.5799999999999524, -1.0786144301374696 
0.5899999999999513, -1.0812447411046133 
0.5999999999999502, -1.0836754497316177 
0.6099999999999491, -1.085913820455585 
0.619999999999948, -1.087981149480455 
0.6299999999999469, -1.0898814409467916 
0.6399999999999458, -1.0915664011478374 
0.6499999999999447, -1.0929271854229916 
0.6599999999999436, -1.093833875340497 
0.6699999999999425, -1.094205609520791 
0.6799999999999414, -1.0940616179650962 
0.6899999999999403, -1.093528169718921 
0.6999999999999392, -1.0928186493370977 
0.7099999999999381, -1.092189477813259 
0.719999999999937, -1.0918518040873477 
0.7299999999999359, -1.0918799059565536 
0.7399999999999348, -1.09221524941192 
0.7499999999999337, -1.092765176653392 
0.7599999999999326, -1.0934739231951809 
0.7699999999999315, -1.094299170493821 
0.7799999999999304, -1.0951561483211392 
0.7899999999999293, -1.0959142304996583 
0.7999999999999282, -1.0964475701005445 
0.8099999999999271, -1.0966853303329047 
0.819999999999926, -1.0966274213178795 
0.8299999999999249, -1.0963231558553015 
0.8399999999999238, -1.0958275505205364 
0.8499999999999227, -1.0951624544783205 
0.8599999999999216, -1.0943064954448019 
0.8699999999999205, -1.0932184367198903 
0.8799999999999194, -1.0918778758456735 
0.8899999999999183, -1.0903164760221364 
0.8999999999999172, -1.0886179078699851 
0.9099999999999161, -1.0868841535363454 
0.919999999999915, -1.0851974387322745 
0.9299999999999139, -1.0836249087940142 
0.9399999999999128, -1.082267075542045 
0.9499999999999117, -1.081272673287771 
0.9599999999999106, -1.0807521930904316 
0.9699999999999095, -1.0806544766989163 
0.9799999999999084, -1.0807512526267549 
0.9899999999999073, -1.0807431933754301 
0.9999999999999062, -1.080365199893995 
1.0099999999999052, -1.07943358314283 
1.019999999999904, -1.0778717435199265 
1.029999999999903, -1.0757278444985725 
1.039999999999902, -1.0731470980611288 
1.0499999999999008, -1.0702923270807154 
1.0599999999998997, -1.067270690178237 
1.0699999999998986, -1.0641149054095174 
1.0799999999998975, -1.0608110983620507 
1.0899999999998964, -1.057338627091467 
1.0999999999998953, -1.0536958765916355 
1.1099999999998942, -1.0499116407318179 
1.119999999999893, -1.0460678512560038 
1.129999999999892, -1.0423514996666596 
1.1399999999998909, -1.0390890723826243 
1.1499999999998898, -1.0366564475298587 
1.1599999999998887, -1.0352450747516326 
1.1699999999998876, -1.0346913691803068 
1.1799999999998865, -1.0345693858423162 
1.1899999999998854, -1.0344168169733612 
1.1999999999998843, -1.0338557842507785 
1.2099999999998832, -1.032590669822278 
1.219999999999882, -1.03040489650945 
1.229999999999881, -1.027224292416967 
1.2399999999998799, -1.0231849326176772 
1.2499999999998788, -1.018586558468785 
1.2599999999998777, -1.0137374885581063 
1.2699999999998766, -1.0088303853190985 
1.2799999999998755, -1.0039266922167915 
1.2899999999998744, -0.99900944929265 
1.2999999999998733, -0.9940434414580999 
1.3099999999998722, -0.9890180838296306 
1.319999999999871, -0.9839816972048101 
1.32999999999987, -0.9790843999287461 
1.3399999999998689, -0.9746153368478472 
1.3499999999998678, -0.9709647434458472 
1.3599999999998666, -0.968450810898468 
1.3699999999998655, -0.967101919822739 
1.3799999999998644, -0.9666099456660083 
1.3899999999998633, -0.9665039454186747 
1.3999999999998622, -0.9663466447951091 
1.4099999999998611, -0.9658049188342883 
1.41999999999986, -0.9646371667251209 
1.429999999999859, -0.9626984878027747 
1.4399999999998578, -0.9599925524081329 
1.4499999999998567, -0.9566995855575676 
1.4599999999998556, -0.9531019404149351 
1.4699999999998545, -0.9494493526572299 
1.4799999999998534, -0.9458769036942037 
1.4899999999998523, -0.9424122172683654 
1.4999999999998512, -0.9390285288628307 
1.5099999999998501, -0.9356972823955468 
1.519999999999849, -0.9324186664319567 
1.529999999999848, -0.9292288352814774 
1.5399999999998468, -0.9261976116138865 
1.5499999999998457, -0.9234316953450129 
1.5599999999998446, -0.92107749776518 
1.5699999999998435, -0.9192937657343585 
1.5799999999998424, -0.9181778959509546 
1.5899999999998413, -0.9176882404214416 
1.5999999999998402, -0.917635567756497 
1.6099999999998391, -0.9177557999203266 
1.619999999999838, -0.9177996512416181 
1.629999999999837, -0.9175869279869191 
1.6399999999998358, -0.9170301193936122 
1.6499999999998347, -0.9161436664849338 
1.6599999999998336, -0.9150282147638308 
1.6699999999998325, -0.9138180611326042 
1.6799999999998314, -0.9126166169823957 
1.6899999999998303, -0.911459499729966 
1.6999999999998292, -0.9103187012664332 
1.709999999999828, -0.9091367124092857 
1.719999999999827, -0.9078718727824281 
1.729999999999826, -0.9065340458327187 
1.7399999999998248, -0.9051946862406343 
1.7499999999998237, -0.9039677310561374 
1.7599999999998226, -0.9029705408273001 
1.7699999999998215, -0.9022863977623394 
1.7799999999998204, -0.9019519549800832 
1.7899999999998193, -0.9019708641954012 
1.7999999999998182, -0.9023286328263499 
1.809999999999817, -0.9029886561715467 
1.819999999999816, -0.9038796156031393 
1.8299999999998149, -0.9048998220175284 
1.8399999999998138, -0.9059463003457319 
1.8499999999998127, -0.9069511662980995 
1.8599999999998116, -0.9079024637918179 
1.8699999999998105, -0.9088370863413033 
1.8799999999998094, -0.9098075117920642 
1.8899999999998083, -0.9108366647851579 
1.8999999999998072, -0.9118810789209327 
1.909999999999806, -0.9128234703304339 
1.919999999999805, -0.9135105675689911 
1.9299999999998039, -0.9138239734651634 
1.9399999999998028, -0.9137383137490265 
1.9499999999998017, -0.9133366527634742 
1.9599999999998006, -0.9128001039773256 
1.9699999999997995, -0.912391549275784 
1.9799999999997984, -0.9124149607390617 
1.9899999999997973, -0.9131255991420403 
1.9999999999997962, -0.9146276719443897 
2.0099999999998173, -0.9168459012491134 
2.0199999999998384, -0.9195974974764344 
2.0299999999998595, -0.9226929559924277 
2.0399999999998806, -0.9259925148388397 
2.0499999999999017, -0.929413602890785 
2.059999999999923, -0.9329220134272183 
2.069999999999944, -0.9365250542956567 
2.079999999999965, -0.9402588191741357 
2.089999999999986, -0.9441541422111408 
2.100000000000007, -0.9481768824399677 
2.1100000000000283, -0.9521624597888341 
2.1200000000000494, -0.9558015432197114 
2.1300000000000705, -0.9587391036473647 
2.1400000000000916, -0.960746725472647 
2.1500000000001127, -0.9618167819578423 
2.160000000000134, -0.9621159469202318 
2.170000000000155, -0.9619028970271334 
2.180000000000176, -0.9615150274659439 
2.190000000000197, -0.9614136587485527 
2.2000000000002182, -0.9621752700512971 
2.2100000000002393, -0.9643092321727963 
2.2200000000002604, -0.9679749887414635 
2.2300000000002815, -0.9728893566443002 
2.2400000000003026, -0.9785425056035886 
2.2500000000003237, -0.9844849465640941 
2.260000000000345, -0.9904564215063086 
2.270000000000366, -0.9963652636497331 
2.280000000000387, -1.0022211661606628 
2.290000000000408, -1.0080730174315016 
2.3000000000004293, -1.013945610619253 
2.3100000000004504, -1.0197609142698747 
2.3200000000004715, -1.0252675493882881 
2.3300000000004926, -1.0300588733504852 
2.3400000000005137, -1.033741322606556 
2.3500000000005348, -1.0361462183423138 
2.360000000000556, -1.037382813210399 
2.370000000000577, -1.0377248996537298 
2.380000000000598, -1.0375052476697766 
2.390000000000619, -1.0371184727686753 
2.4000000000006403, -1.0370735061537952 
2.4100000000006614, -1.0379349184457556 
2.4200000000006825, -1.040062577654023 
2.4300000000007036, -1.0433685734619496 
2.4400000000007247, -1.0474081417689383 
2.450000000000746, -1.0517012312619811 
2.460000000000767, -1.0559404640942147 
2.470000000000788, -1.0599946886222593 
2.480000000000809, -1.0638340018378973 
2.49000000000083, -1.0674742844909468 
2.5000000000008513, -1.070947568826424 
2.5100000000008724, -1.074270082152263 
2.5200000000008935, -1.0773988703023176 
2.5300000000009146, -1.0802008371552212 
2.5400000000009357, -1.0824760663786517 
2.550000000000957, -1.0840480492153224 
2.560000000000978, -1.0848596014755727 
2.570000000000999, -1.0849985113856058 
2.58000000000102, -1.0846650894306729 
2.5900000000010412, -1.0841435022170143 
2.6000000000010624, -1.083773939181191 
2.6100000000010835, -1.0838599835477787 
2.6200000000011046, -1.0845251675786325 
2.6300000000011257, -1.0856696251725197 
2.6400000000011468, -1.087092174167697 
2.650000000001168, -1.088631073906196 
2.660000000001189, -1.09019277963483 
2.67000000000121, -1.0917042974080355 
2.680000000001231, -1.0930842004509456 
2.6900000000012523, -1.0942618778097144 
2.7000000000012734, -1.0952078367777096 
2.7100000000012945, -1.0959375914752831 
2.7200000000013156, -1.096484308208233 
2.7300000000013367, -1.096859927112091 
2.740000000001358, -1.0970317129454388 
2.750000000001379, -1.0969324789868806 
2.7600000000014, -1.0965018878472768 
2.770000000001421, -1.0957337109109442 
2.780000000001442, -1.0947005270405397 
2.7900000000014633, -1.0935425746402543 
2.8000000000014844, -1.092419003437286 
2.8100000000015055, -1.0914422226729195 
2.8200000000015266, -1.0906531461434859 
2.8300000000015477, -1.0900680614207643 
2.840000000001569, -1.0897323658771236 
2.85000000000159, -1.0896947751857855 
2.860000000001611, -1.0899201664960745 
2.870000000001632, -1.0902512076142434 
2.8800000000016532, -1.0904667768062244 
2.8900000000016743, -1.0903692251387465 
2.9000000000016954, -1.0898386104618123 
2.9100000000017165, -1.088853259652356 
2.9200000000017377, -1.0874796801414754 
2.9300000000017588, -1.0858258861521504 
2.94000000000178, -1.0839806333599378 
2.950000000001801, -1.0819792197931375 
2.960000000001822, -1.0798116120872423 
2.970000000001843, -1.077456883569363 
2.9800000000018643, -1.0749159883856387 
2.9900000000018854, -1.072221600270844 
3.0000000000019065, -1.0694277574956628 
3.0100000000019276, -1.0666110679153005 
3.0200000000019487, -1.0639097139616152 
3.03000000000197, -1.061562071116295 
3.040000000001991, -1.0598473174631668 
3.050000000002012, -1.0589033590745651 
3.060000000002033, -1.0585866353986262 
3.070000000002054, -1.0585395285053303 
3.0800000000020753, -1.0583684384096093 
3.0900000000020964, -1.057745623686407 
3.1000000000021175, -1.0564234157280876 
3.1100000000021386, -1.0542542926844227 
3.1200000000021597, -1.051245577061709 
3.130000000002181, -1.0475742041767766 
3.140000000002202, -1.0434987778795242 
3.150000000002223, -1.039231770232865 
3.160000000002244, -1.0348761150162573 
3.1700000000022652, -1.0304430687265858 
3.1800000000022863, -1.0259034803416074 
3.1900000000023074, -1.0212325447624706 
3.2000000000023285, -1.0164413489605504 
3.2100000000023496, -1.011614372355658 
3.2200000000023707, -1.00696491209597 
3.230000000002392, -1.002863239190466 
3.240000000002413, -0.9997367330228804 
3.250000000002434, -0.9978226382871181 
3.260000000002455, -0.9969765732167598 
3.2700000000024763, -0.996753312777769 
3.2800000000024974, -0.9966507498779285 
3.2900000000025185, -0.9962600156113431 
3.3000000000025396, -0.9952711222724708 
3.3100000000025607, -0.9934505360350752 
3.3200000000025818, -0.9906818552894474 
3.330000000002603, -0.9870440460005995 
3.340000000002624, -0.9828090095332002 
3.350000000002645, -0.9783089119362745 
3.360000000002666, -0.9737865819507491 
3.3700000000026873, -0.969345235392632 
3.3800000000027084, -0.9649878414739771 
3.3900000000027295, -0.9606809553528015 
3.4000000000027506, -0.9564026812850015 
3.4100000000027717, -0.9521681531078663 
3.420000000002793, -0.9480460674613905 
3.430000000002814, -0.9441793057473085 
3.440000000002835, -0.9407943448078917 
3.450000000002856, -0.9381527887392915 
3.460000000002877, -0.9364249368377429 
3.4700000000028983, -0.9355641993658343 
3.4800000000029194, -0.9353047941973556 
3.4900000000029405, -0.9352848697703751 
3.5000000000029616, -0.935173143513021 
3.5100000000029827, -0.9347228432089821 
3.520000000003004, -0.9337828732873978 
3.530000000003025, -0.9323147088198864 
3.540000000003046, -0.9304066139781145 
3.550000000003067, -0.9282386488131591 
3.5600000000030882, -0.9259968677970095 
3.5700000000031094, -0.9237984417236881 
3.5800000000031305, -0.9216735110316018 
3.5900000000031516, -0.9195944777183817 
3.6000000000031727, -0.9175226705614126 
3.6100000000031938, -0.9154479496960299 
3.620000000003215, -0.9134054279980669 
3.630000000003236, -0.9114656258832889 
3.640000000003257, -0.9097100276070545 
3.650000000003278, -0.9082129483528141 
3.6600000000032993, -0.9070406008490439 
3.6700000000033204, -0.9062537291779655 
3.6800000000033415, -0.9058903791498286 
3.6900000000033626, -0.9059300001513181 
3.7000000000033837, -0.9062727701868039 
3.710000000003405, -0.9067620869220407 
3.720000000003426, -0.9072376192559644 
3.730000000003447, -0.907585330870649 
3.740000000003468, -0.9077648172476396 
3.750000000003489, -0.9078085857821904 
3.7600000000035103, -0.9077922647477596 
3.7700000000035314, -0.9077865680059849 
3.7800000000035525, -0.9078145462252735 
3.7900000000035736, -0.9078341134099615 
3.8000000000035947, -0.9077543430129126 
3.810000000003616, -0.9074813420808578 
3.820000000003637, -0.9069714035189811 
3.830000000003658, -0.9062634545002582 
3.840000000003679, -0.9054818878119193 
3.8500000000037002, -0.9048147457248026 
3.8600000000037213, -0.9044662373980416 
3.8700000000037424, -0.9045895829622859 
3.8800000000037635, -0.9052362866826433 
3.8900000000037847, -0.9063603491588921 
3.9000000000038058, -0.9078669886567233 
3.910000000003827, -0.9096581997429544 
3.920000000003848, -0.9116485384046082 
3.930000000003869, -0.9137646122928261 
3.94000000000389, -0.9159508492056279 
3.9500000000039113, -0.9181837697104431 
3.9600000000039324, -0.9204785670543567 
3.9700000000039535, -0.9228727698016975 
3.9800000000039746, -0.9253852312635866 
3.9900000000039957, -0.9279630594435622 
4.000000000004016, -0.9304451964542269 
4.010000000003993, -0.9325859359729802 
4.02000000000397, -0.934154124299274 
4.030000000003946, -0.9350422762645472 
4.040000000003923, -0.9352986584451971 
4.0500000000039, -0.9350917542904581 
4.0600000000038765, -0.934683289274737 
4.070000000003853, -0.9344371309140783 
4.08000000000383, -0.9348054548115389 
4.090000000003807, -0.936210265260838 
4.100000000003783, -0.9388475302678035 
4.11000000000376, -0.9425895597808045 
4.120000000003737, -0.9470957392239269 
4.130000000003713, -0.9520142373678928 
4.14000000000369, -0.9571060427415521 
4.150000000003667, -0.9622596398313146 
4.1600000000036434, -0.9674563158041275 
4.17000000000362, -0.9727306227239623 
4.180000000003597, -0.9781265699066648 
4.1900000000035735, -0.9836332401305488 
4.20000000000355, -0.9891019210303778 
4.210000000003527, -0.9941968054529715 
4.220000000003504, -0.9984726122339727 
4.23000000000348, -1.0015877282551708 
4.240000000003457, -1.0034743631749146 
4.250000000003434, -1.004311233469978 
4.26000000000341, -1.004391233956402 
4.270000000003387, -1.004055849692426 
4.280000000003364, -1.0037373923162285 
4.2900000000033405, -1.004010954128487 
4.300000000003317, -1.0054859108903105 
4.310000000003294, -1.0084925375122085 
4.320000000003271, -1.012853278234341 
4.330000000003247, -1.018034726410345 
4.340000000003224, -1.0235019769790363 
4.350000000003201, -1.0289242213048901 
4.360000000003177, -1.0341707582894992 
4.370000000003154, -1.0392298159479978 
4.380000000003131, -1.0441403402122287 
4.390000000003107, -1.0489412406037713 
4.400000000003084, -1.0536158144235614 
4.410000000003061, -1.058033694592386 
4.4200000000030375, -1.0619359152084509 
4.430000000003014, -1.0650199608949076 
4.440000000002991, -1.0670962825805816 
4.450000000002968, -1.0681816119115533 
4.460000000002944, -1.0684616800447562 
4.470000000002921, -1.0682144768197988 
4.480000000002898, -1.0677896824161486 
4.490000000002874, -1.0676137861969255 
4.500000000002851, -1.0681025778532125 
4.510000000002828, -1.0694577012155762 
4.520000000002804, -1.0715514024243367 
4.530000000002781, -1.0740618827725676 
4.540000000002758, -1.0766968834505153 
4.5500000000027345, -1.0792868079078075 
4.560000000002711, -1.0817495037663014 
4.570000000002688, -1.0840385110224608 
4.580000000002665, -1.086129957204752 
4.590000000002641, -1.088027766406093 
4.600000000002618, -1.0897530839602925 
4.610000000002595, -1.091311936141452 
4.620000000002571, -1.0926615410397202 
4.630000000002548, -1.09370428672798 
4.640000000002525, -1.0943259573236892 
4.6500000000025015, -1.0944598783135113 
4.660000000002478, -1.0941330441474362 
4.670000000002455, -1.0934733118781457 
4.6800000000024315, -1.092688105025607 
4.690000000002408, -1.0920114331232802 
4.700000000002385, -1.091613782484506 
4.710000000002362, -1.0915351059753409 
4.720000000002338, -1.091718525609325 
4.730000000002315, -1.0921037146188373 
4.740000000002292, -1.0926636657406505 
4.750000000002268, -1.093357096186676 
4.760000000002245, -1.094079211790947 
4.770000000002222, -1.0946801130781152 
4.7800000000021985, -1.0950267619958733 
4.790000000002175, -1.0950511753564174 
4.800000000002152, -1.09476115575294 
4.810000000002129, -1.0942150138461355 
4.820000000002105, -1.093475052870141 
4.830000000002082, -1.0925681788294637 
4.840000000002059, -1.0914774730721857 
4.850000000002035, -1.0901668993109308 
4.860000000002012, -1.0886210673784684 
4.870000000001989, -1.0868731997870391 
4.880000000001965, -1.085001320051361 
4.890000000001942, -1.0830955050273268 
4.900000000001919, -1.0812312188944273 
4.9100000000018955, -1.0794891898340881 
4.920000000001872, -1.078002753944371 
4.930000000001849, -1.0769458657206898 
