t, s[1].omega / s[0].omega 
0, -1.18021327375428 
0.009999999999999995, -1.1998731471480184 
0.019999999999999934, -1.2157201968242064 
0.029999999999999874, -1.2271875444485716 
0.04000000000000012, -1.2344576901509794 
0.050000000000000405, -1.2384412046269162 
0.06000000000000069, -1.2402237269579202 
0.07000000000000098, -1.2406685381593463 
0.08000000000000126, -1.2404097284386455 
0.09000000000000155, -1.2400511701550923 
0.10000000000000184, -1.2402741305688805 
0.11000000000000212, -1.241570938263998 
0.12000000000000241, -1.2438416993896264 
0.130000000000002, -1.2465292653049733 
0.1400000000000009, -1.2491392151632486 
0.1499999999999998, -1.251462692913472 
0.1599999999999987, -1.2534564131829247 
0.1699999999999976, -1.2550966571677773 
0.1799999999999965, -1.256349035553865 
0.1899999999999954, -1.2571988909496121 
0.1999999999999943, -1.2576638590354514 
0.2099999999999932, -1.2577728473451997 
0.2199999999999921, -1.2575357796886728 
0.229999999999991, -1.2569321529733954 
0.2399999999999899, -1.2559292985887094 
0.2499999999999888, -1.2545171690614185 
0.2599999999999877, -1.2527312303832558 
0.2699999999999866, -1.250638378154767 
0.2799999999999855, -1.2482933379261316 
0.2899999999999844, -1.2457359617016768 
0.2999999999999833, -1.2431002748050708 
0.3099999999999822, -1.2407433525647857 
0.3199999999999811, -1.2391280562994633 
0.32999999999998, -1.2384118415754628 
0.3399999999999789, -1.238241823583982 
0.3499999999999778, -1.2380272378368444 
0.35999999999997667, -1.2372099887210712 
0.36999999999997557, -1.2352367028464246 
0.37999999999997447, -1.2314333018981842 
0.38999999999997337, -1.225044870072462 
0.39999999999997227, -1.2155389534104741 
0.40999999999997117, -1.2029238181894661 
0.41999999999997006, -1.187649597144683 
0.42999999999996896, -1.170143950474022 
0.43999999999996786, -1.1504721855403603 
0.44999999999996676, -1.1283695217609917 
0.45999999999996566, -1.103645632976104 
0.46999999999996456, -1.077014926212066 
0.47999999999996346, -1.0511046735409728 
0.48999999999996235, -1.0302120068489153 
0.49999999999996125, -1.017458042722948 
0.5099999999999602, -1.0121356458006452 
0.519999999999959, -1.0110446993043012 
0.529999999999958, -1.011380682444965 
0.5399999999999568, -1.011677385366051 
0.5499999999999557, -1.0112823817269967 
0.5599999999999546, -1.0097011437290864 
0.5699999999999535, -1.006145349493226 
0.5799999999999524, -0.9992268549060042 
0.5899999999999513, -0.9869983812839059 
0.5999999999999502, -0.9679384675165421 
0.6099999999999491, -0.9427149463768295 
0.619999999999948, -0.9144769588290312 
0.6299999999999469, -0.8866705564646935 
0.6399999999999458, -0.8611931106219526 
0.6499999999999447, -0.8384807414512283 
0.6599999999999436, -0.818335212806215 
0.6699999999999425, -0.800503310903359 
0.6799999999999414, -0.7849138927816132 
0.6899999999999403, -0.7717037463645788 
0.6999999999999392, -0.7611085664822195 
0.7099999999999381, -0.7532718987017929 
0.719999999999937, -0.7480688477629565 
0.7299999999999359, -0.7450615009584377 
0.7399999999999348, -0.7436173577695329 
0.7499999999999337, -0.7430953513489527 
0.7599999999999326, -0.7429765748887674 
0.7699999999999315, -0.7428980241312789 
0.7799999999999304, -0.74262787808601 
0.7899999999999293, -0.7420380522660148 
0.7999999999999282, -0.7411014509291819 
0.8099999999999271, -0.7398983665127912 
0.819999999999926, -0.7385918379882349 
0.8299999999999249, -0.737360285944475 
0.8399999999999238, -0.7363275264238496 
0.8499999999999227, -0.7355304443578538 
0.8599999999999216, -0.7349246836151926 
0.8699999999999205, -0.7344130171840784 
0.8799999999999194, -0.7338885940900195 
0.8899999999999183, -0.7332822700972051 
0.8999999999999172, -0.732595738226367 
0.9099999999999161, -0.7319123511192722 
0.919999999999915, -0.7313926249133373 
0.9299999999999139, -0.7312590858753668 
0.9399999999999128, -0.7317644696466901 
0.9499999999999117, -0.7331406024360169 
0.9599999999999106, -0.7355447592080002 
0.9699999999999095, -0.7390333720880085 
0.9799999999999084, -0.7435796782068284 
0.9899999999999073, -0.7491238871984939 
0.9999999999999062, -0.7556304271384875 
1.0099999999999052, -0.7631343996813872 
1.019999999999904, -0.7717715232384391 
1.029999999999903, -0.7817856886893487 
1.039999999999902, -0.7934888670443765 
1.0499999999999008, -0.8071083201202439 
1.0599999999998997, -0.8224343800499827 
1.0699999999998986, -0.8383540493448989 
1.0799999999998975, -0.8528543487065949 
1.0899999999998964, -0.8640628063084842 
1.0999999999998953, -0.8714167496122853 
1.1099999999998942, -0.8755742301924705 
1.119999999999893, -0.8775340402299117 
1.129999999999892, -0.878069256258948 
1.1399999999998909, -0.8776477956515549 
1.1499999999998898, -0.8766004461192953 
1.1599999999998887, -0.8754878652132204 
1.1699999999998876, -0.8758790150867833 
1.1799999999998865, -0.881759277798003 
1.1899999999998854, -0.9007529398802493 
1.1999999999998843, -0.9417631257178541 
1.2099999999998832, -1.0063958253344172 
1.219999999999882, -1.0832753748387935 
1.229999999999881, -1.1570611355513263 
1.2399999999998799, -1.2196815741530105 
1.2499999999998788, -1.2701315621776212 
1.2599999999998777, -1.3096563429750738 
1.2699999999998766, -1.339234532343082 
1.2799999999998755, -1.3596046555744896 
1.2899999999998744, -1.372136510762845 
1.2999999999998733, -1.3789467187635693 
1.3099999999998722, -1.3821509980964293 
1.319999999999871, -1.3832825630561865 
1.32999999999987, -1.3832997510743976 
1.3399999999998689, -1.382898879965371 
1.3499999999998678, -1.3827527884117368 
1.3599999999998666, -1.383340467584126 
1.3699999999998655, -1.3845775355862284 
1.3799999999998644, -1.3859962211687349 
1.3899999999998633, -1.3872712052591754 
1.3999999999998622, -1.3883461150079803 
1.4099999999998611, -1.3892125880628174 
1.41999999999986, -1.3897580774567546 
1.429999999999859, -1.389808502589157 
1.4399999999998578, -1.3892173777249806 
1.4499999999998567, -1.3879048547524833 
1.4599999999998556, -1.3858538737588706 
1.4699999999998545, -1.3830730829405473 
1.4799999999998534, -1.3795422636600594 
1.4899999999998523, -1.3751682966991763 
1.4999999999998512, -1.3697560763117433 
1.5099999999998501, -1.3629822126497204 
1.519999999999849, -1.35443365410635 
1.529999999999848, -1.3439621955197232 
1.5399999999998468, -1.332629841878551 
1.5499999999998457, -1.323354334380671 
1.5599999999998446, -1.318710604262142 
1.5699999999998435, -1.3178958264144442 
1.5799999999998424, -1.3183534540582493 
1.5899999999998413, -1.3184138631804747 
1.5999999999998402, -1.3172078915123813 
1.6099999999998391, -1.3134902329145794 
1.619999999999838, -1.303864447498491 
1.629999999999837, -1.2783284772745815 
1.6399999999998358, -1.20876054923021 
1.6499999999998347, -1.0389270873189536 
1.6599999999998336, -0.7608539353799795 
1.6699999999998325, -0.5131414019959994 
1.6799999999998314, -0.37151753962786943 
1.6899999999998303, -0.3005145161617784 
1.6999999999998292, -0.2638192461854417 
1.709999999999828, -0.2434981731120241 
1.719999999999827, -0.23148447346942666 
1.729999999999826, -0.22401163469922564 
1.7399999999998248, -0.2192114270655936 
1.7499999999998237, -0.2161103215572259 
1.7599999999998226, -0.21419304132456793 
1.7699999999998215, -0.21320497131209332 
1.7799999999998204, -0.21306494710873597 
1.7899999999998193, -0.2138390039719545 
1.7999999999998182, -0.2157614870472262 
1.809999999999817, -0.2193143717700407 
1.819999999999816, -0.22540797685385336 
1.8299999999998149, -0.23577288080376543 
1.8399999999998138, -0.25383396444839007 
1.8499999999998127, -0.2867373263110622 
1.8599999999998116, -0.35005201174527606 
1.8699999999998105, -0.47685357744386614 
1.8799999999998094, -0.7190729559375632 
1.8899999999998083, -1.0724183398995562 
1.8999999999998072, -1.378131813512649 
1.909999999999806, -1.535644755575648 
1.919999999999805, -1.596955860142872 
1.9299999999998039, -1.61896312948928 
1.9399999999998028, -1.6267823665486478 
1.9499999999998017, -1.6293448607790828 
1.9599999999998006, -1.6297689167306555 
1.9699999999997995, -1.6293878150605121 
1.9799999999997984, -1.6292140528494947 
1.9899999999997973, -1.6299310257593287 
1.9999999999997962, -1.6312521201344954 
2.0099999999998173, -1.6324614915608866 
2.0199999999998384, -1.6333147723497767 
2.0299999999998595, -1.6339149540187041 
2.0399999999998806, -1.6342186907608167 
2.0499999999999017, -1.633928367961562 
2.059999999999923, -1.6326260019129442 
2.069999999999944, -1.629800401645382 
2.079999999999965, -1.6248140975339243 
2.089999999999986, -1.61687074906749 
2.100000000000007, -1.604831528347924 
2.1100000000000283, -1.5866411640121911 
2.1200000000000494, -1.5581348923015952 
2.1300000000000705, -1.5114728464261717 
2.1400000000000916, -1.4380302715317381 
2.1500000000001127, -1.3510828841980411 
2.160000000000134, -1.2969408800710593 
2.170000000000155, -1.2855915050365496 
2.180000000000176, -1.2891719092760217 
2.190000000000197, -1.292998974624012 
2.2000000000002182, -1.294751170498403 
2.2100000000002393, -1.294613510308984 
2.2200000000002604, -1.2922390397416736 
2.2300000000002815, -1.2853792038974057 
2.2400000000003026, -1.2658429521224295 
2.2500000000003237, -1.2017582294035838 
2.260000000000345, -0.9471775745683265 
2.270000000000366, 0.21053531255659902 
2.280000000000387, 1.20230540678786 
2.290000000000408, 1.2938031888669583 
2.3000000000004293, 1.307079390023929 
2.3100000000004504, 1.3099017665655524 
2.3200000000004715, 1.3095599838044167 
2.3300000000004926, 1.3061977327967578 
2.3400000000005137, 1.295034489119453 
2.3500000000005348, 1.2561574883232876 
2.360000000000556, 1.1649389674930295 
2.370000000000577, 1.1268759126300025 
2.380000000000598, 1.1390016794196784 
2.390000000000619, 1.1473262477325263 
2.4000000000006403, 1.1505047931934125 
2.4100000000006614, 1.1510517480417048 
2.4200000000006825, 1.1495826793424357 
2.4300000000007036, 1.14501530099473 
2.4400000000007247, 1.1338148877621568 
2.450000000000746, 1.1193312911923123 
2.460000000000767, 1.1799151022114138 
2.470000000000788, 1.280509930731566 
2.480000000000809, 1.3145041317795292 
2.49000000000083, 1.3233654611698196 
2.5000000000008513, 1.3255463064012478 
2.5100000000008724, 1.3248943555454313 
2.5200000000008935, 1.3205113467164051 
2.5300000000009146, 1.3015002208601631 
2.5400000000009357, 1.1545527128446271 
2.550000000000957, -0.02466010553793815 
2.560000000000978, -0.7819477909336396 
2.570000000000999, -0.9491714511769146 
2.58000000000102, -0.999997194529271 
2.5900000000010412, -1.018289365821204 
2.6000000000010624, -1.025461215625338 
2.6100000000010835, -1.0281510312388797 
2.6200000000011046, -1.0285259132995646 
2.6300000000011257, -1.0269916399794004 
2.6400000000011468, -1.022635215048722 
2.650000000001168, -1.0121214353603851 
2.660000000001189, -0.9849319962894999 
2.67000000000121, -0.9035056137981401 
2.680000000001231, -0.5984826772972693 
2.6900000000012523, 0.44607470904354224 
2.7000000000012734, 0.9906774449540656 
2.7100000000012945, 1.0589698850552796 
2.7200000000013156, 1.07193463994981 
2.7300000000013367, 1.0752173899390853 
2.740000000001358, 1.0754138161081803 
2.750000000001379, 1.0733623965490948 
2.7600000000014, 1.0675119537246438 
2.770000000001421, 1.052830647218053 
2.780000000001442, 1.0215653800922773 
2.7900000000014633, 0.9844979008054751 
2.8000000000014844, 0.9700754896005271 
2.8100000000015055, 0.971058545100304 
2.8200000000015266, 0.9738948190387553 
2.8300000000015477, 0.9754767499576456 
2.840000000001569, 0.9756608475975567 
2.85000000000159, 0.9741888808861002 
2.860000000001611, 0.9694444527744925 
2.870000000001632, 0.9544412387817076 
2.8800000000016532, 0.8912208152881819 
2.8900000000016743, 0.5888160394908062 
2.9000000000016954, 1.7015212010695788 
2.9100000000017165, 2.2144785047320017 
2.9200000000017377, 2.2335672199574748 
2.9300000000017588, 2.2354490347739904 
2.94000000000178, 2.2329689242917286 
2.950000000001801, 2.213410376098752 
2.960000000001822, 1.5579041967356002 
2.970000000001843, -1.7618592989360558 
2.9800000000018643, -2.2301923363508873 
2.9900000000018854, -2.277756450745202 
3.0000000000019065, -2.285621703525602 
3.0100000000019276, -2.2868457234797113 
3.0200000000019487, -2.286418385570033 
3.03000000000197, -2.2863277817993937 
3.040000000001991, -2.2870517898343765 
3.050000000002012, -2.2874355653740652 
3.060000000002033, -2.2873133267634906 
3.070000000002054, -2.287182173657434 
3.0800000000020753, -2.2865091457032243 
3.0900000000020964, -2.283512239698976 
3.1000000000021175, -2.2720830048715746 
3.1100000000021386, -2.2162256545867125 
3.1200000000021597, -1.777594514091259 
3.130000000002181, 0.01730707747456086 
3.140000000002202, 0.547746291838586 
3.150000000002223, 0.6200621341669488 
3.160000000002244, 0.6371556288643487 
3.1700000000022652, 0.6426979281310684 
3.1800000000022863, 0.6446345196110265 
3.1900000000023074, 0.6450755627456176 
3.2000000000023285, 0.644750441725918 
3.2100000000023496, 0.6440041821850192 
3.2200000000023707, 0.6430918149003151 
3.230000000002392, 0.6422637231934589 
3.240000000002413, 0.6417545475304042 
3.250000000002434, 0.6417257237041921 
3.260000000002455, 0.6422061518882634 
3.2700000000024763, 0.6430690082439139 
3.2800000000024974, 0.6440681955659259 
3.2900000000025185, 0.644920933100368 
3.3000000000025396, 0.6453744603689195 
3.3100000000025607, 0.6451873741215198 
3.3200000000025818, 0.6439729994119993 
3.330000000002603, 0.640744276269454 
3.340000000002624, 0.6323063880290734 
3.350000000002645, 0.60523328093118 
3.360000000002666, 0.4737160090185619 
3.3700000000026873, -0.4754518710610352 
3.3800000000027084, -1.8271651396885187 
3.3900000000027295, -2.0502840056199405 
3.4000000000027506, -2.0853883918025784 
3.4100000000027717, -2.093140686853199 
3.420000000002793, -2.094795197777567 
3.430000000002814, -2.094627121605679 
3.440000000002835, -2.0942427231496463 
3.450000000002856, -2.094338631589685 
3.460000000002877, -2.094382378754236 
3.4700000000028983, -2.0940018810343046 
3.4800000000029194, -2.0936819312316013 
3.4900000000029405, -2.0934757197461193 
3.5000000000029616, -2.092399893165058 
3.5100000000029827, -2.088403852070611 
3.520000000003004, -2.0744748157364867 
3.530000000003025, -2.0151962602057276 
3.540000000003046, -1.6784015161564505 
3.550000000003067, -0.4555188455133573 
3.5600000000030882, 0.19825154086683622 
3.5700000000031094, 0.32585726144362226 
3.5800000000031305, 0.3588472241215822 
3.5900000000031516, 0.37032141250614525 
3.6000000000031727, 0.3750325173228908 
3.6100000000031938, 0.3770754054443861 
3.620000000003215, 0.37789536968584597 
3.630000000003236, 0.37812029684690457 
3.640000000003257, 0.37809623361938915 
3.650000000003278, 0.37808963254526035 
3.6600000000032993, 0.3784144419413427 
3.6700000000033204, 0.37959032150907934 
3.6800000000033415, 0.3825823062462843 
3.6900000000033626, 0.3889788524162125 
3.7000000000033837, 0.4003518206104591 
3.710000000003405, 0.4159721473564546 
3.720000000003426, 0.4316316492996147 
3.730000000003447, 0.44333481485014703 
3.740000000003468, 0.4504046175187906 
3.750000000003489, 0.45405952977499614 
3.7600000000035103, 0.4554987264342074 
3.7700000000035314, 0.45531880346249165 
3.7800000000035525, 0.45346562353282255 
3.7900000000035736, 0.4490765333024972 
3.8000000000035947, 0.4399738346501877 
3.810000000003616, 0.4221814779646872 
3.820000000003637, 0.3923488037496575 
3.830000000003658, 0.35638789017128747 
3.840000000003679, 0.32870822077217493 
3.8500000000037002, 0.31426665778474877 
3.8600000000037213, 0.3082171550702595 
3.8700000000037424, 0.3058667608845013 
3.8800000000037635, 0.30493120167525867 
3.8900000000037847, 0.3044818531876237 
3.9000000000038058, 0.30412156162379433 
3.910000000003827, 0.30361704735494527 
3.920000000003848, 0.3027318064407364 
3.930000000003869, 0.30109622843636236 
3.94000000000389, 0.2979778605735084 
3.9500000000039113, 0.2916522899097133 
3.9600000000039324, 0.27726480618103644 
3.9700000000039535, 0.23774291789508747 
3.9800000000039746, 0.09352114234445999 
3.9900000000039957, -0.5459421570097978 
4.000000000004016, -1.6047148208931503 
4.010000000003993, -1.9237161728775944 
4.02000000000397, -1.9852863175793796 
4.030000000003946, -1.999903850318719 
4.040000000003923, -2.003763932647197 
4.0500000000039, -2.004403849633033 
4.0600000000038765, -2.004014300455688 
4.070000000003853, -2.0037251243765515 
4.08000000000383, -2.0037706872482897 
4.090000000003807, -2.0035853595642017 
4.100000000003783, -2.0031126892754343 
4.11000000000376, -2.002845445385426 
4.120000000003737, -2.002603154766882 
4.130000000003713, -2.0013540068923246 
4.14000000000369, -1.9970752752963903 
4.150000000003667, -1.9832422193265657 
4.1600000000036434, -1.9317274356541767 
4.17000000000362, -1.701248010377831 
4.180000000003597, -0.8848007117662202 
4.1900000000035735, -0.12628497640468497 
4.20000000000355, 0.09463266589950811 
4.210000000003527, 0.15669767832140763 
4.220000000003504, 0.1788702933763486 
4.23000000000348, 0.18833727822598104 
4.240000000003457, 0.19282015570893393 
4.250000000003434, 0.19501086840880777 
4.26000000000341, 0.19599870801038963 
4.270000000003387, 0.19626108094978656 
4.280000000003364, 0.19599245528639103 
4.2900000000033405, 0.1952160281714202 
4.300000000003317, 0.19380852265685122 
4.310000000003294, 0.19150793016056974 
4.320000000003271, 0.18816774686234047 
4.330000000003247, 0.1860725861108404 
4.340000000003224, 0.20564562283361393 
4.350000000003201, 0.33992358738407064 
4.360000000003177, 0.5974587432575573 
4.370000000003154, 0.7234681845551936 
4.380000000003131, 0.7586300599899352 
4.390000000003107, 0.7692110516251993 
4.400000000003084, 0.7726625520574963 
4.410000000003061, 0.7732983227569602 
4.4200000000030375, 0.7720526475578715 
4.430000000003014, 0.7684337795341026 
4.440000000002991, 0.7606119508938833 
4.450000000002968, 0.7455604927540309 
4.460000000002944, 0.7226954910885338 
4.470000000002921, 0.7003932367795555 
4.480000000002898, 0.6879896652062615 
4.490000000002874, 0.6840311514659022 
4.500000000002851, 0.6835267839238934 
4.510000000002828, 0.6838044922084687 
4.520000000002804, 0.6839137197982111 
4.530000000002781, 0.6834462623442714 
4.540000000002758, 0.6819072625856653 
4.5500000000027345, 0.678050132775385 
4.560000000002711, 0.6677424864215576 
4.570000000002688, 0.6322733935998973 
4.580000000002665, 0.4291057323559907 
4.590000000002641, -1.2512230624467502 
4.600000000002618, -2.5355098860891103 
4.610000000002595, -2.67074584766117 
4.620000000002571, -2.695677832452588 
4.630000000002548, -2.70226899328493 
4.640000000002525, -2.7037222104033387 
4.6500000000025015, -2.702975538464305 
4.660000000002478, -2.700439653139286 
4.670000000002455, -2.6942790518118898 
4.6800000000024315, -2.680531026813196 
4.690000000002408, -2.6711168373122263 
4.700000000002385, -2.6745915939855927 
4.710000000002362, -2.676099132785718 
4.720000000002338, -2.674402970932298 
4.730000000002315, -2.6714143960591556 
4.740000000002292, -2.6774289725516303 
4.750000000002268, -2.686445852619928 
4.760000000002245, -2.690353512923383 
4.770000000002222, -2.691585055758889 
4.7800000000021985, -2.6912784117005693 
4.790000000002175, -2.6886049548317614 
4.800000000002152, -2.6794817629278267 
4.810000000002129, -2.6438025392695144 
4.820000000002105, -2.4184336871223175 
4.830000000002082, -0.5996409698527227 
4.840000000002059, 0.5367615803504955 
4.850000000002035, 0.6596614121412328 
4.860000000002012, 0.6838706807063832 
4.870000000001989, 0.6911253231818814 
4.880000000001965, 0.6936741101207193 
4.890000000001942, 0.6944795009795969 
4.900000000001919, 0.6945361695076658 
4.9100000000018955, 0.6943468436114132 
4.920000000001872, 0.6944198430352787 
4.930000000001849, 0.6956218939155574 
4.940000000001826, 0.6994070550679782 
4.950000000001802, 0.7071601666694021 
4.960000000001779, 0.7180726893027766 
