t, s[1].omega / s[0].omega 
0, -1.4797808807569452 
0.009999999999999995, -1.4532685725618435 
0.019999999999999934, -1.4147714476588895 
0.029999999999999874, -1.3580677226788114 
0.04000000000000012, -1.277530050430633 
0.050000000000000405, -1.1824644617361968 
0.06000000000000069, -1.1066225557427845 
0.07000000000000098, -1.0714614520671157 
0.08000000000000126, -1.0637197716882558 
0.09000000000000155, -1.0650487109304163 
0.10000000000000184, -1.0673417872824795 
0.11000000000000212, -1.0686273614552477 
0.12000000000000241, -1.0686170465471112 
0.130000000000002, -1.066985799823075 
0.1400000000000009, -1.0625640851385747 
0.1499999999999998, -1.0520195341326104 
0.1599999999999987, -1.0265270823202566 
0.1699999999999976, -0.9655075160794434 
0.1799999999999965, -0.8399972611943074 
0.1899999999999954, -0.6628294366343874 
0.1999999999999943, -0.5088057144554027 
0.2099999999999932, -0.41308033854080356 
0.2199999999999921, -0.3598082396752841 
0.229999999999991, -0.3297450211010281 
0.2399999999999899, -0.3118883147490665 
0.2499999999999888, -0.3007096021666224 
0.2599999999999877, -0.2934072302394934 
0.2699999999999866, -0.28850168712366175 
0.2799999999999855, -0.28518211302991436 
0.2899999999999844, -0.2829990365081295 
0.2999999999999833, -0.28171549601620405 
0.3099999999999822, -0.28123529507795375 
0.3199999999999811, -0.28157404368588584 
0.32999999999998, -0.28286031013089563 
0.3399999999999789, -0.28536703885776654 
0.3499999999999778, -0.28958605710254337 
0.35999999999997667, -0.29637896831448973 
0.36999999999997557, -0.3072799781446364 
0.37999999999997447, -0.32512105849704 
0.38999999999997337, -0.355360211107738 
0.39999999999997227, -0.4088677293990771 
0.40999999999997117, -0.5067777209609295 
0.41999999999997006, -0.6813589186934378 
0.42999999999996896, -0.9388401094498114 
0.43999999999996786, -1.1867784929536334 
0.44999999999996676, -1.3308604363530454 
0.45999999999996566, -1.3911493142420297 
0.46999999999996456, -1.4136679761886626 
0.47999999999996346, -1.4219496709062645 
0.48999999999996235, -1.4248101113571978 
0.49999999999996125, -1.4253739736041378 
0.5099999999999602, -1.424908317337951 
0.519999999999959, -1.4244392198776517 
0.529999999999958, -1.4253694003873485 
0.5399999999999568, -1.4285836723484586 
0.5499999999999557, -1.4332179409148342 
0.5599999999999546, -1.4377362332317971 
0.5699999999999535, -1.44140182194283 
0.5799999999999524, -1.444193728361388 
0.5899999999999513, -1.4462565510725898 
0.5999999999999502, -1.4476702269296637 
0.6099999999999491, -1.4484663264273225 
0.619999999999948, -1.4486734489514752 
0.6299999999999469, -1.4483186301907556 
0.6399999999999458, -1.4474077159905037 
0.6499999999999447, -1.4459153553891455 
0.6599999999999436, -1.4437925590444467 
0.6699999999999425, -1.440971706775843 
0.6799999999999414, -1.4373377543272041 
0.6899999999999403, -1.4326953828055562 
0.6999999999999392, -1.4269205625771435 
0.7099999999999381, -1.4205202206719796 
0.719999999999937, -1.4151401449517331 
0.7299999999999359, -1.41241761234649 
0.7399999999999348, -1.4119703288986858 
0.7499999999999337, -1.4121384750642823 
0.7599999999999326, -1.411659357305549 
0.7699999999999315, -1.4095195502186695 
0.7799999999999304, -1.4036632887180542 
0.7899999999999293, -1.3881720032648341 
0.7999999999999282, -1.3454794881332597 
0.8099999999999271, -1.2301331731040672 
0.819999999999926, -0.9836516757645777 
0.8299999999999249, -0.6752666841367041 
0.8399999999999238, -0.459007881944067 
0.8499999999999227, -0.34589138347786774 
0.8599999999999216, -0.2889457783059874 
0.8699999999999205, -0.2586778614112455 
0.8799999999999194, -0.24146524172017858 
0.8899999999999183, -0.2310967877585628 
0.8999999999999172, -0.22458811639078893 
0.9099999999999161, -0.2204204289594806 
0.919999999999915, -0.21778958164616619 
0.9299999999999139, -0.21627076853581523 
0.9399999999999128, -0.21566458407806088 
0.9499999999999117, -0.21593139201532927 
0.9599999999999106, -0.21717876869706915 
0.9699999999999095, -0.2196956695609847 
0.9799999999999084, -0.2240507664133442 
0.9899999999999073, -0.23130938234636803 
0.9999999999999062, -0.2435048814795097 
1.0099999999999052, -0.26470211512343983 
1.019999999999904, -0.30349040424722995 
1.029999999999903, -0.3787125859470404 
1.039999999999902, -0.529207867756605 
1.0499999999999008, -0.8037240532220329 
1.0599999999998997, -1.151520635240534 
1.0699999999998986, -1.3968507315285614 
1.0799999999998975, -1.504725931731688 
1.0899999999998964, -1.5437718440903625 
1.0999999999998953, -1.557505513472992 
1.1099999999998942, -1.5622823973173117 
1.119999999999893, -1.5636278553928409 
1.129999999999892, -1.563526426117206 
1.1399999999998909, -1.5630760774078074 
1.1499999999998898, -1.563374864227796 
1.1599999999998887, -1.564979762887383 
1.1699999999998876, -1.5672386156052431 
1.1799999999998865, -1.5692544726557685 
1.1899999999998854, -1.5707545871275452 
1.1999999999998843, -1.571817171094366 
1.2099999999998832, -1.5724310552753074 
1.219999999999882, -1.5724281761536507 
1.229999999999881, -1.571596040546222 
1.2399999999998799, -1.5697360761229107 
1.2499999999998788, -1.5666663537449965 
1.2599999999998777, -1.5621834758147837 
1.2699999999998766, -1.5559588080346005 
1.2799999999998755, -1.5473517033101358 
1.2899999999998744, -1.5351144973505462 
1.2999999999998733, -1.517094113402754 
1.3099999999998722, -1.4909735207838604 
1.319999999999871, -1.4592451534920827 
1.32999999999987, -1.4351970461231036 
1.3399999999998689, -1.4279410950540856 
1.3499999999998678, -1.4293998943628308 
1.3599999999998666, -1.4314944094534527 
1.3699999999998655, -1.4321248602305672 
1.3799999999998644, -1.4308537341229706 
1.3899999999998633, -1.426213920698329 
1.3999999999998622, -1.4124181302416268 
1.4099999999998611, -1.3661324838066526 
1.41999999999986, -1.1813828427633104 
1.429999999999859, -0.27952961891358524 
1.4399999999998578, 1.479270597777667 
1.4499999999998567, 1.6277999233647673 
1.4599999999998556, 1.6418339140213791 
1.4699999999998545, 1.6441165975053909 
1.4799999999998534, 1.6429823262043108 
1.4899999999998523, 1.636549764848564 
1.4999999999998512, 1.6027676837816116 
1.5099999999998501, 1.3760878690034688 
1.519999999999849, 1.2225034867468445 
1.529999999999848, 1.2854303237579547 
1.5399999999998468, 1.3036374560734885 
1.5499999999998457, 1.3083628482364023 
1.5599999999998446, 1.309209613764963 
1.5699999999998435, 1.3082402945171532 
1.5799999999998424, 1.3060298348400379 
1.5899999999998413, 1.3046571855440487 
1.5999999999998402, 1.3114775768920448 
1.6099999999998391, 1.3285423448810296 
1.619999999999838, 1.3426724483791743 
1.629999999999837, 1.349440197568014 
1.6399999999998358, 1.3518771687327822 
1.6499999999998347, 1.3519802896877355 
1.6599999999998336, 1.349658325487129 
1.6699999999998325, 1.340082362656669 
1.6799999999998314, 1.2763741778101088 
1.6899999999998303, -0.3559545245065272 
1.6999999999998292, -2.9150560009367177 
1.709999999999828, -3.011859934934967 
1.719999999999827, -3.0218141473790694 
1.729999999999826, -3.0229819176728183 
1.7399999999998248, -3.0221346825165134 
1.7499999999998237, -3.0200217033492747 
1.7599999999998226, -3.0151568524219643 
1.7699999999998215, -3.010885650880144 
1.7799999999998204, -3.011874971823392 
1.7899999999998193, -3.0115531896386214 
1.7999999999998182, -3.0070807247877367 
1.809999999999817, -3.0056660029668967 
1.819999999999816, -3.022311712806076 
1.8299999999998149, -3.0305040638714105 
1.8399999999998138, -3.032699302786378 
1.8499999999998127, -3.0326540479340705 
1.8599999999998116, -3.0299449359221446 
1.8699999999998105, -3.018775832541656 
1.8799999999998094, -2.9541171516928175 
1.8899999999998083, -1.9438009539111618 
1.8999999999998072, 0.8063565389502176 
1.909999999999806, 1.005022895809331 
1.919999999999805, 1.0290659068605517 
1.9299999999998039, 1.0347470346515615 
1.9399999999998028, 1.0363497195929698 
1.9499999999998017, 1.0366294785231713 
1.9599999999998006, 1.0364164636984978 
1.9699999999997995, 1.0360882382011187 
1.9799999999997984, 1.0358779367479083 
1.9899999999997973, 1.035910620374437 
1.9999999999997962, 1.036180404358019 
2.0099999999998173, 1.036567968123803 
2.0199999999998384, 1.0369038624859301 
2.0299999999998595, 1.037009154515882 
2.0399999999998806, 1.0366525117467278 
2.0499999999999017, 1.0353468925898706 
2.059999999999923, 1.0315878880250868 
2.069999999999944, 1.018849065395654 
2.079999999999965, 0.9483717020684761 
2.089999999999986, -0.16465670560991352 
2.100000000000007, -2.81557195188762 
2.1100000000000283, -2.992913978038975 
2.1200000000000494, -3.012911385883645 
2.1300000000000705, -3.016534239949879 
2.1400000000000916, -3.016414618062135 
2.1500000000001127, -3.0144379211276244 
2.160000000000134, -3.00906866247165 
2.170000000000155, -2.9965144395934886 
2.180000000000176, -2.991805263413336 
2.190000000000197, -2.9953174393175566 
2.2000000000002182, -2.99532490026814 
2.2100000000002393, -2.9926930095054947 
2.2200000000002604, -2.9946446117999406 
2.2300000000002815, -3.0010359008922856 
2.2400000000003026, -3.003669764527397 
2.2500000000003237, -3.0042007933258916 
2.260000000000345, -3.003179959766573 
2.270000000000366, -2.9977113333896552 
2.280000000000387, -2.9663352178308084 
2.290000000000408, -2.5198022809131744 
2.3000000000004293, 0.7482865238152064 
2.3100000000004504, 1.1035311469179114 
2.3200000000004715, 1.1341722776578778 
2.3300000000004926, 1.1404585126747644 
2.3400000000005137, 1.1419384314660301 
2.3500000000005348, 1.1416467809320419 
2.360000000000556, 1.140085924849951 
2.370000000000577, 1.137109245276192 
2.380000000000598, 1.132644660150356 
2.390000000000619, 1.1274932686356247 
2.4000000000006403, 1.1233406829898573 
2.4100000000006614, 1.1211733136768318 
2.4200000000006825, 1.1204741815381587 
2.4300000000007036, 1.120218238082346 
2.4400000000007247, 1.1195439533905405 
2.450000000000746, 1.117362227713085 
2.460000000000767, 1.1103611915622225 
2.470000000000788, 1.0801076693047593 
2.480000000000809, 0.7975279711254801 
2.49000000000083, -2.5596569782766343 
2.5000000000008513, -3.3164663392907214 
2.5100000000008724, -3.353696656127829 
2.5200000000008935, -3.359727154599942 
2.5300000000009146, -3.360276506102752 
2.5400000000009357, -3.357919276883402 
2.550000000000957, -3.348864759489147 
2.560000000000978, -3.2960564980989764 
2.570000000000999, -3.189665336443894 
2.58000000000102, -3.231908346484366 
2.5900000000010412, -3.238775416991063 
2.6000000000010624, -3.238818686657055 
2.6100000000010835, -3.2384183393100114 
2.6200000000011046, -3.2386485633109325 
2.6300000000011257, -3.237923988134198 
2.6400000000011468, -3.2374009968073354 
2.650000000001168, -3.2362718899128646 
2.660000000001189, -3.228005526323366 
2.67000000000121, -3.1603465763594087 
2.680000000001231, -3.322734212645733 
2.6900000000012523, -3.4240624944506224 
2.7000000000012734, -3.4359787428586808 
2.7100000000012945, -3.4380129172624323 
2.7200000000013156, -3.4368546210496675 
2.7300000000013367, -3.4309118087557073 
2.740000000001358, -3.399414876363153 
2.750000000001379, -2.8140356983121633 
2.7600000000014, 0.10912171820512617 
2.770000000001421, 0.6474588670950174 
2.780000000001442, 0.724009395359319 
2.7900000000014633, 0.7420669550244303 
2.8000000000014844, 0.7478102751488074 
2.8100000000015055, 0.7496425681405421 
2.8200000000015266, 0.7496608111170879 
2.8300000000015477, 0.7483210188183443 
2.840000000001569, 0.7453594033078053 
2.85000000000159, 0.7401947169810026 
2.860000000001611, 0.7348262504030577 
2.870000000001632, 0.7501606203744081 
2.8800000000016532, 0.8253953016271355 
2.8900000000016743, 0.9017607201613224 
2.9000000000016954, 0.9338462154402485 
2.9100000000017165, 0.9446670156194715 
2.9200000000017377, 0.9482232284774386 
2.9300000000017588, 0.9487882801501213 
2.94000000000178, 0.9471210730880552 
2.950000000001801, 0.9415673092120732 
2.960000000001822, 0.9243486161014607 
2.970000000001843, 0.8631344474895262 
2.9800000000018643, 0.6926205414145087 
2.9900000000018854, 0.5603009925270869 
3.0000000000019065, 0.5512892561376225 
3.0100000000019276, 0.5619572240397462 
3.0200000000019487, 0.5688207575683651 
3.03000000000197, 0.5722672141601371 
3.040000000001991, 0.573733329895016 
3.050000000002012, 0.573869894262488 
3.060000000002033, 0.5726889555416543 
3.070000000002054, 0.5694216327021135 
3.0800000000020753, 0.5613648985527229 
3.0900000000020964, 0.5382857708829534 
3.1000000000021175, 0.44578901544716454 
3.1100000000021386, -0.18062862629086593 
3.1200000000021597, -2.2499300041696557 
3.130000000002181, -2.682184728493813 
3.140000000002202, -2.7351409452754605 
3.150000000002223, -2.74756044013783 
3.160000000002244, -2.751074929073952 
3.1700000000022652, -2.751383454784853 
3.1800000000022863, -2.7497136830197415 
3.1900000000023074, -2.74525903894268 
3.2000000000023285, -2.7329247890171904 
3.2100000000023496, -2.706206639017836 
3.2200000000023707, -2.7003995332910042 
3.230000000002392, -2.706896652363878 
3.240000000002413, -2.708174745681683 
3.250000000002434, -2.7065521237599226 
3.260000000002455, -2.705890549313777 
3.2700000000024763, -2.710908879938644 
3.2800000000024974, -2.7150103955063827 
3.2900000000025185, -2.7164881770613705 
3.3000000000025396, -2.7166832740000952 
3.3100000000025607, -2.7152873156473065 
3.3200000000025818, -2.709421318783069 
3.330000000002603, -2.6838298342534515 
3.340000000002624, -2.5014649722942464 
3.350000000002645, -0.6559974676333092 
3.360000000002666, 0.6128950612945807 
3.3700000000026873, 0.732598219972055 
3.3800000000027084, 0.7546590674870531 
3.3900000000027295, 0.761024097667155 
3.4000000000027506, 0.7631668522942459 
3.4100000000027717, 0.7637740653063395 
3.420000000002793, 0.7637355240961778 
3.430000000002814, 0.7634762317885989 
3.440000000002835, 0.7633034840843845 
3.450000000002856, 0.7634924870702354 
3.460000000002877, 0.7642512673824141 
3.4700000000028983, 0.7656177340414614 
3.4800000000029194, 0.7673847622950365 
3.4900000000029405, 0.7691675372029215 
3.5000000000029616, 0.770587923403504 
3.5100000000029827, 0.7713965694971849 
3.520000000003004, 0.7714184764515888 
3.530000000003025, 0.7703262342855305 
3.540000000003046, 0.7670850724484397 
3.550000000003067, 0.7578837112755928 
3.5600000000030882, 0.7239962034933236 
3.5700000000031094, 0.5063313535371271 
3.5800000000031305, -1.2049062407403754 
3.5900000000031516, -2.213572296790616 
3.6000000000031727, -2.315974336299237 
3.6100000000031938, -2.3324537520958986 
3.620000000003215, -2.335897414833078 
3.630000000003236, -2.336167414172093 
3.640000000003257, -2.335614719675979 
3.650000000003278, -2.335042362877962 
3.6600000000032993, -2.334030173996122 
3.6700000000033204, -2.3325226020386043 
3.6800000000033415, -2.331747024532842 
3.6900000000033626, -2.3315239020519343 
3.7000000000033837, -2.3298759541875627 
3.710000000003405, -2.3222509726732956 
3.720000000003426, -2.2793557940343763 
3.730000000003447, -1.8914194391115973 
3.740000000003468, 0.7431284454162668 
3.750000000003489, 3.081955046198911 
3.7600000000035103, 3.100058983147284 
3.7700000000035314, 3.100203642649654 
3.7800000000035525, 3.0902149337676255 
3.7900000000035736, 1.8509031969378404 
3.8000000000035947, -4.30903061998396 
3.810000000003616, -4.339998232151768 
3.820000000003637, -4.340967912358755 
3.830000000003658, -4.338672007977918 
3.840000000003679, -4.327835356575566 
3.8500000000037002, -4.321844590030667 
3.8600000000037213, -4.326023341510821 
3.8700000000037424, -4.325008858239531 
3.8800000000037635, -4.3254506757203846 
3.8900000000037847, -4.325294980035638 
3.9000000000038058, -4.324626367705889 
3.910000000003827, -4.32140363717083 
3.920000000003848, -4.290391957228644 
3.930000000003869, -4.352366779683174 
3.94000000000389, -4.368661097081008 
3.9500000000039113, -4.369738588211975 
3.9600000000039324, -4.366253510819424 
3.9700000000039535, -4.3254617495137895 
3.9800000000039746, 1.30959746916537 
3.9900000000039957, 2.3709590677755035 
4.000000000004016, 2.3856529485396107 
4.010000000003993, 2.3867734809392678 
4.02000000000397, 2.3843680528933 
4.030000000003946, 2.371999243558559 
4.040000000003923, 2.3233078443941277 
4.0500000000039, 2.3179920525895112 
4.0600000000038765, 2.329665821946593 
4.070000000003853, 2.331747717663731 
4.08000000000383, 2.3309523393771783 
4.090000000003807, 2.3302873446288155 
4.100000000003783, 2.3331410480339647 
4.11000000000376, 2.3365884342319116 
4.120000000003737, 2.337892120094672 
4.130000000003713, 2.3377352218078697 
4.14000000000369, 2.33594306326911 
4.150000000003667, 2.324732040400826 
4.1600000000036434, 1.9910046403842998 
4.17000000000362, -4.588002771976279 
4.180000000003597, -4.685205113415724 
4.1900000000035735, -4.688884955991556 
4.20000000000355, -4.68653303272624 
4.210000000003527, -4.662682787561428 
4.220000000003504, -2.4569531299971428 
4.23000000000348, -2.6983003486141794 
4.240000000003457, -2.8850050889374925 
4.250000000003434, -2.8993446318947136 
4.26000000000341, -2.9009420640236465 
4.270000000003387, -2.9004820767281823 
4.280000000003364, -2.9000021289678015 
4.2900000000033405, -2.8989183964047234 
4.300000000003317, -2.897317205377502 
4.310000000003294, -2.8969489358578393 
4.320000000003271, -2.895973918166841 
4.330000000003247, -2.8892236929473536 
4.340000000003224, -2.85031002184403 
4.350000000003201, -2.91378449950303 
4.360000000003177, -3.042025272372594 
4.370000000003154, -3.0642687024533837 
4.380000000003131, -3.0692045386151876 
4.390000000003107, -3.0699968870381618 
4.400000000003084, -3.068275759752935 
4.410000000003061, -3.0621454251141405 
4.4200000000030375, -3.0380376596618026 
4.430000000003014, -2.842175265897299 
4.440000000002991, -1.868977941376262 
4.450000000002968, -1.945822457918784 
4.460000000002944, -2.0267374133284908 
4.470000000002921, -2.043406471002011 
4.480000000002898, -2.0469909877798647 
4.490000000002874, -2.047084399247506 
4.500000000002851, -2.0461256307274382 
4.510000000002828, -2.046613045714692 
4.520000000002804, -2.0497805498439448 
4.530000000002781, -2.0530948153145983 
4.540000000002758, -2.0550778328997468 
4.5500000000027345, -2.056069123559964 
4.560000000002711, -2.0563186925577908 
4.570000000002688, -2.055496839035352 
4.580000000002665, -2.0527756291734787 
4.590000000002641, -2.0463938951481664 
4.600000000002618, -2.0323239521545 
4.610000000002595, -2.0002326327760067 
4.620000000002571, -1.9178572260949474 
4.630000000002548, -1.6704718096978985 
4.640000000002525, -1.070595003311253 
4.6500000000025015, -0.5403178750343585 
4.660000000002478, -0.33548172091787976 
4.670000000002455, -0.2644170431543685 
4.6800000000024315, -0.2367604047155249 
4.690000000002408, -0.22473658770596497 
4.700000000002385, -0.21909447234816884 
4.710000000002362, -0.21634177443166752 
4.720000000002338, -0.2150147357018095 
4.730000000002315, -0.21445354826700033 
4.740000000002292, -0.2143552601053412 
4.750000000002268, -0.2145996390803587 
4.760000000002245, -0.2151835284041122 
4.770000000002222, -0.2162050418999823 
4.7800000000021985, -0.21787785054943432 
4.790000000002175, -0.22057861413575494 
4.800000000002152, -0.22495542105780775 
4.810000000002129, -0.232156194738446 
4.820000000002105, -0.24425544079752454 
4.830000000002082, -0.2648193087151484 
4.840000000002059, -0.29862669233271977 
4.850000000002035, -0.3473347905099975 
4.860000000002012, -0.4012971409622718 
4.870000000001989, -0.4441884726974866 
4.880000000001965, -0.47014750801296623 
4.890000000001942, -0.4837195060666041 
4.900000000001919, -0.4904198120802696 
4.9100000000018955, -0.4935322970716083 
4.920000000001872, -0.49460545143401413 
4.930000000001849, -0.49420921146699454 
4.940000000001826, -0.49228812187666604 
4.950000000001802, -0.48818108985901587 
4.960000000001779, -0.4804233509915412 
4.970000000001756, -0.46665719041138487 
