t, s[1].omega / s[0].omega 
0, -0.9601868319013992 
0.009999999999999995, -0.9789240610673149 
0.019999999999999934, -0.9967275663163981 
0.029999999999999874, -1.0117227087047218 
0.04000000000000012, -1.022579019089159 
0.050000000000000405, -1.0293193827745708 
0.06000000000000069, -1.032923786132704 
0.07000000000000098, -1.0344797977686009 
0.08000000000000126, -1.0347750573915266 
0.09000000000000155, -1.0343476468726938 
0.10000000000000184, -1.0337619327622234 
0.11000000000000212, -1.033982304717354 
0.12000000000000241, -1.0365531238263226 
0.130000000000002, -1.0429806159230879 
0.1400000000000009, -1.053444467600149 
0.1499999999999998, -1.0664659181887677 
0.1599999999999987, -1.0801219633083334 
0.1699999999999976, -1.0931829033190623 
0.1799999999999965, -1.1052410002028354 
0.1899999999999954, -1.1163401868536376 
0.1999999999999943, -1.1266336549114118 
0.2099999999999932, -1.1361723857333597 
0.2199999999999921, -1.1447868556641647 
0.229999999999991, -1.152091146687623 
0.2399999999999899, -1.157677062907393 
0.2499999999999888, -1.161395705891354 
0.2599999999999877, -1.1634531643928754 
0.2699999999999866, -1.1642576319725975 
0.2799999999999855, -1.1642467961382121 
0.2899999999999844, -1.163860589269056 
0.2999999999999833, -1.1635999338635776 
0.3099999999999822, -1.1639739181997562 
0.3199999999999811, -1.1652402570147085 
0.32999999999998, -1.1672268599495226 
0.3399999999999789, -1.169528074720058 
0.3499999999999778, -1.1718206110131961 
0.35999999999997667, -1.1739570282924148 
0.36999999999997557, -1.1758792330876786 
0.37999999999997447, -1.177539187383682 
0.38999999999997337, -1.1788949001543503 
0.39999999999997227, -1.1799349357705267 
0.40999999999997117, -1.1806798054088787 
0.41999999999997006, -1.1811546855718111 
0.42999999999996896, -1.181357626067002 
0.43999999999996786, -1.1812501525698151 
0.44999999999996676, -1.1807809615428728 
0.45999999999996566, -1.1799288305134608 
0.46999999999996456, -1.1787359863898892 
0.47999999999996346, -1.1773083276450185 
0.48999999999996235, -1.175773859128327 
0.49999999999996125, -1.174224074087231 
0.5099999999999602, -1.1727082766843429 
0.519999999999959, -1.1713110443164205 
0.529999999999958, -1.1702103902279801 
0.5399999999999568, -1.1695822742889868 
0.5499999999999557, -1.169408793907202 
0.5599999999999546, -1.169427132365526 
0.5699999999999535, -1.1692691981149608 
0.5799999999999524, -1.1685933956407903 
0.5899999999999513, -1.1671218538276251 
0.5999999999999502, -1.1646668289761382 
0.6099999999999491, -1.161190509983831 
0.619999999999948, -1.1568250075339486 
0.6299999999999469, -1.151785979449075 
0.6399999999999458, -1.1462434240499333 
0.6499999999999447, -1.1402540927292142 
0.6599999999999436, -1.1337719707920395 
0.6699999999999425, -1.1266960644530601 
0.6799999999999414, -1.1189436406452655 
0.6899999999999403, -1.1105916064272676 
0.6999999999999392, -1.1021115996952087 
0.7099999999999381, -1.0945237924161213 
0.719999999999937, -1.0890360308934939 
0.7299999999999359, -1.0861453410738329 
0.7399999999999348, -1.0852247141050217 
0.7499999999999337, -1.085155566791927 
0.7599999999999326, -1.08503639668712 
0.7699999999999315, -1.0842713108890565 
0.7799999999999304, -1.0823119917671982 
0.7899999999999293, -1.078412914664924 
0.7999999999999282, -1.0715994981737222 
0.8099999999999271, -1.0610461894715564 
0.819999999999926, -1.046766256576526 
0.8299999999999249, -1.029842683537731 
0.8399999999999238, -1.0117333610770194 
0.8499999999999227, -0.9934542583648766 
0.8599999999999216, -0.975399883168221 
0.8699999999999205, -0.9576166248785729 
0.8799999999999194, -0.9401484115949378 
0.8899999999999183, -0.9233220856185387 
0.8999999999999172, -0.9079158812762664 
0.9099999999999161, -0.8950566513641764 
0.919999999999915, -0.8857184515180926 
0.9299999999999139, -0.8800927877875763 
0.9399999999999128, -0.8774398789070734 
0.9499999999999117, -0.8765755820434984 
0.9599999999999106, -0.8764494681598041 
0.9699999999999095, -0.8763643266595207 
0.9799999999999084, -0.8758942547050875 
0.9899999999999073, -0.8747349224875892 
0.9999999999999062, -0.8726291722698358 
1.0099999999999052, -0.8694170135419614 
1.019999999999904, -0.8651686427218281 
1.029999999999903, -0.8602396193990988 
1.039999999999902, -0.8551202742560392 
1.0499999999999008, -0.8502012887254715 
1.0599999999998997, -0.8456655099827204 
1.0699999999998986, -0.8415289595080827 
1.0799999999998975, -0.8377307480550369 
1.0899999999998964, -0.8342046956894595 
1.0999999999998953, -0.830917635093628 
1.1099999999998942, -0.8278791265539525 
1.119999999999893, -0.8251336150475452 
1.129999999999892, -0.8227477582059027 
1.1399999999998909, -0.8207990578172193 
1.1499999999998898, -0.819360675250933 
1.1599999999998887, -0.8184749485465561 
1.1699999999998876, -0.8181220538720078 
1.1799999999998865, -0.8182061075695877 
1.1899999999998854, -0.8185750579170774 
1.1999999999998843, -0.8190653114544855 
1.2099999999998832, -0.8195471737283737 
1.219999999999882, -0.8199549340567923 
1.229999999999881, -0.8202960162068468 
1.2399999999998799, -0.8206353963111377 
1.2499999999998788, -0.8210570387387939 
1.2599999999998777, -0.8216167125767884 
1.2699999999998766, -0.8223043190236414 
1.2799999999998755, -0.8230295090566868 
1.2899999999998744, -0.8236439630266931 
1.2999999999998733, -0.82400175230238 
1.3099999999998722, -0.8240260652056601 
1.319999999999871, -0.8237422404205565 
1.32999999999987, -0.8232770620073916 
1.3399999999998689, -0.8228524824501585 
1.3499999999998678, -0.8227793870392814 
1.3599999999998666, -0.8234212940598967 
1.3699999999998655, -0.8251026924890092 
1.3799999999998644, -0.8279956798509861 
1.3899999999998633, -0.8320684338140334 
1.3999999999998622, -0.8371390620297777 
1.4099999999998611, -0.8429874603943656 
1.41999999999986, -0.8494485758630532 
1.429999999999859, -0.8564548200908094 
1.4399999999998578, -0.8640382203993159 
1.4499999999998567, -0.8723052135427203 
1.4599999999998556, -0.881374285736487 
1.4699999999998545, -0.8912459759525581 
1.4799999999998534, -0.9015961685986772 
1.4899999999998523, -0.9116175131833073 
1.4999999999998512, -0.9202062416638468 
1.5099999999998501, -0.9265516330805831 
1.519999999999849, -0.9305580536033702 
1.529999999999848, -0.9326681298271848 
1.5399999999998468, -0.9334433700252273 
1.5499999999998457, -0.9333457804394168 
1.5599999999998446, -0.932780001616198 
1.5699999999998435, -0.9323196634189956 
1.5799999999998424, -0.9330483757734983 
1.5899999999998413, -0.9367605272520407 
1.5999999999998402, -0.9454536113441122 
1.6099999999998391, -0.959987328731604 
1.619999999999838, -0.9792199224681708 
1.629999999999837, -1.0008302658999289 
1.6399999999998358, -1.0228183952970538 
1.6499999999998347, -1.0441692375466602 
1.6599999999998336, -1.0646251146322545 
1.6699999999998325, -1.08417926111421 
1.6799999999998314, -1.1026155899855001 
1.6899999999998303, -1.1192198657689088 
1.6999999999998292, -1.1329000524136437 
1.709999999999828, -1.1428381585809795 
1.719999999999827, -1.1490960909226793 
1.729999999999826, -1.1524744365386224 
1.7399999999998248, -1.1539248876986634 
1.7499999999998237, -1.1541969105328367 
1.7599999999998226, -1.1538617150212673 
1.7699999999998215, -1.153525923860948 
1.7799999999998204, -1.1539754055191218 
1.7899999999998193, -1.1559238399211293 
1.7999999999998182, -1.1594505771880763 
1.809999999999817, -1.1639120394505666 
1.819999999999816, -1.1685220628851625 
1.8299999999998149, -1.1728154033871434 
1.8399999999998138, -1.1766484627068523 
1.8499999999998127, -1.1800250511917472 
1.8599999999998116, -1.1829850669195507 
1.8699999999998105, -1.1855722698870337 
1.8799999999998094, -1.1878201928768224 
1.8899999999998083, -1.1897277195008085 
1.8999999999998072, -1.191240531846195 
1.909999999999806, -1.1922666581318555 
1.919999999999805, -1.1927300799695577 
1.9299999999998039, -1.1926279463980836 
1.9399999999998028, -1.1920546517861406 
1.9499999999998017, -1.1911908249228031 
1.9599999999998006, -1.1902592255834303 
1.9699999999997995, -1.1894380221235723 
1.9799999999997984, -1.1887860808287094 
1.9899999999997973, -1.18828074738178 
1.9999999999997962, -1.1879327314424741 
2.0099999999998173, -1.1878144372736492 
2.0199999999998384, -1.1879475189499662 
2.0299999999998595, -1.1881973423325702 
2.0399999999998806, -1.1883108339025878 
2.0499999999999017, -1.1880281007432156 
2.059999999999923, -1.1871543218782206 
2.069999999999944, -1.185592454256217 
2.079999999999965, -1.1833589149910764 
2.089999999999986, -1.1805579996836257 
2.100000000000007, -1.1773104340496308 
2.1100000000000283, -1.1736871514339684 
2.1200000000000494, -1.169690739059358 
2.1300000000000705, -1.1652753689315536 
2.1400000000000916, -1.1603746370270358 
2.1500000000001127, -1.1549328323927992 
2.160000000000134, -1.14898409494457 
2.170000000000155, -1.1428250447219082 
2.180000000000176, -1.1371768101569122 
2.190000000000197, -1.1329885863049416 
2.2000000000002182, -1.130747448077985 
2.2100000000002393, -1.1300363796430528 
2.2200000000002604, -1.1299555175383627 
2.2300000000002815, -1.1297167431968211 
2.2400000000003026, -1.1287416002412232 
2.2500000000003237, -1.1264383687944888 
2.260000000000345, -1.1219954675038302 
2.270000000000366, -1.1144206742272296 
2.280000000000387, -1.102997417515843 
2.290000000000408, -1.087905072212058 
2.3000000000004293, -1.0702234462559446 
2.3100000000004504, -1.0511815751165112 
2.3200000000004715, -1.0315238167959864 
2.3300000000004926, -1.0114792623465825 
2.3400000000005137, -0.9910849985528903 
2.3500000000005348, -0.9705931597717875 
2.360000000000556, -0.9508476576238418 
2.370000000000577, -0.9334053239481133 
2.380000000000598, -0.9200211888529921 
2.390000000000619, -0.9115752548941292 
2.4000000000006403, -0.9074454917613805 
2.4100000000006614, -0.9060563807711685 
2.4200000000006825, -0.9058799526398973 
2.4300000000007036, -0.9059140212689151 
2.4400000000007247, -0.905595933890293 
2.450000000000746, -0.9045506491892825 
2.460000000000767, -0.9024138192173232 
2.470000000000788, -0.8988119347427176 
2.480000000000809, -0.8935320261663723 
2.49000000000083, -0.8867745504754557 
2.5000000000008513, -0.8791795887615109 
2.5100000000008724, -0.871496481583212 
2.5200000000008935, -0.8642304798710567 
2.5300000000009146, -0.8575643699904842 
2.5400000000009357, -0.8514757127610469 
2.550000000000957, -0.8458716299412721 
2.560000000000978, -0.8406719035464689 
2.570000000000999, -0.8358455407747284 
2.58000000000102, -0.8314209576217436 
2.5900000000010412, -0.8274835787340656 
2.6000000000010624, -0.8241611516310225 
2.6100000000010835, -0.8215863971962847 
2.6200000000011046, -0.8198354432345644 
2.6300000000011257, -0.8188698457368776 
2.6400000000011468, -0.8185256229008784 
2.650000000001168, -0.8185617862125909 
2.660000000001189, -0.8187330104772139 
2.67000000000121, -0.8188446470647772 
2.680000000001231, -0.8187804332668218 
2.6900000000012523, -0.8185135829127885 
2.7000000000012734, -0.8181015037123259 
2.7100000000012945, -0.8176534194367004 
2.7200000000013156, -0.8172765460613443 
2.7300000000013367, -0.8170275745745089 
2.740000000001358, -0.816890121971672 
2.750000000001379, -0.8167823920838982 
2.7600000000014, -0.8165933768381878 
2.770000000001421, -0.8162362709766084 
2.780000000001442, -0.815693451544953 
2.7900000000014633, -0.815034822828979 
2.8000000000014844, -0.8144139414350061 
2.8100000000015055, -0.8140491443836906 
2.8200000000015266, -0.8141830555697581 
2.8300000000015477, -0.8150179907024848 
2.840000000001569, -0.8166539660677294 
2.85000000000159, -0.8190707257348709 
2.860000000001611, -0.8221647091913198 
2.870000000001632, -0.8258095735418369 
2.8800000000016532, -0.8299038816540412 
2.8900000000016743, -0.8343954010437662 
2.9000000000016954, -0.8392901863890115 
2.9100000000017165, -0.8446515764991753 
2.9200000000017377, -0.8505810598613024 
2.9300000000017588, -0.8571622340837107 
2.94000000000178, -0.8643483887157446 
2.950000000001801, -0.8718114217261169 
2.960000000001822, -0.8788810130893026 
2.970000000001843, -0.8847653438670602 
2.9800000000018643, -0.8889721622289514 
2.9900000000018854, -0.891507930299934 
3.0000000000019065, -0.8926996548440884 
3.0100000000019276, -0.8929353013665311 
3.0200000000019487, -0.8925691039995846 
3.03000000000197, -0.8920149552261238 
3.040000000001991, -0.8919854169956022 
3.050000000002012, -0.8937767696462597 
3.060000000002033, -0.8992752193692322 
3.070000000002054, -0.9102353561182157 
3.0800000000020753, -0.9270742877029997 
3.0900000000020964, -0.9484453699154468 
3.1000000000021175, -0.9721882869415112 
3.1100000000021386, -0.996563342868637 
3.1200000000021597, -1.020702333717135 
3.130000000002181, -1.0443457508264546 
3.140000000002202, -1.0673255469936662 
3.150000000002223, -1.089053129290821 
3.160000000002244, -1.108266248541722 
3.1700000000022652, -1.1234578430117907 
3.1800000000022863, -1.1338900021469045 
3.1900000000023074, -1.1400819817184498 
3.2000000000023285, -1.143237354875911 
3.2100000000023496, -1.1444826155326855 
3.2200000000023707, -1.144603219021072 
3.230000000002392, -1.1441845172927547 
3.240000000002413, -1.1439001069067396 
3.250000000002434, -1.1446761489333142 
3.260000000002455, -1.147348447965668 
3.2700000000024763, -1.1519491545500269 
3.2800000000024974, -1.1576327688434318 
3.2900000000025185, -1.1634252939447847 
3.3000000000025396, -1.1687765520416147 
3.3100000000025607, -1.1735371093923457 
3.3200000000025818, -1.1777401325391337 
3.330000000002603, -1.1814609344289901 
3.340000000002624, -1.1847655076162882 
3.350000000002645, -1.1876844749821542 
3.360000000002666, -1.190187633379852 
3.3700000000026873, -1.1921799887234426 
3.3800000000027084, -1.1935450175115876 
3.3900000000027295, -1.1942195093100196 
3.4000000000027506, -1.1942450694814932 
3.4100000000027717, -1.1937700708801438 
3.420000000002793, -1.1930254200660904 
3.430000000002814, -1.192275778041493 
3.440000000002835, -1.1917203860750911 
3.450000000002856, -1.1914054982084001 
3.460000000002877, -1.1912696392213677 
3.4700000000028983, -1.1912765182625182 
3.4800000000029194, -1.1914551407669651 
3.4900000000029405, -1.1918008476135715 
3.5000000000029616, -1.1921834552549668 
3.5100000000029827, -1.1923811617000597 
3.520000000003004, -1.192177821740253 
3.530000000003025, -1.1914283071895884 
3.540000000003046, -1.1900849074496276 
3.550000000003067, -1.1881938385187545 
3.5600000000030882, -1.1858521041075103 
3.5700000000031094, -1.1831437887454292 
3.5800000000031305, -1.1801006558446745 
3.5900000000031516, -1.1767051886868503 
3.6000000000031727, -1.1729159329066998 
3.6100000000031938, -1.1686880167014737 
3.620000000003215, -1.1639925201818273 
3.630000000003236, -1.1588851528492967 
3.640000000003257, -1.1536625344213944 
3.650000000003278, -1.148985783750264 
3.6600000000032993, -1.145652605376795 
3.6700000000033204, -1.1439799297147868 
3.6800000000033415, -1.1435076135571254 
3.6900000000033626, -1.1434252455150342 
3.7000000000033837, -1.1430406371248596 
3.710000000003405, -1.1418050095287038 
3.720000000003426, -1.1391065330133392 
3.730000000003447, -1.1341351739973502 
3.740000000003468, -1.126033177844487 
3.750000000003489, -1.114390282526821 
3.7600000000035103, -1.0996521401837915 
3.7700000000035314, -1.0828465691617812 
3.7800000000035525, -1.0648886707969845 
3.7900000000035736, -1.0462112773206584 
3.8000000000035947, -1.0268752948941517 
3.810000000003616, -1.0069083953668077 
3.820000000003637, -0.986722499016363 
3.830000000003658, -0.9674941266757917 
3.840000000003679, -0.9511392989000731 
3.8500000000037002, -0.9394477882095587 
3.8600000000037213, -0.9328385721993735 
3.8700000000037424, -0.9301173709249705 
3.8800000000037635, -0.9294908833885026 
3.8900000000037847, -0.9295512775398251 
3.9000000000038058, -0.9294845265271172 
3.910000000003827, -0.92882439726104 
3.920000000003848, -0.927178452506108 
3.930000000003869, -0.9240880839756127 
3.94000000000389, -0.9190904844494343 
3.9500000000039113, -0.9120110983800291 
3.9600000000039324, -0.9032671191016446 
3.9700000000039535, -0.8937562644421654 
3.9800000000039746, -0.8843531013532214 
3.9900000000039957, -0.8755494477229375 
4.000000000004016, -0.8674681536521346 
4.010000000003993, -0.8600413072578144 
4.02000000000397, -0.8531596035757332 
4.030000000003946, -0.8467532041560053 
4.040000000003923, -0.8408270410701331 
4.0500000000039, -0.8354719882197543 
4.0600000000038765, -0.8308536927751561 
4.070000000003853, -0.8271649529879708 
4.08000000000383, -0.8245379115392077 
4.090000000003807, -0.8229545186176932 
4.100000000003783, -0.8222213499673467 
4.11000000000376, -0.8220325258049508 
4.120000000003737, -0.8220694306174889 
4.130000000003713, -0.8220717602678758 
4.14000000000369, -0.8218650746647883 
4.150000000003667, -0.8213696154016107 
4.1600000000036434, -0.8206054358806787 
4.17000000000362, -0.8196783064030282 
4.180000000003597, -0.8187304656839501 
4.1900000000035735, -0.8178763717914472 
4.20000000000355, -0.8171607097108909 
4.210000000003527, -0.8165529044577988 
4.220000000003504, -0.8159714430979434 
4.23000000000348, -0.8153277942757514 
4.240000000003457, -0.8145739365285184 
4.250000000003434, -0.8137333464720603 
4.26000000000341, -0.8129068114038199 
4.270000000003387, -0.8122566004503176 
4.280000000003364, -0.8119712705844868 
4.2900000000033405, -0.8122147731213396 
4.300000000003317, -0.8130790709601046 
4.310000000003294, -0.8145677580725152 
4.320000000003271, -0.8166181544813618 
4.330000000003247, -0.8191409454632324 
4.340000000003224, -0.8220526174866445 
4.350000000003201, -0.8252941206550883 
4.360000000003177, -0.8288427710805293 
4.370000000003154, -0.8327212430167741 
4.380000000003131, -0.8369967064370135 
4.390000000003107, -0.8417565374319386 
4.400000000003084, -0.8470464558716119 
4.410000000003061, -0.8527661567026087 
4.4200000000030375, -0.8585633178336319 
4.430000000003014, -0.8638518952597615 
4.440000000002991, -0.868053043651712 
4.450000000002968, -0.8708910851822047 
4.460000000002944, -0.8724510937638993 
4.470000000002921, -0.8730093138683216 
4.480000000002898, -0.8728774112299836 
4.490000000002874, -0.8723944024583818 
4.500000000002851, -0.8720650198166711 
4.510000000002828, -0.8727875921798939 
4.520000000002804, -0.8759956630423915 
4.530000000002781, -0.8833686822711158 
4.540000000002758, -0.8959757766221668 
4.5500000000027345, -0.9135050109411941 
4.560000000002711, -0.9344667147186808 
4.570000000002688, -0.9571664701185284 
4.580000000002665, -0.9804619059215973 
4.590000000002641, -1.003867406681946 
4.600000000002618, -1.0272299450725826 
4.610000000002595, -1.0502445136859326 
4.620000000002571, -1.0719823430396087 
4.630000000002548, -1.090805040608555 
4.640000000002525, -1.1051255967558555 
4.6500000000025015, -1.1145158726482083 
4.660000000002478, -1.1198392836907287 
4.670000000002455, -1.122407445417981 
4.6800000000024315, -1.1232899349587429 
4.690000000002408, -1.1231983943654194 
4.700000000002385, -1.1227071117611287 
4.710000000002362, -1.1225713176262748 
4.720000000002338, -1.1238553693982436 
4.730000000002315, -1.1274512639296779 
4.740000000002292, -1.1332638346177857 
4.750000000002268, -1.140239923728742 
4.760000000002245, -1.147266767201121 
4.770000000002222, -1.1537482918455446 
4.7800000000021985, -1.159541467806596 
4.790000000002175, -1.164705957293425 
4.800000000002152, -1.1693435768984446 
4.810000000002129, -1.1735294152410471 
4.820000000002105, -1.1772733019791228 
4.830000000002082, -1.1804958377878436 
4.840000000002059, -1.1830480429744723 
4.850000000002035, -1.184791996902083 
4.860000000002012, -1.1856935852844752 
4.870000000001989, -1.1858537757801688 
4.880000000001965, -1.1854809041376 
4.890000000001942, -1.1848585710844637 
4.900000000001919, -1.1843017239645761 
4.9100000000018955, -1.184046774689012 
4.920000000001872, -1.1841379163013868 
4.930000000001849, -1.1844660332316952 
