t, s[1].omega / s[0].omega 
0, -1.239997405657855 
0.009999999999999995, -1.2395738148695776 
0.019999999999999934, -1.2388094425698832 
0.029999999999999874, -1.2376725974995515 
0.04000000000000012, -1.2361493577981042 
0.050000000000000405, -1.2342676611219865 
0.06000000000000069, -1.2320866267243917 
0.07000000000000098, -1.2296582446170672 
0.08000000000000126, -1.2270270667968255 
0.09000000000000155, -1.2243320886475397 
0.10000000000000184, -1.2219248630977266 
0.11000000000000212, -1.2202578344065347 
0.12000000000000241, -1.2194954063989294 
0.130000000000002, -1.2193082327980136 
0.1400000000000009, -1.2191231794597504 
0.1499999999999998, -1.2183961976107431 
0.1599999999999987, -1.2166076947720281 
0.1699999999999976, -1.2131551816074158 
0.1799999999999965, -1.2073903925277616 
0.1899999999999954, -1.1988860527728227 
0.1999999999999943, -1.1877059892651711 
0.2099999999999932, -1.174306589642049 
0.2199999999999921, -1.1591255521050858 
0.229999999999991, -1.1422824990877927 
0.2399999999999899, -1.123588935409059 
0.2499999999999888, -1.1028324689094224 
0.2599999999999877, -1.0803618564709188 
0.2699999999999866, -1.0579018361111943 
0.2799999999999855, -1.038750863437977 
0.2899999999999844, -1.0260125739655863 
0.2999999999999833, -1.0200064762985979 
0.3099999999999822, -1.0183825050160487 
0.3199999999999811, -1.0185066718448952 
0.32999999999998, -1.0187980698842272 
0.3399999999999789, -1.0185150112355896 
0.3499999999999778, -1.0171606998787 
0.35999999999997667, -1.0140292214039914 
0.36999999999997557, -1.0079051901276475 
0.37999999999997447, -0.9970688482163339 
0.38999999999997337, -0.9800946533664 
0.39999999999997227, -0.957367096421222 
0.40999999999997117, -0.9314899962718268 
0.41999999999997006, -0.9055335456836637 
0.42999999999996896, -0.8813297425423594 
0.43999999999996786, -0.8593980297556849 
0.44999999999996676, -0.8396358605344799 
0.45999999999996566, -0.8218641515155406 
0.46999999999996456, -0.8060794111106929 
0.47999999999996346, -0.7925030495546183 
0.48999999999996235, -0.781480330211177 
0.49999999999996125, -0.7732673832154949 
0.5099999999999602, -0.7678127678761273 
0.519999999999959, -0.7646867313171246 
0.529999999999958, -0.7632143621373708 
0.5399999999999568, -0.7626994502468579 
0.5499999999999557, -0.7625817409937187 
0.5599999999999546, -0.7624742508731603 
0.5699999999999535, -0.7621298925485049 
0.5799999999999524, -0.7614064074936379 
0.5899999999999513, -0.7602640791862478 
0.5999999999999502, -0.7587801926094261 
0.6099999999999491, -0.7571307715467249 
0.619999999999948, -0.7555182689936295 
0.6299999999999469, -0.7540896936181121 
0.6399999999999458, -0.7528980489054456 
0.6499999999999447, -0.7519107110169173 
0.6599999999999436, -0.7510427077155588 
0.6699999999999425, -0.750200866710822 
0.6799999999999414, -0.7493280714603843 
0.6899999999999403, -0.7484330857793628 
0.6999999999999392, -0.7475985191654736 
0.7099999999999381, -0.7469703164500812 
0.719999999999937, -0.746732228747741 
0.7299999999999359, -0.7470664119336787 
0.7399999999999348, -0.7481094028219515 
0.7499999999999337, -0.7499233962738155 
0.7599999999999326, -0.752498149835259 
0.7699999999999315, -0.7557796195837391 
0.7799999999999304, -0.7597078566943103 
0.7899999999999293, -0.764250067054349 
0.7999999999999282, -0.7694252261464174 
0.8099999999999271, -0.7753205753289303 
0.819999999999926, -0.7820946795181255 
0.8299999999999249, -0.7899492948419382 
0.8399999999999238, -0.7990336888767675 
0.8499999999999227, -0.8092379439922628 
0.8599999999999216, -0.8199212910562824 
0.8699999999999205, -0.8298755963594309 
0.8799999999999194, -0.8378588163059717 
0.8899999999999183, -0.8433189647740866 
0.8999999999999172, -0.8465015584585611 
0.9099999999999161, -0.847991914782219 
0.919999999999915, -0.8483183374503369 
0.9299999999999139, -0.8478535037923894 
0.9399999999999128, -0.8469373348045552 
0.9499999999999117, -0.8462077838898013 
0.9599999999999106, -0.8472697785614043 
0.9699999999999095, -0.8537305119396119 
0.9799999999999084, -0.8717746754000638 
0.9899999999999073, -0.9080051821924344 
0.9999999999999062, -0.9636175618356433 
1.0099999999999052, -1.0309130220673435 
1.019999999999904, -1.0986982308546218 
1.029999999999903, -1.1597682909298306 
1.039999999999902, -1.2118792107836511 
1.0499999999999008, -1.2548410619800925 
1.0599999999998997, -1.2884533888601006 
1.0699999999998986, -1.3124806646736435 
1.0799999999998975, -1.3276986370211779 
1.0899999999998964, -1.3361734292388374 
1.0999999999998953, -1.3403083721352025 
1.1099999999998942, -1.3419424331993657 
1.119999999999893, -1.3422114457970713 
1.129999999999892, -1.3418624408949178 
1.1399999999998909, -1.3416040751998373 
1.1499999999998898, -1.3421210521506677 
1.1599999999998887, -1.343625357849683 
1.1699999999998876, -1.3456765913351807 
1.1799999999998865, -1.3477111470043959 
1.1899999999998854, -1.3494725059727104 
1.1999999999998843, -1.3509297443292965 
1.2099999999998832, -1.352056568752153 
1.219999999999882, -1.3527664725678437 
1.229999999999881, -1.3529707480067013 
1.2399999999998799, -1.3526289353945962 
1.2499999999998788, -1.351749917619745 
1.2599999999998777, -1.3503604366626223 
1.2699999999998766, -1.348468249467537 
1.2799999999998755, -1.3460444170938446 
1.2899999999998744, -1.3430277038113632 
1.2999999999998733, -1.33932807476539 
1.3099999999998722, -1.334813370814913 
1.319999999999871, -1.329340294741645 
1.32999999999987, -1.32299066132099 
1.3399999999998689, -1.3165498112490708 
1.3499999999998678, -1.3115856372164791 
1.3599999999998666, -1.3091853129809397 
1.3699999999998655, -1.3087410426375423 
1.3799999999998644, -1.3088329992379504 
1.3899999999998633, -1.3083930928032754 
1.3999999999998622, -1.306582614824298 
1.4099999999998611, -1.3019870596684149 
1.41999999999986, -1.2913420810853284 
1.429999999999859, -1.2675032114268805 
1.4399999999998578, -1.218175776055817 
1.4499999999998567, -1.1320373242462098 
1.4599999999998556, -1.014332155932564 
1.4699999999998545, -0.888965148375425 
1.4799999999998534, -0.7782786712778045 
1.4899999999998523, -0.6912476169530557 
1.4999999999998512, -0.6273232347970523 
1.5099999999998501, -0.5823794405055128 
1.519999999999849, -0.5518072263416023 
1.529999999999848, -0.5316209038635081 
1.5399999999998468, -0.518700745753147 
1.5499999999998457, -0.5107267309363626 
1.5599999999998446, -0.5060295521468826 
1.5699999999998435, -0.5034401319441673 
1.5799999999998424, -0.5021608772456811 
1.5899999999998413, -0.5016622983682639 
1.5999999999998402, -0.5016040565977977 
1.6099999999998391, -0.5017792671786856 
1.619999999999838, -0.5020805259832534 
1.629999999999837, -0.5024835667556273 
1.6399999999998358, -0.5030396384378765 
1.6499999999998347, -0.5038652370620863 
1.6599999999998336, -0.5051238463874228 
1.6699999999998325, -0.5070030278356686 
1.6799999999998314, -0.5096840475326376 
1.6899999999998303, -0.5132791558369724 
1.6999999999998292, -0.5177103550762505 
1.709999999999828, -0.5225819430400229 
1.719999999999827, -0.5272236551725734 
1.729999999999826, -0.5309931200844855 
1.7399999999998248, -0.5335779035396329 
1.7499999999998237, -0.5350052922001228 
1.7599999999998226, -0.5354444583147683 
1.7699999999998215, -0.5350261179961796 
1.7799999999998204, -0.5337465556490685 
1.7899999999998193, -0.5314036425399532 
1.7999999999998182, -0.5274869486439708 
1.809999999999817, -0.5208872948560138 
1.819999999999816, -0.5088572916158406 
1.8299999999998149, -0.48093145786203273 
1.8399999999998138, -0.3577365708054468 
1.8499999999998127, 0.6300700058365638 
1.8599999999998116, 1.4659311723500301 
1.8699999999998105, 1.529340287521943 
1.8799999999998094, 1.5381984333235192 
1.8899999999998083, 1.5396089592891082 
1.8999999999998072, 1.537946039403071 
1.909999999999806, 1.5302842512898074 
1.919999999999805, 1.491900907864606 
1.9299999999998039, 1.273412304306253 
1.9399999999998028, 1.1341396879613332 
1.9499999999998017, 1.1868997665560719 
1.9599999999998006, 1.2052844129007716 
1.9699999999997995, 1.2105434912766087 
1.9799999999997984, 1.211720232851968 
1.9899999999997973, 1.210914532098482 
1.9999999999997962, 1.208372484174308 
2.0099999999998173, 1.204592254778105 
2.0199999999998384, 1.2063884643608436 
2.0299999999998595, 1.2285762427613443 
2.0399999999998806, 1.2568909296278257 
2.0499999999999017, 1.271756582860001 
2.059999999999923, 1.277367484635664 
2.069999999999944, 1.2789599265509408 
2.079999999999965, 1.2782393421639355 
2.089999999999986, 1.274064640583061 
2.100000000000007, 1.256084016622513 
2.1100000000000283, 1.1016972858251644 
2.1200000000000494, -1.2664061421241013 
2.1300000000000705, -2.4162140066528326 
2.1400000000000916, -2.4916139821206094 
2.1500000000001127, -2.502195487770827 
2.160000000000134, -2.503949055874128 
2.170000000000155, -2.503656119624774 
2.180000000000176, -2.5030932545510884 
2.190000000000197, -2.5023341496582825 
2.2000000000002182, -2.5008193603181486 
2.2100000000002393, -2.49964660056618 
2.2200000000002604, -2.4994446348101627 
2.2300000000002815, -2.498219590655204 
2.2400000000003026, -2.491662073101656 
2.2500000000003237, -2.452850155518946 
2.260000000000345, -2.2396125529516686 
2.270000000000366, -3.02217609422941 
2.280000000000387, -3.261096374947492 
2.290000000000408, -3.282923496956181 
2.3000000000004293, -3.2871068806550356 
2.3100000000004504, -3.287207895421743 
2.3200000000004715, -3.2843388044543276 
2.3300000000004926, -3.2735189301216954 
2.3400000000005137, -3.20335908262059 
2.3500000000005348, -2.814502206280671 
2.360000000000556, -2.9195685686526054 
2.370000000000577, -2.94564934630575 
2.380000000000598, -2.94864427156736 
2.390000000000619, -2.9482985434509774 
2.4000000000006403, -2.948088182658864 
2.4100000000006614, -2.948077622605179 
2.4200000000006825, -2.9472343775965624 
2.4300000000007036, -2.9467335490151747 
2.4400000000007247, -2.9459019144768335 
2.450000000000746, -2.940394006897244 
2.460000000000767, -2.8983789678560337 
2.470000000000788, -2.8188508614990986 
2.480000000000809, -3.287648236146075 
2.49000000000083, -3.3406974979502047 
2.5000000000008513, -3.3484449261816045 
2.5100000000008724, -3.349669446697495 
2.5200000000008935, -3.3479561373400535 
2.5300000000009146, -3.3408968880052994 
2.5400000000009357, -3.3027987035150916 
2.550000000000957, -2.7885557188384973 
2.560000000000978, -2.4392917348815666 
2.570000000000999, -2.581436441067221 
2.58000000000102, -2.599274090081887 
2.5900000000010412, -2.601835606960231 
2.6000000000010624, -2.601540013828378 
2.6100000000010835, -2.6013019650794607 
2.6200000000011046, -2.6018258684310163 
2.6300000000011257, -2.6017846485799305 
2.6400000000011468, -2.601358694725005 
2.650000000001168, -2.6010587912219516 
2.660000000001189, -2.599470688153613 
2.67000000000121, -2.5916610936350963 
2.680000000001231, -2.5383744170426294 
2.6900000000012523, -1.6658293825648645 
2.7000000000012734, 1.8286987183472292 
2.7100000000012945, 1.996486972895519 
2.7200000000013156, 2.0070964030183047 
2.7300000000013367, 2.008088613373866 
2.740000000001358, 2.005120866565519 
2.750000000001379, 1.9868267013439176 
2.7600000000014, 1.7572511917585842 
2.770000000001421, 1.3600495556952075 
2.780000000001442, 1.5008480075716428 
2.7900000000014633, 1.5242258517733818 
2.8000000000014844, 1.5288265051587866 
2.8100000000015055, 1.5294666227435738 
2.8200000000015266, 1.528847057028868 
2.8300000000015477, 1.5284609182579394 
2.840000000001569, 1.5304261256177225 
2.85000000000159, 1.5351724543457808 
2.860000000001611, 1.5398275998073427 
2.870000000001632, 1.5425360553811438 
2.8800000000016532, 1.5435078678220397 
2.8900000000016743, 1.5431198118805731 
2.9000000000016954, 1.5405985106930289 
2.9100000000017165, 1.5295299937419267 
2.9200000000017377, 1.4255447201183964 
2.9300000000017588, -2.350854945800738 
2.94000000000178, -3.493585671295699 
2.950000000001801, -3.529219822501362 
2.960000000001822, -3.5335669665645746 
2.970000000001843, -3.533139634623558 
2.9800000000018643, -3.5296738753360586 
2.9900000000018854, -3.51506318470184 
3.0000000000019065, -3.4825599729196512 
3.0100000000019276, -3.4936691561273747 
3.0200000000019487, -3.497014410198978 
3.03000000000197, -3.4961897756609384 
3.040000000001991, -3.4964751870666126 
3.050000000002012, -3.4973027758246276 
3.060000000002033, -3.496929231136183 
3.070000000002054, -3.4963443194813175 
3.0800000000020753, -3.4922351715850732 
3.0900000000020964, -3.449126320980098 
3.1000000000021175, -3.4838600698681064 
3.1100000000021386, -3.7495744852102133 
3.1200000000021597, -3.7676632473982123 
3.130000000002181, -3.7699700250093082 
3.140000000002202, -3.7685026070417984 
3.150000000002223, -3.760171684714328 
3.160000000002244, -3.6826100361178598 
3.1700000000022652, -0.4133175269439702 
3.1800000000022863, 1.312198282553685 
3.1900000000023074, 1.3836145871391303 
3.2000000000023285, 1.3935623779749262 
3.2100000000023496, 1.3957037234707999 
3.2200000000023707, 1.3959865101345705 
3.230000000002392, 1.3958961845441116 
3.240000000002413, 1.3962102051070342 
3.250000000002434, 1.39726525402082 
3.260000000002455, 1.398722320252687 
3.2700000000024763, 1.399953675292843 
3.2800000000024974, 1.4006364146575956 
3.2900000000025185, 1.4007241109994097 
3.3000000000025396, 1.4000398331998338 
3.3100000000025607, 1.3975793068216527 
3.3200000000025818, 1.3881236364381864 
3.330000000002603, 1.3219009763900147 
3.340000000002624, -0.765358427796934 
3.350000000002645, -3.311121927763531 
3.360000000002666, -3.388189233162111 
3.3700000000026873, -3.397384067108882 
3.3800000000027084, -3.3984690848712615 
3.3900000000027295, -3.3966963328583106 
3.4000000000027506, -3.390071431960584 
3.4100000000027717, -3.3610841759836148 
3.420000000002793, -3.3368445833997997 
3.430000000002814, -3.35024430434299 
3.440000000002835, -3.352196275160078 
3.450000000002856, -3.3512805409802873 
3.460000000002877, -3.3518923617369025 
3.4700000000028983, -3.352632139100404 
3.4800000000029194, -3.3522921754501356 
3.4900000000029405, -3.351720792771597 
3.5000000000029616, -3.3478186571124042 
3.5100000000029827, -3.31061606234668 
3.520000000003004, -3.169250927032512 
3.530000000003025, -3.739561075148303 
3.540000000003046, -3.7739896481697577 
3.550000000003067, -3.778031823653669 
3.5600000000030882, -3.7774278134027326 
3.5700000000031094, -3.77194751799125 
3.5800000000031305, -3.7339524858058324 
3.5900000000031516, -2.336488856780572 
3.6000000000031727, 0.4843765135159546 
3.6100000000031938, 0.8269500560154164 
3.620000000003215, 0.8756238586776763 
3.630000000003236, 0.8872810141995175 
3.640000000003257, 0.8908168702884698 
3.650000000003278, 0.891608602103369 
3.6600000000032993, 0.8909870542748803 
3.6700000000033204, 0.8892716462864657 
3.6800000000033415, 0.8868340652175138 
3.6900000000033626, 0.8863717488398268 
3.7000000000033837, 0.897744273737287 
3.710000000003405, 0.9285265874506683 
3.720000000003426, 0.9591924149517104 
3.730000000003447, 0.9756099787898709 
3.740000000003468, 0.9824384047563257 
3.750000000003489, 0.9848324775978543 
3.7600000000035103, 0.9848691457094834 
3.7700000000035314, 0.9825554507901788 
3.7800000000035525, 0.9749026084874869 
3.7900000000035736, 0.9458318366699568 
3.8000000000035947, 0.7830506934629843 
3.810000000003616, 0.10932469246312848 
3.820000000003637, -0.3134724076675105 
3.830000000003658, -0.4031027670898659 
3.840000000003679, -0.42763857884588113 
3.8500000000037002, -0.4373356340345551 
3.8600000000037213, -0.4420789999192051 
3.8700000000037424, -0.4445927992363754 
3.8800000000037635, -0.4458535088708489 
3.8900000000037847, -0.44625081710699027 
3.9000000000038058, -0.44591430133744636 
3.910000000003827, -0.4448382629364329 
3.920000000003848, -0.4429708401451233 
3.930000000003869, -0.44032700266516345 
3.94000000000389, -0.4371055317605796 
3.9500000000039113, -0.4337043550243558 
3.9600000000039324, -0.43057236646723335 
3.9700000000039535, -0.4280226546213079 
3.9800000000039746, -0.426169846317741 
3.9900000000039957, -0.42498368497568906 
4.000000000004016, -0.424357250461355 
4.010000000003993, -0.42414062411101117 
4.02000000000397, -0.42415617641654524 
4.030000000003946, -0.4242251477371076 
4.040000000003923, -0.42420766273063854 
4.0500000000039, -0.42403239758602657 
4.0600000000038765, -0.4237031988542048 
4.070000000003853, -0.4233005056268423 
4.08000000000383, -0.4230132138956682 
4.090000000003807, -0.423252136937322 
4.100000000003783, -0.4249563327726949 
4.11000000000376, -0.43040684548647673 
4.120000000003737, -0.4455248693568249 
4.130000000003713, -0.4868698979706478 
4.14000000000369, -0.602966541553894 
4.150000000003667, -0.9084569068671382 
4.1600000000036434, -1.3981443997105467 
4.17000000000362, -1.7189307814223564 
4.180000000003597, -1.847251893982626 
4.1900000000035735, -1.8994681902327877 
4.20000000000355, -1.922975722311784 
4.210000000003527, -1.9339603351903214 
4.220000000003504, -1.9388582422685654 
4.23000000000348, -1.9406267863920603 
4.240000000003457, -1.9407147167183343 
4.250000000003434, -1.9398837422676416 
4.26000000000341, -1.9385098528803095 
4.270000000003387, -1.9364931581495828 
4.280000000003364, -1.9336077419883548 
4.2900000000033405, -1.9307124573321157 
4.300000000003317, -1.9294780983475424 
4.310000000003294, -1.929487867126139 
4.320000000003271, -1.9288988026977587 
4.330000000003247, -1.925745779236772 
4.340000000003224, -1.9139358230963102 
4.350000000003201, -1.8585933863544994 
4.360000000003177, -1.4665213036736326 
4.370000000003154, 0.7051767975643913 
4.380000000003131, 1.404370908115356 
4.390000000003107, 1.4483082177837798 
4.400000000003084, 1.45522787635996 
4.410000000003061, 1.456235400520067 
4.4200000000030375, 1.4544096713313248 
4.430000000003014, 1.4471547052577134 
4.440000000002991, 1.418643257561039 
4.450000000002968, 1.318358000573169 
4.460000000002944, 1.248799130971448 
4.470000000002921, 1.2679819887378545 
4.480000000002898, 1.279536279618969 
4.490000000002874, 1.283336253451144 
4.500000000002851, 1.2839462681192124 
4.510000000002828, 1.282507175814013 
4.520000000002804, 1.2785620116067875 
4.530000000002781, 1.2723251177334325 
4.540000000002758, 1.2783645560604449 
4.5500000000027345, 1.317507854537653 
4.560000000002711, 1.3492775961067938 
4.570000000002688, 1.361307743512192 
4.580000000002665, 1.3650628936307059 
4.590000000002641, 1.3655486771679552 
4.600000000002618, 1.363419974944605 
4.610000000002595, 1.3543385830486196 
4.620000000002571, 1.2970010695602898 
4.630000000002548, 0.15553056351714561 
4.640000000002525, -2.365740145616835 
4.6500000000025015, -2.5406919820919978 
4.660000000002478, -2.559174083518743 
4.670000000002455, -2.5622627524382073 
4.6800000000024315, -2.562266943484256 
4.690000000002408, -2.561662840431871 
4.700000000002385, -2.5609128789534 
4.710000000002362, -2.5593549076930993 
4.720000000002338, -2.557849660809688 
4.730000000002315, -2.557593047756961 
4.740000000002292, -2.556733976398089 
4.750000000002268, -2.5514829060173745 
4.760000000002245, -2.521678601650624 
4.770000000002222, -2.399597871512793 
4.7800000000021985, -2.8563555105478358 
4.790000000002175, -3.016424280585742 
4.800000000002152, -3.03792733364222 
4.810000000002129, -3.04288327050452 
4.820000000002105, -3.043660138108573 
4.830000000002082, -3.04195791059276 
4.840000000002059, -3.036154784049195 
4.850000000002035, -3.0139207063969016 
4.860000000002012, -2.8725712986424687 
4.870000000001989, -2.6894914119971167 
4.880000000001965, -2.758079411536003 
4.890000000001942, -2.7701268060582533 
4.900000000001919, -2.771502000803719 
4.9100000000018955, -2.770892560550514 
4.920000000001872, -2.771120758972006 
4.930000000001849, -2.771806448190872 
4.940000000001826, -2.7716179546285535 
4.950000000001802, -2.771318643825078 
4.960000000001779, -2.770535042536374 
4.970000000001756, -2.766138097783456 
