t, s[1].omega / s[0].omega 
0, -0.3398090247296783 
0.009999999999999995, -0.3246538818974445 
0.019999999999999934, -0.315066542767112 
0.029999999999999874, -0.3087812729087226 
0.04000000000000012, -0.3045115554332702 
0.050000000000000405, -0.3015248970124351 
0.06000000000000069, -0.2994025599430473 
0.07000000000000098, -0.29791718819598817 
0.08000000000000126, -0.29697312795649766 
0.09000000000000155, -0.29658214502050967 
0.10000000000000184, -0.2968662953206235 
0.11000000000000212, -0.2980919636430597 
0.12000000000000241, -0.3007517882554244 
0.130000000000002, -0.3057338389704335 
0.1400000000000009, -0.314665884628798 
0.1499999999999998, -0.33062925820281486 
0.1599999999999987, -0.3596565955454351 
0.1699999999999976, -0.41373151262403357 
0.1799999999999965, -0.5153587264058842 
0.1899999999999954, -0.6963024473844386 
0.1999999999999943, -0.963179923791369 
0.2099999999999932, -1.2431802790048254 
0.2199999999999921, -1.443877406384773 
0.229999999999991, -1.5512619135151815 
0.2399999999999899, -1.5994179352084537 
0.2499999999999888, -1.6191418036456535 
0.2599999999999877, -1.6268263504957043 
0.2699999999999866, -1.6295321390954278 
0.2799999999999855, -1.6300843531345337 
0.2899999999999844, -1.6297600220608235 
0.2999999999999833, -1.6294646206271062 
0.3099999999999822, -1.6297951843911573 
0.3199999999999811, -1.6305778378137217 
0.32999999999998, -1.63127569163854 
0.3399999999999789, -1.6317322950368944 
0.3499999999999778, -1.6320788253188414 
0.35999999999997667, -1.632250199894725 
0.36999999999997557, -1.6318784765068493 
0.37999999999997447, -1.6304419209877092 
0.38999999999997337, -1.6272500077920065 
0.39999999999997227, -1.6213398952905635 
0.40999999999997117, -1.6114254446230412 
0.41999999999997006, -1.5957298834694567 
0.42999999999996896, -1.5712773154156083 
0.43999999999996786, -1.532208399697788 
0.44999999999996676, -1.4674584224552158 
0.45999999999996566, -1.364641885391464 
0.46999999999996456, -1.240889070271046 
0.47999999999996346, -1.1570525171982216 
0.48999999999996235, -1.1308712079286132 
0.49999999999996125, -1.130401935500573 
0.5099999999999602, -1.1342641577423138 
0.519999999999959, -1.1369198569943566 
0.529999999999958, -1.1378825550756848 
0.5399999999999568, -1.137210687440359 
0.5499999999999557, -1.134273213318014 
0.5599999999999546, -1.1265957090058936 
0.5699999999999535, -1.106164124457489 
0.5799999999999524, -1.0457188840005067 
0.5899999999999513, -0.8564970787345375 
0.5999999999999502, -0.4234043964830413 
0.6099999999999491, -0.04033476035920361 
0.619999999999948, 0.10541871199160588 
0.6299999999999469, 0.15355964959209042 
0.6399999999999458, 0.17187051031126194 
0.6499999999999447, 0.17985469733087 
0.6599999999999436, 0.18361891471810698 
0.6699999999999425, 0.18539948841266557 
0.6799999999999414, 0.18615300381299713 
0.6899999999999403, 0.1863613357376898 
0.6999999999999392, 0.18631417687497964 
0.7099999999999381, 0.18622184193216557 
0.719999999999937, 0.1862813724813658 
0.7299999999999359, 0.18675898648719821 
0.7399999999999348, 0.188153217488855 
0.7499999999999337, 0.19154648440999156 
0.7599999999999326, 0.19924420429266726 
0.7699999999999315, 0.21512917760141267 
0.7799999999999304, 0.24181957493944833 
0.7899999999999293, 0.27374159796661696 
0.7999999999999282, 0.2997982453699641 
0.8099999999999271, 0.31575364996067584 
0.819999999999926, 0.3241465505503003 
0.8299999999999249, 0.32819362787200024 
0.8399999999999238, 0.32980687220524973 
0.8499999999999227, 0.3298425753341323 
0.8599999999999216, 0.32852543392208877 
0.8699999999999205, 0.32569984545057873 
0.8799999999999194, 0.32105225968188594 
0.8899999999999183, 0.3145060952720041 
0.8999999999999172, 0.30672916698866476 
0.9099999999999161, 0.29913051019329057 
0.919999999999915, 0.2930046662611315 
0.9299999999999139, 0.28879606540036606 
0.9399999999999128, 0.2862468838615397 
0.9499999999999117, 0.28488848980084847 
0.9599999999999106, 0.2843127784064202 
0.9699999999999095, 0.2842128074865044 
0.9799999999999084, 0.284340346238203 
0.9899999999999073, 0.2844634054123304 
0.9999999999999062, 0.2843408116038025 
1.0099999999999052, 0.28369006031282595 
1.019999999999904, 0.2820942218383089 
1.029999999999903, 0.2787395021038342 
1.039999999999902, 0.271664866904539 
1.0499999999999008, 0.25532144170963267 
1.0599999999998997, 0.2113966807212194 
1.0699999999998986, 0.07525529320644654 
1.0799999999998975, -0.27602776434697024 
1.0899999999998964, -0.6523660983947326 
1.0999999999998953, -0.8166084551113391 
1.1099999999998942, -0.8721059821716113 
1.119999999999893, -0.8920931582033012 
1.129999999999892, -0.8999491964274764 
1.1399999999998909, -0.9030005180260087 
1.1499999999998898, -0.9036667914287394 
1.1599999999998887, -0.9025585634733057 
1.1699999999998876, -0.8991699240233733 
1.1799999999998865, -0.8913459696734322 
1.1899999999998854, -0.8725859461193327 
1.1999999999998843, -0.8213904049782752 
1.2099999999998832, -0.6530392427683478 
1.219999999999882, -0.08129665188837037 
1.229999999999881, 0.5655234502368816 
1.2399999999998799, 0.7210233839288932 
1.2499999999998788, 0.7527440137072927 
1.2599999999998777, 0.7615942499990443 
1.2699999999998766, 0.7643659093072169 
1.2799999999998755, 0.7647261098471065 
1.2899999999998744, 0.763474291310002 
1.2999999999998733, 0.7604259192478333 
1.3099999999998722, 0.7549529068545735 
1.319999999999871, 0.7467166987916386 
1.32999999999987, 0.736938642632378 
1.3399999999998689, 0.7284361729153846 
1.3499999999998678, 0.7231137849335352 
1.3599999999998666, 0.7206163477416212 
1.3699999999998655, 0.7196825682731772 
1.3799999999998644, 0.7193194145440164 
1.3899999999998633, 0.7189229059276248 
1.3999999999998622, 0.7180155891263713 
1.4099999999998611, 0.7158576130711121 
1.41999999999986, 0.7105072818352485 
1.429999999999859, 0.6947927160356759 
1.4399999999998578, 0.6284670465820642 
1.4499999999998567, 0.08250648380097265 
1.4599999999998556, -2.1660891040172987 
1.4699999999998545, -2.6364186794559785 
1.4799999999998534, -2.69391905258173 
1.4899999999998523, -2.706300636349321 
1.4999999999998512, -2.709307580873759 
1.5099999999998501, -2.7092905766825135 
1.519999999999849, -2.7076619859207107 
1.529999999999848, -2.7038389103310645 
1.5399999999998468, -2.695121783878071 
1.5499999999998457, -2.685617396116659 
1.5599999999998446, -2.686712263593073 
1.5699999999998435, -2.688385164806649 
1.5799999999998424, -2.6869680685881443 
1.5899999999998413, -2.6826345344034213 
1.5999999999998402, -2.6869452724673635 
1.6099999999998391, -2.700298137612385 
1.619999999999838, -2.706733756825799 
1.629999999999837, -2.708879147800594 
1.6399999999998358, -2.709130362376055 
1.6499999999998347, -2.707403196450172 
1.6599999999998336, -2.701390147494874 
1.6699999999998325, -2.6809522220688344 
1.6799999999998314, -2.581801738286791 
1.6899999999998303, -1.6579050938651978 
1.6999999999998292, 0.3472853069553413 
1.709999999999828, 0.6317335014032508 
1.719999999999827, 0.6752868127784425 
1.729999999999826, 0.68681758631355 
1.7399999999998248, 0.690716748837582 
1.7499999999998237, 0.692012179962845 
1.7599999999998226, 0.6921697756970944 
1.7699999999998215, 0.6917644893992794 
1.7799999999998204, 0.6912282928192093 
1.7899999999998193, 0.6913943580293516 
1.7999999999998182, 0.694334048665677 
1.809999999999817, 0.7037149517173462 
1.819999999999816, 0.7209877528754064 
1.8299999999998149, 0.739904476716203 
1.8399999999998138, 0.7533182794449951 
1.8499999999998127, 0.7605697482238645 
1.8599999999998116, 0.7638523014425626 
1.8699999999998105, 0.7647908974217277 
1.8799999999998094, 0.7639034888634211 
1.8899999999998083, 0.7604285535542022 
1.8999999999998072, 0.7506378606030706 
1.909999999999806, 0.7191816463348315 
1.919999999999805, 0.6007121959163966 
1.9299999999998039, 0.3023967179698049 
1.9399999999998028, 0.10408202529328939 
1.9499999999998017, 0.06390516515679355 
1.9599999999998006, 0.06017080749284578 
1.9699999999997995, 0.06115543890555756 
1.9799999999997984, 0.0621269475873399 
1.9899999999997973, 0.06263339046359373 
1.9999999999997962, 0.06276704277299029 
2.0099999999998173, 0.06261754834628985 
2.0199999999998384, 0.062204418163096485 
2.0299999999998595, 0.061467599671141494 
2.0399999999998806, 0.06024656844776142 
2.0499999999999017, 0.05822303351096374 
2.059999999999923, 0.054778706593695145 
2.069999999999944, 0.048629028533853154 
2.079999999999965, 0.03680320371984 
2.089999999999986, 0.011498521029445093 
2.100000000000007, -0.050221211560329174 
2.1100000000000283, -0.21886414480916344 
2.1200000000000494, -0.5977119638829224 
2.1300000000000705, -0.9817539860744846 
2.1400000000000916, -1.1488178580221444 
2.1500000000001127, -1.2028426492093343 
2.160000000000134, -1.2207994975507452 
2.170000000000155, -1.2271432784621077 
2.180000000000176, -1.2291638822121433 
2.190000000000197, -1.2291312174733435 
2.2000000000002182, -1.2277590224448387 
2.2100000000002393, -1.2256496241584647 
2.2200000000002604, -1.2252054834363202 
2.2300000000002815, -1.233054499951339 
2.2400000000003026, -1.2562331966622853 
2.2500000000003237, -1.2906519816350843 
2.260000000000345, -1.3244365506085767 
2.270000000000366, -1.3513481482971346 
2.280000000000387, -1.3714646906847106 
2.290000000000408, -1.3865881749021207 
2.3000000000004293, -1.3981734931626864 
2.3100000000004504, -1.4070378907772647 
2.3200000000004715, -1.413560967355879 
2.3300000000004926, -1.4179653481883177 
2.3400000000005137, -1.4205327867629078 
2.3500000000005348, -1.4216531394632748 
2.360000000000556, -1.4217528421955998 
2.370000000000577, -1.4212472264685299 
2.380000000000598, -1.4205356973435348 
2.390000000000619, -1.4199088543679343 
2.4000000000006403, -1.4194043194145451 
2.4100000000006614, -1.4189057137483538 
2.4200000000006825, -1.4184289115715487 
2.4300000000007036, -1.4181592114875383 
2.4400000000007247, -1.4181480665829354 
2.450000000000746, -1.4181182326376516 
2.460000000000767, -1.4176110683556162 
2.470000000000788, -1.4161244057730733 
2.480000000000809, -1.4130823068432303 
2.49000000000083, -1.4078300597323103 
2.5000000000008513, -1.3997655476966973 
2.5100000000008724, -1.3884522704368645 
2.5200000000008935, -1.3734726140822118 
2.5300000000009146, -1.3540352774740447 
2.5400000000009357, -1.3285942650459668 
2.550000000000957, -1.294923719795491 
2.560000000000978, -1.2518834594698152 
2.570000000000999, -1.2044736793716364 
2.58000000000102, -1.1665130943747772 
2.5900000000010412, -1.14799803632526 
2.6000000000010624, -1.1439951562570552 
2.6100000000010835, -1.1451325062164148 
2.6200000000011046, -1.1466243785009966 
2.6300000000011257, -1.1471471136510174 
2.6400000000011468, -1.146293413612605 
2.650000000001168, -1.1432562960755135 
2.660000000001189, -1.135624526207637 
2.67000000000121, -1.1164909611557658 
2.680000000001231, -1.0668466188833534 
2.6900000000012523, -0.9455482646657968 
2.7000000000012734, -0.7274822028368041 
2.7100000000012945, -0.5036720870709097 
2.7200000000013156, -0.3640702653926299 
2.7300000000013367, -0.29273817414892783 
2.740000000001358, -0.25617543099485135 
2.750000000001379, -0.2361714853793028 
2.7600000000014, -0.2244469484778993 
2.770000000001421, -0.21717618507205327 
2.780000000001442, -0.21248598332931817 
2.7900000000014633, -0.2094098703439197 
2.8000000000014844, -0.20743984815293612 
2.8100000000015055, -0.20632684217712605 
2.8200000000015266, -0.20599415702209076 
2.8300000000015477, -0.20651317344135242 
2.840000000001569, -0.20812894800151177 
2.85000000000159, -0.21135040131278265 
2.860000000001611, -0.21715802249662164 
2.870000000001632, -0.22746483892925712 
2.8800000000016532, -0.24617282783775413 
2.8900000000016743, -0.2816865911454943 
2.9000000000016954, -0.35280036139150595 
2.9100000000017165, -0.49924558190722024 
2.9200000000017377, -0.7755775282879813 
2.9300000000017588, -1.1505885953841812 
2.94000000000178, -1.453202354821586 
2.950000000001801, -1.6108547325684328 
2.960000000001822, -1.6764403273865973 
2.970000000001843, -1.7015494195812018 
2.9800000000018643, -1.7108890847525053 
2.9900000000018854, -1.7141289373875932 
3.0000000000019065, -1.7148613814363642 
3.0100000000019276, -1.7145747761679313 
3.0200000000019487, -1.7142065823227792 
3.03000000000197, -1.7143114537329964 
3.040000000001991, -1.714686264403171 
3.050000000002012, -1.714884457102714 
3.060000000002033, -1.7149156111980683 
3.070000000002054, -1.7149872407095432 
3.0800000000020753, -1.7149199676301419 
3.0900000000020964, -1.7141389604871118 
3.1000000000021175, -1.7117947837643352 
3.1100000000021386, -1.706414360909622 
3.1200000000021597, -1.6952188612577292 
3.130000000002181, -1.6732417260636396 
3.140000000002202, -1.631829561818429 
3.150000000002223, -1.5549303459617516 
3.160000000002244, -1.4127832338579724 
3.1700000000022652, -1.1746953966605125 
3.1800000000022863, -0.8933678563778272 
3.1900000000023074, -0.6943515907973912 
3.2000000000023285, -0.5969620754530809 
3.2100000000023496, -0.5559878777143775 
3.2200000000023707, -0.5397062174908747 
3.230000000002392, -0.5335968766149088 
3.240000000002413, -0.5315694595104777 
3.250000000002434, -0.5310876075616885 
3.260000000002455, -0.5310806958705612 
3.2700000000024763, -0.5310809232367866 
3.2800000000024974, -0.5308671096152261 
3.2900000000025185, -0.530326684288354 
3.3000000000025396, -0.5294222014328008 
3.3100000000025607, -0.5282063113528069 
3.3200000000025818, -0.5268328473456922 
3.330000000002603, -0.5255200975166905 
3.340000000002624, -0.5244750839344227 
3.350000000002645, -0.5238333711294554 
3.360000000002666, -0.5236422039951554 
3.3700000000026873, -0.5238652359865361 
3.3800000000027084, -0.5243865364484155 
3.3900000000027295, -0.5250250190797904 
3.4000000000027506, -0.5255811989315036 
3.4100000000027717, -0.5259030615321448 
3.420000000002793, -0.5259272877679094 
3.430000000002814, -0.5256797996682433 
3.440000000002835, -0.5252674097444665 
3.450000000002856, -0.5249075638575327 
3.460000000002877, -0.52504559671538 
3.4700000000028983, -0.5266457335587399 
3.4800000000029194, -0.5318552842244467 
3.4900000000029405, -0.5454975270286189 
3.5000000000029616, -0.5782833675955859 
3.5100000000029827, -0.6523049162094523 
3.520000000003004, -0.8012168823325305 
3.530000000003025, -1.0316514058713588 
3.540000000003046, -1.2681005402835364 
3.550000000003067, -1.4367036770730874 
3.5600000000030882, -1.5378116131101545 
3.5700000000031094, -1.595201552841161 
3.5800000000031305, -1.6264473534023032 
3.5900000000031516, -1.6424245239641688 
3.6000000000031727, -1.6499521562113926 
3.6100000000031938, -1.6530764831352134 
3.620000000003215, -1.653967836301223 
3.630000000003236, -1.6537713406634857 
3.640000000003257, -1.6532359995966268 
3.650000000003278, -1.652856723232374 
3.6600000000032993, -1.6526365647308452 
3.6700000000033204, -1.6522998186917477 
3.6800000000033415, -1.6518701695230096 
3.6900000000033626, -1.6516419224895258 
3.7000000000033837, -1.651581202828566 
3.710000000003405, -1.6511569676555564 
3.720000000003426, -1.6495908397182444 
3.730000000003447, -1.645668416421208 
3.740000000003468, -1.6370387551773795 
3.750000000003489, -1.6192597936593818 
3.7600000000035103, -1.584803901157053 
3.7700000000035314, -1.521807690607139 
3.7800000000035525, -1.4119147855096625 
3.7900000000035736, -1.2330770144600702 
3.8000000000035947, -0.9928678463722249 
3.810000000003616, -0.7688948133351097 
3.820000000003637, -0.6267530419999419 
3.830000000003658, -0.5552681494612839 
3.840000000003679, -0.5225399367692901 
3.8500000000037002, -0.5081274476951478 
3.8600000000037213, -0.5020184822139069 
3.8700000000037424, -0.4996074940554263 
3.8800000000037635, -0.4987867606978666 
3.8900000000037847, -0.49857958592745943 
3.9000000000038058, -0.4985220418159238 
3.910000000003827, -0.4983862418397414 
3.920000000003848, -0.49806443244748755 
3.930000000003869, -0.4975335170028442 
3.94000000000389, -0.49685389795367935 
3.9500000000039113, -0.4961630029764237 
3.9600000000039324, -0.49563969785137846 
3.9700000000039535, -0.4954524747875323 
3.9800000000039746, -0.49572198125359923 
3.9900000000039957, -0.49650284053711474 
4.000000000004016, -0.497763504844011 
4.010000000003993, -0.49935860966071843 
4.02000000000397, -0.5010313457804626 
4.030000000003946, -0.5024875206380749 
4.040000000003923, -0.5035071147228123 
4.0500000000039, -0.5040015234398272 
4.0600000000038765, -0.5039871449508927 
4.070000000003853, -0.5035317011097672 
4.08000000000383, -0.5027362067328334 
4.090000000003807, -0.5017976668969675 
4.100000000003783, -0.5012474995210899 
4.11000000000376, -0.5026979952429771 
4.120000000003737, -0.5113260826727272 
4.130000000003713, -0.5451792617364928 
4.14000000000369, -0.6748076178145371 
4.150000000003667, -1.1511126276818149 
4.1600000000036434, -1.8977769375959355 
4.17000000000362, -2.165756611412819 
4.180000000003597, -2.23268003741196 
4.1900000000035735, -2.254794940131678 
4.20000000000355, -2.263560120068235 
4.210000000003527, -2.2670235950438733 
4.220000000003504, -2.2678804649030964 
4.23000000000348, -2.2671587505807205 
4.240000000003457, -2.26513316895838 
4.250000000003434, -2.261240840687339 
4.26000000000341, -2.253809703950627 
4.270000000003387, -2.2435874855305658 
4.280000000003364, -2.2395814698129093 
4.2900000000033405, -2.241286893132046 
4.300000000003317, -2.2419298923107576 
4.310000000003294, -2.2397680815185117 
4.320000000003271, -2.2322422826329507 
4.330000000003247, -2.2256836721215407 
4.340000000003224, -2.263451077794463 
4.350000000003201, -2.303723603814434 
4.360000000003177, -2.320323956917512 
4.370000000003154, -2.326846547656701 
4.380000000003131, -2.3295383983268265 
4.390000000003107, -2.3302397251812446 
4.400000000003084, -2.3293811417326937 
4.410000000003061, -2.3267074134464876 
4.4200000000030375, -2.3209919515237636 
4.430000000003014, -2.308091592678798 
4.440000000002991, -2.2728575422930555 
4.450000000002968, -2.177977614621303 
4.460000000002944, -2.104490619644158 
4.470000000002921, -2.1218438262886776 
4.480000000002898, -2.1327855591900984 
4.490000000002874, -2.1354202302171084 
4.500000000002851, -2.1348788225502457 
4.510000000002828, -2.132991670325183 
4.520000000002804, -2.1339727917880107 
4.530000000002781, -2.140738423217114 
4.540000000002758, -2.1472595888754427 
4.5500000000027345, -2.150867748269738 
4.560000000002711, -2.152586266522231 
4.570000000002688, -2.1531151466150935 
4.580000000002665, -2.1523934791025434 
4.590000000002641, -2.149850508969237 
4.600000000002618, -2.1441558181782527 
4.610000000002595, -2.1321254925044726 
4.620000000002571, -2.104713246738662 
4.630000000002548, -2.029307034545037 
4.640000000002525, -1.7777661732685686 
4.6500000000025015, -1.2464417262602783 
4.660000000002478, -0.9516786838869301 
4.670000000002455, -0.8944508839665499 
4.6800000000024315, -0.8938430044570218 
4.690000000002408, -0.900111614629688 
4.700000000002385, -0.9047236263513472 
4.710000000002362, -0.9072096601692466 
4.720000000002338, -0.9080672642009697 
4.730000000002315, -0.9074968404933852 
4.740000000002292, -0.9051249401264292 
4.750000000002268, -0.8996007300462499 
4.760000000002245, -0.887611213590455 
4.770000000002222, -0.8622175696433176 
4.7800000000021985, -0.8130316891158547 
4.790000000002175, -0.7363070664212297 
4.800000000002152, -0.6494981386235859 
4.810000000002129, -0.5769408460581921 
4.820000000002105, -0.5262838847173827 
4.830000000002082, -0.4929720868147533 
4.840000000002059, -0.4709487987249631 
4.850000000002035, -0.45597461842837045 
4.860000000002012, -0.4454836096078088 
4.870000000001989, -0.437961239144928 
4.880000000001965, -0.4325025700821796 
4.890000000001942, -0.42855547413145223 
4.900000000001919, -0.4257764391068827 
4.9100000000018955, -0.423948955813758 
4.920000000001872, -0.4229372152206604 
4.930000000001849, -0.4226609203166934 
4.940000000001826, -0.42308393540205114 
