t, s[1].omega / s[0].omega 
0, -1.4216588109061663 
0.009999999999999995, -1.5465550318448726 
0.019999999999999934, -1.6105569845105012 
0.029999999999999874, -1.64036654522558 
0.04000000000000012, -1.653289950244585 
0.050000000000000405, -1.658497140913115 
0.06000000000000069, -1.660238280130986 
0.07000000000000098, -1.6603925747257144 
0.08000000000000126, -1.6599621464881984 
0.09000000000000155, -1.659681875594415 
0.10000000000000184, -1.6598152360448732 
0.11000000000000212, -1.6600344619917944 
0.12000000000000241, -1.66006825135042 
0.130000000000002, -1.6600577701110448 
0.1400000000000009, -1.6601253537469962 
0.1499999999999998, -1.6599680172900868 
0.1599999999999987, -1.658985933709507 
0.1699999999999976, -1.656337659269592 
0.1799999999999965, -1.6506209433745507 
0.1899999999999954, -1.6394429848213092 
0.1999999999999943, -1.6190311845640377 
0.2099999999999932, -1.5834958990382737 
0.2199999999999921, -1.5225803861525278 
0.229999999999991, -1.4176338881591672 
0.2399999999999899, -1.2463266746134216 
0.2499999999999888, -1.029432913332378 
0.2599999999999877, -0.8566192007759561 
0.2699999999999866, -0.7683660647230393 
0.2799999999999855, -0.7347151852617821 
0.2899999999999844, -0.7246152133800164 
0.2999999999999833, -0.7227821962889707 
0.3099999999999822, -0.7232692842447476 
0.3199999999999811, -0.7240257948670663 
0.32999999999998, -0.7243903450526716 
0.3399999999999789, -0.7241079010031034 
0.3499999999999778, -0.7229655917678138 
0.35999999999997667, -0.7206750352570557 
0.36999999999997557, -0.716911792765627 
0.37999999999997447, -0.7115276021786694 
0.38999999999997337, -0.7048320783800882 
0.39999999999997227, -0.6976068814995962 
0.40999999999997117, -0.6907078020874131 
0.41999999999997006, -0.6846578801009768 
0.42999999999996896, -0.6795853104082958 
0.43999999999996786, -0.6753849099644124 
0.44999999999996676, -0.6718775682113942 
0.45999999999996566, -0.668898766844048 
0.46999999999996456, -0.6663360235011793 
0.47999999999996346, -0.664138316332063 
0.48999999999996235, -0.6623082201237908 
0.49999999999996125, -0.6608836899776951 
0.5099999999999602, -0.6599165741712094 
0.519999999999959, -0.6594539935916974 
0.529999999999958, -0.659526340642456 
0.5399999999999568, -0.6601428496685345 
0.5499999999999557, -0.661293816457851 
0.5599999999999546, -0.6629584544930277 
0.5699999999999535, -0.6651182405017597 
0.5799999999999524, -0.6677755686587363 
0.5899999999999513, -0.6709756832959981 
0.5999999999999502, -0.6748270224786781 
0.6099999999999491, -0.6795124705062681 
0.619999999999948, -0.6852792793230017 
0.6299999999999469, -0.6923801447138246 
0.6399999999999458, -0.7009132288746425 
0.6499999999999447, -0.710538480170759 
0.6599999999999436, -0.7202629781661082 
0.6699999999999425, -0.7287288659694102 
0.6799999999999414, -0.7349877762784723 
0.6899999999999403, -0.7389348374616038 
0.6999999999999392, -0.7410155010356207 
0.7099999999999381, -0.7417488960968315 
0.719999999999937, -0.7414963067485932 
0.7299999999999359, -0.7404559912195685 
0.7399999999999348, -0.7388037862040018 
0.7499999999999337, -0.7371011716082443 
0.7599999999999326, -0.7375480429692167 
0.7699999999999315, -0.7478070627757334 
0.7799999999999304, -0.7915041820384348 
0.7899999999999293, -0.9260360637492207 
0.7999999999999282, -1.2012958340194388 
0.8099999999999271, -1.4864011444506846 
0.819999999999926, -1.6489615890288192 
0.8299999999999249, -1.7264051863812822 
0.8399999999999238, -1.7649068720544796 
0.8499999999999227, -1.7850155334092501 
0.8599999999999216, -1.7954623537658576 
0.8699999999999205, -1.800525875648432 
0.8799999999999194, -1.8025625436057957 
0.8899999999999183, -1.802899610853982 
0.8999999999999172, -1.8023134339937337 
0.9099999999999161, -1.8012947101231014 
0.919999999999915, -1.7999824743264121 
0.9299999999999139, -1.7981921902233498 
0.9399999999999128, -1.7960857554371734 
0.9499999999999117, -1.7945978213557292 
0.9599999999999106, -1.7942022181176136 
0.9699999999999095, -1.7939827798379213 
0.9799999999999084, -1.7926060154809522 
0.9899999999999073, -1.7879211120645533 
0.9999999999999062, -1.7726822003260811 
1.0099999999999052, -1.7141167041733332 
1.019999999999904, -1.440319789080005 
1.029999999999903, -0.553815233231693 
1.039999999999902, 0.0704284599383317 
1.0499999999999008, 0.2242642368200875 
1.0599999999998997, 0.26624662507412183 
1.0699999999998986, 0.2811047047568459 
1.0799999999998975, 0.28733098115101796 
1.0899999999998964, 0.2901500179360442 
1.0999999999998953, 0.2914017892713199 
1.1099999999998942, 0.29186700877785865 
1.119999999999893, 0.29194564664009126 
1.129999999999892, 0.29189577019854857 
1.1399999999998909, 0.29194922949935814 
1.1499999999998898, 0.2924229981870461 
1.1599999999998887, 0.2939125216995352 
1.1699999999998876, 0.2976582198348307 
1.1799999999998865, 0.3059936139469944 
1.1899999999998854, 0.3217576977626596 
1.1999999999998843, 0.34452181022372147 
1.2099999999998832, 0.3675699840682905 
1.219999999999882, 0.38429790155294014 
1.229999999999881, 0.39400883063566755 
1.2399999999998799, 0.3989596266691415 
1.2499999999998788, 0.40110909304303616 
1.2599999999998777, 0.40147476602007215 
1.2699999999998766, 0.4003344832160162 
1.2799999999998755, 0.39737157849136 
1.2899999999998744, 0.3916840636480815 
1.2999999999998733, 0.38198419565290986 
1.3099999999998722, 0.3677521717355695 
1.319999999999871, 0.35123817343467545 
1.32999999999987, 0.3368941042233727 
1.3399999999998689, 0.32732261586134115 
1.3499999999998678, 0.3219745623745981 
1.3599999999998666, 0.319246572265059 
1.3699999999998655, 0.31790571003169 
1.3799999999998644, 0.31724195178497533 
1.3899999999998633, 0.3168576620544488 
1.3999999999998622, 0.3164881965218603 
1.4099999999998611, 0.31588983076632454 
1.41999999999986, 0.31474696494500276 
1.429999999999859, 0.3125191794295536 
1.4399999999998578, 0.30804704173853686 
1.4499999999998567, 0.29830659701995177 
1.4599999999998556, 0.2736197537089803 
1.4699999999998545, 0.19420971431395578 
1.4799999999998534, -0.1386061521343155 
1.4899999999998523, -1.0608623423587784 
1.4999999999998512, -1.5904885800821296 
1.5099999999998501, -1.7072472492439723 
1.519999999999849, -1.7344648107108032 
1.529999999999848, -1.741969054903409 
1.5399999999998468, -1.7439293916179377 
1.5499999999998457, -1.7439187019454632 
1.5599999999998446, -1.7434161709649563 
1.5699999999998435, -1.7437677974485077 
1.5799999999998424, -1.7454598860987829 
1.5899999999998413, -1.747483035187289 
1.5999999999998402, -1.7489771545493933 
1.6099999999998391, -1.7499271665870573 
1.619999999999838, -1.7504673442186913 
1.629999999999837, -1.750428310013254 
1.6399999999998358, -1.7494114181391804 
1.6499999999998347, -1.7468547689107126 
1.6599999999998336, -1.7419437904866961 
1.6699999999998325, -1.7334609284162195 
1.6799999999998314, -1.7193954961455742 
1.6899999999998303, -1.6957621333962887 
1.6999999999998292, -1.6535819361660131 
1.709999999999828, -1.5736848499608342 
1.719999999999827, -1.4365616451503713 
1.729999999999826, -1.293882014994939 
1.7399999999998248, -1.233742098647076 
1.7499999999998237, -1.229683865177966 
1.7599999999998226, -1.2360900856239743 
1.7699999999998215, -1.2405048603831244 
1.7799999999998204, -1.2423420761406239 
1.7899999999998193, -1.2422079639999772 
1.7999999999998182, -1.2398648748039849 
1.809999999999817, -1.2332454519119673 
1.819999999999816, -1.214988607792128 
1.8299999999998149, -1.1575950578968823 
1.8399999999998138, -0.940119531991501 
1.8499999999998127, 0.04044544253194822 
1.8599999999998116, 1.1194886996901154 
1.8699999999998105, 1.23720081583421 
1.8799999999998094, 1.2537293475368771 
1.8899999999998083, 1.2573604396477505 
1.8999999999998072, 1.2574800373741297 
1.909999999999806, 1.2549486817198914 
1.919999999999805, 1.2467644155593662 
1.9299999999998039, 1.2205853984902775 
1.9399999999998028, 1.1527341018241346 
1.9499999999998017, 1.0981489323287783 
1.9599999999998006, 1.100936903913492 
1.9699999999997995, 1.109491925278921 
1.9799999999997984, 1.1135008455890534 
1.9899999999997973, 1.11468092305105 
1.9999999999997962, 1.1139071275765038 
2.0099999999998173, 1.1105501616526914 
2.0199999999998384, 1.1012935001528672 
2.0299999999998595, 1.0781457175753886 
2.0399999999998806, 1.082621319997016 
2.0499999999999017, 1.2502840375276496 
2.059999999999923, 1.3341297995949726 
2.069999999999944, 1.3525951808190466 
2.079999999999965, 1.3570729860450905 
2.089999999999986, 1.3575446076364277 
2.100000000000007, 1.3551154770209812 
2.1100000000000283, 1.3450526769265072 
2.1200000000000494, 1.2877351343846244 
2.1300000000000705, 0.7497473468363063 
2.1400000000000916, -0.04159975647683671 
2.1500000000001127, -0.1099539224741934 
2.160000000000134, -0.09899212681820925 
2.170000000000155, -0.09067571061162114 
2.180000000000176, -0.08652301286725693 
2.190000000000197, -0.08450490364890328 
2.2000000000002182, -0.08350752701906687 
2.2100000000002393, -0.08301476694566415 
2.2200000000002604, -0.08279672394146503 
2.2300000000002815, -0.082767959615846 
2.2400000000003026, -0.08293365756617965 
2.2500000000003237, -0.08337776007871231 
2.260000000000345, -0.0842753948746187 
2.270000000000366, -0.08593208972698854 
2.280000000000387, -0.08887857146539463 
2.290000000000408, -0.0940965685121902 
2.3000000000004293, -0.10354689350520707 
2.3100000000004504, -0.121352002770265 
2.3200000000004715, -0.15595875036460258 
2.3300000000004926, -0.22067973699409665 
2.3400000000005137, -0.31878602790497135 
2.3500000000005348, -0.4169902127683388 
2.360000000000556, -0.4800659208407991 
2.370000000000577, -0.5112280897449188 
2.380000000000598, -0.5255251076672292 
2.390000000000619, -0.532112368811212 
2.4000000000006403, -0.5350539000820498 
2.4100000000006614, -0.5359979950498954 
2.4200000000006825, -0.5354915134748698 
2.4300000000007036, -0.5334385854748056 
2.4400000000007247, -0.529143522669967 
2.450000000000746, -0.521171029738667 
2.460000000000767, -0.5074471853173488 
2.470000000000788, -0.4865739049950939 
2.480000000000809, -0.4604799019952873 
2.49000000000083, -0.43462813449005655 
2.5000000000008513, -0.4136524646899368 
2.5100000000008724, -0.39859426208400833 
2.5200000000008935, -0.3883042230444342 
2.5300000000009146, -0.38129928331950014 
2.5400000000009357, -0.3764469805242523 
2.550000000000957, -0.3730000782350919 
2.560000000000978, -0.37048647067232837 
2.570000000000999, -0.36861765098297433 
2.58000000000102, -0.3672347524865882 
2.5900000000010412, -0.36627996419505615 
2.6000000000010624, -0.3657844812534866 
2.6100000000010835, -0.3658721731669515 
2.6200000000011046, -0.3667835337909112 
2.6300000000011257, -0.3689293977151312 
2.6400000000011468, -0.37299281002144535 
2.650000000001168, -0.3801152168472039 
2.660000000001189, -0.39223673114047347 
2.67000000000121, -0.41271720049381677 
2.680000000001231, -0.44742863044171377 
2.6900000000012523, -0.5064055160896628 
2.7000000000012734, -0.605046939564759 
2.7100000000012945, -0.7597379248338123 
2.7200000000013156, -0.9679165735903531 
2.7300000000013367, -1.1836811260515498 
2.740000000001358, -1.344848647109634 
2.750000000001379, -1.433953990351851 
2.7600000000014, -1.4742073148393546 
2.770000000001421, -1.4906717014306596 
2.780000000001442, -1.4970719557851493 
2.7900000000014633, -1.4992701427399266 
2.8000000000014844, -1.4996053817976316 
2.8100000000015055, -1.4991989837859765 
2.8200000000015266, -1.4990242613909335 
2.8300000000015477, -1.4999501136153366 
2.840000000001569, -1.501951208310775 
2.85000000000159, -1.5041914980113646 
2.860000000001611, -1.506065207782314 
2.870000000001632, -1.5074866447032096 
2.8800000000016532, -1.508507930857904 
2.8900000000016743, -1.5090602732218963 
2.9000000000016954, -1.5089870553895126 
2.9100000000017165, -1.508139378872825 
2.9200000000017377, -1.506410439918374 
2.9300000000017588, -1.5037243196293333 
2.94000000000178, -1.4999891299494623 
2.950000000001801, -1.4950213250457691 
2.960000000001822, -1.4884483204830263 
2.970000000001843, -1.4795784894904043 
2.9800000000018643, -1.4673216417486818 
2.9900000000018854, -1.4507088515372872 
3.0000000000019065, -1.4312516624543572 
3.0100000000019276, -1.4155821677159115 
3.0200000000019487, -1.4093805387933975 
3.03000000000197, -1.4095257294593098 
3.040000000001991, -1.4108134499968548 
3.050000000002012, -1.411136342671242 
3.060000000002033, -1.4097410230061824 
3.070000000002054, -1.4049974137150696 
3.0800000000020753, -1.3909644875076208 
3.0900000000020964, -1.343223487595642 
3.1000000000021175, -1.1417850123029214 
3.1100000000021386, -0.3230144420115012 
3.1200000000021597, 0.5136989427376838 
3.130000000002181, 0.676472243788495 
3.140000000002202, 0.7081690666708036 
3.150000000002223, 0.7170709001425399 
3.160000000002244, 0.7199447755993581 
3.1700000000022652, 0.7204778958154109 
3.1800000000022863, 0.7195976271532853 
3.1900000000023074, 0.7174146242580283 
3.2000000000023285, 0.7138183052710524 
3.2100000000023496, 0.7089295783195015 
3.2200000000023707, 0.7034819323280963 
3.230000000002392, 0.6986373767184059 
3.240000000002413, 0.6952054580769281 
3.250000000002434, 0.693218458300706 
3.260000000002455, 0.6922322657308972 
3.2700000000024763, 0.6917384887508847 
3.2800000000024974, 0.6913129849969729 
3.2900000000025185, 0.6905590681906506 
3.3000000000025396, 0.6889029868569605 
3.3100000000025607, 0.6850245203579505 
3.3200000000025818, 0.6746470475250279 
3.330000000002603, 0.6379404518640814 
3.340000000002624, 0.41540242097939534 
3.350000000002645, -1.3714977146563887 
3.360000000002666, -2.5187674168818974 
3.3700000000026873, -2.636871566356928 
3.3800000000027084, -2.6569673752397556 
3.3900000000027295, -2.6615025749550396 
3.4000000000027506, -2.662016629535983 
3.4100000000027717, -2.6609600147719714 
3.420000000002793, -2.6585733879165416 
3.430000000002814, -2.6534879468969 
3.440000000002835, -2.646971505173458 
3.450000000002856, -2.6462972834156036 
3.460000000002877, -2.647399841482928 
3.4700000000028983, -2.6459220622665915 
3.4800000000029194, -2.6395348367851468 
3.4900000000029405, -2.6387346129172626 
3.5000000000029616, -2.6653159244674685 
3.5100000000029827, -2.6808032229636556 
3.520000000003004, -2.685937312176116 
3.530000000003025, -2.687495925926677 
3.540000000003046, -2.6871061047518188 
3.550000000003067, -2.684339756012741 
3.5600000000030882, -2.6764051658309125 
3.5700000000031094, -2.6510373618687977 
3.5800000000031305, -2.5236150026871407 
3.5900000000031516, -1.483445449113105 
3.6000000000031727, -0.06811567724368735 
3.6100000000031938, 0.2310098725698187 
3.620000000003215, 0.2986968739118051 
3.630000000003236, 0.3202030268073568 
3.640000000003257, 0.3286686544385523 
3.650000000003278, 0.3323026045337348 
3.6600000000032993, 0.3336638566582169 
3.6700000000033204, 0.3335888968406233 
3.6800000000033415, 0.3321454604836948 
3.6900000000033626, 0.3287009316899334 
3.7000000000033837, 0.3212313184112076 
3.710000000003405, 0.3034346566792754 
3.720000000003426, 0.2512463849466553 
3.730000000003447, 0.03826267608777323 
3.740000000003468, -1.0312232565840103 
3.750000000003489, -2.2992717632937234 
3.7600000000035103, -2.5072599348778715 
3.7700000000035314, -2.546487819209365 
3.7800000000035525, -2.557862644128121 
3.7900000000035736, -2.5615283410783545 
3.8000000000035947, -2.562120206185736 
3.810000000003616, -2.560914131735227 
3.820000000003637, -2.5577812907796273 
3.830000000003658, -2.5504730862424667 
3.840000000003679, -2.534658940631463 
3.8500000000037002, -2.5225619494863496 
3.8600000000037213, -2.52589251893618 
3.8700000000037424, -2.528161611906765 
3.8800000000037635, -2.52719007334892 
3.8900000000037847, -2.523741532096925 
3.9000000000038058, -2.525858949649566 
3.910000000003827, -2.5373370343462427 
3.920000000003848, -2.544514808667567 
3.930000000003869, -2.5473036709972705 
3.94000000000389, -2.548109717903624 
3.9500000000039113, -2.5473399628739903 
3.9600000000039324, -2.5439938341138677 
3.9700000000039535, -2.534365934879086 
3.9800000000039746, -2.5035681756710533 
3.9900000000039957, -2.3620865299205134 
4.000000000004016, -1.3646783332603054 
4.010000000003993, 0.1321371590112602 
4.02000000000397, 0.40873570078231874 
4.030000000003946, 0.4624483179328133 
4.040000000003923, 0.47835261358133774 
4.0500000000039, 0.4842623264710485 
4.0600000000038765, 0.48654625955953285 
4.070000000003853, 0.4870942923403129 
4.08000000000383, 0.486466790766265 
4.090000000003807, 0.4846110891486474 
4.100000000003783, 0.4809098205549926 
4.11000000000376, 0.4739238517495187 
4.120000000003737, 0.4620379106248954 
4.130000000003713, 0.45837731903579176 
4.14000000000369, 0.5717170383191679 
4.150000000003667, 0.8160060447375134 
4.1600000000036434, 0.9173270056661338 
4.17000000000362, 0.9427904776833534 
4.180000000003597, 0.9500404428121157 
4.1900000000035735, 0.9520356751603426 
4.20000000000355, 0.9516098761378038 
4.210000000003527, 0.9486889959544353 
4.220000000003504, 0.9405783179257788 
4.23000000000348, 0.918425430620057 
4.240000000003457, 0.8646602879039337 
4.250000000003434, 0.7958689602642823 
4.26000000000341, 0.7703619344470289 
4.270000000003387, 0.771829075135296 
4.280000000003364, 0.7760966565765375 
4.2900000000033405, 0.7786866608283807 
4.300000000003317, 0.7797151071638212 
4.310000000003294, 0.7794170375146224 
4.320000000003271, 0.7774175969430783 
4.330000000003247, 0.7718736274199544 
4.340000000003224, 0.7554068913169778 
4.350000000003201, 0.6881225280206846 
4.360000000003177, 0.22385512181469985 
4.370000000003154, -2.6954905533954463 
4.380000000003131, -3.457985024144103 
4.390000000003107, -3.4914634649014014 
4.400000000003084, -3.4964865053761853 
4.410000000003061, -3.4965618788626265 
4.4200000000030375, -3.493309455281254 
4.430000000003014, -3.4788971560601616 
4.440000000002991, -3.349675831117429 
4.450000000002968, -3.186040054406386 
4.460000000002944, -3.2543269202486327 
4.470000000002921, -3.260964418039516 
4.480000000002898, -3.261019017810411 
4.490000000002874, -3.2605613452777895 
4.500000000002851, -3.260091777006096 
4.510000000002828, -3.258688316006225 
4.520000000002804, -3.2581785030744457 
4.530000000002781, -3.2569936931827854 
4.540000000002758, -3.2480157107286187 
4.5500000000027345, -3.2138816641094428 
4.560000000002711, -3.309999152863211 
4.570000000002688, -3.343938527998605 
4.580000000002665, -3.34973617917536 
4.590000000002641, -3.3504786869933 
4.600000000002618, -3.3483037889481126 
4.610000000002595, -3.339090168560992 
4.620000000002571, -3.281517751510877 
4.630000000002548, -1.8102480985930753 
4.640000000002525, 1.0328226784674888 
4.6500000000025015, 1.1768357656411448 
4.660000000002478, 1.1946440564297023 
4.670000000002455, 1.1987109419944917 
4.6800000000024315, 1.1996637317933452 
4.690000000002408, 1.1996879851163498 
4.700000000002385, 1.1996667796498377 
4.710000000002362, 1.2002605898375038 
4.720000000002338, 1.201831761866161 
4.730000000002315, 1.2040730731364147 
4.740000000002292, 1.2062123295858254 
4.750000000002268, 1.2076880749605299 
4.760000000002245, 1.2083507738339145 
4.770000000002222, 1.2081448357020739 
4.7800000000021985, 1.2066053120385516 
4.790000000002175, 1.2014734553758615 
4.800000000002152, 1.1793804686572202 
4.810000000002129, 0.9607923864226766 
4.820000000002105, -2.4213905630889374 
4.830000000002082, -3.1369282804695713 
4.840000000002059, -3.1762679090961834 
4.850000000002035, -3.182046136507769 
4.860000000002012, -3.182382748977827 
4.870000000001989, -3.180582351087731 
4.880000000001965, -3.175207519612859 
4.890000000001942, -3.1606991539210982 
4.900000000001919, -3.155312594193501 
4.9100000000018955, -3.159669423670544 
4.920000000001872, -3.1596852742516393 
4.930000000001849, -3.157684903328927 
4.940000000001826, -3.1602358166483104 
4.950000000001802, -3.1638963652119876 
4.960000000001779, -3.164890771913742 
