t, s[1].omega / s[0].omega 
0, -0.999882056996991 
0.009999999999999995, -0.9881224527498986 
0.019999999999999934, -0.976559193703378 
0.029999999999999874, -0.9652093661681087 
0.04000000000000012, -0.9540119441808779 
0.050000000000000405, -0.9429876407134422 
0.06000000000000069, -0.9323707604328797 
0.07000000000000098, -0.9226866868690367 
0.08000000000000126, -0.9146685932998944 
0.09000000000000155, -0.908929992385367 
0.10000000000000184, -0.9055659936255805 
0.11000000000000212, -0.9040666063288951 
0.12000000000000241, -0.9036331984756234 
0.130000000000002, -0.9035472872214687 
0.1400000000000009, -0.9033061489372258 
0.1499999999999998, -0.9025687890254467 
0.1599999999999987, -0.9010757791961584 
0.1699999999999976, -0.8986475931075975 
0.1799999999999965, -0.8952707912289112 
0.1899999999999954, -0.8911699313524812 
0.1999999999999943, -0.8867334031438527 
0.2099999999999932, -0.8823253753219881 
0.2199999999999921, -0.8781547775236869 
0.229999999999991, -0.8742744190537426 
0.2399999999999899, -0.8706493614822357 
0.2499999999999888, -0.8672260853729654 
0.2599999999999877, -0.8639758241421749 
0.2699999999999866, -0.860909657636159 
0.2799999999999855, -0.8580740116168426 
0.2899999999999844, -0.855540499758756 
0.2999999999999833, -0.8533982591698317 
0.3099999999999822, -0.8517420778553019 
0.3199999999999811, -0.850643153503419 
0.32999999999998, -0.8501062111570248 
0.3399999999999789, -0.8500425502953656 
0.3499999999999778, -0.8502865808497713 
0.35999999999997667, -0.8506479852177217 
0.36999999999997557, -0.8509667440413246 
0.37999999999997447, -0.8511493768145447 
0.38999999999997337, -0.8511831463559967 
0.39999999999997227, -0.8511258814752388 
0.40999999999997117, -0.8510692455821187 
0.41999999999997006, -0.8510884574342313 
0.42999999999996896, -0.851201915320231 
0.43999999999996786, -0.8513565683560304 
0.44999999999996676, -0.8514456964011785 
0.45999999999996566, -0.8513569268820351 
0.46999999999996456, -0.8510288119499639 
0.47999999999996346, -0.8504858812141404 
0.48999999999996235, -0.8498444056519464 
0.49999999999996125, -0.8493001858008251 
0.5099999999999602, -0.8490983655327529 
0.519999999999959, -0.8494740525329986 
0.529999999999958, -0.8505762970020848 
0.5399999999999568, -0.8524228846786425 
0.5499999999999557, -0.854920587024551 
0.5599999999999546, -0.8579292786657942 
0.5699999999999535, -0.8613204601907741 
0.5799999999999524, -0.8650061145657938 
0.5899999999999513, -0.8689467415110077 
0.5999999999999502, -0.873152436775602 
0.6099999999999491, -0.8776762749148886 
0.619999999999948, -0.8825869292848656 
0.6299999999999469, -0.8879062564026178 
0.6399999999999458, -0.8935111874616066 
0.6499999999999447, -0.899046992603376 
0.6599999999999436, -0.9039690572670034 
0.6699999999999425, -0.9077785376340584 
0.6799999999999414, -0.9102740365273805 
0.6899999999999403, -0.9115744761549497 
0.6999999999999392, -0.9119592624712851 
0.7099999999999381, -0.9117449940911377 
0.719999999999937, -0.91130360895664 
0.7299999999999359, -0.9111960993625985 
0.7399999999999348, -0.9123081234107872 
0.7499999999999337, -0.9157603683719738 
0.7599999999999326, -0.9224212437113412 
0.7699999999999315, -0.9323280398174454 
0.7799999999999304, -0.9446562048493918 
0.7899999999999293, -0.9582920354955474 
0.7999999999999282, -0.9723975751400264 
0.8099999999999271, -0.9865821137209284 
0.819999999999926, -1.0007810040045269 
0.8299999999999249, -1.0150360775447982 
0.8399999999999238, -1.0292477516369345 
0.8499999999999227, -1.0429286594863116 
0.8599999999999216, -1.0551282815767444 
0.8699999999999205, -1.064798132189049 
0.8799999999999194, -1.0714427550716445 
0.8899999999999183, -1.075359822163731 
0.8999999999999172, -1.0772650537817041 
0.9099999999999161, -1.0778522826938 
0.919999999999915, -1.0776625212288977 
0.9299999999999139, -1.077213331086689 
0.9399999999999128, -1.0772173668776606 
0.9499999999999117, -1.078620123210888 
0.9599999999999106, -1.08215724562572 
0.9699999999999095, -1.0877312319584544 
0.9799999999999084, -1.0944667580031353 
0.9899999999999073, -1.1014090419180111 
0.9999999999999062, -1.1079993448889154 
1.0099999999999052, -1.11406355542184 
1.019999999999904, -1.1196246707974824 
1.029999999999903, -1.124762594701809 
1.039999999999902, -1.1295397891448486 
1.0499999999999008, -1.133949952438721 
1.0599999999998997, -1.1378809772619793 
1.0699999999998986, -1.1411292397395705 
1.0799999999998975, -1.1434944273277914 
1.0899999999998964, -1.1449003032622407 
1.0999999999998953, -1.1454382489573125 
1.1099999999998942, -1.1453241763976016 
1.119999999999893, -1.1448530938249228 
1.129999999999892, -1.1443799394538319 
1.1399999999998909, -1.1442499108545217 
1.1499999999998898, -1.144643557408385 
1.1599999999998887, -1.1454915855098773 
1.1699999999998876, -1.1465924303128407 
1.1799999999998865, -1.1477864894213101 
1.1899999999998854, -1.1489970692976255 
1.1999999999998843, -1.1501613125251953 
1.2099999999998832, -1.1511819039409725 
1.219999999999882, -1.1519518899436636 
1.229999999999881, -1.1524042315374112 
1.2399999999998799, -1.152533231932692 
1.2499999999998788, -1.1523770863585612 
1.2599999999998777, -1.1519779701768909 
1.2699999999998766, -1.1513475775777833 
1.2799999999998755, -1.1504611142251877 
1.2899999999998744, -1.1492827764350493 
1.2999999999998733, -1.147804357074623 
1.3099999999998722, -1.1460688735281768 
1.319999999999871, -1.1441590706054563 
1.32999999999987, -1.1421583701534934 
1.3399999999998689, -1.1401326191860628 
1.3499999999998678, -1.1381784005614508 
1.3599999999998666, -1.1364901482956777 
1.3699999999998655, -1.1353140407026932 
1.3799999999998644, -1.1347549579883596 
1.3899999999998633, -1.1346368899052726 
1.3999999999998622, -1.1345910184787387 
1.4099999999998611, -1.1342314312943567 
1.41999999999986, -1.13323229640358 
1.429999999999859, -1.1313373482696596 
1.4399999999998578, -1.1284029426896987 
1.4499999999998567, -1.1244664352485425 
1.4599999999998556, -1.1197349824923286 
1.4699999999998545, -1.1144619378405751 
1.4799999999998534, -1.108818089368016 
1.4899999999998523, -1.1028510239247704 
1.4999999999998512, -1.0965180818133748 
1.5099999999998501, -1.089743475994167 
1.519999999999849, -1.0824902077841483 
1.529999999999848, -1.0748799828033508 
1.5399999999998468, -1.067364575977981 
1.5499999999998457, -1.0607935805647508 
1.5599999999998446, -1.0560852958844817 
1.5699999999998435, -1.0535655410238833 
1.5799999999998424, -1.0527040385345179 
1.5899999999998413, -1.0525843736374603 
1.5999999999998402, -1.05243424637765 
1.6099999999998391, -1.0517185492539576 
1.619999999999838, -1.0499696061359423 
1.629999999999837, -1.0466411015082837 
1.6399999999998358, -1.0411559189183002 
1.6499999999998347, -1.0332123678658802 
1.6599999999998336, -1.0231208388491457 
1.6699999999998325, -1.0117152442533102 
1.6799999999998314, -0.9998512360788201 
1.6899999999998303, -0.9880317322349332 
1.6999999999998292, -0.976400857421311 
1.709999999999828, -0.964920050497245 
1.719999999999827, -0.9535499588058091 
1.729999999999826, -0.9424034111917292 
1.7399999999998248, -0.931868260605559 
1.7499999999998237, -0.9226289837863637 
1.7599999999998226, -0.9154556091844187 
1.7699999999998215, -0.9107737394137001 
1.7799999999998204, -0.908356389954218 
1.7899999999998193, -0.907467923910952 
1.7999999999998182, -0.9072846615962116 
1.809999999999817, -0.9071749941413003 
1.819999999999816, -0.9067187832336281 
1.8299999999998149, -0.9056137061089297 
1.8399999999998138, -0.9036203381883331 
1.8499999999998127, -0.9006099532481832 
1.8599999999998116, -0.8966725016028441 
1.8699999999998105, -0.8921390461870994 
1.8799999999998094, -0.8874326300117434 
1.8899999999998083, -0.8828738533495164 
1.8999999999998072, -0.8786046223060702 
1.909999999999806, -0.8746311632751731 
1.919999999999805, -0.8709023103525613 
1.9299999999998039, -0.8673704652008427 
1.9399999999998028, -0.8640225110186124 
1.9499999999998017, -0.8608854288654202 
1.9599999999998006, -0.858019332404111 
1.9699999999997995, -0.8555098908606974 
1.9799999999997984, -0.8534595603722535 
1.9899999999997973, -0.851964319047641 
1.9999999999997962, -0.851069933681339 
2.0099999999998173, -0.8507296878526139 
2.0199999999998384, -0.8508000116662926 
2.0299999999998595, -0.8510834595051705 
2.0399999999998806, -0.8513897644772902 
2.0499999999999017, -0.8515829394859855 
2.059999999999923, -0.8516058451160928 
2.069999999999944, -0.8514831755028822 
2.079999999999965, -0.8512982079405417 
2.089999999999986, -0.8511459689716799 
2.100000000000007, -0.8510837849304697 
2.1100000000000283, -0.8511017841771638 
2.1200000000000494, -0.8511235031211417 
2.1300000000000705, -0.8510384551522113 
2.1400000000000916, -0.8507562272197002 
2.1500000000001127, -0.8502547390441908 
2.160000000000134, -0.8496010313027114 
2.170000000000155, -0.8489472958858396 
2.180000000000176, -0.8485095834290769 
2.190000000000197, -0.8485227413437636 
2.2000000000002182, -0.8491714072655189 
2.2100000000002393, -0.850529705602073 
2.2200000000002604, -0.8525531170956082 
2.2300000000002815, -0.8551250929946992 
2.2400000000003026, -0.8581172794897585 
2.2500000000003237, -0.8614276762900881 
2.260000000000345, -0.8649947121317902 
2.270000000000366, -0.868801825749079 
2.280000000000387, -0.8728781851214128 
2.290000000000408, -0.8772864367011355 
2.3000000000004293, -0.882082978332206 
2.3100000000004504, -0.8872416344827931 
2.3200000000004715, -0.8925559236109452 
2.3300000000004926, -0.897595435772738 
2.3400000000005137, -0.9018286792619188 
2.3500000000005348, -0.9048839540758985 
2.360000000000556, -0.9067095348147605 
2.370000000000577, -0.9075011670390098 
2.380000000000598, -0.9075478638214374 
2.390000000000619, -0.907173974142232 
2.4000000000006403, -0.9068148264382726 
2.4100000000006614, -0.9071623223042149 
2.4200000000006825, -0.9092178469383789 
2.4300000000007036, -0.9140218980243002 
2.4400000000007247, -0.9220790634320416 
2.450000000000746, -0.9329996605244579 
2.460000000000767, -0.945789358391427 
2.470000000000788, -0.9594631442707812 
2.480000000000809, -0.9734191932622602 
2.49000000000083, -0.9874504477165005 
2.5000000000008513, -1.0015721668494995 
2.5100000000008724, -1.0157955314991176 
2.5200000000008935, -1.0298738564676797 
2.5300000000009146, -1.0430942302031132 
2.5400000000009357, -1.0543685146605342 
2.550000000000957, -1.0627945512371895 
2.560000000000978, -1.0682243732817458 
2.570000000000999, -1.0712021426622553 
2.58000000000102, -1.0724765352666739 
2.5900000000010412, -1.0726749465913676 
2.6000000000010624, -1.0723018465124274 
2.6100000000010835, -1.071932552110858 
2.6200000000011046, -1.0724067397351844 
2.6300000000011257, -1.0746968317176704 
2.6400000000011468, -1.0792885525588858 
2.650000000001168, -1.0857146692205282 
2.660000000001189, -1.0929467670862145 
2.67000000000121, -1.1001234181148234 
2.680000000001231, -1.1068346799878468 
2.6900000000012523, -1.1130003881396584 
2.7000000000012734, -1.1186810563682514 
2.7100000000012945, -1.1239602382720153 
2.7200000000013156, -1.1288777536404768 
2.7300000000013367, -1.1333787105473727 
2.740000000001358, -1.1372920962376574 
2.750000000001379, -1.1403848705378814 
2.7600000000014, -1.1424896844076247 
2.770000000001421, -1.1436072373036763 
2.780000000001442, -1.1439005489892187 
2.7900000000014633, -1.1436326688435365 
2.8000000000014844, -1.1431351168288755 
2.8100000000015055, -1.1427863479016092 
2.8200000000015266, -1.1429044230813874 
2.8300000000015477, -1.1435825402855937 
2.840000000001569, -1.1446704251033464 
2.85000000000159, -1.1459478897563982 
2.860000000001611, -1.1472737300038882 
2.870000000001632, -1.1485792298758497 
2.8800000000016532, -1.1497929275406815 
2.8900000000016743, -1.1508161067993585 
2.9000000000016954, -1.1515602537034906 
2.9100000000017165, -1.1519871571532356 
2.9200000000017377, -1.152113393581479 
2.9300000000017588, -1.151980995009063 
2.94000000000178, -1.1516174098040877 
2.950000000001801, -1.15101264472283 
2.960000000001822, -1.1501289709829894 
2.970000000001843, -1.148936339684808 
2.9800000000018643, -1.1474488639594043 
2.9900000000018854, -1.1457354039981829 
3.0000000000019065, -1.1438923087076494 
3.0100000000019276, -1.1420005038823875 
3.0200000000019487, -1.1401247034094253 
3.03000000000197, -1.1383785040281889 
3.040000000001991, -1.1369692766715551 
3.050000000002012, -1.1361012893908706 
3.060000000002033, -1.1357818466664626 
3.070000000002054, -1.1357580620987053 
3.0800000000020753, -1.1356538400982916 
3.0900000000020964, -1.1351152735237333 
3.1000000000021175, -1.1338546495458413 
3.1100000000021386, -1.1316683210751015 
3.1200000000021597, -1.1284928297312202 
3.130000000002181, -1.1244435830991801 
3.140000000002202, -1.1197505260927736 
3.150000000002223, -1.1146256094334752 
3.160000000002244, -1.1091756442812433 
3.1700000000022652, -1.10340114883905 
3.1800000000022863, -1.0972412723734382 
3.1900000000023074, -1.0906293430338547 
3.2000000000023285, -1.0835710809071815 
3.2100000000023496, -1.0762811510341612 
3.2200000000023707, -1.0693401875244959 
3.230000000002392, -1.0636503022978505 
3.240000000002413, -1.0599543909272349 
3.250000000002434, -1.058245499096886 
3.260000000002455, -1.0577978038532936 
3.2700000000024763, -1.0577365469934423 
3.2800000000024974, -1.057404573502491 
3.2900000000025185, -1.0563186808083516 
3.3000000000025396, -1.0539890217399304 
3.3100000000025607, -1.0498405929722812 
3.3200000000025818, -1.0433718181019445 
3.330000000002603, -1.0345171692005661 
3.340000000002624, -1.0238412279591809 
3.350000000002645, -1.0122310764661129 
3.360000000002666, -1.0003955897994223 
3.3700000000026873, -0.9886587118351026 
3.3800000000027084, -0.9770592339451369 
3.3900000000027295, -0.9655385845425839 
3.4000000000027506, -0.9541110406804971 
3.4100000000027717, -0.943012166404665 
3.420000000002793, -0.9327975791578064 
3.430000000002814, -0.9242716649772584 
3.440000000002835, -0.9181362177776474 
3.450000000002856, -0.9145349953964986 
3.460000000002877, -0.9129368377264404 
3.4700000000028983, -0.9124833758979826 
3.4800000000029194, -0.9124040705392655 
3.4900000000029405, -0.9121667185333164 
3.5000000000029616, -0.911412522473564 
3.5100000000029827, -0.9098598391697269 
3.520000000003004, -0.9072936594031542 
3.530000000003025, -0.9036611040886952 
3.540000000003046, -0.8991721735388726 
3.550000000003067, -0.8942449656178537 
3.5600000000030882, -0.8892995481174818 
3.5700000000031094, -0.8845932244701403 
3.5800000000031305, -0.8802045714858655 
3.5900000000031516, -0.8761058398976587 
3.6000000000031727, -0.8722405028122848 
3.6100000000031938, -0.8685725507658212 
3.620000000003215, -0.8651058375749392 
3.630000000003236, -0.8618839690465725 
3.640000000003257, -0.8589844287168044 
3.650000000003278, -0.8565121196531098 
3.6600000000032993, -0.8545820130592954 
3.6700000000033204, -0.853278190016711 
3.6800000000033415, -0.8526005658218485 
3.6900000000033626, -0.8524382398796462 
3.7000000000033837, -0.8525969162448452 
3.710000000003405, -0.8528620340655774 
3.720000000003426, -0.8530571767950301 
3.730000000003447, -0.8530786594086104 
3.740000000003468, -0.8529090582832402 
3.750000000003489, -0.8526085432812589 
3.7600000000035103, -0.8522782905813011 
3.7700000000035314, -0.8520073904422931 
3.7800000000035525, -0.8518297488834843 
3.7900000000035736, -0.8517086970549157 
3.8000000000035947, -0.851553293901909 
3.810000000003616, -0.8512622032811095 
3.820000000003637, -0.8507768210257858 
3.830000000003658, -0.8501170621583233 
3.840000000003679, -0.849389260922003 
3.8500000000037002, -0.8487725608893074 
3.8600000000037213, -0.8484847384344452 
3.8700000000037424, -0.8487240539629847 
3.8800000000037635, -0.8496055920027615 
3.8900000000037847, -0.85113250306045 
3.9000000000038058, -0.8532215765483319 
3.910000000003827, -0.8557569216634272 
3.920000000003848, -0.8586327368952713 
3.930000000003869, -0.8617725807915688 
3.94000000000389, -0.8651366635075327 
3.9500000000039113, -0.8687272906915589 
3.9600000000039324, -0.872587826798649 
3.9700000000039535, -0.8767816513979628 
3.9800000000039746, -0.8813395098337938 
3.9900000000039957, -0.8861753699823949 
4.000000000004016, -0.8910063972279538 
4.010000000003993, -0.8953706449014971 
4.02000000000397, -0.8988110787744052 
4.030000000003946, -0.9011032332597418 
4.040000000003923, -0.9023097957711593 
4.0500000000039, -0.9026621890175864 
4.0600000000038765, -0.9024499778720244 
4.070000000003853, -0.9020281983970762 
4.08000000000383, -0.901928715160747 
4.090000000003807, -0.9029705131874435 
4.100000000003783, -0.906169003671959 
4.11000000000376, -0.9123076420300921 
4.120000000003737, -0.9214420746959213 
4.130000000003713, -0.9328706214321411 
4.14000000000369, -0.9456186612685695 
4.150000000003667, -0.9589324896706881 
4.1600000000036434, -0.9724478382101294 
4.17000000000362, -0.986100499094116 
4.180000000003597, -0.9999384161227152 
4.1900000000035735, -1.013894026119491 
4.20000000000355, -1.0275353307856205 
4.210000000003527, -1.0399438378594692 
4.220000000003504, -1.0500106407443357 
4.23000000000348, -1.0570974703681215 
4.240000000003457, -1.0613824025390088 
4.250000000003434, -1.0635457052946768 
4.26000000000341, -1.064297131205413 
4.270000000003387, -1.0641921817133067 
4.280000000003364, -1.0637315373719536 
4.2900000000033405, -1.0635876719559438 
4.300000000003317, -1.0647225196922254 
4.310000000003294, -1.0680497774926165 
4.320000000003271, -1.0737309885009936 
4.330000000003247, -1.0809827948241795 
4.340000000003224, -1.0887231146120762 
4.350000000003201, -1.0962142226165257 
4.360000000003177, -1.1031722911388637 
4.370000000003154, -1.1095853108548484 
4.380000000003131, -1.115536675539779 
4.390000000003107, -1.1211023500064299 
4.400000000003084, -1.1262844621669479 
4.410000000003061, -1.130963720611271 
4.4200000000030375, -1.1349069153800915 
4.430000000003014, -1.1378700960706025 
4.440000000002991, -1.1397446950776755 
4.450000000002968, -1.140618019155702 
4.460000000002944, -1.1407192713442105 
4.470000000002921, -1.1403544649352784 
4.480000000002898, -1.139892585519324 
4.490000000002874, -1.1397313067857804 
4.500000000002851, -1.140149934301459 
4.510000000002828, -1.1411531925362863 
4.520000000002804, -1.1425232887171475 
4.530000000002781, -1.144027754939008 
4.540000000002758, -1.1455356132183054 
4.5500000000027345, -1.1469789794003125 
4.560000000002711, -1.1482831425222941 
4.570000000002688, -1.149359911625561 
4.580000000002665, -1.1501464244537727 
4.590000000002641, -1.1506314143670218 
4.600000000002618, -1.1508445758864434 
4.610000000002595, -1.1508205844796393 
4.620000000002571, -1.1505649154950346 
4.630000000002548, -1.1500457945318654 
4.640000000002525, -1.1492187121555388 
4.6500000000025015, -1.1480675796932949 
4.660000000002478, -1.1466344490580744 
4.670000000002455, -1.1450151491830203 
4.6800000000024315, -1.143317883276954 
4.690000000002408, -1.1416198382623008 
4.700000000002385, -1.1399824225629405 
4.710000000002362, -1.1385232732507857 
4.720000000002338, -1.1374352796362797 
4.730000000002315, -1.136861533439045 
4.740000000002292, -1.1367303534343627 
4.750000000002268, -1.1367544464690598 
4.760000000002245, -1.1365777171867146 
4.770000000002222, -1.1358865843588652 
4.7800000000021985, -1.134441564482739 
4.790000000002175, -1.132107573640706 
4.800000000002152, -1.1289019445888548 
4.810000000002129, -1.124987679351521 
4.820000000002105, -1.120576686926704 
4.830000000002082, -1.1158200009707522 
4.840000000002059, -1.1107665283096273 
4.850000000002035, -1.1053867684389265 
4.860000000002012, -1.099618125884262 
4.870000000001989, -1.0934148757748354 
4.880000000001965, -1.0868297759566963 
4.890000000001942, -1.0801550562708613 
4.900000000001919, -1.074041281452881 
4.9100000000018955, -1.0693423411067104 
4.920000000001872, -1.0665710378617286 
4.930000000001849, -1.0654699738528577 
