t, s[1].omega / s[0].omega 
0, -0.9599785781343193 
0.009999999999999995, -0.9578445657071416 
0.019999999999999934, -0.955733203129746 
0.029999999999999874, -0.9536205038105926 
0.04000000000000012, -0.9514749302225095 
0.050000000000000405, -0.9492946163235738 
0.06000000000000069, -0.9471205154921272 
0.07000000000000098, -0.9450238130629078 
0.08000000000000126, -0.9430839457948924 
0.09000000000000155, -0.9413798207890224 
0.10000000000000184, -0.9399974705489911 
0.11000000000000212, -0.9390272956961953 
0.12000000000000241, -0.9385250496778179 
0.130000000000002, -0.9384563029442221 
0.1400000000000009, -0.9386802394968857 
0.1499999999999998, -0.9389957928000451 
0.1599999999999987, -0.9392123942629335 
0.1699999999999976, -0.9392021102031967 
0.1799999999999965, -0.9389237845361871 
0.1899999999999954, -0.9384207125607388 
0.1999999999999943, -0.9377874005168947 
0.2099999999999932, -0.9371152347213503 
0.2199999999999921, -0.9364468910913877 
0.229999999999991, -0.935762652061117 
0.2399999999999899, -0.9350011396053033 
0.2499999999999888, -0.9341025961915621 
0.2599999999999877, -0.9330531384084134 
0.2699999999999866, -0.9319080933177345 
0.2799999999999855, -0.930784675393048 
0.2899999999999844, -0.9298262445984946 
0.2999999999999833, -0.9291522068662198 
0.3099999999999822, -0.9288230471131202 
0.3199999999999811, -0.928843942531811 
0.32999999999998, -0.9291929809746309 
0.3399999999999789, -0.9298369324093804 
0.3499999999999778, -0.9307214967861894 
0.35999999999997667, -0.9317601173094385 
0.36999999999997557, -0.9328477181383702 
0.37999999999997447, -0.9338957858048562 
0.38999999999997337, -0.9348638295715845 
0.39999999999997227, -0.9357664645769773 
0.40999999999997117, -0.9366508219222963 
0.41999999999997006, -0.9375544763978028 
0.42999999999996896, -0.938463956853548 
0.43999999999996786, -0.9392956588667272 
0.44999999999996676, -0.9399169017494533 
0.45999999999996566, -0.9402054839127929 
0.46999999999996456, -0.9401128346407551 
0.47999999999996346, -0.9396930703288835 
0.48999999999996235, -0.9390989990315679 
0.49999999999996125, -0.9385631172244289 
0.5099999999999602, -0.9383548163532295 
0.519999999999959, -0.9386970695825415 
0.529999999999958, -0.9396780383031812 
0.5399999999999568, -0.9412331238146885 
0.5499999999999557, -0.9432129464965874 
0.5599999999999546, -0.9454669770079583 
0.5699999999999535, -0.9478812478642016 
0.5799999999999524, -0.9503758984561133 
0.5899999999999513, -0.9528986435254142 
0.5999999999999502, -0.9554292723243704 
0.6099999999999491, -0.9579819000490228 
0.619999999999948, -0.9605869680232615 
0.6299999999999469, -0.9632494278084861 
0.6399999999999458, -0.9658977127761368 
0.6499999999999447, -0.9683567011385421 
0.6599999999999436, -0.9703866355308932 
0.6699999999999425, -0.9717885883871273 
0.6799999999999414, -0.9724991181252449 
0.6899999999999403, -0.9726033706156889 
0.6999999999999392, -0.972297289624203 
0.7099999999999381, -0.9718679696860908 
0.719999999999937, -0.9716921294479015 
0.7299999999999359, -0.9721785962817246 
0.7399999999999348, -0.9736121796380333 
0.7499999999999337, -0.9760060038585177 
0.7599999999999326, -0.979124128928057 
0.7699999999999315, -0.982651808364577 
0.7799999999999304, -0.986342305145661 
0.7899999999999293, -0.9900552327657521 
0.7999999999999282, -0.9937304536167103 
0.8099999999999271, -0.9973585713745571 
0.819999999999926, -1.000961865730094 
0.8299999999999249, -1.0045680749494945 
0.8399999999999238, -1.0081642508699347 
0.8499999999999227, -1.0116425043929165 
0.8599999999999216, -1.0147794885027772 
0.8699999999999205, -1.017299701190828 
0.8799999999999194, -1.019007383640152 
0.8899999999999183, -1.0198797198778693 
0.8999999999999172, -1.020053459336575 
0.9099999999999161, -1.0197677395142715 
0.919999999999915, -1.0193448662582236 
0.9299999999999139, -1.0191914931305894 
0.9399999999999128, -1.0197227791712495 
0.9499999999999117, -1.0211778680527435 
0.9599999999999106, -1.0234863720969716 
0.9699999999999095, -1.0263527493030336 
0.9799999999999084, -1.0294624594691721 
0.9899999999999073, -1.032605630206769 
0.9999999999999062, -1.035675573527779 
1.0099999999999052, -1.0386250082807122 
1.019999999999904, -1.0414413749504479 
1.029999999999903, -1.044138531251404 
1.039999999999902, -1.046738343362068 
1.0499999999999008, -1.049232930651705 
1.0599999999998997, -1.051544713044405 
1.0699999999998986, -1.053518934564816 
1.0799999999998975, -1.0549763510822154 
1.0899999999998964, -1.0558036638027173 
1.0999999999998953, -1.0560125983215756 
1.1099999999998942, -1.0557369935868366 
1.119999999999893, -1.0552067381551298 
1.129999999999892, -1.0547227822089735 
1.1399999999998909, -1.0545930571185935 
1.1499999999998898, -1.0550083565686033 
1.1599999999998887, -1.0559557373711848 
1.1699999999998876, -1.057275570821504 
1.1799999999998865, -1.0587956889429175 
1.1899999999998854, -1.0604008856005187 
1.1999999999998843, -1.0620124545967813 
1.2099999999998832, -1.0635524641847314 
1.219999999999882, -1.0649466804671492 
1.229999999999881, -1.066152276916051 
1.2399999999998799, -1.0671715260846617 
1.2499999999998788, -1.0680342807562089 
1.2599999999998777, -1.0687600412144826 
1.2699999999998766, -1.0693247200996532 
1.2799999999998755, -1.0696561313524005 
1.2899999999998744, -1.0696672144695007 
1.2999999999998733, -1.0693097668059655 
1.3099999999998722, -1.0686150451052974 
1.319999999999871, -1.0677017784505158 
1.32999999999987, -1.0667499950853947 
1.3399999999998689, -1.065939881124764 
1.3499999999998678, -1.0653792030275264 
1.3599999999998666, -1.0650824477119876 
1.3699999999998655, -1.065024559993381 
1.3799999999998644, -1.065197297936463 
1.3899999999998633, -1.0655949784984116 
1.3999999999998622, -1.0661553010636529 
1.4099999999998611, -1.0667398926427973 
1.41999999999986, -1.0671820640686605 
1.429999999999859, -1.067352520513054 
1.4399999999998578, -1.067198052271795 
1.4499999999998567, -1.066743542026046 
1.4599999999998556, -1.0660602130964474 
1.4699999999998545, -1.065215715456459 
1.4799999999998534, -1.0642360922843317 
1.4899999999998523, -1.0631014397382512 
1.4999999999998512, -1.0617739694849113 
1.5099999999998501, -1.0602388731925125 
1.519999999999849, -1.0585317646574288 
1.529999999999848, -1.0567343835769358 
1.5399999999998468, -1.0549417978082503 
1.5499999999998457, -1.0532328565073972 
1.5599999999998446, -1.0516810214271692 
1.5699999999998435, -1.050392726564467 
1.5799999999998424, -1.0495026076215304 
1.5899999999998413, -1.0490855408809467 
1.5999999999998402, -1.0490604345224497 
1.6099999999998391, -1.049198523668051 
1.619999999999838, -1.0492240416044498 
1.629999999999837, -1.0489047759091996 
1.6399999999998358, -1.0480947687987736 
1.6499999999998347, -1.0467562024042976 
1.6599999999998336, -1.044962320311272 
1.6699999999998325, -1.0428552218638483 
1.6799999999998314, -1.0405708146419035 
1.6899999999998303, -1.0381843319185267 
1.6999999999998292, -1.0357065912260461 
1.709999999999828, -1.0331170606385107 
1.719999999999827, -1.0304034447699502 
1.729999999999826, -1.0275835901029806 
1.7399999999998248, -1.0247042712975356 
1.7499999999998237, -1.0218365386512134 
1.7599999999998226, -1.0190939646641772 
1.7699999999998215, -1.0166628359429233 
1.7799999999998204, -1.0147800716595907 
1.7899999999998193, -1.013612890707893 
1.7999999999998182, -1.013119250897444 
1.809999999999817, -1.0130388251974736 
1.819999999999816, -1.013021226690364 
1.8299999999998149, -1.012750338950299 
1.8399999999998138, -1.011991486492248 
1.8499999999998127, -1.0106075801881946 
1.8599999999998116, -1.0085877758480337 
1.8699999999998105, -1.0060573124359373 
1.8799999999998094, -1.0032191326006177 
1.8899999999998083, -1.0002546700204795 
1.8999999999998072, -0.9972612406943513 
1.909999999999806, -0.994255565275689 
1.919999999999805, -0.9912157463955646 
1.9299999999998039, -0.9881250476627385 
1.9399999999998028, -0.9849958550923177 
1.9499999999998017, -0.9818726667664739 
1.9599999999998006, -0.978832429475772 
1.9699999999997995, -0.9759997562444378 
1.9799999999997984, -0.973560780966427 
1.9899999999997973, -0.9717248735886465 
1.9999999999997962, -0.9706138681080473 
2.0099999999998173, -0.9701570481424848 
2.0199999999998384, -0.9701014310526744 
2.0299999999998595, -0.9701255219887399 
2.0399999999998806, -0.9699451390583611 
2.0499999999999017, -0.9693585076793036 
2.059999999999923, -0.9682642051462709 
2.069999999999944, -0.9666793049854171 
2.079999999999965, -0.9647312988985893 
2.089999999999986, -0.9625960362589037 
2.100000000000007, -0.9604152799020607 
2.1100000000000283, -0.9582524892951072 
2.1200000000000494, -0.9561025574354007 
2.1300000000000705, -0.953932427865148 
2.1400000000000916, -0.9517242636317528 
2.1500000000001127, -0.9495001925825088 
2.160000000000134, -0.9473199409871185 
2.170000000000155, -0.94526066694535 
2.180000000000176, -0.9434016116002576 
2.190000000000197, -0.9418273771020116 
2.2000000000002182, -0.9406333072952975 
2.2100000000002393, -0.9399002892922184 
2.2200000000002604, -0.9396376568215363 
2.2300000000002815, -0.9397436650486674 
2.2400000000003026, -0.9400292128105292 
2.2500000000003237, -0.9402870517445306 
2.260000000000345, -0.9403554189771481 
2.270000000000366, -0.9401533428732145 
2.280000000000387, -0.9396900949508694 
2.290000000000408, -0.9390457080960228 
2.3000000000004293, -0.9383224227204481 
2.3100000000004504, -0.9375905908317168 
2.3200000000004715, -0.9368593261265683 
2.3300000000004926, -0.9360831715271903 
2.3400000000005137, -0.9351977117217756 
2.3500000000005348, -0.9341660426265372 
2.360000000000556, -0.9330128074077926 
2.370000000000577, -0.9318300290179622 
2.380000000000598, -0.9307523901989642 
2.390000000000619, -0.9299110223539332 
2.4000000000006403, -0.9293900768203921 
2.4100000000006614, -0.9292154281356405 
2.4200000000006825, -0.9293767373410446 
2.4300000000007036, -0.9298498030974061 
2.4400000000007247, -0.9305933473471022 
2.450000000000746, -0.9315332560524464 
2.460000000000767, -0.9325655626278115 
2.470000000000788, -0.9335869250743791 
2.480000000000809, -0.9345319628180573 
2.49000000000083, -0.935392487385499 
2.5000000000008513, -0.9362069690223322 
2.5100000000008724, -0.9370244638746555 
2.5200000000008935, -0.9378601236224318 
2.5300000000009146, -0.9386641422482974 
2.5400000000009357, -0.9393239207313926 
2.550000000000957, -0.9397082219252038 
2.560000000000978, -0.9397329601935723 
2.570000000000999, -0.9394071188154332 
2.58000000000102, -0.9388413170698126 
2.5900000000010412, -0.9382343683868342 
2.6000000000010624, -0.9378421591045358 
2.6100000000010835, -0.9379106527302327 
2.6200000000011046, -0.9385840081603108 
2.6300000000011257, -0.9398545141851159 
2.6400000000011468, -0.9416011520719186 
2.650000000001168, -0.9436736177052272 
2.660000000001189, -0.9459476219377964 
2.67000000000121, -0.9483328984719716 
2.680000000001231, -0.9507652023575852 
2.6900000000012523, -0.9532082970202858 
2.7000000000012734, -0.9556611550467939 
2.7100000000012945, -0.9581507924763182 
2.7200000000013156, -0.9607003148363967 
2.7300000000013367, -0.9632794927289066 
2.740000000001358, -0.9657626330271942 
2.750000000001379, -0.9679340524347138 
2.7600000000014, -0.9695672870975358 
2.770000000001421, -0.9705342593518876 
2.780000000001442, -0.9708567589114864 
2.7900000000014633, -0.9706839412885401 
2.8000000000014844, -0.9702607641197588 
2.8100000000015055, -0.9699236743081959 
2.8200000000015266, -0.9700755074058728 
2.8300000000015477, -0.971068919896142 
2.840000000001569, -0.9730374647296278 
2.85000000000159, -0.9758378601589388 
2.860000000001611, -0.9791731132380936 
2.870000000001632, -0.9827636565075384 
2.8800000000016532, -0.9864289402404506 
2.8900000000016743, -0.9900799127314247 
2.9000000000016954, -0.9936877005140279 
2.9100000000017165, -0.9972626004309278 
2.9200000000017377, -1.0008342378147328 
2.9300000000017588, -1.004414607448695 
2.94000000000178, -1.0079439994038215 
2.950000000001801, -1.0112486028643857 
2.960000000001822, -1.0140622888332866 
2.970000000001843, -1.0161368215936024 
2.9800000000018643, -1.0173671234295654 
2.9900000000018854, -1.0178249218905342 
3.0000000000019065, -1.0177084466550839 
3.0100000000019276, -1.0173015618721777 
3.0200000000019487, -1.0169754657081553 
3.03000000000197, -1.01716023132498 
3.040000000001991, -1.0182014794597285 
3.050000000002012, -1.0201743942908137 
3.060000000002033, -1.0228620898931173 
3.070000000002054, -1.0259333001066193 
3.0800000000020753, -1.0291222018169546 
3.0900000000020964, -1.0322785704544164 
3.1000000000021175, -1.0353325806902027 
3.1100000000021386, -1.0382580986929033 
3.1200000000021597, -1.0410592168006318 
3.130000000002181, -1.0437583162289858 
3.140000000002202, -1.0463657834194913 
3.150000000002223, -1.0488370011527424 
3.160000000002244, -1.0510454062883792 
3.1700000000022652, -1.0528079095234593 
3.1800000000022863, -1.0539674863886792 
3.1900000000023074, -1.0544760455632407 
3.2000000000023285, -1.0544169586827357 
3.2100000000023496, -1.053981578698175 
3.2200000000023707, -1.0534453855310033 
3.230000000002392, -1.0531306927482882 
3.240000000002413, -1.0533061874027827 
3.250000000002434, -1.054060962094006 
3.260000000002455, -1.0552866310052094 
3.2700000000024763, -1.056795129427772 
3.2800000000024974, -1.0584356995438564 
3.2900000000025185, -1.0601142821245086 
3.3000000000025396, -1.0617552302479 
3.3100000000025607, -1.0632824113698416 
3.3200000000025818, -1.0646380030535927 
3.330000000002603, -1.065805377759871 
3.340000000002624, -1.06680563793822 
3.350000000002645, -1.067666422154553 
3.360000000002666, -1.0683833608015738 
3.3700000000026873, -1.068900563090694 
3.3800000000027084, -1.0691280326526647 
3.3900000000027295, -1.0689911698743757 
3.4000000000027506, -1.0684818721082587 
3.4100000000027717, -1.0676818519838063 
3.420000000002793, -1.0667520069851144 
3.430000000002814, -1.0658873913946072 
3.440000000002835, -1.0652425392814493 
3.450000000002856, -1.0648748202199079 
3.460000000002877, -1.0647645434255542 
3.4700000000028983, -1.06488461756957 
3.4800000000029194, -1.0652282669156263 
3.4900000000029405, -1.0657651991244084 
3.5000000000029616, -1.0663940069638203 
3.5100000000029827, -1.066958050774515 
3.520000000003004, -1.0673080383644526 
3.530000000003025, -1.0673557201056285 
3.540000000003046, -1.0670927430826564 
3.550000000003067, -1.0665733083155675 
3.5600000000030882, -1.0658697616001187 
3.5700000000031094, -1.0650263313971808 
3.5800000000031305, -1.064039046883565 
3.5900000000031516, -1.0628711468961005 
3.6000000000031727, -1.061491685581488 
3.6100000000031938, -1.0599124608099366 
3.620000000003215, -1.058199423638243 
3.630000000003236, -1.0564500823153433 
3.640000000003257, -1.0547550422760288 
3.650000000003278, -1.0531846382987289 
3.6600000000032993, -1.0518198101563878 
3.6700000000033204, -1.0507799235426245 
3.6800000000033415, -1.050177416140682 
3.6900000000033626, -1.0500131314600407 
3.7000000000033837, -1.0501250655145975 
3.710000000003405, -1.050252200521152 
3.720000000003426, -1.0501388602265893 
3.730000000003447, -1.0495991391378996 
3.740000000003468, -1.0485458262297582 
3.750000000003489, -1.0470037947445683 
3.7600000000035103, -1.045089422104346 
3.7700000000035314, -1.0429459788564654 
3.7800000000035525, -1.0406753497983634 
3.7900000000035736, -1.0383120665946548 
3.8000000000035947, -1.035843356799989 
3.810000000003616, -1.0332492168108238 
3.820000000003637, -1.030534062041758 
3.830000000003658, -1.0277343471433564 
3.840000000003679, -1.0249104307306693 
3.8500000000037002, -1.0221508968911492 
3.8600000000037213, -1.0196021164829996 
3.8700000000037424, -1.0174814428551953 
3.8800000000037635, -1.0160047249510582 
3.8900000000037847, -1.0152391030751688 
3.9000000000038058, -1.0150188259526254 
3.910000000003827, -1.0150201478329322 
3.920000000003848, -1.0149035810621243 
3.930000000003869, -1.0143965253168152 
3.94000000000389, -1.0133160444512541 
3.9500000000039113, -1.0115911945184717 
3.9600000000039324, -1.0092881856217146 
3.9700000000039535, -1.0065847522621325 
3.9800000000039746, -1.0036809463811334 
3.9900000000039957, -1.000713048502511 
4.000000000004016, -0.9977289843519662 
4.010000000003993, -0.9947179270712422 
4.02000000000397, -0.9916567223612475 
4.030000000003946, -0.9885438254824301 
4.040000000003923, -0.9854101020448333 
4.0500000000039, -0.9823174163273224 
4.0600000000038765, -0.9793671004543703 
4.070000000003853, -0.9767200570162633 
4.08000000000383, -0.9745879345728786 
4.090000000003807, -0.9731495605125801 
4.100000000003783, -0.9724260640162008 
4.11000000000376, -0.9722320555718632 
4.120000000003737, -0.9722571288955779 
4.130000000003713, -0.9721895084725606 
4.14000000000369, -0.9717869873468425 
4.150000000003667, -0.9709003077273154 
4.1600000000036434, -0.9694917888753591 
4.17000000000362, -0.9676450671544441 
4.180000000003597, -0.965526974464751 
4.1900000000035735, -0.9633054446725028 
4.20000000000355, -0.961082158097706 
4.210000000003527, -0.958879681156333 
4.220000000003504, -0.9566724370364457 
4.23000000000348, -0.9544319739327556 
4.240000000003457, -0.9521615738557871 
4.250000000003434, -0.949905568372839 
4.26000000000341, -0.9477350070369506 
4.270000000003387, -0.9457286364392026 
4.280000000003364, -0.9439696830147307 
4.2900000000033405, -0.9425543496208114 
4.300000000003317, -0.9415804094599857 
4.310000000003294, -0.9410965652315628 
4.320000000003271, -0.9410461089135624 
4.330000000003247, -0.941263899043203 
4.340000000003224, -0.9415356239328811 
4.350000000003201, -0.9416704291836503 
4.360000000003177, -0.9415481915545115 
4.370000000003154, -0.9411394404754988 
4.380000000003131, -0.9404995018233299 
4.390000000003107, -0.9397309399595055 
4.400000000003084, -0.938926812138759 
4.410000000003061, -0.9381270640537901 
4.4200000000030375, -0.9373095640479627 
4.430000000003014, -0.9364149453402675 
4.440000000002991, -0.9353908901781874 
4.450000000002968, -0.9342337237467309 
4.460000000002944, -0.9330069702966541 
4.470000000002921, -0.9318288912767109 
4.480000000002898, -0.9308336059114402 
4.490000000002874, -0.9301243393428497 
4.500000000002851, -0.9297488790010444 
4.510000000002828, -0.9297114230181638 
4.520000000002804, -0.9299974866385063 
4.530000000002781, -0.9305784447885914 
4.540000000002758, -0.9313950061941252 
4.5500000000027345, -0.9323500139487788 
4.560000000002711, -0.9333309937894645 
4.570000000002688, -0.9342498017923873 
4.580000000002665, -0.935072354646411 
4.590000000002641, -0.9358209588227734 
4.600000000002618, -0.9365473041229853 
4.610000000002595, -0.9372887206801064 
4.620000000002571, -0.9380288701796811 
4.630000000002548, -0.9386837459714436 
4.640000000002525, -0.9391274405701763 
4.6500000000025015, -0.9392515664030059 
4.660000000002478, -0.9390231608773337 
4.670000000002455, -0.9385091123501301 
4.6800000000024315, -0.9378705560971803 
4.690000000002408, -0.937339851612786 
4.700000000002385, -0.9371691478450929 
4.710000000002362, -0.9375451798144603 
4.720000000002338, -0.93851780642799 
4.730000000002315, -0.9400055425730018 
4.740000000002292, -0.9418684004635471 
4.750000000002268, -0.9439760502387535 
4.760000000002245, -0.9462294761660788 
4.770000000002222, -0.9485546647610839 
4.7800000000021985, -0.9509010357541559 
4.790000000002175, -0.9532505540649717 
4.800000000002152, -0.9556199220386035 
4.810000000002129, -0.9580397850718206 
4.820000000002105, -0.9605112846509073 
4.830000000002082, -0.962957309934518 
4.840000000002059, -0.9652021066189633 
4.850000000002035, -0.9670167780886242 
4.860000000002012, -0.9682226232438836 
4.870000000001989, -0.9687748460622789 
4.880000000001965, -0.9687689797598458 
4.890000000001942, -0.9684070908380227 
4.900000000001919, -0.9679828674487647 
4.9100000000018955, -0.9678731359447168 
4.920000000001872, -0.9684636541693026 
4.930000000001849, -0.9699904174104305 
