t, s[1].omega / s[0].omega 
0, -0.619251523266281 
0.009999999999999995, -0.5578368422715566 
0.019999999999999934, -0.5173408343443828 
0.029999999999999874, -0.49035496503124093 
0.04000000000000012, -0.4719369669538752 
0.050000000000000405, -0.4590895052463675 
0.06000000000000069, -0.4500048735784474 
0.07000000000000098, -0.4435657554999682 
0.08000000000000126, -0.43905713653210665 
0.09000000000000155, -0.43600403929723497 
0.10000000000000184, -0.43407992512963683 
0.11000000000000212, -0.43305514756068464 
0.12000000000000241, -0.4327689013899839 
0.130000000000002, -0.43311583772498186 
0.1400000000000009, -0.43404302072306783 
0.1499999999999998, -0.43555574951676795 
0.1599999999999987, -0.4377326543471137 
0.1699999999999976, -0.4407520714669434 
0.1799999999999965, -0.44493443499734625 
0.1899999999999954, -0.4508103094056599 
0.1999999999999943, -0.4592243954420316 
0.2099999999999932, -0.4714508128800522 
0.2199999999999921, -0.4891340123466891 
0.229999999999991, -0.5134836673424805 
0.2399999999999899, -0.5431367118554774 
0.2499999999999888, -0.572607487319382 
0.2599999999999877, -0.5956476663191422 
0.2699999999999866, -0.6103038959050378 
0.2799999999999855, -0.6184304271538197 
0.2899999999999844, -0.6225071545418123 
0.2999999999999833, -0.624191863958375 
0.3099999999999822, -0.6242836156418441 
0.3199999999999811, -0.6229281023489637 
0.32999999999998, -0.6196013103658001 
0.3399999999999789, -0.6125910423196458 
0.3499999999999778, -0.5971531184868766 
0.35999999999997667, -0.5594574784957562 
0.36999999999997557, -0.4596510318685681 
0.37999999999997447, -0.23240117054871473 
0.38999999999997337, 0.03504166857619727 
0.39999999999997227, 0.17284350632672713 
0.40999999999997117, 0.22306933595519682 
0.41999999999997006, 0.24204016864042566 
0.42999999999996896, 0.25001456066793737 
0.43999999999996786, 0.25356485001617696 
0.44999999999996676, 0.2550399290062826 
0.45999999999996566, 0.2553951188561673 
0.46999999999996456, 0.2550951885951952 
0.47999999999996346, 0.2544386494185945 
0.48999999999996235, 0.253676091675577 
0.49999999999996125, 0.25304317148251015 
0.5099999999999602, 0.25277034769828727 
0.519999999999959, 0.25310797616020253 
0.529999999999958, 0.254372650127201 
0.5399999999999568, 0.2569746062641776 
0.5499999999999557, 0.26132104865006367 
0.5599999999999546, 0.2674718021113716 
0.5699999999999535, 0.2747050222177326 
0.5799999999999524, 0.28163828000252467 
0.5899999999999513, 0.28708520805794385 
0.5999999999999502, 0.29065467397907346 
0.6099999999999491, 0.29253392572394094 
0.619999999999948, 0.2930055506153332 
0.6299999999999469, 0.29213829818476933 
0.6399999999999458, 0.2896061472845833 
0.6499999999999447, 0.2844748964222265 
0.6599999999999436, 0.2749654301828276 
0.6699999999999425, 0.25882604793875785 
0.6799999999999414, 0.23586039001854636 
0.6899999999999403, 0.21128314745175092 
0.6999999999999392, 0.1922442651703156 
0.7099999999999381, 0.18078352787531035 
0.719999999999937, 0.1747409654893164 
0.7299999999999359, 0.17168288491693226 
0.7399999999999348, 0.17014103855279675 
0.7499999999999337, 0.16937185670093075 
0.7599999999999326, 0.1689941453910075 
0.7699999999999315, 0.16877354221841512 
0.7799999999999304, 0.16851319959606206 
0.7899999999999293, 0.16799573080050778 
0.7999999999999282, 0.16693300473530875 
0.8099999999999271, 0.16486864391972447 
0.819999999999926, 0.1609261237921251 
0.8299999999999249, 0.1531158205289939 
0.8399999999999238, 0.1362545472636965 
0.8499999999999227, 0.09518872427631377 
0.8599999999999216, -0.014610118778890967 
0.8699999999999205, -0.2646155347231066 
0.8799999999999194, -0.5537528428244902 
0.8899999999999183, -0.7053680597467522 
0.8999999999999172, -0.7624963989430806 
0.9099999999999161, -0.7841301953570652 
0.919999999999915, -0.7929471625747521 
0.9299999999999139, -0.796587456482507 
0.9399999999999128, -0.7977019300451973 
0.9499999999999117, -0.7970904367404419 
0.9599999999999106, -0.7945316381964853 
0.9699999999999095, -0.7885659889755445 
0.9799999999999084, -0.7749342016950665 
0.9899999999999073, -0.7414702282758932 
0.9999999999999062, -0.6545917046136351 
1.0099999999999052, -0.45607908652876816 
1.019999999999904, -0.19219922905080714 
1.029999999999903, -0.026839437043781972 
1.039999999999902, 0.04194337568490705 
1.0499999999999008, 0.069797254335345 
1.0599999999998997, 0.0821803903591116 
1.0699999999998986, 0.08816693623682761 
1.0799999999998975, 0.09118140243052088 
1.0899999999998964, 0.09266781792065817 
1.0999999999998953, 0.0933184335331996 
1.1099999999998942, 0.093514745983137 
1.119999999999893, 0.09349637462110998 
1.129999999999892, 0.09343369231851152 
1.1399999999998909, 0.09347714433406176 
1.1499999999998898, 0.09382807866609136 
1.1599999999998887, 0.09489746227442128 
1.1699999999998876, 0.09773173206175298 
1.1799999999998865, 0.10519058772157937 
1.1899999999998854, 0.12456200383467075 
1.1999999999998843, 0.16820587250880886 
1.2099999999998832, 0.2353730646598097 
1.219999999999882, 0.2950542531031008 
1.229999999999881, 0.3290203999648794 
1.2399999999998799, 0.3449131808765266 
1.2499999999998788, 0.35205225082170777 
1.2599999999998777, 0.3551313408998086 
1.2699999999998766, 0.3560968722933085 
1.2799999999998755, 0.35567007913530285 
1.2899999999998744, 0.35402637079397714 
1.2999999999998733, 0.3511318532323348 
1.3099999999998722, 0.34702874736535894 
1.319999999999871, 0.3421065233000691 
1.32999999999987, 0.3371326573947968 
1.3399999999998689, 0.33289728122538553 
1.3499999999998678, 0.3298186302545878 
1.3599999999998666, 0.3279006341359078 
1.3699999999998655, 0.3269340659369362 
1.3799999999998644, 0.32666494850058014 
1.3899999999998633, 0.3268496271000825 
1.3999999999998622, 0.3272491752486645 
1.4099999999998611, 0.3276192192750787 
1.41999999999986, 0.3277093075015648 
1.429999999999859, 0.3272440013735535 
1.4399999999998578, 0.32583052377902366 
1.4499999999998567, 0.32269034122504553 
1.4599999999998556, 0.31589406157073013 
1.4699999999998545, 0.2998287681178718 
1.4799999999998534, 0.2553467744076682 
1.4899999999998523, 0.11223226399189237 
1.4999999999998512, -0.2607480128716134 
1.5099999999998501, -0.6395259449750761 
1.519999999999849, -0.7967527036796869 
1.529999999999848, -0.8494097738161914 
1.5399999999998468, -0.86853030429646 
1.5499999999998457, -0.8761306338200885 
1.5599999999998446, -0.8791107821749842 
1.5699999999998435, -0.8797613992339072 
1.5799999999998424, -0.8786500253753917 
1.5899999999998413, -0.8752466413641165 
1.5999999999998402, -0.8673484788085032 
1.6099999999998391, -0.8482929295759247 
1.619999999999838, -0.796312395691172 
1.629999999999837, -0.6338972147814275 
1.6399999999998358, -0.18649978684110713 
1.6499999999998347, 0.2765039687287353 
1.6599999999998336, 0.42794389399617694 
1.6699999999998325, 0.4679494406718289 
1.6799999999998314, 0.4808429241869341 
1.6899999999998303, 0.48566297151186577 
1.6999999999998292, 0.4873936178502046 
1.709999999999828, 0.4875895127590565 
1.719999999999827, 0.48679144688531323 
1.729999999999826, 0.4852331459094009 
1.7399999999998248, 0.48312634178887076 
1.7499999999998237, 0.48078083286718376 
1.7599999999998226, 0.4785802630630678 
1.7699999999998215, 0.47685857185616987 
1.7799999999998204, 0.4757960672313425 
1.7899999999998193, 0.47540490406539676 
1.7999999999998182, 0.4755692095714815 
1.809999999999817, 0.47608789537413587 
1.819999999999816, 0.47671143372819713 
1.8299999999998149, 0.4771787052753053 
1.8399999999998138, 0.4772343124256631 
1.8499999999998127, 0.476581349072989 
1.8599999999998116, 0.4746989113176208 
1.8699999999998105, 0.4703095108292006 
1.8799999999998094, 0.4595475576743221 
1.8899999999998083, 0.4277575525279853 
1.8999999999998072, 0.3008042058921542 
1.909999999999806, -0.2832478141204907 
1.919999999999805, -1.1577850193214925 
1.9299999999998039, -1.4351486146927248 
1.9399999999998028, -1.4974574991116638 
1.9499999999998017, -1.5141107668270493 
1.9599999999998006, -1.5191155675819252 
1.9699999999997995, -1.5202856352936451 
1.9799999999997984, -1.519791538212672 
1.9899999999997973, -1.5187653790022249 
1.9999999999997962, -1.5191842818028518 
2.0099999999998173, -1.5234212834267733 
2.0199999999998384, -1.5307538671975633 
2.0299999999998595, -1.5380497619342042 
2.0399999999998806, -1.543675945524575 
2.0499999999999017, -1.5476693562776302 
2.059999999999923, -1.5504513174175938 
2.069999999999944, -1.55230409624227 
2.079999999999965, -1.5533690588084474 
2.089999999999986, -1.5537240048283194 
2.100000000000007, -1.55340808293567 
2.1100000000000283, -1.5524191787738093 
2.1200000000000494, -1.550714883703153 
2.1300000000000705, -1.5482147834919033 
2.1400000000000916, -1.544770193847053 
2.1500000000001127, -1.5400855748657003 
2.160000000000134, -1.5337555553357827 
2.170000000000155, -1.5258782177620902 
2.180000000000176, -1.518318528976042 
2.190000000000197, -1.5140838914784316 
2.2000000000002182, -1.5134129545090227 
2.2100000000002393, -1.5138764316582751 
2.2200000000002604, -1.513671319103658 
2.2300000000002815, -1.5116706409809386 
2.2400000000003026, -1.5054333988550606 
2.2500000000003237, -1.486069193798824 
2.260000000000345, -1.4149027299536385 
2.270000000000366, -1.1072663989528873 
2.280000000000387, -0.25406164893270844 
2.290000000000408, 0.25630032289905647 
2.3000000000004293, 0.3724560329652273 
2.3100000000004504, 0.40312770022718397 
2.3200000000004715, 0.41365085393724554 
2.3300000000004926, 0.4178231340721067 
2.3400000000005137, 0.4194552444614922 
2.3500000000005348, 0.41985938697978353 
2.360000000000556, 0.41959533713852437 
2.370000000000577, 0.41898510264367594 
2.380000000000598, 0.41828716443111935 
2.390000000000619, 0.4177504339094697 
2.4000000000006403, 0.41762387434080434 
2.4100000000006614, 0.4181534697576617 
2.4200000000006825, 0.419558789953611 
2.4300000000007036, 0.4219508376447811 
2.4400000000007247, 0.425186710591494 
2.450000000000746, 0.42878668825108424 
2.460000000000767, 0.43209232328149083 
2.470000000000788, 0.43458397821600225 
2.480000000000809, 0.4360344371924839 
2.49000000000083, 0.4363851002927749 
2.5000000000008513, 0.435486366763356 
2.5100000000008724, 0.43274133637878603 
2.5200000000008935, 0.42633427929796053 
2.5300000000009146, 0.4108739377860255 
2.5400000000009357, 0.36990304567835924 
2.550000000000957, 0.2631696817480117 
2.560000000000978, 0.08308278165728515 
2.570000000000999, -0.04782760469869779 
2.58000000000102, -0.09811915527045627 
2.5900000000010412, -0.11476048538191945 
2.6000000000010624, -0.12083171395721026 
2.6100000000010835, -0.12338093646199207 
2.6200000000011046, -0.12454199086830275 
2.6300000000011257, -0.12503139582126305 
2.6400000000011468, -0.12512307706042664 
2.650000000001168, -0.12494628440853192 
2.660000000001189, -0.12459701114237831 
2.67000000000121, -0.12419086649760366 
2.680000000001231, -0.1238867036023276 
2.6900000000012523, -0.12388884073777776 
2.7000000000012734, -0.12444630113398472 
2.7100000000012945, -0.12588036412800271 
2.7200000000013156, -0.12866535529192832 
2.7300000000013367, -0.13356222695693992 
2.740000000001358, -0.14173322957377973 
2.750000000001379, -0.1545392687921699 
2.7600000000014, -0.1724088507249789 
2.770000000001421, -0.19300913647323248 
2.780000000001442, -0.2116782202359972 
2.7900000000014633, -0.22517616087982817 
2.8000000000014844, -0.23347725070813213 
2.8100000000015055, -0.23807134013210368 
2.8200000000015266, -0.2403198937037221 
2.8300000000015477, -0.2410294126227503 
2.840000000001569, -0.24054130286732414 
2.85000000000159, -0.23887237474366993 
2.860000000001611, -0.23583126586965317 
2.870000000001632, -0.2311919626039746 
2.8800000000016532, -0.22500665821544746 
2.8900000000016743, -0.2179110507540276 
2.9000000000016954, -0.21099703775649084 
2.9100000000017165, -0.20520999478077423 
2.9200000000017377, -0.20092598481191085 
2.9300000000017588, -0.19805500639404075 
2.94000000000178, -0.1963364822293805 
2.950000000001801, -0.19551720908430587 
2.960000000001822, -0.19538610510888269 
2.970000000001843, -0.1957419078271158 
2.9800000000018643, -0.19636200991927819 
2.9900000000018854, -0.1970118305609886 
3.0000000000019065, -0.1974873257272553 
3.0100000000019276, -0.19764505457899165 
3.0200000000019487, -0.19738686811060374 
3.03000000000197, -0.1966012537355683 
3.040000000001991, -0.19506046774142266 
3.050000000002012, -0.19220746921579884 
3.060000000002033, -0.18657824054920774 
3.070000000002054, -0.17400817245645758 
3.0800000000020753, -0.1422360964037647 
3.0900000000020964, -0.06198031782212136 
3.1000000000021175, 0.08256602948073416 
3.1100000000021386, 0.213093409629521 
3.1200000000021597, 0.2777166555728022 
3.130000000002181, 0.3037234658925418 
3.140000000002202, 0.3144158048905576 
3.150000000002223, 0.31901408617364324 
3.160000000002244, 0.32085660861957654 
3.1700000000022652, 0.3211998764800231 
3.1800000000022863, 0.32054222750368944 
3.1900000000023074, 0.3191254657403707 
3.2000000000023285, 0.31716920345337585 
3.2100000000023496, 0.31497235852597577 
3.2200000000023707, 0.3128924262697148 
3.230000000002392, 0.31124898066664536 
3.240000000002413, 0.31025160546288405 
3.250000000002434, 0.3100002778386381 
3.260000000002455, 0.31051549218203167 
3.2700000000024763, 0.31173875488085334 
3.2800000000024974, 0.31349544867181994 
3.2900000000025185, 0.31547528215548853 
3.3000000000025396, 0.31729431123702223 
3.3100000000025607, 0.3186130683025209 
3.3200000000025818, 0.31919746374508995 
3.330000000002603, 0.31885133240558117 
3.340000000002624, 0.31722630294698434 
3.350000000002645, 0.31345555525569974 
3.360000000002666, 0.30528507552383927 
3.3700000000026873, 0.2866946610000288 
3.3800000000027084, 0.24224862616656964 
3.3900000000027295, 0.1463830832292376 
3.4000000000027506, 0.014654710263781356 
3.4100000000027717, -0.07660706945635364 
3.420000000002793, -0.11603219392612238 
3.430000000002814, -0.13116229427733556 
3.440000000002835, -0.1373506219227407 
3.450000000002856, -0.14012156991155875 
3.460000000002877, -0.1413926760131203 
3.4700000000028983, -0.14187620711362353 
3.4800000000029194, -0.1418622682829588 
3.4900000000029405, -0.14149239920523657 
3.5000000000029616, -0.1408757488255918 
3.5100000000029827, -0.14014786541090704 
3.520000000003004, -0.13949131970337394 
3.530000000003025, -0.13912390651979994 
3.540000000003046, -0.13928007809228188 
3.550000000003067, -0.14022232024498926 
3.5600000000030882, -0.14229733405985887 
3.5700000000031094, -0.14601387282614825 
3.5800000000031305, -0.15206151900234996 
3.5900000000031516, -0.16107539359419998 
3.6000000000031727, -0.1729282199475492 
3.6100000000031938, -0.1859803544591273 
3.620000000003215, -0.19766200195577668 
3.630000000003236, -0.20628359821382722 
3.640000000003257, -0.2117559233182817 
3.650000000003278, -0.2148027106361031 
3.6600000000032993, -0.21614029004919036 
3.6700000000033204, -0.21618511631046058 
3.6800000000033415, -0.2150383415259347 
3.6900000000033626, -0.21253000312936537 
3.7000000000033837, -0.20830291304049794 
3.710000000003405, -0.20204836189915093 
3.720000000003426, -0.19396543050226578 
3.730000000003447, -0.18509877013768866 
3.740000000003468, -0.17692390321853388 
3.750000000003489, -0.17044922793826373 
3.7600000000035103, -0.16587268614372846 
3.7700000000035314, -0.16291047021853677 
3.7800000000035525, -0.16118426039931566 
3.7900000000035736, -0.16038494910126616 
3.8000000000035947, -0.16027596207000533 
3.810000000003616, -0.16064276628402638 
3.820000000003637, -0.16125627581216284 
3.830000000003658, -0.16188171562325226 
3.840000000003679, -0.16231807715464713 
3.8500000000037002, -0.1624212364755668 
3.8600000000037213, -0.1620806448261996 
3.8700000000037424, -0.16115001762017223 
3.8800000000037635, -0.1593199572822293 
3.8900000000037847, -0.15583962051422787 
3.9000000000038058, -0.14877772949064416 
3.910000000003827, -0.13298195163679782 
3.920000000003848, -0.0957159343122502 
3.930000000003869, -0.017936689521572652 
3.94000000000389, 0.08814394273510498 
3.9500000000039113, 0.1687386620081019 
3.9600000000039324, 0.20941073755151113 
3.9700000000039535, 0.22749155577667307 
3.9800000000039746, 0.2356170135262196 
3.9900000000039957, 0.23930864606064123 
4.000000000004016, 0.24079698859585089 
4.010000000003993, 0.24100550787768596 
4.02000000000397, 0.24035087245840106 
4.030000000003946, 0.23908642646586004 
4.040000000003923, 0.2374620009032818 
4.0500000000039, 0.23576967855980385 
4.0600000000038765, 0.2343068328158912 
4.070000000003853, 0.2333212469652703 
4.08000000000383, 0.2329994714883356 
4.090000000003807, 0.23349738106788945 
4.100000000003783, 0.2349603610036762 
4.11000000000376, 0.2374729962516433 
4.120000000003737, 0.24091998344880472 
4.130000000003713, 0.24486099158163702 
4.14000000000369, 0.24862106034426468 
4.150000000003667, 0.2516034922061427 
4.1600000000036434, 0.2535145043077097 
4.17000000000362, 0.254301559059405 
4.180000000003597, 0.2539334494203965 
4.1900000000035735, 0.2521686816661663 
4.20000000000355, 0.24828627815428664 
4.210000000003527, 0.24065807450460558 
4.220000000003504, 0.2262387548575438 
4.23000000000348, 0.20129763406251783 
4.240000000003457, 0.16658859950272759 
4.250000000003434, 0.1324600052558818 
4.26000000000341, 0.1090329004997564 
4.270000000003387, 0.09635610773305524 
4.280000000003364, 0.09008805072188647 
4.2900000000033405, 0.08698647892249284 
4.300000000003317, 0.08541338573549596 
4.310000000003294, 0.0846185459818263 
4.320000000003271, 0.08424249282918697 
4.330000000003247, 0.08407429115151963 
4.340000000003224, 0.08393899842101005 
4.350000000003201, 0.08364495423335397 
4.360000000003177, 0.08295394806243331 
4.370000000003154, 0.08153657177475906 
4.380000000003131, 0.07885497781708041 
4.390000000003107, 0.07386445652563056 
4.400000000003084, 0.064269979629128 
4.410000000003061, 0.044675316578434085 
4.4200000000030375, 0.0026880291911258506 
4.430000000003014, -0.08178602569170021 
4.440000000002991, -0.20734689434875042 
4.450000000002968, -0.3156249963308864 
4.460000000002944, -0.373973275238436 
4.470000000002921, -0.3999213387812416 
4.480000000002898, -0.41142718148709 
4.490000000002874, -0.41675300312638097 
4.500000000002851, -0.41917757884478507 
4.510000000002828, -0.4199824827490846 
4.520000000002804, -0.41961401796643055 
4.530000000002781, -0.41810151109646787 
4.540000000002758, -0.4152302684012592 
4.5500000000027345, -0.4107115426319444 
4.560000000002711, -0.4044909591406932 
4.570000000002688, -0.39709697528510585 
4.580000000002665, -0.3895979146593886 
4.590000000002641, -0.38302380183391704 
4.600000000002618, -0.37786859211095875 
4.610000000002595, -0.3741151902147395 
4.620000000002571, -0.37151200390572847 
4.630000000002548, -0.36977018330113676 
4.640000000002525, -0.3686312352118716 
4.6500000000025015, -0.3678750684184893 
4.660000000002478, -0.3673233437791095 
4.670000000002455, -0.3668520925058319 
4.6800000000024315, -0.36640435160768076 
4.690000000002408, -0.36599775790036393 
4.700000000002385, -0.3657393707566974 
4.710000000002362, -0.36587512331178035 
4.720000000002338, -0.36692301931120375 
4.730000000002315, -0.37000328518132075 
4.740000000002292, -0.3776742559251368 
4.750000000002268, -0.3961882993154911 
4.760000000002245, -0.4419732086259221 
4.770000000002222, -0.5595598983940331 
4.7800000000021985, -0.843523931688915 
4.790000000002175, -1.2892756850102762 
4.800000000002152, -1.6134322419031215 
4.810000000002129, -1.7599361873757762 
4.820000000002105, -1.8234904889320975 
4.830000000002082, -1.8528126005619536 
4.840000000002059, -1.8666056495285208 
4.850000000002035, -1.872820219338212 
4.860000000002012, -1.8752272806028618 
4.870000000001989, -1.8756752973035933 
4.880000000001965, -1.8751202702132272 
4.890000000001942, -1.8741135411000485 
4.900000000001919, -1.8727786931115262 
4.9100000000018955, -1.8708891343075957 
