t, s[1].omega / s[0].omega 
0, -1.560244152641634 
0.009999999999999995, -1.579765033652671 
0.019999999999999934, -1.5917426544846942 
0.029999999999999874, -1.5985486570740641 
0.04000000000000012, -1.6019433657172264 
0.050000000000000405, -1.6032214865453196 
0.06000000000000069, -1.603261901705339 
0.07000000000000098, -1.6026886279167318 
0.08000000000000126, -1.601977319499858 
0.09000000000000155, -1.6013156680561107 
0.10000000000000184, -1.6005670433887906 
0.11000000000000212, -1.5996833723272033 
0.12000000000000241, -1.5989818099541524 
0.130000000000002, -1.5987176807964434 
0.1400000000000009, -1.5985702838677065 
0.1499999999999998, -1.597836890738011 
0.1599999999999987, -1.5956087946807886 
0.1699999999999976, -1.5903070571128086 
0.1799999999999965, -1.5787505190052393 
0.1899999999999954, -1.5550481793238657 
0.1999999999999943, -1.5099023595233927 
0.2099999999999932, -1.4306991705370864 
0.2199999999999921, -1.3027228006417082 
0.229999999999991, -1.1183788311656433 
0.2399999999999899, -0.9044276217012147 
0.2499999999999888, -0.7235087096621319 
0.2599999999999877, -0.6094803436157759 
0.2699999999999866, -0.5492403309417171 
0.2799999999999855, -0.519868115035462 
0.2899999999999844, -0.5061105939879161 
0.2999999999999833, -0.4999113328599181 
0.3099999999999822, -0.4972888705411577 
0.3199999999999811, -0.49630361823567937 
0.32999999999998, -0.4960070445733519 
0.3399999999999789, -0.49592838740049283 
0.3499999999999778, -0.4958300651181521 
0.35999999999997667, -0.49559921298371207 
0.36999999999997557, -0.4952107026623517 
0.37999999999997447, -0.49472133082686 
0.38999999999997337, -0.4942603053657332 
0.39999999999997227, -0.4939961995151852 
0.40999999999997117, -0.49409159218134063 
0.41999999999997006, -0.49466929463939174 
0.42999999999996896, -0.4957906357274511 
0.43999999999996786, -0.4974251220954723 
0.44999999999996676, -0.49941112559108064 
0.45999999999996566, -0.5014561389111163 
0.46999999999996456, -0.5032264299901169 
0.47999999999996346, -0.5044796457761015 
0.48999999999996235, -0.5051265619412895 
0.49999999999996125, -0.5051912879776327 
0.5099999999999602, -0.5047403210162456 
0.519999999999959, -0.5038483506194649 
0.529999999999958, -0.5026370447562711 
0.5399999999999568, -0.5014618019985179 
0.5499999999999557, -0.5015392639377169 
0.5599999999999546, -0.5071768307555693 
0.5699999999999535, -0.5348530627326825 
0.5799999999999524, -0.6584943598835419 
0.5899999999999513, -1.2405085875001978 
0.5999999999999502, -2.241854730880536 
0.6099999999999491, -2.480720720066902 
0.619999999999948, -2.5251043885734004 
0.6299999999999469, -2.5379380874457933 
0.6399999999999458, -2.542360840744572 
0.6499999999999447, -2.5434527562985503 
0.6599999999999436, -2.5426204713710026 
0.6699999999999425, -2.539915530371602 
0.6799999999999414, -2.5336267632154774 
0.6899999999999403, -2.517993325765416 
0.6999999999999392, -2.493789607760026 
0.7099999999999381, -2.4919126323021077 
0.719999999999937, -2.4970359610197224 
0.7299999999999359, -2.4979815492863895 
0.7399999999999348, -2.496053127458297 
0.7499999999999337, -2.4940595370798655 
0.7599999999999326, -2.5003922822526965 
0.7699999999999315, -2.508638439214862 
0.7799999999999304, -2.512563546143698 
0.7899999999999293, -2.5140054021552856 
0.7999999999999282, -2.5140292651904246 
0.8099999999999271, -2.512220839495515 
0.819999999999926, -2.506507276881948 
0.8299999999999249, -2.4894383841142407 
0.8399999999999238, -2.426334199641347 
0.8499999999999227, -2.0611586587296538 
0.8599999999999216, -0.4202562652044885 
0.8699999999999205, 0.32709030928503957 
0.8799999999999194, 0.44475191923596247 
0.8899999999999183, 0.4732971774270645 
0.8999999999999172, 0.48291502453428803 
0.9099999999999161, 0.48666249939767015 
0.919999999999915, 0.4880070363976044 
0.9299999999999139, 0.48805424547328763 
0.9399999999999128, 0.487101199011588 
0.9499999999999117, 0.4850142175677944 
0.9599999999999106, 0.481297569739512 
0.9699999999999095, 0.4754922076830955 
0.9799999999999084, 0.47155782728845963 
0.9899999999999073, 0.5030326022945817 
0.9999999999999062, 0.6371007159744337 
1.0099999999999052, 0.7658737027198875 
1.019999999999904, 0.8137852590818582 
1.029999999999903, 0.828643932167107 
1.039999999999902, 0.8335350031800284 
1.0499999999999008, 0.8348005250085677 
1.0599999999998997, 0.8339707821692344 
1.0699999999998986, 0.8306367127136237 
1.0799999999998975, 0.8221966632908139 
1.0899999999998964, 0.8016264617228321 
1.0999999999998953, 0.7586927533001381 
1.1099999999998942, 0.7064475342439016 
1.119999999999893, 0.6806339243923998 
1.129999999999892, 0.6768394824298916 
1.1399999999998909, 0.6785875288522065 
1.1499999999998898, 0.680361378278995 
1.1599999999998887, 0.681275054895269 
1.1699999999998876, 0.6812514906541649 
1.1799999999998865, 0.6800450270051728 
1.1899999999998854, 0.6766933422346317 
1.1999999999998843, 0.667884898352795 
1.2099999999998832, 0.6395674865150545 
1.219999999999882, 0.49842416815113844 
1.229999999999881, -0.7365360802964944 
1.2399999999998799, -2.5855996140971973 
1.2499999999998788, -2.7760794634394372 
1.2599999999998777, -2.8048075443434164 
1.2699999999998766, -2.8120900985070256 
1.2799999999998755, -2.8138003523588955 
1.2899999999998744, -2.8130839849980873 
1.2999999999998733, -2.810185113569124 
1.3099999999998722, -2.8023057826582245 
1.319999999999871, -2.7798128452198516 
1.32999999999987, -2.7588510237896213 
1.3399999999998689, -2.766127369911079 
1.3499999999998678, -2.7694029983151878 
1.3599999999998666, -2.768713602331808 
1.3699999999998655, -2.7671261637301363 
1.3799999999998644, -2.770198570760273 
1.3899999999998633, -2.7743640427076 
1.3999999999998622, -2.7760025951325438 
1.4099999999998611, -2.776315602611613 
1.41999999999986, -2.7752943235083967 
1.429999999999859, -2.7703999451989114 
1.4399999999998578, -2.747207103169753 
1.4499999999998567, -2.5514094948463466 
1.4599999999998556, -0.27181211822701545 
1.4699999999998545, 0.7936070770541381 
1.4799999999998534, 0.8770032688873461 
1.4899999999998523, 0.8923516430759003 
1.4999999999998512, 0.8966464097750413 
1.5099999999998501, 0.8978508778078924 
1.519999999999849, 0.897790841421598 
1.529999999999848, 0.8970139438495919 
1.5399999999998468, 0.8957506228841403 
1.5499999999998457, 0.8942061451100308 
1.5599999999998446, 0.8926518977304434 
1.5699999999998435, 0.8913720319409137 
1.5799999999998424, 0.890530338360658 
1.5899999999998413, 0.8900936885805424 
1.5999999999998402, 0.8898715667279571 
1.6099999999998391, 0.8895909050421853 
1.619999999999838, 0.8888902541221173 
1.629999999999837, 0.8871037084130096 
1.6399999999998358, 0.8823602112027276 
1.6499999999998347, 0.8669758194098731 
1.6599999999998336, 0.7880439944344508 
1.6699999999998325, -0.18403576126884122 
1.6799999999998314, -2.6057203970488936 
1.6899999999998303, -2.835162740915778 
1.6999999999998292, -2.862525637634998 
1.709999999999828, -2.8679294169390404 
1.719999999999827, -2.868526618052995 
1.729999999999826, -2.867261899704385 
1.7399999999998248, -2.864019758466963 
1.7499999999998237, -2.8561136169581074 
1.7599999999998226, -2.8471114090398655 
1.7699999999998215, -2.8485519125622996 
1.7799999999998204, -2.849929967635413 
1.7899999999998193, -2.8480428142471728 
1.7999999999998182, -2.8446187529610816 
1.809999999999817, -2.852022175227221 
1.819999999999816, -2.8609371489351334 
1.8299999999998149, -2.8641676823206987 
1.8399999999998138, -2.864933922557802 
1.8499999999998127, -2.8639579688318366 
1.8599999999998116, -2.8592699317221184 
1.8699999999998105, -2.840104832257569 
1.8799999999998094, -2.7168142866744627 
1.8899999999998083, -1.098534306126443 
1.8999999999998072, 0.7006477902180401 
1.909999999999806, 0.8429976621592747 
1.919999999999805, 0.8655586251844744 
1.9299999999998039, 0.8715959347490925 
1.9399999999998028, 0.8735035366652714 
1.9499999999998017, 0.8739915010559212 
1.9599999999998006, 0.8739458622493279 
1.9699999999997995, 0.8738141540783442 
1.9799999999997984, 0.8739376647942058 
1.9899999999997973, 0.8745895997044505 
1.9999999999997962, 0.8758717773671092 
2.0099999999998173, 0.8776052607118741 
2.0199999999998384, 0.879389670219161 
2.0299999999998595, 0.8808239479126518 
2.0399999999998806, 0.8816579406029443 
2.0499999999999017, 0.8817345983820294 
2.059999999999923, 0.8807495179013266 
2.069999999999944, 0.877670286988611 
2.079999999999965, 0.8684334107430696 
2.089999999999986, 0.8306598222763689 
2.100000000000007, 0.5183634056947951 
2.1100000000000283, -1.9082305497657828 
2.1200000000000494, -2.588746724256672 
2.1300000000000705, -2.6444270197792976 
2.1400000000000916, -2.6534451189736545 
2.1500000000001127, -2.6549462461402595 
2.160000000000134, -2.6544536991022314 
2.170000000000155, -2.653209766316076 
2.180000000000176, -2.6507512157391284 
2.190000000000197, -2.6469831798289825 
2.2000000000002182, -2.6455055280042523 
2.2100000000002393, -2.6458980799309546 
2.2200000000002604, -2.6443699074002383 
2.2300000000002815, -2.6361583833432642 
2.2400000000003026, -2.6181044309759733 
2.2500000000003237, -2.67363271074157 
2.260000000000345, -2.7212182746968505 
2.270000000000366, -2.7343649944393222 
2.280000000000387, -2.738337230077846 
2.290000000000408, -2.7392228460294055 
2.3000000000004293, -2.7380496250608912 
2.3100000000004504, -2.733997076557462 
2.3200000000004715, -2.7226719100600354 
2.3300000000004926, -2.6799602427922333 
2.3400000000005137, -2.4106811716424326 
2.3500000000005348, -1.8203840276775598 
2.360000000000556, -1.8778020418057018 
2.370000000000577, -1.9283514845119492 
2.380000000000598, -1.9407777143825957 
2.390000000000619, -1.9436153333118953 
2.4000000000006403, -1.94342324551768 
2.4100000000006614, -1.9421113431263912 
2.4200000000006825, -1.9424883394362342 
2.4300000000007036, -1.9470638099591173 
2.4400000000007247, -1.9527531676062064 
2.450000000000746, -1.9566273614910745 
2.460000000000767, -1.9587975457878386 
2.470000000000788, -1.9598730924832075 
2.480000000000809, -1.9599792551382318 
2.49000000000083, -1.9588921173709068 
2.5000000000008513, -1.956138811390007 
2.5100000000008724, -1.9508523297119844 
2.5200000000008935, -1.9413022875440042 
2.5300000000009146, -1.9234350635117905 
2.5400000000009357, -1.8861551168372472 
2.550000000000957, -1.7984050283472974 
2.560000000000978, -1.6202019191693153 
2.570000000000999, -1.4722876504855276 
2.58000000000102, -1.4552144003874656 
2.5900000000010412, -1.469034651870428 
2.6000000000010624, -1.4770954340484792 
2.6100000000010835, -1.480080390205399 
2.6200000000011046, -1.4803018933232388 
2.6300000000011257, -1.4782032813275072 
2.6400000000011468, -1.4726099394316814 
2.650000000001168, -1.4622588572502067 
2.660000000001189, -1.4621486337405978 
2.67000000000121, -1.536513473909964 
2.680000000001231, -1.6756298407954933 
2.6900000000012523, -1.7693163458484775 
2.7000000000012734, -1.8141578141313743 
2.7100000000012945, -1.836281321735766 
2.7200000000013156, -1.84824498491554 
2.7300000000013367, -1.854997923062356 
2.740000000001358, -1.8586510913292718 
2.750000000001379, -1.8602614655682426 
2.7600000000014, -1.860445935568799 
2.770000000001421, -1.8595947542974465 
2.780000000001442, -1.8579294424553432 
2.7900000000014633, -1.8553885092152427 
2.8000000000014844, -1.8515830608230566 
2.8100000000015055, -1.8466443212312655 
2.8200000000015266, -1.8426919388396457 
2.8300000000015477, -1.8416890183931005 
2.840000000001569, -1.8420174158666474 
2.85000000000159, -1.841486120394339 
2.860000000001611, -1.8382713087014637 
2.870000000001632, -1.826562780476679 
2.8800000000016532, -1.7754768996669283 
2.8900000000016743, -1.4791050444983496 
2.9000000000016954, 0.3706133636324943 
2.9100000000017165, 1.9681170355350204 
2.9200000000017377, 2.018842815787841 
2.9300000000017588, 2.0239808654334728 
2.94000000000178, 2.023641639675124 
2.950000000001801, 2.017886072157009 
2.960000000001822, 1.9715004649203416 
2.970000000001843, 1.1981161921677104 
2.9800000000018643, 1.0924018185731508 
2.9900000000018854, 1.2180481721700906 
3.0000000000019065, 1.2400759424161802 
3.0100000000019276, 1.24527572352655 
3.0200000000019487, 1.2463417306646551 
3.03000000000197, 1.2457803434427621 
3.040000000001991, 1.2444788190783167 
3.050000000002012, 1.2441199715679532 
3.060000000002033, 1.2486373067464336 
3.070000000002054, 1.2594157974592304 
3.0800000000020753, 1.2700499785885806 
3.0900000000020964, 1.2762809299047493 
3.1000000000021175, 1.2789647746640118 
3.1100000000021386, 1.2794896098943371 
3.1200000000021597, 1.2780773089688933 
3.130000000002181, 1.2723693501072977 
3.140000000002202, 1.2448760997999306 
3.150000000002223, 0.8916245165206556 
3.160000000002244, -2.59534236776592 
3.1700000000022652, -2.98535936030253 
3.1800000000022863, -3.0106779879228958 
3.1900000000023074, -3.0142487969776983 
3.2000000000023285, -3.0140854021042323 
3.2100000000023496, -3.0126092494916823 
3.2200000000023707, -3.0090730308031213 
3.230000000002392, -3.002922712985891 
3.240000000002413, -3.0017926747704626 
3.250000000002434, -3.0028488783973706 
3.260000000002455, -3.000891574228648 
3.2700000000024763, -2.9953489073801984 
3.2800000000024974, -3.0042350499788624 
3.2900000000025185, -3.0171798125272584 
3.3000000000025396, -3.021365509493442 
3.3100000000025607, -3.022272059662382 
3.3200000000025818, -3.0211570547547395 
3.330000000002603, -3.0157191879049288 
3.340000000002624, -2.9909636511893876 
3.350000000002645, -2.7731749979176787 
3.360000000002666, 0.03837723384242817 
3.3700000000026873, 0.9501560294051391 
3.3800000000027084, 1.0120680916490594 
3.3900000000027295, 1.0234343825502863 
3.4000000000027506, 1.0265284374838402 
3.4100000000027717, 1.0273312721166057 
3.420000000002793, 1.0272983053878242 
3.430000000002814, 1.0269583573215892 
3.440000000002835, 1.0265965430739104 
3.450000000002856, 1.0263970454257887 
3.460000000002877, 1.0264400868397443 
3.4700000000028983, 1.0266850970839498 
3.4800000000029194, 1.0270001705633631 
3.4900000000029405, 1.0272154066343764 
3.5000000000029616, 1.0271356927642294 
3.5100000000029827, 1.0264534912047127 
3.520000000003004, 1.0244102719109107 
3.530000000003025, 1.0183597820696118 
3.540000000003046, 0.9946094899898459 
3.550000000003067, 0.8077748906703366 
3.5600000000030882, -1.839179691231351 
3.5700000000031094, -2.929023273274061 
3.5800000000031305, -2.9954131885603807 
3.5900000000031516, -3.005529063128375 
3.6000000000031727, -3.007184389823773 
3.6100000000031938, -3.0063142783361547 
3.620000000003215, -3.0034529776612633 
3.630000000003236, -2.99561237997745 
3.640000000003257, -2.9830121871235127 
3.650000000003278, -2.9839201385934926 
3.6600000000032993, -2.986252293247256 
3.6700000000033204, -2.985032391336338 
3.6800000000033415, -2.982696391036488 
3.6900000000033626, -2.987783894119679 
3.7000000000033837, -2.993108351931147 
3.710000000003405, -2.9947984006789 
3.720000000003426, -2.9948835640362597 
3.730000000003447, -2.9929364314428257 
3.740000000003468, -2.9835925579310603 
3.750000000003489, -2.91902795290161 
3.7600000000035103, -1.6287112964445385 
3.7700000000035314, 0.9491362100899678 
3.7800000000035525, 1.0937792828024286 
3.7900000000035736, 1.1120746496959906 
3.8000000000035947, 1.1163470726540132 
3.810000000003616, 1.1172486421543195 
3.820000000003637, 1.116692873380097 
3.830000000003658, 1.114981142870938 
3.840000000003679, 1.112018585449952 
3.8500000000037002, 1.1079298842887049 
3.8600000000037213, 1.103592615094523 
3.8700000000037424, 1.1003133435458852 
3.8800000000037635, 1.0986287486583366 
3.8900000000037847, 1.0980226031096156 
3.9000000000038058, 1.0976721060255494 
3.910000000003827, 1.0968060889805504 
3.920000000003848, 1.0942237093941585 
3.930000000003869, 1.0858964992012423 
3.94000000000389, 1.0476316975010058 
3.9500000000039113, 0.6276284736118172 
3.9600000000039324, -2.7599033205414623 
3.9700000000039535, -3.199930638572984 
3.9800000000039746, -3.231093479985695 
3.9900000000039957, -3.2368184692022957 
4.000000000004016, -3.237403602655057 
4.010000000003993, -3.235301790200348 
4.02000000000397, -3.2278865127028586 
4.030000000003946, -3.193310965052217 
4.040000000003923, -3.122315429782697 
4.0500000000039, -3.147076562153559 
4.0600000000038765, -3.1536996774403283 
4.070000000003853, -3.153730287255546 
4.08000000000383, -3.153228722206686 
4.090000000003807, -3.1541113090595445 
4.100000000003783, -3.1541429970590205 
4.11000000000376, -3.1537400238301787 
4.120000000003737, -3.152913758634856 
4.130000000003713, -3.1474046744063116 
4.14000000000369, -3.0955128135463066 
4.150000000003667, -2.9235166449591627 
4.1600000000036434, -3.7013488443285105 
4.17000000000362, -3.7433954817316115 
4.180000000003597, -3.7482138603389337 
4.1900000000035735, -3.7479308550904222 
4.20000000000355, -3.7433356053375837 
4.210000000003527, -3.7152360139048377 
4.220000000003504, -2.966282468748811 
4.23000000000348, -1.4667006310359518 
4.240000000003457, -1.7400773755282106 
4.250000000003434, -1.8240499896559972 
4.26000000000341, -1.84246897522852 
4.270000000003387, -1.8469512432362958 
4.280000000003364, -1.8474992633440053 
4.2900000000033405, -1.8464866148820662 
4.300000000003317, -1.8458577186801541 
4.310000000003294, -1.8486149950928012 
4.320000000003271, -1.8542195054777324 
4.330000000003247, -1.8591374961846987 
4.340000000003224, -1.8622550302147356 
4.350000000003201, -1.8640549830847977 
4.360000000003177, -1.8649088441093125 
4.370000000003154, -1.864813951075417 
4.380000000003131, -1.8635731825512383 
4.390000000003107, -1.8608461249407076 
4.400000000003084, -1.8560554717640898 
4.410000000003061, -1.8480960653454097 
4.4200000000030375, -1.8345191029628771 
4.430000000003014, -1.809347749546932 
4.440000000002991, -1.7588153222255936 
4.450000000002968, -1.6694233100442524 
4.460000000002944, -1.5914235240146373 
4.470000000002921, -1.579806511326733 
4.480000000002898, -1.5886997344773197 
4.490000000002874, -1.594078826256218 
4.500000000002851, -1.5957536763086284 
4.510000000002828, -1.5949859898735728 
4.520000000002804, -1.591411774458071 
4.530000000002781, -1.5833953724545202 
4.540000000002758, -1.5763341960982078 
4.5500000000027345, -1.6129041500048884 
4.560000000002711, -1.709660490006708 
4.570000000002688, -1.7854234098705455 
4.580000000002665, -1.8236781242189513 
4.590000000002641, -1.8427897711029655 
4.600000000002618, -1.8531945980321773 
4.610000000002595, -1.8591468965195148 
4.620000000002571, -1.8624351229180909 
4.630000000002548, -1.8639134674445401 
4.640000000002525, -1.8640549518068572 
4.6500000000025015, -1.863146009989111 
4.660000000002478, -1.86132917187143 
4.670000000002455, -1.8584843983821766 
4.6800000000024315, -1.8541154445415748 
4.690000000002408, -1.8481041073222073 
4.700000000002385, -1.8427123730361703 
4.710000000002362, -1.8409888734659035 
4.720000000002338, -1.8414755835871905 
4.730000000002315, -1.8414075237057375 
4.740000000002292, -1.8391252492480537 
4.750000000002268, -1.8306382778720636 
4.760000000002245, -1.7967811191787058 
4.770000000002222, -1.63881877552408 
4.7800000000021985, -1.3509544427189157 
4.790000000002175, -3.888619333032362 
4.800000000002152, -4.09136588538413 
4.810000000002129, -4.1007120772123695 
4.820000000002105, -4.1010149289808115 
4.830000000002082, -4.096676125848404 
4.840000000002059, -4.061328234315235 
4.850000000002035, -2.4997171909066602 
4.860000000002012, -2.3000147313606853 
4.870000000001989, -2.5164917634041197 
4.880000000001965, -2.5393225192110767 
4.890000000001942, -2.542769435024973 
4.900000000001919, -2.542735842695845 
4.9100000000018955, -2.542342787524679 
4.920000000001872, -2.542641271548983 
4.930000000001849, -2.542571391297421 
4.940000000001826, -2.542019818566767 
4.950000000001802, -2.5417347097478933 
4.960000000001779, -2.5407657334359652 
4.970000000001756, -2.535907136493254 
