t, s[1].omega / s[0].omega 
0, -1.0999809844885065 
0.009999999999999995, -1.0979865802097808 
0.019999999999999934, -1.0958163330287354 
0.029999999999999874, -1.0934563443911223 
0.04000000000000012, -1.0908883608496158 
0.050000000000000405, -1.0881172801274768 
0.06000000000000069, -1.0851749319156185 
0.07000000000000098, -1.0821141926343651 
0.08000000000000126, -1.0790311266587118 
0.09000000000000155, -1.0761230237342425 
0.10000000000000184, -1.0737049682108166 
0.11000000000000212, -1.0720767659406494 
0.12000000000000241, -1.0712920053586008 
0.130000000000002, -1.0710783182702193 
0.1400000000000009, -1.0710000193724096 
0.1499999999999998, -1.0706458782487174 
0.1599999999999987, -1.0696840262755456 
0.1699999999999976, -1.067853268110979 
0.1799999999999965, -1.0650009896690906 
0.1899999999999954, -1.0611636449667352 
0.1999999999999943, -1.056575493276956 
0.2099999999999932, -1.0515455216787344 
0.2199999999999921, -1.0463070115103756 
0.229999999999991, -1.040959624447368 
0.2399999999999899, -1.0355018110658805 
0.2499999999999888, -1.0298914868874691 
0.2599999999999877, -1.0240995339925922 
0.2699999999999866, -1.0181625919013866 
0.2799999999999855, -1.0122557743440954 
0.2899999999999844, -1.0067632313435866 
0.2999999999999833, -1.0022375445112388 
0.3099999999999822, -0.9991432296172069 
0.3199999999999811, -0.997526607733854 
0.32999999999998, -0.9969647124223426 
0.3399999999999789, -0.9968447414157146 
0.3499999999999778, -0.9966339543689203 
0.35999999999997667, -0.995936615245091 
0.36999999999997557, -0.9944353082584787 
0.37999999999997447, -0.99187350253909 
0.38999999999997337, -0.9881426059867044 
0.39999999999997227, -0.983393305705882 
0.40999999999997117, -0.9780046022016988 
0.41999999999997006, -0.9723891939239533 
0.42999999999996896, -0.9668183831105089 
0.43999999999996786, -0.9613902095806234 
0.44999999999996676, -0.9560938459228601 
0.45999999999996566, -0.9508861294883486 
0.46999999999996456, -0.9457444712846724 
0.47999999999996346, -0.9406999042030458 
0.48999999999996235, -0.9358659786014218 
0.49999999999996125, -0.9314617505022609 
0.5099999999999602, -0.9277898518690927 
0.519999999999959, -0.9251245012590743 
0.529999999999958, -0.9235461197100265 
0.5399999999999568, -0.9228616702646247 
0.5499999999999557, -0.9226938797433151 
0.5599999999999546, -0.9226437893613891 
0.5699999999999535, -0.9223900838134254 
0.5799999999999524, -0.9217079324589303 
0.5899999999999513, -0.9204717397693782 
0.5999999999999502, -0.9186788960165723 
0.6099999999999491, -0.9164607054815936 
0.619999999999948, -0.9140286755331253 
0.6299999999999469, -0.9115759130235543 
0.6399999999999458, -0.9092088045387425 
0.6499999999999447, -0.9069435760247824 
0.6599999999999436, -0.9047452354427661 
0.6699999999999425, -0.9025761425729213 
0.6799999999999414, -0.9004320429184359 
0.6899999999999403, -0.898353242894896 
0.6999999999999392, -0.8964112017662519 
0.7099999999999381, -0.8946848698122691 
0.719999999999937, -0.8932458371714838 
0.7299999999999359, -0.8921579516613637 
0.7399999999999348, -0.8914755464784261 
0.7499999999999337, -0.8912222573251043 
0.7599999999999326, -0.8913590171531052 
0.7699999999999315, -0.8917738048295207 
0.7799999999999304, -0.8923113324139436 
0.7899999999999293, -0.8928247703589257 
0.7999999999999282, -0.893219806806408 
0.8099999999999271, -0.893475473436937 
0.819999999999926, -0.893636769415236 
0.8299999999999249, -0.8937799351761935 
0.8399999999999238, -0.893964421196076 
0.8499999999999227, -0.8941942775043854 
0.8599999999999216, -0.8944061831365628 
0.8699999999999205, -0.8944923109965517 
0.8799999999999194, -0.8943523584061378 
0.8899999999999183, -0.8939477890217141 
0.8999999999999172, -0.8933299531798562 
0.9099999999999161, -0.8926393089574018 
0.919999999999915, -0.8920844515869326 
0.9299999999999139, -0.8918960484162701 
0.9399999999999128, -0.8922545614170444 
0.9499999999999117, -0.8932271590089071 
0.9599999999999106, -0.8947625558827241 
0.9699999999999095, -0.8967435289979726 
0.9799999999999084, -0.8990468008377045 
0.9899999999999073, -0.9015724720651337 
0.9999999999999062, -0.9042485300134203 
1.0099999999999052, -0.9070328665146095 
1.019999999999904, -0.9099196957792677 
1.029999999999903, -0.9129383060002381 
1.039999999999902, -0.9161295721794017 
1.0499999999999008, -0.9194963215112766 
1.0599999999998997, -0.9229400945610035 
1.0699999999998986, -0.9262237603993944 
1.0799999999998975, -0.9290208473271552 
1.0899999999998964, -0.9310586717523067 
1.0999999999998953, -0.9322447917047342 
1.1099999999998942, -0.9326722717601326 
1.119999999999893, -0.932550207022571 
1.129999999999892, -0.9321693774755578 
1.1399999999998909, -0.9319339326847172 
1.1499999999998898, -0.9323863250924521 
1.1599999999998887, -0.9341022076770296 
1.1699999999998876, -0.9374312269478594 
1.1799999999998865, -0.9422927158177673 
1.1899999999998854, -0.9482557087573008 
1.1999999999998843, -0.9548171881260215 
1.2099999999998832, -0.9616163449834554 
1.219999999999882, -0.9684836150594641 
1.229999999999881, -0.9753927861453568 
1.2399999999998799, -0.9823917152690891 
1.2499999999998788, -0.9895277712568907 
1.2599999999998777, -0.99675272242291 
1.2699999999998766, -1.0038157850194578 
1.2799999999998755, -1.0102293998047984 
1.2899999999998744, -1.0154296695455667 
1.2999999999998733, -1.0190778755640417 
1.3099999999998722, -1.0212157607209946 
1.319999999999871, -1.0221463043986634 
1.32999999999987, -1.022244576372102 
1.3399999999998689, -1.0218988807171852 
1.3499999999998678, -1.0215889099645463 
1.3599999999998666, -1.0219685622853718 
1.3699999999998655, -1.023741400335401 
1.3799999999998644, -1.0272692105873493 
1.3899999999998633, -1.0322936207341005 
1.3999999999998622, -1.0381497078736672 
1.4099999999998611, -1.04421127821421 
1.41999999999986, -1.0501197497934271 
1.429999999999859, -1.0557540384330626 
1.4399999999998578, -1.0611215176898996 
1.4499999999998567, -1.0662741946451444 
1.4599999999998556, -1.0712497902449123 
1.4699999999998545, -1.0760130736559963 
1.4799999999998534, -1.0804055018494572 
1.4899999999998523, -1.0841548957733254 
1.4999999999998512, -1.0869874648015734 
1.5099999999998501, -1.0887785673996304 
1.519999999999849, -1.0896075327560213 
1.529999999999848, -1.0896971064490921 
1.5399999999998468, -1.089348435425514 
1.5499999999998457, -1.088934395507935 
1.5599999999998446, -1.0888811874198026 
1.5699999999998435, -1.0895308042037049 
1.5799999999998424, -1.090949709276306 
1.5899999999998413, -1.0929185762017488 
1.5999999999998402, -1.09513301950417 
1.6099999999998391, -1.0973774264685607 
1.619999999999838, -1.0995417970726575 
1.629999999999837, -1.1015620322110298 
1.6399999999998358, -1.1033872245780079 
1.6499999999998347, -1.1049890061031529 
1.6599999999998336, -1.1063725934757447 
1.6699999999998325, -1.107561761886522 
1.6799999999998314, -1.1085640632456086 
1.6899999999998303, -1.1093419116888579 
1.6999999999998292, -1.1098147154700946 
1.709999999999828, -1.1098988030397856 
1.719999999999827, -1.1095621293434006 
1.729999999999826, -1.1088589085419778 
1.7399999999998248, -1.1079297688221832 
1.7499999999998237, -1.1069667171425448 
1.7599999999998226, -1.106141903787672 
1.7699999999998215, -1.1055376885552843 
1.7799999999998204, -1.1051512489402833 
1.7899999999998193, -1.1049706245530428 
1.7999999999998182, -1.105018242365143 
1.809999999999817, -1.105299807015936 
1.819999999999816, -1.1057277404435228 
1.8299999999998149, -1.1061223059581127 
1.8399999999998138, -1.1062860328788733 
1.8499999999998127, -1.1060753014820441 
1.8599999999998116, -1.1054348783578316 
1.8699999999998105, -1.1043982802644279 
1.8799999999998094, -1.1030532675900235 
1.8899999999998083, -1.1014857778991713 
1.8999999999998072, -1.099738137741601 
1.909999999999806, -1.0978057693298058 
1.919999999999805, -1.0956658145883527 
1.9299999999998039, -1.093312398687775 
1.9399999999998028, -1.0907729279804874 
1.9499999999998017, -1.0880985687171694 
1.9599999999998006, -1.0853548394952226 
1.9699999999997995, -1.08265086900695 
1.9799999999997984, -1.080194600362231 
1.9899999999997973, -1.078278118067319 
1.9999999999997962, -1.0771162370547316 
2.0099999999998173, -1.0766544355037293 
2.0199999999998384, -1.076569766835552 
2.0299999999998595, -1.0764496297597703 
2.0399999999998806, -1.0759308232612113 
2.0499999999999017, -1.0747260820183582 
2.059999999999923, -1.0726323943328548 
2.069999999999944, -1.0695874204339266 
2.079999999999965, -1.0657186043151399 
2.089999999999986, -1.061287451138767 
2.100000000000007, -1.0565501011800804 
2.1100000000000283, -1.0516563115383386 
2.1200000000000494, -1.0466429775322252 
2.1300000000000705, -1.0414824899103061 
2.1400000000000916, -1.0361357772132427 
2.1500000000001127, -1.0305967056821095 
2.160000000000134, -1.0249469227142896 
2.170000000000155, -1.0194338708966701 
2.180000000000176, -1.0145155958250047 
2.190000000000197, -1.01073957112353 
2.2000000000002182, -1.0084216833042174 
2.2100000000002393, -1.0073952912947637 
2.2200000000002604, -1.0071231671180378 
2.2300000000002815, -1.0070151195785737 
2.2400000000003026, -1.0066062750743303 
2.2500000000003237, -1.0055413375625528 
2.260000000000345, -1.003520534746532 
2.270000000000366, -1.0003333082223098 
2.280000000000387, -0.9959796408539608 
2.290000000000408, -0.9907348775142546 
2.3000000000004293, -0.9850261463042012 
2.3100000000004504, -0.9792170054559843 
2.3200000000004715, -0.9734947507838904 
2.3300000000004926, -0.9678959856012701 
2.3400000000005137, -0.9623856623368132 
2.3500000000005348, -0.9569251807085065 
2.360000000000556, -0.9515172782946166 
2.370000000000577, -0.9462419074452961 
2.380000000000598, -0.9412913428720003 
2.390000000000619, -0.9369757400376031 
2.4000000000006403, -0.9336394065960695 
2.4100000000006614, -0.9314808205411664 
2.4200000000006825, -0.9304039770308625 
2.4300000000007036, -0.9300515915936203 
2.4400000000007247, -0.9299811919075072 
2.450000000000746, -0.9298111808972944 
2.460000000000767, -0.9292615307743844 
2.470000000000788, -0.9281471389967306 
2.480000000000809, -0.9263934245597276 
2.49000000000083, -0.924070460826039 
2.5000000000008513, -0.9213789126059435 
2.5100000000008724, -0.9185578682370241 
2.5200000000008935, -0.9157814988523167 
2.5300000000009146, -0.9131194402120156 
2.5400000000009357, -0.9105616788530556 
2.550000000000957, -0.9080690188915328 
2.560000000000978, -0.9056181863702106 
2.570000000000999, -0.9032251344739344 
2.58000000000102, -0.9009426755187594 
2.5900000000010412, -0.8988428830334622 
2.6000000000010624, -0.8970026830433936 
2.6100000000010835, -0.8955015123753295 
2.6200000000011046, -0.8944181133028323 
2.6300000000011257, -0.8938060405895932 
2.6400000000011468, -0.8936521059492023 
2.650000000001168, -0.8938536250742255 
2.660000000001189, -0.8942426168126604 
2.67000000000121, -0.8946423032849168 
2.680000000001231, -0.8949200995329221 
2.6900000000012523, -0.8950180344955545 
2.7000000000012734, -0.8949572541789059 
2.7100000000012945, -0.8948138788386993 
2.7200000000013156, -0.8946720510442082 
2.7300000000013367, -0.8945764332531985 
2.740000000001358, -0.8945068828213893 
2.750000000001379, -0.8943855363668088 
2.7600000000014, -0.8941151914489277 
2.770000000001421, -0.8936325974165202 
2.780000000001442, -0.8929487867749909 
2.7900000000014633, -0.8921607666212104 
2.8000000000014844, -0.8914374627808727 
2.8100000000015055, -0.8909816275695764 
2.8200000000015266, -0.8909686198781135 
2.8300000000015477, -0.8914869647826869 
2.840000000001569, -0.8925220311275796 
2.85000000000159, -0.8939915622153805 
2.860000000001611, -0.8957954288220622 
2.870000000001632, -0.8978429007001771 
2.8800000000016532, -0.90005754900526 
2.8900000000016743, -0.9023807295647217 
2.9000000000016954, -0.9047832196944634 
2.9100000000017165, -0.9072743619353811 
2.9200000000017377, -0.9098922918586659 
2.9300000000017588, -0.9126682259116846 
2.94000000000178, -0.915571479434518 
2.950000000001801, -0.9184585915581802 
2.960000000001822, -0.9210726963285362 
2.970000000001843, -0.9231319234679762 
2.9800000000018643, -0.9244622177489654 
2.9900000000018854, -0.9250633204964294 
3.0000000000019065, -0.9250772747495064 
3.0100000000019276, -0.9247408715347485 
3.0200000000019487, -0.9243882979537436 
3.03000000000197, -0.9244769696100177 
3.040000000001991, -0.9255376505976965 
3.050000000002012, -0.9279834270274112 
3.060000000002033, -0.9318907779566912 
3.070000000002054, -0.9369761821278043 
3.0800000000020753, -0.9427979376220573 
3.0900000000020964, -0.9489801957857107 
3.1000000000021175, -0.955308112754165 
3.1100000000021386, -0.9617125224145819 
3.1200000000021597, -0.9682168428674043 
3.130000000002181, -0.9748777629455445 
3.140000000002202, -0.98170980778058 
3.150000000002223, -0.988583729036921 
3.160000000002244, -0.9951396508511922 
3.1700000000022652, -1.0008311260754237 
3.1800000000022863, -1.005169395522914 
3.1900000000023074, -1.0079872432460473 
3.2000000000023285, -1.0094596617809377 
3.2100000000023496, -1.0099259219577748 
3.2200000000023707, -1.0097537487768382 
3.230000000002392, -1.0093541551010932 
3.240000000002413, -1.0092850705144236 
3.250000000002434, -1.0102693753551208 
3.260000000002455, -1.0129370002756737 
3.2700000000024763, -1.0174081763558291 
3.2800000000024974, -1.0231996170400357 
3.2900000000025185, -1.0295965146287782 
3.3000000000025396, -1.0360520496249008 
3.3100000000025607, -1.042302810487503 
3.3200000000025818, -1.0482889827774498 
3.330000000002603, -1.054047154613312 
3.340000000002624, -1.0596325044807586 
3.350000000002645, -1.0650530788637345 
3.360000000002666, -1.0702030853310736 
3.3700000000026873, -1.0748292837496998 
3.3800000000027084, -1.0785979449742895 
3.3900000000027295, -1.0812633387378985 
3.4000000000027506, -1.082800735227204 
3.4100000000027717, -1.0833881107945822 
3.420000000002793, -1.0833092581615122 
3.430000000002814, -1.082909418860562 
3.440000000002835, -1.082611546045289 
3.450000000002856, -1.082874096061569 
3.460000000002877, -1.0840003274180692 
3.4700000000028983, -1.085952183597934 
3.4800000000029194, -1.0884185568296192 
3.4900000000029405, -1.091062649946095 
3.5000000000029616, -1.0936733823935387 
3.5100000000029827, -1.096151661729447 
3.520000000003004, -1.0984463132022104 
3.530000000003025, -1.10052698424028 
3.540000000003046, -1.102389107938146 
3.550000000003067, -1.1040513127541398 
3.5600000000030882, -1.1055290506293047 
3.5700000000031094, -1.106799516140615 
3.5800000000031305, -1.10778624694604 
3.5900000000031516, -1.1083843864210807 
3.6000000000031727, -1.1085184388421156 
3.6100000000031938, -1.1081940971638258 
3.620000000003215, -1.1075151756672612 
3.630000000003236, -1.1066679916568116 
3.640000000003257, -1.1058728999045797 
3.650000000003278, -1.105299612870889 
3.6600000000032993, -1.1050004442194943 
3.6700000000033204, -1.1049384122308625 
3.6800000000033415, -1.105076739348309 
3.6900000000033626, -1.1054126488906184 
3.7000000000033837, -1.1059206507131658 
3.710000000003405, -1.106493094638381 
3.720000000003426, -1.1069591864972956 
3.730000000003447, -1.1071562851404961 
3.740000000003468, -1.1069872714417732 
3.750000000003489, -1.1064402346777162 
3.7600000000035103, -1.1055717300462484 
3.7700000000035314, -1.1044611130188844 
3.7800000000035525, -1.1031618918042547 
3.7900000000035736, -1.1016808538989262 
3.8000000000035947, -1.0999936375698012 
3.810000000003616, -1.098080929714297 
3.820000000003637, -1.0959583858150101 
3.830000000003658, -1.0936789296971046 
3.840000000003679, -1.0913106150768528 
3.8500000000037002, -1.0889261254129396 
3.8600000000037213, -1.086638539405377 
3.8700000000037424, -1.084649546335577 
3.8800000000037635, -1.0832077868930656 
3.8900000000037847, -1.0824410358468077 
3.9000000000038058, -1.0822162238131052 
3.910000000003827, -1.0821955630765037 
3.920000000003848, -1.0820033816169956 
3.930000000003869, -1.081324281779557 
3.94000000000389, -1.0799219580144068 
3.9500000000039113, -1.0776658303703046 
3.9600000000039324, -1.074582429166879 
3.9700000000039535, -1.0708546721463261 
3.9800000000039746, -1.0667247454427347 
3.9900000000039957, -1.0623762656303302 
4.000000000004016, -1.0578868030325537 
4.010000000003993, -1.0532527677191263 
4.02000000000397, -1.048438707357926 
4.030000000003946, -1.0434189970021428 
4.040000000003923, -1.0382158234168655 
4.0500000000039, -1.0329585004752302 
4.0600000000038765, -1.0279597381113654 
4.070000000003853, -1.0237173913803574 
4.08000000000383, -1.0207139586737406 
4.090000000003807, -1.0190846054141784 
4.100000000003783, -1.0184939936870254 
4.11000000000376, -1.0183655098247022 
4.120000000003737, -1.0181647477044105 
4.130000000003713, -1.0174842838461462 
4.14000000000369, -1.015993884485665 
4.150000000003667, -1.0134192836804499 
4.1600000000036434, -1.00962704205203 
4.17000000000362, -1.0047439292743259 
4.180000000003597, -0.9991387806741614 
4.1900000000035735, -0.9932301847637712 
4.20000000000355, -0.9873015746289381 
4.210000000003527, -0.9814599559847105 
4.220000000003504, -0.9756975823724854 
4.23000000000348, -0.9699703583907908 
4.240000000003457, -0.9642560018031187 
4.250000000003434, -0.9585977994319264 
4.26000000000341, -0.9531490413717357 
4.270000000003387, -0.9482042196329719 
4.280000000003364, -0.9441551021813789 
4.2900000000033405, -0.9413210707129844 
4.300000000003317, -0.9397387540295619 
4.310000000003294, -0.9391101485415886 
4.320000000003271, -0.9389641128671105 
4.330000000003247, -0.9388539296534594 
4.340000000003224, -0.9384393301076359 
4.350000000003201, -0.93747859238971 
4.360000000003177, -0.9358253692881174 
4.370000000003154, -0.9334687396103026 
4.380000000003131, -0.9305628163536876 
4.390000000003107, -0.9273689106252713 
4.400000000003084, -0.9241318417767023 
4.410000000003061, -0.920992620237224 
4.4200000000030375, -0.9179845850194865 
4.430000000003014, -0.9150802736730295 
4.440000000002991, -0.9122448252209849 
4.450000000002968, -0.9094715543606171 
4.460000000002944, -0.9067918276701761 
4.470000000002921, -0.9042659197520662 
4.480000000002898, -0.901971754419782 
4.490000000002874, -0.9000025631953517 
4.500000000002851, -0.8984630165500123 
4.510000000002828, -0.8974411216755904 
4.520000000002804, -0.8969554953157441 
4.530000000002781, -0.8969173232919004 
4.540000000002758, -0.8971472691525232 
4.5500000000027345, -0.8974375670802225 
4.560000000002711, -0.8976151213063547 
4.570000000002688, -0.8975800731819199 
4.580000000002665, -0.8973201691584034 
4.590000000002641, -0.8968996184161206 
4.600000000002618, -0.8964186597761898 
4.610000000002595, -0.8959592686593403 
4.620000000002571, -0.8955458770779063 
4.630000000002548, -0.8951380176494685 
4.640000000002525, -0.8946553399684998 
4.6500000000025015, -0.8940243285541316 
4.660000000002478, -0.8932246018390575 
4.670000000002455, -0.8923129792529805 
4.6800000000024315, -0.8914189355887597 
4.690000000002408, -0.8907140158242288 
4.700000000002385, -0.8903598415997207 
4.710000000002362, -0.8904545703799277 
4.720000000002338, -0.8910115104950675 
4.730000000002315, -0.891981539490932 
4.740000000002292, -0.8932914961276561 
4.750000000002268, -0.8948658015338855 
4.760000000002245, -0.8966290823401224 
4.770000000002222, -0.8985096206961627 
4.7800000000021985, -0.9004549832312085 
4.790000000002175, -0.9024502061283494 
4.800000000002152, -0.9045203545171203 
4.810000000002129, -0.906707347428078 
4.820000000002105, -0.9090247504577922 
4.830000000002082, -0.9114062129526992 
4.840000000002059, -0.9136778475470244 
4.850000000002035, -0.915594936575775 
4.860000000002012, -0.916945997442842 
4.870000000001989, -0.917649859501861 
4.880000000001965, -0.9177732101599316 
4.890000000001942, -0.917494983914664 
4.900000000001919, -0.9170886699292282 
4.9100000000018955, -0.9169346194787584 
4.920000000001872, -0.9174966281579552 
4.930000000001849, -0.9191900428851559 
