t, s[1].omega / s[0].omega 
0, -0.8400166493283688 
0.009999999999999995, -0.8417575611678221 
0.019999999999999934, -0.8435590030581617 
0.029999999999999874, -0.8452199254011556 
0.04000000000000012, -0.8465149369347869 
0.050000000000000405, -0.8472953095871978 
0.06000000000000069, -0.8475454595431003 
0.07000000000000098, -0.8473726606047528 
0.08000000000000126, -0.8469835783611007 
0.09000000000000155, -0.8466929348869888 
0.10000000000000184, -0.8469448227513642 
0.11000000000000212, -0.84827451825207 
0.12000000000000241, -0.8511563276649687 
0.130000000000002, -0.8558021830247267 
0.1400000000000009, -0.8620798806887423 
0.1499999999999998, -0.8696307671783323 
0.1599999999999987, -0.878076881197719 
0.1699999999999976, -0.8871673036485428 
0.1799999999999965, -0.8968186584037493 
0.1899999999999954, -0.9070827007015879 
0.1999999999999943, -0.9180667454720934 
0.2099999999999932, -0.9297919913402032 
0.2199999999999921, -0.9419701840745374 
0.229999999999991, -0.9537954493488912 
0.2399999999999899, -0.9640629289594221 
0.2499999999999888, -0.9717861255492473 
0.2599999999999877, -0.9767667347774529 
0.2699999999999866, -0.9794893656963011 
0.2799999999999855, -0.9806286786042815 
0.2899999999999844, -0.9807431654689827 
0.2999999999999833, -0.9802790242100936 
0.3099999999999822, -0.979778103390999 
0.3199999999999811, -0.9801838613788257 
0.32999999999998, -0.9829817390889236 
0.3399999999999789, -0.9896778432821811 
0.3499999999999778, -1.0006724868081645 
0.35999999999997667, -1.0147947162999418 
0.36999999999997557, -1.030206638337641 
0.37999999999997447, -1.045527822617237 
0.38999999999997337, -1.0601597034946453 
0.39999999999997227, -1.0740277456827143 
0.40999999999997117, -1.0872282736343393 
0.41999999999997006, -1.0997511662269346 
0.42999999999996896, -1.1112895858574117 
0.43999999999996786, -1.1212212153724042 
0.44999999999996676, -1.1288939655486783 
0.45999999999996566, -1.134062912774049 
0.46999999999996456, -1.137025857482721 
0.47999999999996346, -1.138359234771779 
0.48999999999996235, -1.1386288509368188 
0.49999999999996125, -1.1383277227493713 
0.5099999999999602, -1.1379891351424347 
0.519999999999959, -1.138265911116182 
0.529999999999958, -1.139725883507015 
0.5399999999999568, -1.142446090913046 
0.5499999999999557, -1.1459569907064877 
0.5599999999999546, -1.1496617906388038 
0.5699999999999535, -1.1531855674370541 
0.5799999999999524, -1.1563908347832612 
0.5899999999999513, -1.1592521919925518 
0.5999999999999502, -1.1617754431199279 
0.6099999999999491, -1.1639802400514752 
0.619999999999948, -1.16589373911038 
0.6299999999999469, -1.1675270906318889 
0.6399999999999458, -1.1688479617311625 
0.6499999999999447, -1.1697780401137674 
0.6599999999999436, -1.1702304368353105 
0.6699999999999425, -1.1701673625415308 
0.6799999999999414, -1.16963907371438 
0.6899999999999403, -1.1687870676085017 
0.6999999999999392, -1.1678133292171622 
0.7099999999999381, -1.166908723150966 
0.719999999999937, -1.166169803778719 
0.7299999999999359, -1.1655957853156242 
0.7399999999999348, -1.1651829798772528 
0.7499999999999337, -1.1649875692512486 
0.7599999999999326, -1.1650566149455017 
0.7699999999999315, -1.1653107607161002 
0.7799999999999304, -1.1655344441019966 
0.7899999999999293, -1.165472626898248 
0.7999999999999282, -1.1649187089870012 
0.8099999999999271, -1.1637562040986795 
0.819999999999926, -1.161977053668429 
0.8299999999999249, -1.1596675080918208 
0.8399999999999238, -1.1569486729096519 
0.8499999999999227, -1.1539083119691418 
0.8599999999999216, -1.150571825302944 
0.8699999999999205, -1.146917104232972 
0.8799999999999194, -1.142904552603437 
0.8899999999999183, -1.1384992046683835 
0.8999999999999172, -1.133698562383138 
0.9099999999999161, -1.1286139827977812 
0.919999999999915, -1.1236113696759227 
0.9299999999999139, -1.1193549201587476 
0.9399999999999128, -1.1164994940688169 
0.9499999999999117, -1.1151621202698563 
0.9599999999999106, -1.1148142677572113 
0.9699999999999095, -1.1147140631153871 
0.9799999999999084, -1.1142519502477561 
0.9899999999999073, -1.1129321320036438 
0.9999999999999062, -1.1102157715603815 
1.0099999999999052, -1.1054764123815988 
1.019999999999904, -1.098208263452752 
1.029999999999903, -1.0883972840160026 
1.039999999999902, -1.076632483671914 
1.0499999999999008, -1.063728213452485 
1.0599999999998997, -1.050263871099854 
1.0699999999998986, -1.0364484211197362 
1.0799999999998975, -1.0222558935183224 
1.0899999999998964, -1.007652480067355 
1.0999999999998953, -0.9928579140186375 
1.1099999999998942, -0.9786052341326024 
1.119999999999893, -0.9661914708918597 
1.129999999999892, -0.9569868110937089 
1.1399999999998909, -0.9515362005162185 
1.1499999999998898, -0.9491637404764587 
1.1599999999998887, -0.9485546649636595 
1.1699999999998876, -0.948547497933264 
1.1799999999998865, -0.9484064823404648 
1.1899999999998854, -0.9476766358686095 
1.1999999999998843, -0.9459681786960124 
1.2099999999998832, -0.9428524873042117 
1.219999999999882, -0.9379507470368627 
1.229999999999881, -0.9312060890693635 
1.2399999999998799, -0.9230857961375154 
1.2499999999998788, -0.9143914505580296 
1.2599999999998777, -0.905823144858689 
1.2699999999998766, -0.8977394553925511 
1.2799999999998755, -0.8902099929024002 
1.2899999999998744, -0.8831682885862516 
1.2999999999998733, -0.8765304926126234 
1.3099999999998722, -0.8702607082145256 
1.319999999999871, -0.8644035593556442 
1.32999999999987, -0.8590977304863932 
1.3399999999998689, -0.8545612203874576 
1.3499999999998678, -0.8510249887562653 
1.3599999999998666, -0.8486186481564616 
1.3699999999998655, -0.8472739357105956 
1.3799999999998644, -0.8467277945017704 
1.3899999999998633, -0.8466239804762783 
1.3999999999998622, -0.8466268146982836 
1.4099999999998611, -0.8464808340932424 
1.41999999999986, -0.846024815736748 
1.429999999999859, -0.8451982737793804 
1.4399999999998578, -0.8440488493706526 
1.4499999999998567, -0.842712381143232 
1.4599999999998556, -0.841350770551923 
1.4699999999998545, -0.8400816529578317 
1.4799999999998534, -0.8389430562382285 
1.4899999999998523, -0.8379006426406473 
1.4999999999998512, -0.836882440284216 
1.5099999999998501, -0.8358249150147149 
1.519999999999849, -0.8347130576938031 
1.529999999999848, -0.8335990858927014 
1.5399999999998468, -0.8325950012620137 
1.5499999999998457, -0.8318428595696338 
1.5599999999998446, -0.8314720062585439 
1.5699999999998435, -0.8315614384921062 
1.5799999999998424, -0.8321271559475785 
1.5899999999998413, -0.8331367193609374 
1.5999999999998402, -0.8345328821030804 
1.6099999999998391, -0.8362492917800826 
1.619999999999838, -0.8382186780384779 
1.629999999999837, -0.8403838639326218 
1.6399999999998358, -0.8427149324622872 
1.6499999999998347, -0.8452232396485563 
1.6599999999998336, -0.8479583543124851 
1.6699999999998325, -0.8509792666265884 
1.6799999999998314, -0.854299486963827 
1.6899999999998303, -0.8578170943367818 
1.6999999999998292, -0.8612698138543546 
1.709999999999828, -0.8642856874863931 
1.719999999999827, -0.8665436270753295 
1.729999999999826, -0.8679192231968387 
1.7399999999998248, -0.8684914583773218 
1.7499999999998237, -0.8684590624572863 
1.7599999999998226, -0.8680938205331918 
1.7699999999998215, -0.8677847188699097 
1.7799999999998204, -0.8681333634864394 
1.7899999999998193, -0.8699790750272939 
1.7999999999998182, -0.8741977963846637 
1.809999999999817, -0.8812900546215696 
1.819999999999816, -0.891092528044872 
1.8299999999998149, -0.9029228789392965 
1.8399999999998138, -0.916007815379006 
1.8499999999998127, -0.9298142555524345 
1.8599999999998116, -0.9441283842869236 
1.8699999999998105, -0.9589579222183688 
1.8799999999998094, -0.9743422751982539 
1.8899999999998083, -0.9900831476898826 
1.8999999999998072, -1.0054456750843772 
1.909999999999806, -1.0191147028498535 
1.919999999999805, -1.0297679981997414 
1.9299999999998039, -1.0369114813868439 
1.9399999999998028, -1.0410257892907315 
1.9499999999998017, -1.0429921322886633 
1.9599999999998006, -1.0435825852967904 
1.9699999999997995, -1.0433547208133602 
1.9799999999997984, -1.0428238675887402 
1.9899999999997973, -1.0427548978444559 
1.9999999999997962, -1.0443365423780764 
2.0099999999998173, -1.0487909148374719 
2.0199999999998384, -1.0564263831192138 
2.0299999999998595, -1.0662617916841954 
2.0399999999998806, -1.0768316588775302 
2.0499999999999017, -1.0871012684220187 
2.059999999999923, -1.096665453163665 
2.069999999999944, -1.105509004320198 
2.079999999999965, -1.113748607149255 
2.089999999999986, -1.121468650777137 
2.100000000000007, -1.1286169319154271 
2.1100000000000283, -1.1349550300928055 
2.1200000000000494, -1.1401251471408225 
2.1300000000000705, -1.1438509715367826 
2.1400000000000916, -1.1461176260457937 
2.1500000000001127, -1.1471599136594164 
2.160000000000134, -1.1473260904606464 
2.170000000000155, -1.1469983394680592 
2.180000000000176, -1.1466119338188039 
2.190000000000197, -1.146644773068895 
2.2000000000002182, -1.147438654828298 
2.2100000000002393, -1.1489827373939925 
2.2200000000002604, -1.150969795836856 
2.2300000000002815, -1.1530720893148452 
2.2400000000003026, -1.1551040663135166 
2.2500000000003237, -1.1569867742515982 
2.260000000000345, -1.158663698925284 
2.270000000000366, -1.1600780285836607 
2.280000000000387, -1.1611971875700173 
2.290000000000408, -1.162027780428903 
2.3000000000004293, -1.1625981345768779 
2.3100000000004504, -1.162923430866388 
2.3200000000004715, -1.1629816528169525 
2.3300000000004926, -1.1627206760326092 
2.3400000000005137, -1.162095117258528 
2.3500000000005348, -1.1611092974815425 
2.360000000000556, -1.1598380296122777 
2.370000000000577, -1.1584085342533976 
2.380000000000598, -1.1569454600914164 
2.390000000000619, -1.1555223258981333 
2.4000000000006403, -1.1541858727022989 
2.4100000000006614, -1.1530366622007266 
2.4200000000006825, -1.1522400829093535 
2.4300000000007036, -1.1518945843658637 
2.4400000000007247, -1.1518889730064266 
2.450000000000746, -1.151929623931502 
2.460000000000767, -1.1516819125615823 
2.470000000000788, -1.1508620850982647 
2.480000000000809, -1.1492674817194193 
2.49000000000083, -1.1468123580308234 
2.5000000000008513, -1.1435595295228127 
2.5100000000008724, -1.1396816341074563 
2.5200000000008935, -1.1353570436743996 
2.5300000000009146, -1.130686156950954 
2.5400000000009357, -1.1256774099376772 
2.550000000000957, -1.1202793695321 
2.560000000000978, -1.1144231757475471 
2.570000000000999, -1.1080782337544441 
2.58000000000102, -1.1013625412738741 
2.5900000000010412, -1.0947130823431057 
2.6000000000010624, -1.0889502987250346 
2.6100000000010835, -1.0849333782065138 
2.6200000000011046, -1.0829063290834937 
2.6300000000011257, -1.0822973071772557 
2.6400000000011468, -1.0822224680311647 
2.650000000001168, -1.081963782633229 
2.660000000001189, -1.0810001110767886 
2.67000000000121, -1.0788175903412325 
2.680000000001231, -1.074780813555174 
2.6900000000012523, -1.0682391130842823 
2.7000000000012734, -1.0589129359299445 
2.7100000000012945, -1.0472323765403346 
2.7200000000013156, -1.0341368316702728 
2.7300000000013367, -1.020495451273036 
2.740000000001358, -1.0067645441018636 
2.750000000001379, -0.9930410135625815 
2.7600000000014, -0.9792798648188222 
2.770000000001421, -0.9655201900054873 
2.780000000001442, -0.952094065620782 
2.7900000000014633, -0.9397625662726427 
2.8000000000014844, -0.9295964721711565 
2.8100000000015055, -0.9224653928627775 
2.8200000000015266, -0.9184464325103777 
2.8300000000015477, -0.9167711003231034 
2.840000000001569, -0.9163564689631132 
2.85000000000159, -0.9163126259354788 
2.860000000001611, -0.9160659873755137 
2.870000000001632, -0.9152379752803945 
2.8800000000016532, -0.9135108628027023 
2.8900000000016743, -0.910603803385234 
2.9000000000016954, -0.9063902449558501 
2.9100000000017165, -0.9010581627007579 
2.9200000000017377, -0.8950958736961441 
2.9300000000017588, -0.8890471212769793 
2.94000000000178, -0.8832725811993527 
2.950000000001801, -0.8779018822851393 
2.960000000001822, -0.8729173626826727 
2.970000000001843, -0.8682521802709392 
2.9800000000018643, -0.863853624781715 
2.9900000000018854, -0.8597111930763658 
3.0000000000019065, -0.8558633164545707 
3.0100000000019276, -0.8523959338105657 
3.0200000000019487, -0.849434422342999 
3.03000000000197, -0.8471159896529766 
3.040000000001991, -0.8455335762880347 
3.050000000002012, -0.844673349786313 
3.060000000002033, -0.8443931781896395 
3.070000000002054, -0.8444645700703377 
3.0800000000020753, -0.8446465053221921 
3.0900000000020964, -0.844744918715921 
3.1000000000021175, -0.8446438142977929 
3.1100000000021386, -0.8443178076474848 
3.1200000000021597, -0.8438264125522486 
3.130000000002181, -0.8432797118158337 
3.140000000002202, -0.8427828860028743 
3.150000000002223, -0.8423883916001687 
3.160000000002244, -0.8420769271860318 
3.1700000000022652, -0.8417702206581164 
3.1800000000022863, -0.841370608626162 
3.1900000000023074, -0.8408124768171528 
3.2000000000023285, -0.8401011766773543 
3.2100000000023496, -0.8393254453257131 
3.2200000000023707, -0.8386466214643796 
3.230000000002392, -0.838267501637638 
3.240000000002413, -0.8383795485735492 
3.250000000002434, -0.8391035771517451 
3.260000000002455, -0.8404587608136984 
3.2700000000024763, -0.842380062118673 
3.2800000000024974, -0.8447646772678606 
3.2900000000025185, -0.8475127627306192 
3.3000000000025396, -0.8505482698312814 
3.3100000000025607, -0.8538283947809624 
3.3200000000025818, -0.857351114960219 
3.330000000002603, -0.8611572635089144 
3.340000000002624, -0.8653142709693615 
3.350000000002645, -0.8698690838073253 
3.360000000002666, -0.8747663319001828 
3.3700000000026873, -0.87975755277046 
3.3800000000027084, -0.8843888768921142 
3.3900000000027295, -0.8881607531483816 
3.4000000000027506, -0.8907773813374245 
3.4100000000027717, -0.8922492175208327 
3.420000000002793, -0.8927900172642357 
3.430000000002814, -0.8926834623134313 
3.440000000002835, -0.892261180460199 
3.450000000002856, -0.8920033363347335 
3.460000000002877, -0.8926853519588602 
3.4700000000028983, -0.895390465692213 
3.4800000000029194, -0.9011687196495071 
3.4900000000029405, -0.9104374589842766 
3.5000000000029616, -0.9226914183435205 
3.5100000000029827, -0.9368720838914723 
3.520000000003004, -0.9519920932953079 
3.530000000003025, -0.9674770333937579 
3.540000000003046, -0.9831474241654152 
3.550000000003067, -0.9990198281222924 
3.5600000000030882, -1.0150398010752606 
3.5700000000031094, -1.030779766317915 
3.5800000000031305, -1.0452471295242307 
3.5900000000031516, -1.0571482897433317 
3.6000000000031727, -1.0656501927269348 
3.6100000000031938, -1.0708784510556075 
3.620000000003215, -1.0736086937826959 
3.630000000003236, -1.0746823957362155 
3.640000000003257, -1.074740441708314 
3.650000000003278, -1.074298499695281 
3.6600000000032993, -1.0739902885603785 
3.6700000000033204, -1.0747649585566261 
3.6800000000033415, -1.0776668688417907 
3.6900000000033626, -1.0830938675255755 
3.7000000000033837, -1.0903762447033474 
3.710000000003405, -1.0983434598458808 
3.720000000003426, -1.1061114861760646 
3.730000000003447, -1.1133065041285275 
3.740000000003468, -1.1198879971495792 
3.750000000003489, -1.1259415996193518 
3.7600000000035103, -1.1315573911043102 
3.7700000000035314, -1.1367595838077658 
3.7800000000035525, -1.1414575104548232 
3.7900000000035736, -1.145443420947514 
3.8000000000035947, -1.1484800496113245 
3.810000000003616, -1.150443061755184 
3.820000000003637, -1.1513967071210085 
3.830000000003658, -1.1515539064114222 
3.840000000003679, -1.1512101219545667 
3.8500000000037002, -1.1507233351176092 
3.8600000000037213, -1.150482452165521 
3.8700000000037424, -1.1507703176561863 
3.8800000000037635, -1.1516086374822296 
3.8900000000037847, -1.1527992957739808 
3.9000000000038058, -1.1541253544559291 
3.910000000003827, -1.155467399002189 
3.920000000003848, -1.1567633651373543 
3.930000000003869, -1.157934781814959 
3.94000000000389, -1.1588809481220546 
3.9500000000039113, -1.1595236792251487 
3.9600000000039324, -1.1598402748235916 
3.9700000000039535, -1.1598577597758464 
3.9800000000039746, -1.1596179989280222 
3.9900000000039957, -1.1591399046523962 
4.000000000004016, -1.1584049092394115 
4.010000000003993, -1.1573752140759388 
4.02000000000397, -1.1560317504549493 
4.030000000003946, -1.1544046376244101 
4.040000000003923, -1.1525717439565963 
4.0500000000039, -1.1506225897845375 
4.0600000000038765, -1.1486258139055776 
4.070000000003853, -1.1466584235444812 
4.08000000000383, -1.1448831079626758 
4.090000000003807, -1.1435492000747796 
4.100000000003783, -1.1428271339257263 
4.11000000000376, -1.1426205405094134 
4.120000000003737, -1.142591275595396 
4.130000000003713, -1.142339702358066 
4.14000000000369, -1.1415156354986438 
4.150000000003667, -1.1398327371526227 
4.1600000000036434, -1.1370971748097023 
4.17000000000362, -1.1332824708519478 
4.180000000003597, -1.1285551752628515 
4.1900000000035735, -1.1231751920712283 
4.20000000000355, -1.117349057040811 
4.210000000003527, -1.1111572210684966 
4.220000000003504, -1.1045706413787477 
4.23000000000348, -1.0975066245641654 
4.240000000003457, -1.089902518166564 
4.250000000003434, -1.08183719292156 
4.26000000000341, -1.073719814157673 
4.270000000003387, -1.0664141942712508 
4.280000000003364, -1.0609697567045626 
4.2900000000033405, -1.0579022349771279 
4.300000000003317, -1.0567677011808938 
4.310000000003294, -1.0565917197599766 
4.320000000003271, -1.0565072422466129 
4.330000000003247, -1.055926202302459 
4.340000000003224, -1.0543662004547842 
4.350000000003201, -1.051258206818491 
4.360000000003177, -1.0459296179508295 
4.370000000003154, -1.0378816169915677 
4.380000000003131, -1.0272322602774426 
4.390000000003107, -1.0148051192546046 
4.400000000003084, -1.0016316626553186 
4.410000000003061, -0.9884154383796625 
4.4200000000030375, -0.975418594514178 
4.430000000003014, -0.9626389011877545 
4.440000000002991, -0.9500296433253748 
4.450000000002968, -0.9376839296354907 
4.460000000002944, -0.9259794497557025 
4.470000000002921, -0.9156205321258591 
4.480000000002898, -0.9074415715597649 
4.490000000002874, -0.901960070138067 
4.500000000002851, -0.8990111192984879 
4.510000000002828, -0.8978467439922623 
4.520000000002804, -0.8975760640325884 
4.530000000002781, -0.8974979076125041 
4.540000000002758, -0.8971504648405105 
4.5500000000027345, -0.8962147198134943 
4.560000000002711, -0.8944377312886335 
4.570000000002688, -0.8916560636593015 
4.580000000002665, -0.8879019513375954 
4.590000000002641, -0.8834618323825707 
4.600000000002618, -0.8787631473524915 
4.610000000002595, -0.874168998219842 
4.620000000002571, -0.8698652519766791 
4.630000000002548, -0.8658826979767577 
4.640000000002525, -0.8621747872480302 
4.6500000000025015, -0.8586858923182243 
4.660000000002478, -0.855390197206437 
4.670000000002455, -0.8523027137518587 
4.6800000000024315, -0.8494729953246392 
4.690000000002408, -0.8469749892731432 
4.700000000002385, -0.8448984809837728 
4.710000000002362, -0.8433337296533958 
4.720000000002338, -0.8423388836243781 
4.730000000002315, -0.8418993268397328 
4.740000000002292, -0.8419093513314373 
4.750000000002268, -0.8421968883686122 
4.760000000002245, -0.8425770283010475 
4.770000000002222, -0.8429030391447394 
4.7800000000021985, -0.8430979428230122 
4.790000000002175, -0.8431643397396373 
4.800000000002152, -0.8431692187977722 
4.810000000002129, -0.8432037119246415 
4.820000000002105, -0.8433335267798965 
4.830000000002082, -0.8435622234789134 
4.840000000002059, -0.8438209613523225 
4.850000000002035, -0.8439915439239121 
4.860000000002012, -0.8439592258070734 
4.870000000001989, -0.8436695117627462 
4.880000000001965, -0.8431588882209908 
4.890000000001942, -0.8425570532029246 
4.900000000001919, -0.8420748439052865 
4.9100000000018955, -0.8419753348559109 
4.920000000001872, -0.8425128160143915 
4.930000000001849, -0.8438509914718468 
