t, s[1].omega / s[0].omega 
0, -1.2299974134262286 
0.009999999999999995, -1.2295880257810197 
0.019999999999999934, -1.2288599104019122 
0.029999999999999874, -1.227770739256454 
0.04000000000000012, -1.2262967825595017 
0.050000000000000405, -1.2244628705748315 
0.06000000000000069, -1.2223300356496 
0.07000000000000098, -1.2199458113635007 
0.08000000000000126, -1.2173310259925203 
0.09000000000000155, -1.2145838928869113 
0.10000000000000184, -1.212029893409124 
0.11000000000000212, -1.2101588754522847 
0.12000000000000241, -1.2092274255665019 
0.130000000000002, -1.2089608547057706 
0.1400000000000009, -1.2087608990918413 
0.1499999999999998, -1.2080301425372597 
0.1599999999999987, -1.2062145825219885 
0.1699999999999976, -1.2027173935081605 
0.1799999999999965, -1.1969651748477417 
0.1899999999999954, -1.1886929100283932 
0.1999999999999943, -1.1781552717535855 
0.2099999999999932, -1.1659208288540985 
0.2199999999999921, -1.1524319300209807 
0.229999999999991, -1.1377601908398625 
0.2399999999999899, -1.1216437919799573 
0.2499999999999888, -1.103701281211016 
0.2599999999999877, -1.0838548491554811 
0.2699999999999866, -1.0630585488829556 
0.2799999999999855, -1.0439138913315738 
0.2899999999999844, -1.0297973151631277 
0.2999999999999833, -1.0222269587512005 
0.3099999999999822, -1.0196787599275072 
0.3199999999999811, -1.019485341340879 
0.32999999999998, -1.019745554156417 
0.3399999999999789, -1.0195032079779125 
0.3499999999999778, -1.0181685249001469 
0.35999999999997667, -1.0149960703759624 
0.36999999999997557, -1.008763450304829 
0.37999999999997447, -0.9978415128879252 
0.38999999999997337, -0.9811142983168081 
0.39999999999997227, -0.9594115022074854 
0.40999999999997117, -0.9354841330540223 
0.41999999999997006, -0.9120650970393678 
0.42999999999996896, -0.8905033320324451 
0.43999999999996786, -0.8709799074309382 
0.44999999999996676, -0.8532107924112486 
0.45999999999996566, -0.8369136708924568 
0.46999999999996456, -0.8220188335346407 
0.47999999999996346, -0.8087335310582062 
0.48999999999996235, -0.7974851599071632 
0.49999999999996125, -0.7887258801153544 
0.5099999999999602, -0.7826551657594141 
0.519999999999959, -0.7790377719933927 
0.529999999999958, -0.7772672508701145 
0.5399999999999568, -0.7766115818046557 
0.5499999999999557, -0.7764363800804086 
0.5599999999999546, -0.7762885790406818 
0.5699999999999535, -0.7758758832916508 
0.5799999999999524, -0.7750300594729614 
0.5899999999999513, -0.7737052593408862 
0.5999999999999502, -0.7719951954316926 
0.6099999999999491, -0.7701081878214164 
0.619999999999948, -0.7682771392239383 
0.6299999999999469, -0.7666644059041896 
0.6399999999999458, -0.7653237419340171 
0.6499999999999447, -0.7642157179752441 
0.6599999999999436, -0.7632465176146701 
0.6699999999999425, -0.7623156451819219 
0.6799999999999414, -0.7613635972856146 
0.6899999999999403, -0.7604039884142135 
0.6999999999999392, -0.7595299950815642 
0.7099999999999381, -0.7588969058521247 
0.719999999999937, -0.7586856271759925 
0.7299999999999359, -0.759054413905988 
0.7399999999999348, -0.7600965348021462 
0.7499999999999337, -0.7618255689991301 
0.7599999999999326, -0.7641939440646823 
0.7699999999999315, -0.7671287365971241 
0.7799999999999304, -0.7705647914210184 
0.7899999999999293, -0.7744680360174749 
0.7999999999999282, -0.7788529295384881 
0.8099999999999271, -0.7837968443343726 
0.819999999999926, -0.7894453530537036 
0.8299999999999249, -0.7959924906915451 
0.8399999999999238, -0.8036066810936061 
0.8499999999999227, -0.8122619987271257 
0.8599999999999216, -0.821491690147702 
0.8699999999999205, -0.8302931969280916 
0.8799999999999194, -0.837520803410394 
0.8899999999999183, -0.842552679767973 
0.8999999999999172, -0.8454965504163907 
0.9099999999999161, -0.8468345022064844 
0.919999999999915, -0.8470522663534968 
0.9299999999999139, -0.8465430826150111 
0.9399999999999128, -0.8457636341059516 
0.9499999999999117, -0.8456405804923209 
0.9599999999999106, -0.8482670902988646 
0.9699999999999095, -0.8575546764335524 
0.9799999999999084, -0.8785491330618601 
0.9899999999999073, -0.9141512887220701 
0.9999999999999062, -0.9616199923296789 
1.0099999999999052, -1.0139356528937586 
1.019999999999904, -1.0648854562924996 
1.029999999999903, -1.1116609501071948 
1.039999999999902, -1.1538210719771897 
1.0499999999999008, -1.1913509815227918 
1.0599999999998997, -1.223430069920225 
1.0699999999998986, -1.2484947360430305 
1.0799999999998975, -1.26563339604254 
1.0899999999998964, -1.2757409478095398 
1.0999999999998953, -1.2809044399530218 
1.1099999999998942, -1.2830956278504249 
1.119999999999893, -1.2836318740234054 
1.129999999999892, -1.2833679242862428 
1.1399999999998909, -1.2830973826201417 
1.1499999999998898, -1.2837015386283923 
1.1599999999998887, -1.2856790126879392 
1.1699999999998876, -1.2886492433991708 
1.1799999999998865, -1.291798541858796 
1.1899999999998854, -1.294606240583181 
1.1999999999998843, -1.2969534575486108 
1.2099999999998832, -1.298868358436074 
1.219999999999882, -1.3003538962545191 
1.229999999999881, -1.3013858596213177 
1.2399999999998799, -1.3019627003327394 
1.2499999999998788, -1.3021159842966639 
1.2599999999998777, -1.301881002173281 
1.2699999999998766, -1.3012642931371756 
1.2799999999998755, -1.3002381026147716 
1.2899999999998744, -1.2987662355703808 
1.2999999999998733, -1.2968378207077023 
1.3099999999998722, -1.2944712783094083 
1.319999999999871, -1.2916725187115492 
1.32999999999987, -1.2884110577082548 
1.3399999999998689, -1.2847410708023235 
1.3499999999998678, -1.281062130986078 
1.3599999999998666, -1.278164553496031 
1.3699999999998655, -1.2766376635897931 
1.3799999999998644, -1.2762145219245447 
1.3899999999998633, -1.2760502287718176 
1.3999999999998622, -1.2753202039286884 
1.4099999999998611, -1.2732395814049502 
1.41999999999986, -1.2686981604169625 
1.429999999999859, -1.2599794170505736 
1.4399999999998578, -1.245048280399651 
1.4499999999998567, -1.2226804746528488 
1.4599999999998556, -1.1934042500632123 
1.4699999999998545, -1.15879410537456 
1.4799999999998534, -1.119976401348688 
1.4899999999998523, -1.0771441254006313 
1.4999999999998512, -1.030348483671777 
1.5099999999998501, -0.9811052190280607 
1.519999999999849, -0.9339109984166833 
1.529999999999848, -0.8954062229792544 
1.5399999999998468, -0.870133059634463 
1.5499999999998457, -0.857294884792546 
1.5599999999998446, -0.8525298404174887 
1.5699999999998435, -0.8515558439593907 
1.5799999999998424, -0.8517679136202334 
1.5899999999998413, -0.8519434578920928 
1.5999999999998402, -0.8515243100782476 
1.6099999999998391, -0.8501202730135864 
1.619999999999838, -0.8472761902141137 
1.629999999999837, -0.8424800898832476 
1.6399999999998358, -0.8354553767906859 
1.6499999999998347, -0.8265801304217766 
1.6599999999998336, -0.8168966162253973 
1.6699999999998325, -0.8075189601111218 
1.6799999999998314, -0.7990904443518541 
1.6899999999998303, -0.7917502916392356 
1.6999999999998292, -0.7853693543503141 
1.709999999999828, -0.7797515256039762 
1.719999999999827, -0.7747333872222671 
1.729999999999826, -0.7702170198435024 
1.7399999999998248, -0.76617030393049 
1.7499999999998237, -0.7626141415783898 
1.7599999999998226, -0.7596056577987832 
1.7699999999998215, -0.7572171042117108 
1.7799999999998204, -0.755505960652613 
1.7899999999998193, -0.7544791550959296 
1.7999999999998182, -0.7540679643641701 
1.809999999999817, -0.7541323530281098 
1.819999999999816, -0.7544961676248672 
1.8299999999998149, -0.7549949995738333 
1.8399999999998138, -0.7555167539852611 
1.8499999999998127, -0.756025124246625 
1.8599999999998116, -0.7565609555796659 
1.8699999999998105, -0.7572178914409821 
1.8799999999998094, -0.7580984237133699 
1.8899999999998083, -0.7592651152207128 
1.8999999999998072, -0.7606967889913313 
1.909999999999806, -0.7622599435351305 
1.919999999999805, -0.7637249646216273 
1.9299999999998039, -0.7648497786047225 
1.9399999999998028, -0.7654864487150271 
1.9499999999998017, -0.7656310379948543 
1.9599999999998006, -0.765409785133387 
1.9699999999997995, -0.7650664739933951 
1.9799999999997984, -0.7649958101653886 
1.9899999999997973, -0.7658008553067028 
1.9999999999997962, -0.7682911332260118 
2.0099999999998173, -0.7733262523368685 
2.0199999999998384, -0.7815173541628908 
2.0299999999998595, -0.7929815495553362 
2.0399999999998806, -0.8073667174971236 
2.0499999999999017, -0.8241330399902738 
2.059999999999923, -0.8428729211463105 
2.069999999999944, -0.8634914631793029 
2.079999999999965, -0.8862084118903624 
2.089999999999986, -0.9113691149044062 
2.100000000000007, -0.9389550376236615 
2.1100000000000283, -0.9677151907950261 
2.1200000000000494, -0.9945585450156995 
2.1300000000000705, -1.0157852498909876 
2.1400000000000916, -1.029763710761208 
2.1500000000001127, -1.037607652931124 
2.160000000000134, -1.0414222889573455 
2.170000000000155, -1.042872722428266 
2.180000000000176, -1.042945849306694 
2.190000000000197, -1.0422711725471703 
2.2000000000002182, -1.0416407027205368 
2.2100000000002393, -1.0426555567608404 
2.2200000000002604, -1.0479104751074129 
2.2300000000002815, -1.0594822514494022 
2.2400000000003026, -1.0765848926807444 
2.2500000000003237, -1.0959734097382043 
2.260000000000345, -1.1147163044926072 
2.270000000000366, -1.1315678099971553 
2.280000000000387, -1.1464919017847255 
2.290000000000408, -1.1598724074648847 
2.3000000000004293, -1.1720436115731485 
2.3100000000004504, -1.183066490759899 
2.3200000000004715, -1.192654448364292 
2.3300000000004926, -1.2003138642422226 
2.3400000000005137, -1.2057082425904784 
2.3500000000005348, -1.2089394257528816 
2.360000000000556, -1.2104637579791537 
2.370000000000577, -1.210832328496058 
2.380000000000598, -1.210574352697153 
2.390000000000619, -1.210249208801346 
2.4000000000006403, -1.2104362227688117 
2.4100000000006614, -1.2114692320833291 
2.4200000000006825, -1.2131947501165425 
2.4300000000007036, -1.2151772382052575 
2.4400000000007247, -1.217087270328237 
2.450000000000746, -1.2188122726937323 
2.460000000000767, -1.220327451359671 
2.470000000000788, -1.2215801058407987 
2.480000000000809, -1.2224929771032131 
2.49000000000083, -1.2230204308737886 
2.5000000000008513, -1.2231734442163757 
2.5100000000008724, -1.2229968444353514 
2.5200000000008935, -1.222525738576147 
2.5300000000009146, -1.221756414539842 
2.5400000000009357, -1.2206523345861704 
2.550000000000957, -1.2191795998639847 
2.560000000000978, -1.2173433216002858 
2.570000000000999, -1.2151903216286188 
2.58000000000102, -1.2127691149815314 
2.5900000000010412, -1.2101015285058556 
2.6000000000010624, -1.2072552089236397 
2.6100000000010835, -1.204498261470762 
2.6200000000011046, -1.2023162054569951 
2.6300000000011257, -1.2010819008887572 
2.6400000000011468, -1.2006646880460448 
2.650000000001168, -1.2005108246888672 
2.660000000001189, -1.200002407295352 
2.67000000000121, -1.1985848727187842 
2.680000000001231, -1.195684654619387 
2.6900000000012523, -1.1907087920245067 
2.7000000000012734, -1.1832771516777876 
2.7100000000012945, -1.1735014849192051 
2.7200000000013156, -1.161915226583111 
2.7300000000013367, -1.1490559327396843 
2.740000000001358, -1.1351362379064955 
2.750000000001379, -1.1200096631261307 
2.7600000000014, -1.1033312117430578 
2.770000000001421, -1.084874131401731 
2.780000000001442, -1.0651022295168153 
2.7900000000014633, -1.0458676941412146 
2.8000000000014844, -1.030267705089903 
2.8100000000015055, -1.0206544742325716 
2.8200000000015266, -1.0166181959604645 
2.8300000000015477, -1.0157940082572012 
2.840000000001569, -1.015996146760679 
2.85000000000159, -1.0159986037464097 
2.860000000001611, -1.0151490789288333 
2.870000000001632, -1.0128236690203054 
2.8800000000016532, -1.0080529555064786 
2.8900000000016743, -0.9994364595973299 
2.9000000000016954, -0.9857024956466516 
2.9100000000017165, -0.9669661216474179 
2.9200000000017377, -0.9452857865185706 
2.9300000000017588, -0.9233172175657532 
2.94000000000178, -0.9027152024199724 
2.950000000001801, -0.8839268020219919 
2.960000000001822, -0.8667770517127671 
2.970000000001843, -0.8509767548649373 
2.9800000000018643, -0.8363833021189147 
2.9900000000018854, -0.823108486437313 
3.0000000000019065, -0.811519655263225 
3.0100000000019276, -0.8021099811568737 
3.0200000000019487, -0.7952406990785177 
3.03000000000197, -0.7908875006127893 
3.040000000001991, -0.7885902462812733 
3.050000000002012, -0.7876472601778614 
3.060000000002033, -0.7873754754565445 
3.070000000002054, -0.7872550351150902 
3.0800000000020753, -0.7869393034780249 
3.0900000000020964, -0.7862152697784129 
3.1000000000021175, -0.7849886849304593 
3.1100000000021386, -0.7833032079303208 
3.1200000000021597, -0.781338874852711 
3.130000000002181, -0.7793398675764606 
3.140000000002202, -0.7775075041105117 
3.150000000002223, -0.7759371167365587 
3.160000000002244, -0.7746195742813724 
3.1700000000022652, -0.7734772851486256 
3.1800000000022863, -0.7724113691093627 
3.1900000000023074, -0.7713503394361781 
3.2000000000023285, -0.7702870236336822 
3.2100000000023496, -0.7692910585678558 
3.2200000000023707, -0.7684954069965044 
3.230000000002392, -0.7680622834753911 
3.240000000002413, -0.7681374075154092 
3.250000000002434, -0.7688097114429376 
3.260000000002455, -0.7700963195697634 
3.2700000000024763, -0.7719576940387365 
3.2800000000024974, -0.7743279988679445 
3.2900000000025185, -0.7771424545974456 
3.3000000000025396, -0.7803561242925815 
3.3100000000025607, -0.7839592366315564 
3.3200000000025818, -0.7879923896826779 
3.330000000002603, -0.7925558931862808 
3.340000000002624, -0.7978001233616137 
3.350000000002645, -0.8038777525985188 
3.360000000002666, -0.81083076634642 
3.3700000000026873, -0.8184062866357763 
3.3800000000027084, -0.8259193736707792 
3.3900000000027295, -0.8324265331266776 
3.4000000000027506, -0.8372294269215349 
3.4100000000027717, -0.8402083400305942 
3.420000000002793, -0.8416710909643529 
3.430000000002814, -0.8420327920393194 
3.440000000002835, -0.8416699421423635 
3.450000000002856, -0.8410076756244742 
3.460000000002877, -0.8408248349181866 
3.4700000000028983, -0.8427675620367321 
3.4800000000029194, -0.8498038097537213 
3.4900000000029405, -0.8657447918799834 
3.5000000000029616, -0.8930508551908181 
3.5100000000029827, -0.9304048994844252 
3.520000000003004, -0.9732258525502224 
3.530000000003025, -1.0168509406336959 
3.540000000003046, -1.0586968025240473 
3.550000000003067, -1.098031781388229 
3.5600000000030882, -1.1346924033367471 
3.5700000000031094, -1.1678982462958694 
3.5800000000031305, -1.195814251967024 
3.5900000000031516, -1.216514769745748 
3.6000000000031727, -1.2296913951507613 
3.6100000000031938, -1.236920412741422 
3.620000000003215, -1.2403277353519457 
3.630000000003236, -1.2415362099154477 
3.640000000003257, -1.2415582972976813 
3.650000000003278, -1.2411579105700747 
3.6600000000032993, -1.2412250266369662 
3.6700000000033204, -1.2426919453191245 
3.6800000000033415, -1.2458181019777945 
3.6900000000033626, -1.2498877414572065 
3.7000000000033837, -1.253963097674451 
3.710000000003405, -1.25755229792289 
3.720000000003426, -1.2605728352487875 
3.730000000003447, -1.263076745469393 
3.740000000003468, -1.2651072129795593 
3.750000000003489, -1.2666944326199103 
3.7600000000035103, -1.2678769798296425 
3.7700000000035314, -1.2686908571164972 
3.7800000000035525, -1.269141249839128 
3.7900000000035736, -1.2691920925149016 
3.8000000000035947, -1.2687911673792964 
3.810000000003616, -1.2679177362873084 
3.820000000003637, -1.2666185299117834 
3.830000000003658, -1.2649992785806865 
3.840000000003679, -1.263161120258178 
3.8500000000037002, -1.2611384827038872 
3.8600000000037213, -1.258955513607996 
3.8700000000037424, -1.2568009274981577 
3.8800000000037635, -1.2550854560040707 
3.8900000000037847, -1.2541449476223656 
3.9000000000038058, -1.2538526337599487 
3.910000000003827, -1.2536798140702332 
3.920000000003848, -1.253024951145471 
3.930000000003869, -1.2513147163435263 
3.94000000000389, -1.2479215890770026 
3.9500000000039113, -1.2421976242980524 
3.9600000000039324, -1.2337440833868845 
3.9700000000039535, -1.222663528094707 
3.9800000000039746, -1.209408957599762 
3.9900000000039957, -1.1943342076400167 
4.000000000004016, -1.1773887731863497 
4.010000000003993, -1.1581147382802532 
4.02000000000397, -1.1359123944841947 
4.030000000003946, -1.1107237918526764 
4.040000000003923, -1.0842859814784238 
4.0500000000039, -1.060928084621421 
4.0600000000038765, -1.0453336083022582 
4.070000000003853, -1.038304122236251 
4.08000000000383, -1.0366779720316495 
4.090000000003807, -1.0369985370770027 
4.100000000003783, -1.0373585601744888 
4.11000000000376, -1.0369283760930261 
4.120000000003737, -1.0350949987461926 
4.130000000003713, -1.0308342415822185 
4.14000000000369, -1.022231410233372 
4.150000000003667, -1.0064473497956876 
4.1600000000036434, -0.9812087156888631 
4.17000000000362, -0.9477294734942788 
4.180000000003597, -0.9110328006195564 
4.1900000000035735, -0.8760793121896405 
4.20000000000355, -0.8450898914005405 
4.210000000003527, -0.8181824708302532 
4.220000000003504, -0.7947678938162818 
4.23000000000348, -0.7743146446612921 
4.240000000003457, -0.7565872054288987 
4.250000000003434, -0.741633058445563 
4.26000000000341, -0.7296379010717976 
4.270000000003387, -0.7207109393704451 
4.280000000003364, -0.7146966599736377 
4.2900000000033405, -0.7111242585183591 
4.300000000003317, -0.7093219026848446 
4.310000000003294, -0.7086028189749541 
4.320000000003271, -0.708402365387513 
4.330000000003247, -0.7083205061292228 
4.340000000003224, -0.7081031251338528 
4.350000000003201, -0.7076160727580534 
4.360000000003177, -0.7068389984576403 
4.370000000003154, -0.7058633342851918 
4.380000000003131, -0.7048581607330492 
4.390000000003107, -0.7039998383818851 
4.400000000003084, -0.7034064438077401 
4.410000000003061, -0.703108381528039 
4.4200000000030375, -0.7030485639822286 
4.430000000003014, -0.7031012501001039 
4.440000000002991, -0.7031142697538479 
4.450000000002968, -0.7029696465167674 
4.460000000002944, -0.7026335798415512 
4.470000000002921, -0.7021761237101479 
4.480000000002898, -0.7017737400377699 
4.490000000002874, -0.701713535050295 
4.500000000002851, -0.7023924687050112 
4.510000000002828, -0.7042830820657374 
4.520000000002804, -0.7078477441102168 
4.530000000002781, -0.7134280238468 
4.540000000002758, -0.7211759839272339 
4.5500000000027345, -0.7310793228322126 
4.560000000002711, -0.7430699028753787 
4.570000000002688, -0.7571599593282232 
4.580000000002665, -0.7735562989606057 
4.590000000002641, -0.792725968950415 
4.600000000002618, -0.8153681648754179 
4.610000000002595, -0.8421380387614323 
4.620000000002571, -0.8728146397154669 
4.630000000002548, -0.9049375688058683 
4.640000000002525, -0.9336112120949783 
4.6500000000025015, -0.9545502847916755 
4.660000000002478, -0.967227517545364 
4.670000000002455, -0.9738683618516791 
4.6800000000024315, -0.9768825879033063 
4.690000000002408, -0.9778177475036071 
4.700000000002385, -0.9774825932384429 
4.710000000002362, -0.9763798400377498 
4.720000000002338, -0.9753365430589052 
4.730000000002315, -0.9766072751027816 
4.740000000002292, -0.985109495707482 
4.750000000002268, -1.00714441062508 
4.760000000002245, -1.0442826986741378 
4.770000000002222, -1.089585508410984 
4.7800000000021985, -1.1338391402714232 
4.790000000002175, -1.1723691306637947 
4.800000000002152, -1.2047853735093565 
4.810000000002129, -1.2321773269919873 
4.820000000002105, -1.255408381134665 
4.830000000002082, -1.274583757608815 
4.840000000002059, -1.2892876237488382 
4.850000000002035, -1.299329325819438 
4.860000000002012, -1.3052873700069634 
4.870000000001989, -1.3082734768452065 
4.880000000001965, -1.3093713303279002 
4.890000000001942, -1.3094002447658606 
4.900000000001919, -1.3090388448562422 
4.9100000000018955, -1.308975958342187 
4.920000000001872, -1.309717656886881 
4.930000000001849, -1.311205443037606 
