t, s[1].omega / s[0].omega 
0, -0.5820966618330915 
0.009999999999999995, -0.8461926637949242 
0.019999999999999934, -1.138331189203566 
0.029999999999999874, -1.3204004496136006 
0.04000000000000012, -1.3963372668423726 
0.050000000000000405, -1.4239094289794019 
0.06000000000000069, -1.4338232581960235 
0.07000000000000098, -1.437268395039189 
0.08000000000000126, -1.438072781822312 
0.09000000000000155, -1.437687819373797 
0.10000000000000184, -1.437132513133821 
0.11000000000000212, -1.4378040636556662 
0.12000000000000241, -1.4407711026489485 
0.130000000000002, -1.4453461031446213 
0.1400000000000009, -1.4499292986423529 
0.1499999999999998, -1.453667697894598 
0.1599999999999987, -1.4565032152405537 
0.1699999999999976, -1.458588430718824 
0.1799999999999965, -1.4600122807303375 
0.1899999999999954, -1.460806142944864 
0.1999999999999943, -1.4609953639567623 
0.2099999999999932, -1.4606056836841828 
0.2199999999999921, -1.4596437131589055 
0.229999999999991, -1.4580836049639363 
0.2399999999999899, -1.4558704520022356 
0.2499999999999888, -1.4529221836373687 
0.2599999999999877, -1.4490984332522614 
0.2699999999999866, -1.4441663903399988 
0.2799999999999855, -1.4379655119049917 
0.2899999999999844, -1.4310333888080202 
0.2999999999999833, -1.4252039140448343 
0.3099999999999822, -1.4223099285315193 
0.3199999999999811, -1.4218930609838847 
0.32999999999998, -1.4221202867625953 
0.3399999999999789, -1.4216661182184975 
0.3499999999999778, -1.4194983511510855 
0.35999999999997667, -1.4134474708241316 
0.36999999999997557, -1.3969563687087139 
0.37999999999997447, -1.34910396015502 
0.38999999999997337, -1.209857932769505 
0.39999999999997227, -0.8979212017974871 
0.40999999999997117, -0.5367066251087935 
0.41999999999997006, -0.3237593199911965 
0.42999999999996896, -0.22756630604907202 
0.43999999999996786, -0.18323356333833912 
0.44999999999996676, -0.160846573629352 
0.45999999999996566, -0.14850923822765943 
0.46999999999996456, -0.1412327597432513 
0.47999999999996346, -0.1367438865787382 
0.48999999999996235, -0.13393440383383565 
0.49999999999996125, -0.13225141413835562 
0.5099999999999602, -0.13144495016946695 
0.519999999999959, -0.13146963448109078 
0.529999999999958, -0.13247299496630735 
0.5399999999999568, -0.1348655103024528 
0.5499999999999557, -0.139524869026395 
0.5599999999999546, -0.14830130507488276 
0.5699999999999535, -0.16530789997071224 
0.5799999999999524, -0.20045392653303332 
0.5899999999999513, -0.2795198200790413 
0.5999999999999502, -0.46798487471069283 
0.6099999999999491, -0.8611423399830238 
0.619999999999948, -1.3408465655574902 
0.6299999999999469, -1.6381087474312164 
0.6399999999999458, -1.7677757391099014 
0.6499999999999447, -1.8198766051392608 
0.6599999999999436, -1.8404661282702226 
0.6699999999999425, -1.848407247433896 
0.6799999999999414, -1.8511659460794132 
0.6899999999999403, -1.851684236643565 
0.6999999999999392, -1.851257173827427 
0.7099999999999381, -1.8506347753954693 
0.719999999999937, -1.8500432061213672 
0.7299999999999359, -1.8492055976083814 
0.7399999999999348, -1.8481350206925142 
0.7499999999999337, -1.8474245110230303 
0.7599999999999326, -1.8472177318155194 
0.7699999999999315, -1.846699875391587 
0.7799999999999304, -1.8445849088807056 
0.7899999999999293, -1.838103331201896 
0.7999999999999282, -1.817848419309697 
0.8099999999999271, -1.7462545804496412 
0.819999999999926, -1.4755390928303145 
0.8299999999999249, -0.7977552053047299 
0.8399999999999238, -0.24878838895166452 
0.8499999999999227, -0.05312441704873353 
0.8599999999999216, 0.013120288983883514 
0.8699999999999205, 0.03937586171904961 
0.8799999999999194, 0.05143984752883586 
0.8899999999999183, 0.05752892829071234 
0.8999999999999172, 0.06073495273863193 
0.9099999999999161, 0.062365558516783506 
0.919999999999915, 0.06299995908365394 
0.9299999999999139, 0.06285502910058301 
0.9399999999999128, 0.06189476153429646 
0.9499999999999117, 0.05978783690922743 
0.9599999999999106, 0.05565671775223607 
0.9699999999999095, 0.047295239581102475 
0.9799999999999084, 0.028592895840929805 
0.9899999999999073, -0.020346075361882765 
0.9999999999999062, -0.1819626868735273 
1.0099999999999052, -0.9010231409548501 
1.019999999999904, -2.5274099180820846 
1.029999999999903, -2.8147604255438905 
1.039999999999902, -2.850700659898085 
1.0499999999999008, -2.8592860662365567 
1.0599999999998997, -2.8615274616393718 
1.0699999999998986, -2.8611155675664084 
1.0799999999998975, -2.858391280852497 
1.0899999999998964, -2.850649581605697 
1.0999999999998953, -2.823753389003569 
1.1099999999998942, -2.767464016064469 
1.119999999999893, -2.7748072658354874 
1.129999999999892, -2.783830901926189 
1.1399999999998909, -2.784946832862812 
1.1499999999998898, -2.7837947665681853 
1.1599999999998887, -2.7843523306733964 
1.1699999999998876, -2.7870086806551506 
1.1799999999998865, -2.7882731989490885 
1.1899999999998854, -2.788484418375504 
1.1999999999998843, -2.787898892920078 
1.2099999999998832, -2.7845046607110637 
1.219999999999882, -2.767077935115023 
1.229999999999881, -2.595635304025916 
1.2399999999998799, 0.18962254812922089 
1.2499999999998788, 1.192700698312449 
1.2599999999998777, 1.246048727123942 
1.2699999999998766, 1.2547517909215347 
1.2799999999998755, 1.2565985871910994 
1.2899999999998744, 1.2560512788644445 
1.2999999999998733, 1.2532916991515228 
1.3099999999998722, 1.246648889198759 
1.319999999999871, 1.2333545858167463 
1.32999999999987, 1.2157120614176646 
1.3399999999998689, 1.2054047946752493 
1.3499999999998678, 1.2043823926076733 
1.3599999999998666, 1.205829952800454 
1.3699999999998655, 1.206649502649088 
1.3799999999998644, 1.2061172248981717 
1.3899999999998633, 1.2031657999498306 
1.3999999999998622, 1.1931627219825933 
1.4099999999998611, 1.1514623967187458 
1.41999999999986, 1.0001142238040555 
1.429999999999859, 1.568101128625331 
1.4399999999998578, 1.7871073313373524 
1.4499999999998567, 1.8064652931740723 
1.4599999999998556, 1.8094370576063254 
1.4699999999998545, 1.8084977898423589 
1.4799999999998534, 1.801595677424995 
1.4899999999998523, 1.7488091187666321 
1.4999999999998512, 0.7236073954048787 
1.5099999999998501, -0.39454448945864967 
1.519999999999849, -0.48790832120021277 
1.529999999999848, -0.507996796999367 
1.5399999999998468, -0.5176198666369419 
1.5499999999998457, -0.5232328429987978 
1.5599999999998446, -0.5265789756419615 
1.5699999999998435, -0.5284863000431811 
1.5799999999998424, -0.5293850866784378 
1.5899999999998413, -0.5294627208244375 
1.5999999999998402, -0.5287354915738602 
1.6099999999998391, -0.5270996926321231 
1.619999999999838, -0.5244143134711556 
1.629999999999837, -0.5206563926438655 
1.6399999999998358, -0.5160949538577524 
1.6499999999998347, -0.5112945963687311 
1.6599999999998336, -0.506863345349773 
1.6699999999998325, -0.503179845160684 
1.6799999999998314, -0.5003373413032699 
1.6899999999998303, -0.49824720769285796 
1.6999999999998292, -0.49674682279350096 
1.709999999999828, -0.49565801562889134 
1.719999999999827, -0.49481733404223727 
1.729999999999826, -0.49410142462983575 
1.7399999999998248, -0.4934489334350081 
1.7499999999998237, -0.4928734378074247 
1.7599999999998226, -0.4924725567230824 
1.7699999999998215, -0.49244760565404444 
1.7799999999998204, -0.4931479564237741 
1.7899999999998193, -0.49515147492231304 
1.7999999999998182, -0.4993928389870388 
1.809999999999817, -0.5073542798326856 
1.819999999999816, -0.5213315907292253 
1.8299999999998149, -0.5447629966325029 
1.8399999999998138, -0.5825107811324937 
1.8499999999998127, -0.6407299115247771 
1.8599999999998116, -0.7255301143234545 
1.8699999999998105, -0.8394779378962165 
1.8799999999998094, -0.976214200201294 
1.8899999999998083, -1.1167342708381953 
1.8999999999998072, -1.2346369737929819 
1.909999999999806, -1.3130161880716487 
1.919999999999805, -1.3551514551929373 
1.9299999999998039, -1.3747155432166964 
1.9399999999998028, -1.3830618694336108 
1.9499999999998017, -1.38630629670592 
1.9599999999998006, -1.387192405909069 
1.9699999999997995, -1.386964823655219 
1.9799999999997984, -1.3865037108435634 
1.9899999999997973, -1.3868672635913761 
1.9999999999997962, -1.388875198785018 
2.0099999999998173, -1.3921990028215352 
2.0199999999998384, -1.3957563799718578 
2.0299999999998595, -1.3988298821203884 
2.0399999999998806, -1.4012751887448893 
2.0499999999999017, -1.4031526547007611 
2.059999999999923, -1.4044901333863746 
2.069999999999944, -1.4052743607415685 
2.079999999999965, -1.4055023807553044 
2.089999999999986, -1.4051934213680672 
2.100000000000007, -1.4043664252357226 
2.1100000000000283, -1.4030156240634954 
2.1200000000000494, -1.401105448714346 
2.1300000000000705, -1.3985813016870936 
2.1400000000000916, -1.3953686837111228 
2.1500000000001127, -1.3913431001574115 
2.160000000000134, -1.3863452193792283 
2.170000000000155, -1.3804390901586456 
2.180000000000176, -1.3744594604974931 
2.190000000000197, -1.3700577922493102 
2.2000000000002182, -1.3681997154680199 
2.2100000000002393, -1.3680269466809925 
2.2200000000002604, -1.3680713117829206 
2.2300000000002815, -1.367300441927752 
2.2400000000003026, -1.3646965604170287 
2.2500000000003237, -1.3580730821876699 
2.260000000000345, -1.34173827931211 
2.270000000000366, -1.3017099092348126 
2.280000000000387, -1.2115367797037373 
2.290000000000408, -1.0506317209572102 
2.3000000000004293, -0.8518371081959357 
2.3100000000004504, -0.6808697546283431 
2.3200000000004715, -0.5636713658501187 
2.3300000000004926, -0.4902780611058019 
2.3400000000005137, -0.4450371361285578 
2.3500000000005348, -0.4168054856072434 
2.360000000000556, -0.3988701362972664 
2.370000000000577, -0.38731685302046304 
2.380000000000598, -0.37983807115960533 
2.390000000000619, -0.3750395849338312 
2.4000000000006403, -0.37205706375460035 
2.4100000000006614, -0.37034406377234574 
2.4200000000006825, -0.3695534750586146 
2.4300000000007036, -0.3694711999794381 
2.4400000000007247, -0.36998094878382537 
2.450000000000746, -0.37104989786172443 
2.460000000000767, -0.3727310299014652 
2.470000000000788, -0.37518198135160136 
2.480000000000809, -0.37870490722036443 
2.49000000000083, -0.38382040372645543 
2.5000000000008513, -0.3914005212800412 
2.5100000000008724, -0.40288314872417297 
2.5200000000008935, -0.4204898461009347 
2.5300000000009146, -0.44692634050458746 
2.5400000000009357, -0.4831727606478407 
2.550000000000957, -0.5242497262480759 
2.560000000000978, -0.5599078386801166 
2.570000000000999, -0.5838329846063917 
2.58000000000102, -0.5973002905890346 
2.5900000000010412, -0.6041896452742903 
2.6000000000010624, -0.6074162761167257 
2.6100000000010835, -0.6085192191572937 
2.6200000000011046, -0.6080939532417743 
2.6300000000011257, -0.6060469297719356 
2.6400000000011468, -0.601451487626051 
2.650000000001168, -0.5917012288114122 
2.660000000001189, -0.5699956991986899 
2.67000000000121, -0.5195551674744924 
2.680000000001231, -0.4117120644575782 
2.6900000000012523, -0.2514503481938372 
2.7000000000012734, -0.11847611756202252 
2.7100000000012945, -0.04777741466725914 
2.7200000000013156, -0.01507246874377276 
2.7300000000013367, 0.0005353012222018795 
2.740000000001358, 0.008146578840889379 
2.750000000001379, 0.012133367435862493 
2.7600000000014, 0.01423369656151673 
2.770000000001421, 0.015286505642092371 
2.780000000001442, 0.015745147604286823 
2.7900000000014633, 0.015881109588527148 
2.8000000000014844, 0.015867362144413956 
2.8100000000015055, 0.015819442556334162 
2.8200000000015266, 0.01583073862319493 
2.8300000000015477, 0.016031034698792846 
2.840000000001569, 0.016739853518653407 
2.85000000000159, 0.018985738123259856 
2.860000000001611, 0.02648009889835031 
2.870000000001632, 0.052821321002048595 
2.8800000000016532, 0.13561087023064883 
2.8900000000016743, 0.2898016428083475 
2.9000000000016954, 0.4106196356080142 
2.9100000000017165, 0.46156973074663377 
2.9200000000017377, 0.48025510117861625 
2.9300000000017588, 0.4874626405678436 
2.94000000000178, 0.49022565454648354 
2.950000000001801, 0.49085391650382826 
2.960000000001822, 0.4900517943422284 
2.970000000001843, 0.4878863355123063 
2.9800000000018643, 0.48419123696791583 
2.9900000000018854, 0.47894941521756385 
3.0000000000019065, 0.4727108326008593 
3.0100000000019276, 0.4666092774796208 
3.0200000000019487, 0.4617093270054661 
3.03000000000197, 0.4583973390460209 
3.040000000001991, 0.4564567912677574 
3.050000000002012, 0.45546109459728373 
3.060000000002033, 0.4550136417088083 
3.070000000002054, 0.45479627958367785 
3.0800000000020753, 0.4545372722405552 
3.0900000000020964, 0.453953666392922 
3.1000000000021175, 0.45264793176339513 
3.1100000000021386, 0.44984852887230503 
3.1200000000021597, 0.44360391571555374 
3.130000000002181, 0.427671754563218 
3.140000000002202, 0.37544790728185135 
3.150000000002223, 0.12295883164836799 
3.160000000002244, -1.0303721385079667 
3.1700000000022652, -1.8671615314837116 
3.1800000000022863, -2.0092754607283423 
3.1900000000023074, -2.0364216297205697 
3.2000000000023285, -2.043023719694978 
3.2100000000023496, -2.0444600931772805 
3.2200000000023707, -2.0442594354876804 
3.230000000002392, -2.0438726600220813 
3.240000000002413, -2.04392482040173 
3.250000000002434, -2.043926949197132 
3.260000000002455, -2.04353447351012 
3.2700000000024763, -2.0432026102090677 
3.2800000000024974, -2.043021219307678 
3.2900000000025185, -2.0421029586722823 
3.3000000000025396, -2.0386877508762984 
3.3100000000025607, -2.027420949477827 
3.3200000000025818, -1.9846803764562568 
3.330000000002603, -1.7804628760337393 
3.340000000002624, -0.9222478245848901 
3.350000000002645, -0.05343304913617932 
3.360000000002666, 0.17456302741870883 
3.3700000000026873, 0.2330483008686563 
3.3800000000027084, 0.2529015457277153 
3.3900000000027295, 0.2610827431267758 
3.4000000000027506, 0.2648256075903396 
3.4100000000027717, 0.2665750156941305 
3.420000000002793, 0.26731369296311497 
3.430000000002814, 0.267492417787074 
3.440000000002835, 0.2673434512099119 
3.450000000002856, 0.26701845908905375 
3.460000000002877, 0.26671431764000475 
3.4700000000028983, 0.26696695528428066 
3.4800000000029194, 0.26961286151247454 
3.4900000000029405, 0.2807203461333091 
3.5000000000029616, 0.3150233328946376 
3.5100000000029827, 0.38177419395119416 
3.520000000003004, 0.44856147268353697 
3.530000000003025, 0.48642722909113073 
3.540000000003046, 0.5030983690527389 
3.550000000003067, 0.5100833296796697 
3.5600000000030882, 0.512837579163876 
3.5700000000031094, 0.5134178232837103 
3.5800000000031305, 0.5124092918781005 
3.5900000000031516, 0.5096209243593354 
3.6000000000031727, 0.504303956235281 
3.6100000000031938, 0.49551914551674886 
3.620000000003215, 0.48331503647050306 
3.630000000003236, 0.4701063563603654 
3.640000000003257, 0.45940462125371273 
3.650000000003278, 0.4526891491496336 
3.6600000000032993, 0.4491548641511652 
3.6700000000033204, 0.44747083504112667 
3.6800000000033415, 0.4466864792098576 
3.6900000000033626, 0.44624878767321796 
3.7000000000033837, 0.4458129465777553 
3.710000000003405, 0.4450810444330412 
3.720000000003426, 0.44364839768985903 
3.730000000003447, 0.4407245073077603 
3.740000000003468, 0.4343207506450141 
3.750000000003489, 0.4181342266125629 
3.7600000000035103, 0.36542115796809715 
3.7700000000035314, 0.108263374349077 
3.7800000000035525, -1.1595728245002612 
3.7900000000035736, -2.0938736829743747 
3.8000000000035947, -2.240053037545362 
3.810000000003616, -2.266954009749929 
3.820000000003637, -2.2733295176339805 
3.830000000003658, -2.274615927103169 
3.840000000003679, -2.2742818600266164 
3.8500000000037002, -2.2735364835575904 
3.8600000000037213, -2.2724935210547175 
3.8700000000037424, -2.2707104242189016 
3.8800000000037635, -2.268983910485456 
3.8900000000037847, -2.2685480865813554 
3.9000000000038058, -2.2682084224438506 
3.910000000003827, -2.2656450154748393 
3.920000000003848, -2.2541183459651504 
3.930000000003869, -2.185437972498984 
3.94000000000389, -1.7157863650275609 
3.9500000000039113, -3.573956204088028 
3.9600000000039324, -4.399415858355146 
3.9700000000039535, -4.413483710045828 
3.9800000000039746, -4.413977459916036 
3.9900000000039957, -4.409082776714223 
4.000000000004016, -4.348625208498307 
4.010000000003993, -0.007189468686719292 
4.02000000000397, 1.5986062416067335 
4.030000000003946, 1.6553181877646908 
4.040000000003923, 1.662406760841477 
4.0500000000039, 1.6636568794532436 
4.0600000000038765, 1.663671286863573 
4.070000000003853, 1.6636448132474477 
4.08000000000383, 1.6639294204570743 
4.090000000003807, 1.6642580272238443 
4.100000000003783, 1.6643126526287895 
4.11000000000376, 1.6641253456023943 
4.120000000003737, 1.663734962587602 
4.130000000003713, 1.6626594701135786 
4.14000000000369, 1.6587700150969524 
4.150000000003667, 1.637723744204397 
4.1600000000036434, 1.2550718447190958 
4.17000000000362, -3.640697719229048 
4.180000000003597, -3.8633917158123987 
4.1900000000035735, -3.875288338160561 
4.20000000000355, -3.8763658158633114 
4.210000000003527, -3.873665692844022 
4.220000000003504, -3.8587108516850464 
4.23000000000348, -3.647898396779533 
4.240000000003457, -3.581110187890509 
4.250000000003434, -3.623996886483019 
4.26000000000341, -3.6267760334036696 
4.270000000003387, -3.6262187108197237 
4.280000000003364, -3.625332893274225 
4.2900000000033405, -3.623011923192336 
4.300000000003317, -3.6220132393778757 
4.310000000003294, -3.6215154415667143 
4.320000000003271, -3.6155035292601925 
4.330000000003247, -3.6139171820763742 
4.340000000003224, -3.6368894213012672 
4.350000000003201, -3.642562139798047 
4.360000000003177, -3.643161246703851 
4.370000000003154, -3.6407213203956985 
4.380000000003131, -3.6250275610708362 
4.390000000003107, -3.32701468692242 
4.400000000003084, 1.4275335818170487 
4.410000000003061, 1.6666664985992576 
4.4200000000030375, 1.6814633960604979 
4.430000000003014, 1.6838125951699474 
4.440000000002991, 1.6833676890687521 
4.450000000002968, 1.6805854700109115 
4.460000000002944, 1.673250469682118 
4.470000000002921, 1.6589485299249271 
4.480000000002898, 1.6472190380769458 
4.490000000002874, 1.646949728113971 
4.500000000002851, 1.6491767877420542 
4.510000000002828, 1.64977911426636 
4.520000000002804, 1.6480934353056598 
4.530000000002781, 1.6416394211115897 
4.540000000002758, 1.62514832188455 
4.5500000000027345, 1.647626061915791 
4.560000000002711, 1.7184540228459764 
4.570000000002688, 1.7409643367034664 
4.580000000002665, 1.7460727565087644 
4.590000000002641, 1.746590645589635 
4.600000000002618, 1.7438363344888859 
4.610000000002595, 1.72831243033836 
4.620000000002571, 1.476120342164349 
4.630000000002548, -2.9783318025896874 
4.640000000002525, -3.2986115006513743 
4.6500000000025015, -3.3144653704449056 
4.660000000002478, -3.3160585043536615 
4.670000000002455, -3.3151296823336844 
4.6800000000024315, -3.3124277758835037 
4.690000000002408, -3.305621994171994 
4.700000000002385, -3.3021900223542415 
4.710000000002362, -3.3040641314803345 
4.720000000002338, -3.3028968144662505 
4.730000000002315, -3.2996764271064523 
4.740000000002292, -3.305769767937381 
4.750000000002268, -3.3111974872689798 
4.760000000002245, -3.312465382797293 
4.770000000002222, -3.3119977563294043 
4.7800000000021985, -3.30788830904806 
4.790000000002175, -3.27902549887916 
4.800000000002152, -2.4899123818351057 
4.810000000002129, 1.4472108591858304 
4.820000000002105, 1.5792657526498453 
4.830000000002082, 1.5910563408834306 
4.840000000002059, 1.59299689298077 
4.850000000002035, 1.5921039979686813 
4.860000000002012, 1.58791419336056 
4.870000000001989, 1.575156391809465 
4.880000000001965, 1.544594590842076 
4.890000000001942, 1.520442391241026 
4.900000000001919, 1.523337112502183 
4.9100000000018955, 1.528152406180416 
4.920000000001872, 1.5297877095814607 
4.930000000001849, 1.5290763750684988 
4.940000000001826, 1.525474210192081 
4.950000000001802, 1.517041228777798 
