t, s[1].omega / s[0].omega 
0, -1.77974870870374 
0.009999999999999995, -1.744514120600987 
0.019999999999999934, -1.674160981223211 
0.029999999999999874, -1.5254104350458133 
0.04000000000000012, -1.262860539173507 
0.050000000000000405, -1.0169406689010705 
0.06000000000000069, -0.9095936029991922 
0.07000000000000098, -0.8834523347985657 
0.08000000000000126, -0.8818558768039724 
0.09000000000000155, -0.8847478203191086 
0.10000000000000184, -0.8872288591079972 
0.11000000000000212, -0.8885334001709131 
0.12000000000000241, -0.8886521891349171 
0.130000000000002, -0.8874358138268252 
0.1400000000000009, -0.8842423702239456 
0.1499999999999998, -0.8775300240174969 
0.1599999999999987, -0.8643405480744129 
0.1699999999999976, -0.8405327668078003 
0.1799999999999965, -0.8038604087938314 
0.1899999999999954, -0.7587896921052265 
0.1999999999999943, -0.7146974736461006 
0.2099999999999932, -0.6780090085592133 
0.2199999999999921, -0.6497773160803048 
0.229999999999991, -0.6284732160610923 
0.2399999999999899, -0.6122676884311906 
0.2499999999999888, -0.5997560649231486 
0.2599999999999877, -0.58999138599545 
0.2699999999999866, -0.5823606607768578 
0.2799999999999855, -0.5764647200995282 
0.2899999999999844, -0.572029087425046 
0.2999999999999833, -0.5688433335517689 
0.3099999999999822, -0.5667236519222001 
0.3199999999999811, -0.565494570544214 
0.32999999999998, -0.5649857733959543 
0.3399999999999789, -0.5650391558054952 
0.3499999999999778, -0.5655210568285264 
0.35999999999997667, -0.5663359610681474 
0.36999999999997557, -0.5674398230371795 
0.37999999999997447, -0.568851491172897 
0.38999999999997337, -0.5706592595353983 
0.39999999999997227, -0.5730191882337963 
0.40999999999997117, -0.5761427857650355 
0.41999999999997006, -0.5802647884549644 
0.42999999999996896, -0.5855596390321919 
0.43999999999996786, -0.5919669197058828 
0.44999999999996676, -0.5989808562211838 
0.45999999999996566, -0.6056661144745736 
0.46999999999996456, -0.6110964024833969 
0.47999999999996346, -0.6148444595940891 
0.48999999999996235, -0.6170112450187574 
0.49999999999996125, -0.6179140818081501 
0.5099999999999602, -0.6178208210971603 
0.519999999999959, -0.616843912307464 
0.529999999999958, -0.6149247155759415 
0.5399999999999568, -0.611865823052484 
0.5499999999999557, -0.6075208596972186 
0.5599999999999546, -0.6027780445836954 
0.5699999999999535, -0.6046055037517761 
0.5799999999999524, -0.6563013484736151 
0.5899999999999513, -1.125237380432068 
0.5999999999999502, -2.9543341411684905 
0.6099999999999491, -3.2041333856063416 
0.619999999999948, -3.227004947873975 
0.6299999999999469, -3.2315546919161853 
0.6399999999999458, -3.231835766475787 
0.6499999999999447, -3.2293322597743037 
0.6599999999999436, -3.2203496764259114 
0.6699999999999425, -3.17160702099863 
0.6799999999999414, -2.9824948843972567 
0.6899999999999403, -3.0345252285035613 
0.6999999999999392, -3.050262944071726 
0.7099999999999381, -3.0518402086042564 
0.719999999999937, -3.0512448474882703 
0.7299999999999359, -3.0514062999608527 
0.7399999999999348, -3.0513982834001876 
0.7499999999999337, -3.05068036546168 
0.7599999999999326, -3.0502994746712946 
0.7699999999999315, -3.048345636185122 
0.7799999999999304, -3.0352579618529187 
0.7899999999999293, -2.911992108664198 
0.7999999999999282, -3.2517425274914538 
0.8099999999999271, -3.431880964738813 
0.819999999999926, -3.448297326851325 
0.8299999999999249, -3.451116358647326 
0.8399999999999238, -3.450386459684985 
0.8499999999999227, -3.4456030436258986 
0.8599999999999216, -3.4223669656883438 
0.8699999999999205, -3.101269278995431 
0.8799999999999194, -2.064292491521219 
0.8899999999999183, -2.33322731198843 
0.8999999999999172, -2.3800685865103066 
0.9099999999999161, -2.387502346126343 
0.919999999999915, -2.3884443902835915 
0.9299999999999139, -2.3878793996787766 
0.9399999999999128, -2.388040084442375 
0.9499999999999117, -2.389124802014498 
0.9599999999999106, -2.389643369533813 
0.9699999999999095, -2.3896218173009367 
0.9799999999999084, -2.3894568140417034 
0.9899999999999073, -2.3882836449611027 
0.9999999999999062, -2.3834191189014247 
1.0099999999999052, -2.3624658962052196 
1.019999999999904, -2.2241552090669523 
1.029999999999903, -0.8652753535842912 
1.039999999999902, 0.5842527088301518 
1.0499999999999008, 0.7393541467761463 
1.0599999999998997, 0.765644814269039 
1.0699999999998986, 0.7728535316362428 
1.0799999999998975, 0.7751396110863497 
1.0899999999998964, 0.7755557715641647 
1.0999999999998953, 0.7749606513841165 
1.1099999999998942, 0.7736451637784246 
1.119999999999893, 0.7717957285719184 
1.129999999999892, 0.7696803091327105 
1.1399999999998909, 0.7676666098018677 
1.1499999999998898, 0.7660889060351814 
1.1599999999998887, 0.7650924109718111 
1.1699999999998876, 0.7645999566648468 
1.1799999999998865, 0.7643929497892713 
1.1899999999998854, 0.7641993286792437 
1.1999999999998843, 0.7637082752905927 
1.2099999999998832, 0.7624541746832773 
1.219999999999882, 0.75938045816009 
1.229999999999881, 0.7510934797780001 
1.2399999999998799, 0.7219874439631313 
1.2499999999998788, 0.545945121714758 
1.2599999999998777, -1.195811770287007 
1.2699999999998766, -2.5608934509378347 
1.2799999999998755, -2.6814006578547662 
1.2899999999998744, -2.6996939626212786 
1.2999999999998733, -2.703450854281755 
1.3099999999998722, -2.703635335979985 
1.319999999999871, -2.7024531318670912 
1.32999999999987, -2.699913673811613 
1.3399999999998689, -2.694719284470443 
1.3499999999998678, -2.6898330460933093 
1.3599999999998666, -2.6902913098759975 
1.3699999999998655, -2.690678618284289 
1.3799999999998644, -2.6877819767778255 
1.3899999999998633, -2.6792939139169256 
1.3999999999998622, -2.6898418808867874 
1.4099999999998611, -2.7176716780474144 
1.41999999999986, -2.728652278136104 
1.429999999999859, -2.7321111916636864 
1.4399999999998578, -2.732868869245988 
1.4499999999998567, -2.7316371285532064 
1.4599999999998556, -2.727202586576456 
1.4699999999998545, -2.714054987064576 
1.4799999999998534, -2.662221388241614 
1.4899999999998523, -2.2686595166194223 
1.4999999999998512, -0.4285229409115644 
1.5099999999998501, 0.25489116173781523 
1.519999999999849, 0.3749711983044217 
1.529999999999848, 0.4063393751944733 
1.5399999999998468, 0.4173489909289258 
1.5499999999998457, 0.4217959951840151 
1.5599999999998446, 0.4234701045927827 
1.5699999999998435, 0.4235557630006448 
1.5799999999998424, 0.42224457897263495 
1.5899999999998413, 0.41896124335521734 
1.5999999999998402, 0.41170468011462297 
1.6099999999998391, 0.39411475241325755 
1.619999999999838, 0.3421025847703675 
1.629999999999837, 0.14174963656869527 
1.6399999999998358, -0.8145995768755064 
1.6499999999998347, -3.579168659392434 
1.6599999999998336, -3.738134846633886 
1.6699999999998325, -3.749222109091568 
1.6799999999998314, -3.750445646011768 
1.6899999999998303, -3.7480920706948986 
1.6999999999998292, -3.7362640587988736 
1.709999999999828, -3.5932244038009005 
1.719999999999827, -3.0934673238190333 
1.729999999999826, -3.2665250622373856 
1.7399999999998248, -3.2789135029184933 
1.7499999999998237, -3.2797287895307177 
1.7599999999998226, -3.2791211600544394 
1.7699999999998215, -3.2783245099801688 
1.7799999999998204, -3.2763527714217333 
1.7899999999998193, -3.275448709819314 
1.7999999999998182, -3.2749939136507003 
1.809999999999817, -3.269839441865218 
1.819999999999816, -3.251015467270631 
1.8299999999998149, -3.295059039132405 
1.8399999999998138, -3.321308085324695 
1.8499999999998127, -3.3264069963586507 
1.8599999999998116, -3.3270365428261086 
1.8699999999998105, -3.324817786917957 
1.8799999999998094, -3.3150140959203105 
1.8899999999998083, -3.2507265635581613 
1.8999999999998072, -1.5199839545111922 
1.909999999999806, 1.1837197949779283 
1.919999999999805, 1.2855814970946973 
1.9299999999998039, 1.2983831888732553 
1.9399999999998028, 1.30125196306246 
1.9499999999998017, 1.3018328629954692 
1.9599999999998006, 1.3017083954961208 
1.9699999999997995, 1.301394501413872 
1.9799999999997984, 1.3010795720336943 
1.9899999999997973, 1.3007910139304115 
1.9999999999997962, 1.3005213186966884 
2.0099999999998173, 1.3002896967182278 
2.0199999999998384, 1.3000597165850194 
2.0299999999998595, 1.2996146924830345 
2.0399999999998806, 1.298378336753703 
2.0499999999999017, 1.2945327207843091 
2.059999999999923, 1.2788041994740438 
2.069999999999944, 1.144078154628334 
2.079999999999965, -2.0418007808652616 
2.089999999999986, -3.2607851782338555 
2.100000000000007, -3.3112410707382596 
2.1100000000000283, -3.318755636198604 
2.1200000000000494, -3.3196455494928108 
2.1300000000000705, -3.3177701317828414 
2.1400000000000916, -3.310947886675597 
2.1500000000001127, -3.2803286694674583 
2.160000000000134, -3.2406292785153 
2.170000000000155, -3.258192789297509 
2.180000000000176, -3.261700368640318 
2.190000000000197, -3.261049522179561 
2.2000000000002182, -3.2611049324367953 
2.2100000000002393, -3.262082140159271 
2.2200000000002604, -3.2618735690146323 
2.2300000000002815, -3.2614888150374446 
2.2400000000003026, -3.2595184217765456 
2.2500000000003237, -3.2449206524700016 
2.260000000000345, -3.048236255978359 
2.270000000000366, -3.620757885143835 
2.280000000000387, -3.7679581678265266 
2.290000000000408, -3.7785211821835114 
2.3000000000004293, -3.7796339407300565 
2.3100000000004504, -3.777112791895358 
2.3200000000004715, -3.763917675786929 
2.3300000000004926, -3.570619706770878 
2.3400000000005137, -0.8502005929683735 
2.3500000000005348, -0.12602746787438837 
2.360000000000556, 0.04767754025790731 
2.370000000000577, 0.10145965197728501 
2.380000000000598, 0.12137429895338885 
2.390000000000619, 0.12988246464838354 
2.4000000000006403, 0.13382206396382032 
2.4100000000006614, 0.13561245494561133 
2.4200000000006825, 0.13619241868120535 
2.4300000000007036, 0.13589907469057666 
2.4400000000007247, 0.13473697045122193 
2.450000000000746, 0.13239941073837613 
2.460000000000767, 0.128076257535214 
2.470000000000788, 0.11982226387451558 
2.480000000000809, 0.10255703748603114 
2.49000000000083, 0.06078357589675545 
2.5000000000008513, -0.06255429873529537 
2.5100000000008724, -0.4857978760132359 
2.5200000000008935, -1.3662862670571299 
2.5300000000009146, -1.8585666051508696 
2.5400000000009357, -1.98574315259342 
2.550000000000957, -2.0185046352219094 
2.560000000000978, -2.0279529863275902 
2.570000000000999, -2.0306030407392393 
2.58000000000102, -2.0308826169258816 
2.5900000000010412, -2.0303665621379343 
2.6000000000010624, -2.0298224910258584 
2.6100000000010835, -2.0291813358126864 
2.6200000000011046, -2.0281010077920394 
2.6300000000011257, -2.027063173873819 
2.6400000000011468, -2.026698525640775 
2.650000000001168, -2.0263362654608192 
2.660000000001189, -2.0244743484095764 
2.67000000000121, -2.0177630406056264 
2.680000000001231, -1.9912283271810807 
2.6900000000012523, -1.8446040194352524 
2.7000000000012734, -0.8596127796656244 
2.7100000000012945, 0.38121033970447876 
2.7200000000013156, 0.5848877822134602 
2.7300000000013367, 0.6219907328393895 
2.740000000001358, 0.6324334939591968 
2.750000000001379, 0.6360250841864146 
2.7600000000014, 0.6371356477612455 
2.770000000001421, 0.6370448139755438 
2.780000000001442, 0.6362156339099421 
2.7900000000014633, 0.634896834043629 
2.8000000000014844, 0.6333323451670447 
2.8100000000015055, 0.6318115494586916 
2.8200000000015266, 0.6306144232198584 
2.8300000000015477, 0.6299189076411531 
2.840000000001569, 0.6297467072513548 
2.85000000000159, 0.6299736531928681 
2.860000000001611, 0.6303828022379998 
2.870000000001632, 0.6307250962480067 
2.8800000000016532, 0.6307492998027607 
2.8900000000016743, 0.6301580347877594 
2.9000000000016954, 0.6284154363643799 
2.9100000000017165, 0.6241309960674128 
2.9200000000017377, 0.6126315178365755 
2.9300000000017588, 0.5724082210802781 
2.94000000000178, 0.342963823754043 
2.950000000001801, -1.1252614494103843 
2.960000000001822, -2.104298179854875 
2.970000000001843, -2.22508998735307 
2.9800000000018643, -2.245565574902772 
2.9900000000018854, -2.2501193140554347 
3.0000000000019065, -2.250783562875839 
3.0100000000019276, -2.2503251430754383 
3.0200000000019487, -2.249831893488278 
3.03000000000197, -2.249194662665072 
3.040000000001991, -2.2479907519236617 
3.050000000002012, -2.2469833788382223 
3.060000000002033, -2.2467257418770807 
3.070000000002054, -2.245943368940046 
3.0800000000020753, -2.2421351653773836 
3.0900000000020964, -2.225208472012387 
3.1000000000021175, -2.1103882005712444 
3.1100000000021386, -0.7705021395734712 
3.1200000000021597, 1.520224636546487 
3.130000000002181, 1.6387435743862375 
3.140000000002202, 1.6502906018007129 
3.150000000002223, 1.6520598776494453 
3.160000000002244, 1.650582635051246 
3.1700000000022652, 1.6432836627397236 
3.1800000000022863, 1.6064479824345856 
3.1900000000023074, 1.4249491888566812 
3.2000000000023285, 1.3621707111259318 
3.2100000000023496, 1.4019292621614596 
3.2200000000023707, 1.4135868339082402 
3.230000000002392, 1.4165152670007082 
3.240000000002413, 1.4165497131175337 
3.250000000002434, 1.4149552948478363 
3.260000000002455, 1.412696290487979 
3.2700000000024763, 1.4145369994007952 
3.2800000000024974, 1.426868920104911 
3.2900000000025185, 1.4411558322798586 
3.3000000000025396, 1.4489745274926187 
3.3100000000025607, 1.4519860514964829 
3.3200000000025818, 1.4524704899133138 
3.330000000002603, 1.4507693019376482 
3.340000000002624, 1.4433580441582763 
3.350000000002645, 1.3956381390802826 
3.360000000002666, 0.010558433192865091 
3.3700000000026873, -3.17661788426749 
3.3800000000027084, -3.272142303065743 
3.3900000000027295, -3.2809686423839373 
3.4000000000027506, -3.2817095327507353 
3.4100000000027717, -3.2803159547631586 
3.420000000002793, -3.2762523253730556 
3.430000000002814, -3.266283523024556 
3.440000000002835, -3.2635801987292146 
3.450000000002856, -3.266161288144192 
3.460000000002877, -3.265142234637802 
3.4700000000028983, -3.2629666631417686 
3.4800000000029194, -3.2678292681561922 
3.4900000000029405, -3.271571850455211 
3.5000000000029616, -3.2723620214946485 
3.5100000000029827, -3.2717235390614916 
3.520000000003004, -3.2670992645593473 
3.530000000003025, -3.2312793739658225 
3.540000000003046, -1.9644155769788327 
3.550000000003067, 1.6540781057639389 
3.5600000000030882, 1.7397854538157038 
3.5700000000031094, 1.7479956220043529 
3.5800000000031305, 1.7489301258762961 
3.5900000000031516, 1.7467908969718102 
3.6000000000031727, 1.7377928651208865 
3.6100000000031938, 1.6993124554933476 
3.620000000003215, 1.616354489375809 
3.630000000003236, 1.6199421014235242 
3.640000000003257, 1.633905232905306 
3.650000000003278, 1.6379856425246415 
3.6600000000032993, 1.6383529146772677 
3.6700000000033204, 1.6367049887039617 
3.6800000000033415, 1.6340595876245232 
3.6900000000033626, 1.636409322402487 
3.7000000000033837, 1.6492509070252521 
3.710000000003405, 1.6606677091701314 
3.720000000003426, 1.6657072755378444 
3.730000000003447, 1.667153964288827 
3.740000000003468, 1.6664893628783228 
3.750000000003489, 1.6622626515227268 
3.7600000000035103, 1.6372917527202173 
3.7700000000035314, 0.9932980403920659 
3.7800000000035525, -3.484861488988359 
3.7900000000035736, -3.6124583918793625 
3.8000000000035947, -3.621614650955679 
3.810000000003616, -3.62211342936939 
3.820000000003637, -3.6198489979204793 
3.830000000003658, -3.610941171533547 
3.840000000003679, -3.586366913431006 
3.8500000000037002, -3.5919371902399897 
3.8600000000037213, -3.595262759319092 
3.8700000000037424, -3.5943086107992235 
3.8800000000037635, -3.5946719637696645 
3.8900000000037847, -3.5957731121343515 
3.9000000000038058, -3.595500252745172 
3.910000000003827, -3.594816202972008 
3.920000000003848, -3.5897222224351717 
3.930000000003869, -3.526656194898005 
3.94000000000389, -3.6771718623114937 
3.9500000000039113, -3.8679987282519535 
3.9600000000039324, -3.8801435499303105 
3.9700000000039535, -3.8813661338262015 
3.9800000000039746, -3.8787878082992284 
3.9900000000039957, -3.8640018288087745 
4.000000000004016, -3.5709304362493564 
4.010000000003993, 1.2157538821942786 
4.02000000000397, 1.564636499397726 
4.030000000003946, 1.5859383015649162 
4.040000000003923, 1.5895421122708617 
4.0500000000039, 1.5901415026225187 
4.0600000000038765, 1.5900488832400042 
4.070000000003853, 1.5899381294393182 
4.08000000000383, 1.5898940068656662 
4.090000000003807, 1.5897254823965414 
4.100000000003783, 1.5893934530722098 
4.11000000000376, 1.5890339747553104 
4.120000000003737, 1.5885594534235037 
4.130000000003713, 1.5872967796179558 
4.14000000000369, 1.582733625392436 
4.150000000003667, 1.5577834946274363 
4.1600000000036434, 1.0958126856414983 
4.17000000000362, -3.5863224432987955 
4.180000000003597, -3.792875039868096 
4.1900000000035735, -3.805050071452166 
4.20000000000355, -3.806304364556452 
4.210000000003527, -3.80390284854954 
4.220000000003504, -3.7914783090145603 
4.23000000000348, -3.6445665782784964 
4.240000000003457, -3.5203486473943224 
4.250000000003434, -3.574880703901857 
4.26000000000341, -3.578670068716191 
4.270000000003387, -3.5782306344346706 
4.280000000003364, -3.5775419080654283 
4.2900000000033405, -3.5756514773882273 
4.300000000003317, -3.5742879600525383 
4.310000000003294, -3.574013899897519 
4.320000000003271, -3.569298525341985 
4.330000000003247, -3.5596511187543123 
4.340000000003224, -3.589025606543905 
4.350000000003201, -3.5992070067452615 
4.360000000003177, -3.6008356167141686 
4.370000000003154, -3.599605891864134 
4.380000000003131, -3.59164789426383 
4.390000000003107, -3.5174448076877773 
4.400000000003084, -0.05588335615463176 
4.410000000003061, 1.566272031994881 
4.4200000000030375, 1.6072576274878447 
4.430000000003014, 1.6128009956576936 
4.440000000002991, 1.6135815357536263 
4.450000000002968, 1.6125394979937355 
4.460000000002944, 1.609427108192063 
4.470000000002921, 1.6030114693994286 
4.480000000002898, 1.5940874373091216 
4.490000000002874, 1.5886490750166218 
4.500000000002851, 1.5884042638989917 
4.510000000002828, 1.5892415042301629 
4.520000000002804, 1.5889539160721318 
4.530000000002781, 1.5860382235016988 
4.540000000002758, 1.5745115497138797 
4.5500000000027345, 1.5303482383858695 
4.560000000002711, 1.6064068722641758 
4.570000000002688, 1.7666048967047896 
4.580000000002665, 1.7930003354850483 
4.590000000002641, 1.7976171793620321 
4.600000000002618, 1.7976177079796094 
4.610000000002595, 1.79346471448372 
4.620000000002571, 1.7665527683201525 
4.630000000002548, 1.0619195724576986 
4.640000000002525, -2.614558120438773 
4.6500000000025015, -2.8265639818193593 
4.660000000002478, -2.842923284122789 
4.670000000002455, -2.845104366314851 
4.6800000000024315, -2.844747835313418 
4.690000000002408, -2.8438745718147596 
4.700000000002385, -2.842118423936644 
4.710000000002362, -2.8394616491498197 
4.720000000002338, -2.838753373421258 
4.730000000002315, -2.8385859691378146 
4.740000000002292, -2.835061337965664 
4.750000000002268, -2.818140670025175 
4.760000000002245, -2.8252863101650716 
4.770000000002222, -2.9024216927215525 
4.7800000000021985, -2.9248414541595436 
4.790000000002175, -2.9303927962811867 
4.800000000002152, -2.9316635886190383 
4.810000000002129, -2.930615491158288 
4.820000000002105, -2.9263032785901357 
4.830000000002082, -2.9123516101318736 
4.840000000002059, -2.8422792132504457 
4.850000000002035, -2.1168227874315577 
4.860000000002012, -0.8438770885010086 
4.870000000001989, -0.6285773908973546 
4.880000000001965, -0.5985513304395718 
4.890000000001942, -0.5973439253608956 
4.900000000001919, -0.6004139243793131 
4.9100000000018955, -0.603231340910898 
4.920000000001872, -0.605108789449594 
4.930000000001849, -0.6060829336040544 
4.940000000001826, -0.6062353609797749 
4.950000000001802, -0.605540250664134 
4.960000000001779, -0.6038380447512595 
4.970000000001756, -0.6008790889333929 
4.980000000001732, -0.5964809286196354 
