t, s[1].omega / s[0].omega 
0, -1.6388991481555415 
0.009999999999999995, -1.4770878778631455 
0.019999999999999934, -1.1768838427395576 
0.029999999999999874, -0.7978750411727337 
0.04000000000000012, -0.5288764348461982 
0.050000000000000405, -0.39777820257032437 
0.06000000000000069, -0.3393001034006403 
0.07000000000000098, -0.31235803332828865 
0.08000000000000126, -0.29928703380876753 
0.09000000000000155, -0.29269175616036713 
0.10000000000000184, -0.2893129919843483 
0.11000000000000212, -0.2876244469113745 
0.12000000000000241, -0.2868751362932561 
0.130000000000002, -0.28668765137599544 
0.1400000000000009, -0.28688302304197705 
0.1499999999999998, -0.2874058420085962 
0.1599999999999987, -0.28829814628485884 
0.1699999999999976, -0.2897000942500518 
0.1799999999999965, -0.2918712044967483 
0.1899999999999954, -0.2952409649049067 
0.1999999999999943, -0.30051183155828715 
0.2099999999999932, -0.3088333914843709 
0.2199999999999921, -0.32197842312744657 
0.229999999999991, -0.34209662351169945 
0.2399999999999899, -0.369988101456287 
0.2499999999999888, -0.40193024023860574 
0.2599999999999877, -0.4302001050697622 
0.2699999999999866, -0.44976280116196676 
0.2799999999999855, -0.46118441380780045 
0.2899999999999844, -0.4672318867888041 
0.2999999999999833, -0.47013645472574206 
0.3099999999999822, -0.4711244156313029 
0.3199999999999811, -0.4706707795137011 
0.32999999999998, -0.4686783402777454 
0.3399999999999789, -0.4644160551380069 
0.3499999999999778, -0.4561947153846506 
0.35999999999997667, -0.44098895475259986 
0.36999999999997557, -0.4152507938718545 
0.37999999999997447, -0.3791297945461757 
0.38999999999997337, -0.3404992608484254 
0.39999999999997227, -0.30890332080310606 
0.40999999999997117, -0.2873022469394283 
0.41999999999997006, -0.2736238358787181 
0.42999999999996896, -0.2650488376102581 
0.43999999999996786, -0.2595697007242324 
0.44999999999996676, -0.2559723801174226 
0.45999999999996566, -0.2535425017907422 
0.46999999999996456, -0.2518525272588825 
0.47999999999996346, -0.25064765095891806 
0.48999999999996235, -0.2497923898982505 
0.49999999999996125, -0.2492495397058195 
0.5099999999999602, -0.24908251386513092 
0.519999999999959, -0.24949032024361323 
0.529999999999958, -0.25090685776252497 
0.5399999999999568, -0.25424596021380386 
0.5499999999999557, -0.2615158653025778 
0.5599999999999546, -0.27747426893061355 
0.5699999999999535, -0.3145060377227691 
0.5799999999999524, -0.4078102476946451 
0.5899999999999513, -0.6524262978936233 
0.5999999999999502, -1.1436434266343325 
0.6099999999999491, -1.589721516121744 
0.619999999999948, -1.7912697550280388 
0.6299999999999469, -1.8711694373444303 
0.6399999999999458, -1.9053678224702744 
0.6499999999999447, -1.920680131806978 
0.6599999999999436, -1.927375974021425 
0.6699999999999425, -1.9299317205570083 
0.6799999999999414, -1.9304131415139056 
0.6899999999999403, -1.9298349222106836 
0.6999999999999392, -1.9287459072666873 
0.7099999999999381, -1.9272249386974534 
0.719999999999937, -1.9250115464075104 
0.7299999999999359, -1.9224928334462696 
0.7399999999999348, -1.9210524326643033 
0.7499999999999337, -1.9208823572564326 
0.7599999999999326, -1.9204821606496947 
0.7699999999999315, -1.9181011946016029 
0.7799999999999304, -1.9094352552426321 
0.7899999999999293, -1.8727927715419603 
0.7999999999999282, -1.643800388201683 
0.8099999999999271, -0.12939815451708542 
0.819999999999926, 0.9338731827586896 
0.8299999999999249, 1.0332902141515414 
0.8399999999999238, 1.0495360710184511 
0.8499999999999227, 1.0535768932482432 
0.8599999999999216, 1.0541932671409782 
0.8699999999999205, 1.052819494852274 
0.8799999999999194, 1.0488793857059422 
0.8899999999999183, 1.0402895671443884 
0.8999999999999172, 1.0246354966164344 
0.9099999999999161, 1.0055380559832272 
0.919999999999915, 0.9937892263862107 
0.9299999999999139, 0.9911047949724894 
0.9399999999999128, 0.9917854540460043 
0.9499999999999117, 0.9926061079085914 
0.9599999999999106, 0.9926317956547853 
0.9699999999999095, 0.991292322968872 
0.9799999999999084, 0.9869592259522095 
0.9899999999999073, 0.9727451848534148 
0.9999999999999062, 0.905439250756493 
1.0099999999999052, 0.3187077047837453 
1.019999999999904, -3.405072593127273 
1.029999999999903, -3.9352918016059504 
1.039999999999902, -3.9524575918500573 
1.0499999999999008, -3.954219883028796 
1.0599999999998997, -3.9519949138457853 
1.0699999999998986, -3.939177214273015 
1.0799999999998975, -3.7128603407978673 
1.0899999999998964, -3.1074004486024913 
1.0999999999998953, -3.2933048246316177 
1.1099999999998942, -3.304611750712637 
1.119999999999893, -3.3052919792055206 
1.129999999999892, -3.3046292737930285 
1.1399999999998909, -3.303532979550264 
1.1499999999998898, -3.301163592155981 
1.1599999999998887, -3.300383529747682 
1.1699999999998876, -3.2999161095398506 
1.1799999999998865, -3.294414253706526 
1.1899999999998854, -3.2818385868646116 
1.1999999999998843, -3.318945630123261 
1.2099999999998832, -3.33558612870429 
1.219999999999882, -3.3389452848595598 
1.229999999999881, -3.338953712884019 
1.2399999999998799, -3.3357174518068033 
1.2499999999998788, -3.3205792561370684 
1.2599999999998777, -3.182047640555178 
1.2699999999998766, 0.21213564535846144 
1.2799999999998755, 1.2787605400015218 
1.2899999999998744, 1.325062768097411 
1.2999999999998733, 1.3324908377994795 
1.3099999999998722, 1.3341853619468826 
1.319999999999871, 1.3343240593530972 
1.32999999999987, 1.333824444757234 
1.3399999999998689, 1.3329200195169069 
1.3499999999998678, 1.331692999745222 
1.3599999999998666, 1.3303354687132236 
1.3699999999998655, 1.3291938980833053 
1.3799999999998644, 1.3284844570204943 
1.3899999999998633, 1.3280336237838635 
1.3999999999998622, 1.327305631521698 
1.4099999999998611, 1.3251921426593805 
1.41999999999986, 1.3177603824361586 
1.429999999999859, 1.2770279201817414 
1.4399999999998578, 0.5468842659873786 
1.4499999999998567, -3.249278612341496 
1.4599999999998556, -3.4348394097535193 
1.4699999999998545, -3.4505349303862856 
1.4799999999998534, -3.4530933922715774 
1.4899999999998523, -3.4521121027407218 
1.4999999999998512, -3.4471166560375273 
1.5099999999998501, -3.4222549083980383 
1.519999999999849, -3.302594580872852 
1.529999999999848, -3.330791078484632 
1.5399999999998468, -3.3432968718849025 
1.5499999999998457, -3.3440778210260937 
1.5599999999998446, -3.3434999987743743 
1.5699999999998435, -3.3436389558274953 
1.5799999999998424, -3.3428769125252593 
1.5899999999998413, -3.3422155833447524 
1.5999999999998402, -3.3413090196219413 
1.6099999999998391, -3.3341780870873086 
1.619999999999838, -3.283707692340279 
1.629999999999837, -3.4011931408693186 
1.6399999999998358, -3.4631697315528323 
1.6499999999998347, -3.471505694720778 
1.6599999999998336, -3.472721651509778 
1.6699999999998325, -3.470859603977818 
1.6799999999998314, -3.462323249441013 
1.6899999999998303, -3.404594326922986 
1.6999999999998292, -1.6103767033704244 
1.709999999999828, 1.1057550010008492 
1.719999999999827, 1.2313912830422329 
1.729999999999826, 1.2472184019393007 
1.7399999999998248, 1.2507874166614013 
1.7499999999998237, 1.251548555729147 
1.7599999999998226, 1.251505332304329 
1.7699999999998215, 1.2515410789699568 
1.7799999999998204, 1.2523235636014274 
1.7899999999998193, 1.2540835153170857 
1.7999999999998182, 1.2563042748468867 
1.809999999999817, 1.2581925167627384 
1.819999999999816, 1.2593344756880045 
1.8299999999998149, 1.259671039169151 
1.8399999999998138, 1.2590757651329574 
1.8499999999998127, 1.256689461423579 
1.8599999999998116, 1.2481938204436624 
1.8699999999998105, 1.1999029636319916 
1.8799999999998094, 0.2258739689710046 
1.8899999999998083, -3.0680172459755446 
1.8999999999998072, -3.2258694456258477 
1.909999999999806, -3.241215407917717 
1.919999999999805, -3.24353675485782 
1.9299999999998039, -3.242705338675993 
1.9399999999998028, -3.239342201412004 
1.9499999999998017, -3.228259318776222 
1.9599999999998006, -3.2101815086830294 
1.9699999999997995, -3.2149150540032183 
1.9799999999997984, -3.2174230751699087 
1.9899999999997973, -3.216187308521063 
1.9999999999997962, -3.2160207012864435 
2.0099999999998173, -3.2192432733742526 
2.0199999999998384, -3.22054070946164 
2.0299999999998595, -3.2205552201961503 
2.0399999999998806, -3.2191935029547727 
2.0499999999999017, -3.210648739430043 
2.059999999999923, -3.1067726637438513 
2.069999999999944, 0.9903658202679451 
2.079999999999965, 2.269217703265699 
2.089999999999986, 2.29121187423888 
2.100000000000007, 2.2931529391527516 
2.1100000000000283, 2.290650250356168 
2.1200000000000494, 2.2713762695825617 
2.1300000000000705, 1.8612687073468117 
2.1400000000000916, 1.5082558603447567 
2.1500000000001127, 1.6543081722869826 
2.160000000000134, 1.6711264891906428 
2.170000000000155, 1.6740941308867483 
2.180000000000176, 1.6742878122850466 
2.190000000000197, 1.6739621961952718 
2.2000000000002182, 1.6745394514040473 
2.2100000000002393, 1.6765717396879523 
2.2200000000002604, 1.678873444706642 
2.2300000000002815, 1.680288481180089 
2.2400000000003026, 1.6807240419314837 
2.2500000000003237, 1.6802900005134034 
2.260000000000345, 1.6782387150824314 
2.270000000000366, 1.6692879882336094 
2.280000000000387, 1.5856464253423714 
2.290000000000408, -2.3324017599349225 
2.3000000000004293, -3.6664449439527425 
2.3100000000004504, -3.699543727996082 
2.3200000000004715, -3.7035610849063714 
2.3300000000004926, -3.702875251950047 
2.3400000000005137, -3.6979865158738443 
2.3500000000005348, -3.66891364440965 
2.360000000000556, -3.56543005913928 
2.370000000000577, -3.6063070670139026 
2.380000000000598, -3.6123938526823713 
2.390000000000619, -3.6121218728993467 
2.4000000000006403, -3.6117965588386802 
2.4100000000006614, -3.6110788927337154 
2.4200000000006825, -3.6098446349559388 
2.4300000000007036, -3.6094058307976917 
2.4400000000007247, -3.6051858138630464 
2.450000000000746, -3.5822405246390003 
2.460000000000767, -3.630391398419139 
2.470000000000788, -3.6551631966254363 
2.480000000000809, -3.658869316400181 
2.49000000000083, -3.658566262094097 
2.5000000000008513, -3.653873495517993 
2.5100000000008724, -3.6232339566347056 
2.5200000000008935, -2.6427427632001295 
2.5300000000009146, 1.5438775074331799 
2.5400000000009357, 1.6447251620288745 
2.550000000000957, 1.654211050949161 
2.560000000000978, 1.655861516137422 
2.570000000000999, 1.6555998583346505 
2.58000000000102, 1.6540861766328707 
2.5900000000010412, 1.650952996180849 
2.6000000000010624, 1.6462429267193546 
2.6100000000010835, 1.6421004093119511 
2.6200000000011046, 1.640665175728564 
2.6300000000011257, 1.6407435745900643 
2.6400000000011468, 1.640375264103099 
2.650000000001168, 1.6377477572898123 
2.660000000001189, 1.6262665911799992 
2.67000000000121, 1.5600561670424802 
2.680000000001231, 1.6125050296918044 
2.6900000000012523, 1.9596123753814836 
2.7000000000012734, 1.9925694324587386 
2.7100000000012945, 1.996938354307574 
2.7200000000013156, 1.996468945672173 
2.7300000000013367, 1.9903126921710623 
2.740000000001358, 1.9319403773458088 
2.750000000001379, -0.7198530875823022 
2.7600000000014, -2.7975135822934662 
2.770000000001421, -2.871096997270738 
2.780000000001442, -2.87874081109319 
2.7900000000014633, -2.87944808358916 
2.8000000000014844, -2.8787989224429387 
2.8100000000015055, -2.877746238730941 
2.8200000000015266, -2.875483301589338 
2.8300000000015477, -2.873471571013396 
2.840000000001569, -2.8734727976145242 
2.85000000000159, -2.872252975699135 
2.860000000001611, -2.8643324503073346 
2.870000000001632, -2.8411691488836155 
2.8800000000016532, -2.9051635863890506 
2.8900000000016743, -2.950005907603587 
2.9000000000016954, -2.960250157311342 
2.9100000000017165, -2.962894751741453 
2.9200000000017377, -2.962809292367095 
2.9300000000017588, -2.960128753725965 
2.94000000000178, -2.951510413533143 
2.950000000001801, -2.916122386517187 
2.960000000001822, -2.6009757869120533 
2.970000000001843, -0.8758296944135152 
2.9800000000018643, -0.23487755376569996 
2.9900000000018854, -0.08900204334440846 
3.0000000000019065, -0.04363540655126647 
3.0100000000019276, -0.026196014101437137 
3.0200000000019487, -0.0184317487975372 
3.03000000000197, -0.014630848357792738 
3.040000000001991, -0.012696596007599398 
3.050000000002012, -0.01177642798527133 
3.060000000002033, -0.011521749509799518 
3.070000000002054, -0.011835260132925247 
3.0800000000020753, -0.012796035657627358 
3.0900000000020964, -0.014678450079343972 
3.1000000000021175, -0.01807182797508224 
3.1100000000021386, -0.024203593709144704 
3.1200000000021597, -0.035804536719771234 
3.130000000002181, -0.05962871744946154 
3.140000000002202, -0.11448717793355383 
3.150000000002223, -0.25585329393945744 
3.160000000002244, -0.5950300208550137 
3.1700000000022652, -1.036156049986992 
3.1800000000022863, -1.2681158057730328 
3.1900000000023074, -1.3443454384448796 
3.2000000000023285, -1.3684389226834415 
3.2100000000023496, -1.3765443646021729 
3.2200000000023707, -1.3791584585700034 
3.230000000002392, -1.3794796330008858 
3.240000000002413, -1.3786641111885138 
3.250000000002434, -1.3777707966712753 
3.260000000002455, -1.3789523525307064 
3.2700000000024763, -1.3845877591723912 
3.2800000000024974, -1.3939540539791744 
3.2900000000025185, -1.4037580788946564 
3.3000000000025396, -1.4119031136195583 
3.3100000000025607, -1.4181256511132427 
3.3200000000025818, -1.4228247098197888 
3.330000000002603, -1.4263874011592805 
3.340000000002624, -1.4290609277857986 
3.350000000002645, -1.4309859251539527 
3.360000000002666, -1.432228167169222 
3.3700000000026873, -1.43280300246252 
3.3800000000027084, -1.432711808767381 
3.3900000000027295, -1.4319826602218801 
3.4000000000027506, -1.4306921229446279 
3.4100000000027717, -1.4289446743596166 
3.420000000002793, -1.4267993275420203 
3.430000000002814, -1.424232973964305 
3.440000000002835, -1.4213177563355626 
3.450000000002856, -1.4185390016287265 
3.460000000002877, -1.4166840294953649 
3.4700000000028983, -1.4160135240407843 
3.4800000000029194, -1.4158967580182227 
3.4900000000029405, -1.4154413583592038 
3.5000000000029616, -1.4137974700356153 
3.5100000000029827, -1.4096861346476586 
3.520000000003004, -1.4004633905015889 
3.530000000003025, -1.380920761110062 
3.540000000003046, -1.3429209266262485 
3.550000000003067, -1.278335920784302 
3.5600000000030882, -1.1848820177231945 
3.5700000000031094, -1.0689267785519303 
3.5800000000031305, -0.9435644148671448 
3.5900000000031516, -0.8253526989873059 
3.6000000000031727, -0.728754460229997 
3.6100000000031938, -0.6598846590920262 
3.620000000003215, -0.6160652999720294 
3.630000000003236, -0.590560389675115 
3.640000000003257, -0.5767727528014948 
3.650000000003278, -0.5698412900850596 
3.6600000000032993, -0.566651791839682 
3.6700000000033204, -0.5653656904591662 
3.6800000000033415, -0.5649525334954651 
3.6900000000033626, -0.564851470126585 
3.7000000000033837, -0.5647597646876974 
3.710000000003405, -0.5645180961544365 
3.720000000003426, -0.5640636081838241 
3.730000000003447, -0.5634221773597993 
3.740000000003468, -0.5627045604670111 
3.750000000003489, -0.5620759608643032 
3.7600000000035103, -0.5617015754320547 
3.7700000000035314, -0.5616990724541778 
3.7800000000035525, -0.5621139790218954 
3.7900000000035736, -0.5629056740825357 
3.8000000000035947, -0.5639379185404515 
3.810000000003616, -0.5649973646279183 
3.820000000003637, -0.5658602739147585 
3.830000000003658, -0.5663741122209269 
3.840000000003679, -0.5664947240932496 
3.8500000000037002, -0.5662723970838024 
3.8600000000037213, -0.5658360283605803 
3.8700000000037424, -0.5654295782906218 
3.8800000000037635, -0.5655524180914794 
3.8900000000037847, -0.5672958673128157 
3.9000000000038058, -0.5730779514418114 
3.910000000003827, -0.5881728435831913 
3.920000000003848, -0.6235531878481381 
3.930000000003869, -0.6991931854493031 
3.94000000000389, -0.838700340080735 
3.9500000000039113, -1.0360820878509767 
3.9600000000039324, -1.2329236053293013 
3.9700000000039535, -1.3803171059014319 
3.9800000000039746, -1.47571277843077 
3.9900000000039957, -1.5334321107836206 
4.000000000004016, -1.5662077313437748 
4.010000000003993, -1.5833799474590364 
4.02000000000397, -1.5915998728704177 
4.030000000003946, -1.5950920208273536 
4.040000000003923, -1.5961842350654423 
4.0500000000039, -1.5960991177955628 
4.0600000000038765, -1.595627843531676 
4.070000000003853, -1.5953679004271841 
4.08000000000383, -1.5954594882084234 
4.090000000003807, -1.5955947493918847 
4.100000000003783, -1.5955893830221135 
4.11000000000376, -1.5955932639144694 
4.120000000003737, -1.5956829495024731 
4.130000000003713, -1.5955536386085325 
4.14000000000369, -1.5946616345365183 
4.150000000003667, -1.5923003755771103 
4.1600000000036434, -1.587422077444196 
4.17000000000362, -1.5784716426310428 
4.180000000003597, -1.5633569241739576 
4.1900000000035735, -1.539253267093388 
4.20000000000355, -1.5016022848709762 
4.210000000003527, -1.4420410277662685 
4.220000000003504, -1.3476413867729276 
4.23000000000348, -1.2139872601604897 
4.240000000003457, -1.0787090865644209 
4.250000000003434, -0.9964204389874176 
4.26000000000341, -0.9672094110456687 
4.270000000003387, -0.9624251458351576 
4.280000000003364, -0.9641393361580974 
4.2900000000033405, -0.9662524029725997 
4.300000000003317, -0.967407129179725 
4.310000000003294, -0.9673946926747548 
4.320000000003271, -0.9659479741774124 
4.330000000003247, -0.9622046210976876 
4.340000000003224, -0.9540277583015351 
4.350000000003201, -0.9369008641130732 
4.360000000003177, -0.9034558847395691 
4.370000000003154, -0.848023124232998 
4.380000000003131, -0.7771278244218878 
4.390000000003107, -0.7082242134692887 
4.400000000003084, -0.653113335369127 
4.410000000003061, -0.612846100607326 
4.4200000000030375, -0.5840194475951186 
4.430000000003014, -0.56317648202081 
4.440000000002991, -0.5478533321472556 
4.450000000002968, -0.5364495485973918 
4.460000000002944, -0.5279376616368038 
4.470000000002921, -0.521641296405657 
4.480000000002898, -0.5170926418414472 
4.490000000002874, -0.5139461935187384 
4.500000000002851, -0.5119294176369205 
4.510000000002828, -0.5108174084155516 
4.520000000002804, -0.5104227514837606 
4.530000000002781, -0.5105944766985565 
4.540000000002758, -0.5112222553978113 
4.5500000000027345, -0.5122440481734803 
4.560000000002711, -0.5136565445533511 
4.570000000002688, -0.5155273595542276 
4.580000000002665, -0.5180071080855699 
4.590000000002641, -0.521340034360975 
4.600000000002618, -0.5258701985810836 
4.610000000002595, -0.5320215838828934 
4.620000000002571, -0.5401805137780651 
4.630000000002548, -0.5503689829781584 
4.640000000002525, -0.5617702659275706 
4.6500000000025015, -0.5726833047567176 
4.660000000002478, -0.581431883900813 
4.670000000002455, -0.5873708427399726 
4.6800000000024315, -0.5908392419468347 
4.690000000002408, -0.5924845558713314 
4.700000000002385, -0.5927972897018392 
4.710000000002362, -0.5919629357632716 
4.720000000002338, -0.5897991452261829 
4.730000000002315, -0.5855585611810208 
4.740000000002292, -0.5772544622761754 
4.750000000002268, -0.5592781294942171 
4.760000000002245, -0.5121403694046094 
4.770000000002222, -0.34853420343811964 
4.7800000000021985, 0.20799915039677197 
4.790000000002175, 0.7025955902136676 
4.800000000002152, 0.8089518181395112 
4.810000000002129, 0.8316561702362201 
4.820000000002105, 0.8381072195885674 
4.830000000002082, 0.839916329587659 
4.840000000002059, 0.8395935135013908 
4.850000000002035, 0.837386159319367 
4.860000000002012, 0.8324027600804035 
4.870000000001989, 0.8228970809160442 
4.880000000001965, 0.8079508626466743 
4.890000000001942, 0.7914226039990656 
4.900000000001919, 0.7801982396865854 
4.9100000000018955, 0.7756521238352659 
4.920000000001872, 0.7746655840110377 
4.930000000001849, 0.7747382164692411 
4.940000000001826, 0.7747662033380006 
4.950000000001802, 0.774224348438217 
