t, s[1].omega / s[0].omega 
0, -1.1398945998466559 
0.009999999999999995, -1.1288886255288275 
0.019999999999999934, -1.1170230762350914 
0.029999999999999874, -1.1042269908050601 
0.04000000000000012, -1.0903418141470225 
0.050000000000000405, -1.0753840748155534 
0.06000000000000069, -1.0599536715151117 
0.07000000000000098, -1.0455950130349574 
0.08000000000000126, -1.0344448043649943 
0.09000000000000155, -1.027815132602911 
0.10000000000000184, -1.0251218054535036 
0.11000000000000212, -1.0246199009859083 
0.12000000000000241, -1.02476286253704 
0.130000000000002, -1.0246502030169633 
0.1400000000000009, -1.0237483249764248 
0.1499999999999998, -1.0215076130482807 
0.1599999999999987, -1.017106096447718 
0.1699999999999976, -1.0094420219566307 
0.1799999999999965, -0.9976129512482457 
0.1899999999999954, -0.981784439668959 
0.1999999999999943, -0.96345709682947 
0.2099999999999932, -0.9445271448554384 
0.2199999999999921, -0.9262471148105991 
0.229999999999991, -0.9090580504255593 
0.2399999999999899, -0.8929550323205936 
0.2499999999999888, -0.8778540341346582 
0.2599999999999877, -0.863816121659658 
0.2699999999999866, -0.8511490829211568 
0.2799999999999855, -0.8403761413649331 
0.2899999999999844, -0.8320351079892907 
0.2999999999999833, -0.8263685680075966 
0.3099999999999822, -0.8231239779808194 
0.3199999999999811, -0.8216466802047494 
0.32999999999998, -0.8211729169496819 
0.3399999999999789, -0.8210696464883547 
0.3499999999999778, -0.8209011096836608 
0.35999999999997667, -0.8203837902083009 
0.36999999999997557, -0.8193350744857076 
0.37999999999997447, -0.8176735825502123 
0.38999999999997337, -0.8154588511231713 
0.39999999999997227, -0.812897137523614 
0.40999999999997117, -0.8102594242019778 
0.41999999999997006, -0.8077630543346963 
0.42999999999996896, -0.8055089889011124 
0.43999999999996786, -0.8034934194314631 
0.44999999999996676, -0.8016551282378128 
0.45999999999996566, -0.7999266358908559 
0.46999999999996456, -0.7982744248403353 
0.47999999999996346, -0.7967189186782819 
0.48999999999996235, -0.7953304347002466 
0.49999999999996125, -0.794205874701225 
0.5099999999999602, -0.7934376122535777 
0.519999999999959, -0.7930887991563785 
0.529999999999958, -0.7931845948301348 
0.5399999999999568, -0.793716967856243 
0.5499999999999557, -0.7946527938595518 
0.5599999999999546, -0.7959394916980925 
0.5699999999999535, -0.7975123256614152 
0.5799999999999524, -0.7993097307291743 
0.5899999999999513, -0.8012952441494106 
0.5999999999999502, -0.8034756825598229 
0.6099999999999491, -0.8059030105438485 
0.619999999999948, -0.8086521430869089 
0.6299999999999469, -0.811773116876944 
0.6399999999999458, -0.8152216485602825 
0.6499999999999447, -0.8187923500060104 
0.6599999999999436, -0.8221213264465732 
0.6699999999999425, -0.8248171618871837 
0.6799999999999414, -0.8266454133534417 
0.6899999999999403, -0.8276003920412938 
0.6999999999999392, -0.8278362829765147 
0.7099999999999381, -0.8275842296651857 
0.719999999999937, -0.82715656309521 
0.7299999999999359, -0.8270507598730179 
0.7399999999999348, -0.8280966433635648 
0.7499999999999337, -0.8314978377001181 
0.7599999999999326, -0.8385592265385358 
0.7699999999999315, -0.850098883048898 
0.7799999999999304, -0.8659851158123798 
0.7899999999999293, -0.885276154166195 
0.7999999999999282, -0.9068273702919546 
0.8099999999999271, -0.9298139179729699 
0.819999999999926, -0.9538635880351546 
0.8299999999999249, -0.9788453929245028 
0.8399999999999238, -1.0044183822069774 
0.8499999999999227, -1.0294567202659854 
0.8599999999999216, -1.0518179067315774 
0.8699999999999205, -1.0692178002774813 
0.8799999999999194, -1.0807844906791206 
0.8899999999999183, -1.0874178006646054 
0.8999999999999172, -1.0907104398643446 
0.9099999999999161, -1.0919820280155856 
0.919999999999915, -1.0920696307692714 
0.9299999999999139, -1.0915492656466985 
0.9399999999999128, -1.0911105587619223 
0.9499999999999117, -1.0919072017670095 
0.9599999999999106, -1.0954023414714695 
0.9699999999999095, -1.1023242591300246 
0.9799999999999084, -1.1118278781079574 
0.9899999999999073, -1.1222169863111706 
0.9999999999999062, -1.1321992373995624 
1.0099999999999052, -1.1412627961752424 
1.019999999999904, -1.1493901089703207 
1.029999999999903, -1.156729997507512 
1.039999999999902, -1.163414492189141 
1.0499999999999008, -1.1694684369636734 
1.0599999999998997, -1.1747690480866422 
1.0699999999998986, -1.1790823817000946 
1.0799999999998975, -1.1821995257827105 
1.0899999999998964, -1.184084534883094 
1.0999999999998953, -1.1849015013032154 
1.1099999999998942, -1.1849343867066031 
1.119999999999893, -1.184525205400868 
1.129999999999892, -1.1840669569450244 
1.1399999999998909, -1.1839469201526591 
1.1499999999998898, -1.184373558528575 
1.1599999999998887, -1.1852660569978464 
1.1699999999998876, -1.186390496130111 
1.1799999999998865, -1.1875707415496728 
1.1899999999998854, -1.1887345229066448 
1.1999999999998843, -1.1898253880311334 
1.2099999999998832, -1.1907423171344909 
1.219999999999882, -1.1913679751411543 
1.229999999999881, -1.1916252528426188 
1.2399999999998799, -1.1915023495600894 
1.2499999999998788, -1.1910368771980966 
1.2599999999998777, -1.1902757799236128 
1.2699999999998766, -1.1892392013728872 
1.2799999999998755, -1.187912353703488 
1.2899999999998744, -1.186268004666847 
1.2999999999998733, -1.1842997428236224 
1.3099999999998722, -1.182037398468451 
1.319999999999871, -1.1795303086547064 
1.32999999999987, -1.17682627873693 
1.3399999999998689, -1.1740094339122007 
1.3499999999998678, -1.1713039743047267 
1.3599999999998666, -1.1691034830490499 
1.3699999999998655, -1.167753074658104 
1.3799999999998644, -1.1672261905566759 
1.3899999999998633, -1.1671063721524042 
1.3999999999998622, -1.1668634921581273 
1.4099999999998611, -1.1660277692363834 
1.41999999999986, -1.164161756827889 
1.429999999999859, -1.1608212859398235 
1.4399999999998578, -1.1556589490570137 
1.4499999999998567, -1.148625640510914 
1.4599999999998556, -1.1400270402742583 
1.4699999999998545, -1.130306914800149 
1.4799999999998534, -1.119770987455061 
1.4899999999998523, -1.1084829549217317 
1.4999999999998512, -1.0963298552670029 
1.5099999999998501, -1.0831851572450462 
1.519999999999849, -1.0691799402820699 
1.529999999999848, -1.0550865441527812 
1.5399999999998468, -1.0425291855991863 
1.5499999999998457, -1.033380958367478 
1.5599999999998446, -1.028392951591885 
1.5699999999998435, -1.026624470620201 
1.5799999999998424, -1.0264287714951428 
1.5899999999998413, -1.026530764529207 
1.5999999999998402, -1.0262031448611297 
1.6099999999998391, -1.0249461832455988 
1.619999999999838, -1.022157636786036 
1.629999999999837, -1.0169587246310383 
1.6399999999998358, -1.0083356235100636 
1.6499999999998347, -0.9957636084476353 
1.6599999999998336, -0.9799020082956178 
1.6699999999998325, -0.9623831724025699 
1.6799999999998314, -0.944773398749501 
1.6899999999998303, -0.9279103926982092 
1.6999999999998292, -0.9119992462031661 
1.709999999999828, -0.8969768129654276 
1.719999999999827, -0.8828016792334591 
1.729999999999826, -0.8696253221524998 
1.7399999999998248, -0.8578571251308397 
1.7499999999998237, -0.8480839757855266 
1.7599999999998226, -0.8408127711677403 
1.7699999999998215, -0.8361530246397108 
1.7799999999998204, -0.8336969066131564 
1.7899999999998193, -0.8327124247492099 
1.7999999999998182, -0.8324579438836416 
1.809999999999817, -0.8323691047388138 
1.819999999999816, -0.832071021139852 
1.8299999999998149, -0.8313167346490914 
1.8399999999998138, -0.829950993512415 
1.8499999999998127, -0.8279344513874829 
1.8599999999998116, -0.8253870508429676 
1.8699999999998105, -0.8225643348251077 
1.8799999999998094, -0.8197447312405008 
1.8899999999998083, -0.8171164942105659 
1.8999999999998072, -0.8147433566612214 
1.909999999999806, -0.812597146676989 
1.919999999999805, -0.8106119403153651 
1.9299999999998039, -0.8087331081682775 
1.9399999999998028, -0.8069493967008293 
1.9499999999998017, -0.8053014198811072 
1.9599999999998006, -0.8038674317577245 
1.9699999999997995, -0.8027358288588673 
1.9799999999997984, -0.8019786124880641 
1.9899999999997973, -0.8016374498893116 
1.9999999999997962, -0.8017232435133739 
2.0099999999998173, -0.8022201540655797 
2.0199999999998384, -0.8030868802874813 
2.0299999999998595, -0.8042586709432742 
2.0399999999998806, -0.8056587876716546 
2.0499999999999017, -0.8072212599042257 
2.059999999999923, -0.8089158255670078 
2.069999999999944, -0.8107612207709172 
2.079999999999965, -0.8128165283899413 
2.089999999999986, -0.8151483045691554 
2.100000000000007, -0.8177778574952759 
2.1100000000000283, -0.8206199259782402 
2.1200000000000494, -0.8234459705252343 
2.1300000000000705, -0.8259295011868837 
2.1400000000000916, -0.8277834853333701 
2.1500000000001127, -0.8288865259701481 
2.160000000000134, -0.8292953017753286 
2.170000000000155, -0.8291816009504791 
2.180000000000176, -0.8287994958410374 
2.190000000000197, -0.8285312648305156 
2.2000000000002182, -0.8289822342341043 
2.2100000000002393, -0.831021461769755 
2.2200000000002604, -0.8356222718448245 
2.2300000000002815, -0.8434761001767199 
2.2400000000003026, -0.8546416663341013 
2.2500000000003237, -0.8685687188612679 
2.260000000000345, -0.8844768029641698 
2.270000000000366, -0.9017482560395853 
2.280000000000387, -0.920094006260929 
2.290000000000408, -0.9394885694118134 
2.3000000000004293, -0.9599342365025432 
2.3100000000004504, -0.9810636497051654 
2.3200000000004715, -1.0016845441672841 
2.3300000000004926, -1.0197756473822759 
2.3400000000005137, -1.0334877009954573 
2.3500000000005348, -1.0423714282993 
2.360000000000556, -1.0473430763593001 
2.370000000000577, -1.0497018748730742 
2.380000000000598, -1.0504591417871014 
2.390000000000619, -1.0502655700856802 
2.4000000000006403, -1.0496496460807552 
2.4100000000006614, -1.0493924089539384 
2.4200000000006825, -1.0508518611138573 
2.4300000000007036, -1.0556812079780271 
2.4400000000007247, -1.0646125132553557 
2.450000000000746, -1.0766015047862754 
2.460000000000767, -1.0896895232116337 
2.470000000000788, -1.1023858253405292 
2.480000000000809, -1.114084410878697 
2.49000000000083, -1.12475149779508 
2.5000000000008513, -1.134546032035999 
2.5100000000008724, -1.1435833095054802 
2.5200000000008935, -1.1518040954547222 
2.5300000000009146, -1.1589350688940236 
2.5400000000009357, -1.164599938699422 
2.550000000000957, -1.168564085012954 
2.560000000000978, -1.1709034539463885 
2.570000000000999, -1.1719405901721793 
2.58000000000102, -1.1720793356793382 
2.5900000000010412, -1.1717349555789383 
2.6000000000010624, -1.1713697998508754 
2.6100000000010835, -1.1714733710810594 
2.6200000000011046, -1.1723538700181257 
2.6300000000011257, -1.1739343779032425 
2.6400000000011468, -1.1758717271033534 
2.650000000001168, -1.1778549647871157 
2.660000000001189, -1.1797317847482702 
2.67000000000121, -1.181439170005589 
2.680000000001231, -1.182917812303116 
2.6900000000012523, -1.1841042789525391 
2.7000000000012734, -1.184964287796346 
2.7100000000012945, -1.185506729922685 
2.7200000000013156, -1.1857630094774998 
2.7300000000013367, -1.1857514861219367 
2.740000000001358, -1.1854556482750742 
2.750000000001379, -1.18483356077307 
2.7600000000014, -1.1838535979134386 
2.770000000001421, -1.182531889049517 
2.780000000001442, -1.1809437737925261 
2.7900000000014633, -1.1791947698061434 
2.8000000000014844, -1.1773698905643017 
2.8100000000015055, -1.1755260429466696 
2.8200000000015266, -1.1737665756858267 
2.8300000000015477, -1.172308219992895 
2.840000000001569, -1.1713876276593942 
2.85000000000159, -1.1710357891802248 
2.860000000001611, -1.1709896530758686 
2.870000000001632, -1.1708428094810266 
2.8800000000016532, -1.1702067058690908 
2.8900000000016743, -1.168747516599317 
2.9000000000016954, -1.1661953479354772 
2.9100000000017165, -1.1624160694491579 
2.9200000000017377, -1.1574863216430518 
2.9300000000017588, -1.1516462736915338 
2.94000000000178, -1.1451414735009453 
2.950000000001801, -1.1380965231889357 
2.960000000001822, -1.130493890570384 
2.970000000001843, -1.1222230718219577 
2.9800000000018643, -1.1131696450000752 
2.9900000000018854, -1.103378015101295 
3.0000000000019065, -1.0933240853856792 
3.0100000000019276, -1.0841344413271363 
3.0200000000019487, -1.0772591850078255 
3.03000000000197, -1.0734434922502527 
3.040000000001991, -1.0721024491538078 
3.050000000002012, -1.0719624071838152 
3.060000000002033, -1.0719574506796916 
3.070000000002054, -1.0714222245966867 
3.0800000000020753, -1.0698237114406255 
3.0900000000020964, -1.0664618854360062 
3.1000000000021175, -1.06033853008326 
3.1100000000021386, -1.0504049049399773 
3.1200000000021597, -1.0362880745748044 
3.130000000002181, -1.0188659763268233 
3.140000000002202, -0.9997974432189212 
3.150000000002223, -0.9804797886083894 
3.160000000002244, -0.9615810341600094 
3.1700000000022652, -0.9432444939964808 
3.1800000000022863, -0.9254722734266714 
3.1900000000023074, -0.9084375054202344 
3.2000000000023285, -0.8926792981640033 
3.2100000000023496, -0.8791004041595161 
3.2200000000023707, -0.8686467552631955 
3.230000000002392, -0.8617612196328274 
3.240000000002413, -0.8580563153384977 
3.250000000002434, -0.8565429032051906 
3.260000000002455, -0.856156047669559 
3.2700000000024763, -0.8560971101882927 
3.2800000000024974, -0.8558633656739044 
3.2900000000025185, -0.8551306548475684 
3.3000000000025396, -0.853655317054324 
3.3100000000025607, -0.851271215971612 
3.3200000000025818, -0.8479765820234046 
3.330000000002603, -0.8440067620444858 
3.340000000002624, -0.839760584747712 
3.350000000002645, -0.8356101036584654 
3.360000000002666, -0.8317664726161661 
3.3700000000026873, -0.8282782454044921 
3.3800000000027084, -0.82510045786665 
3.3900000000027295, -0.8221653332128301 
3.4000000000027506, -0.8194290203743175 
3.4100000000027717, -0.8168908173969591 
3.420000000002793, -0.8145888859027975 
3.430000000002814, -0.8125830038921793 
3.440000000002835, -0.8109372385200666 
3.450000000002856, -0.8097088753698515 
3.460000000002877, -0.8089392520652471 
3.4700000000028983, -0.8086392889682521 
3.4800000000029194, -0.808772742875959 
3.4900000000029405, -0.8092517119177115 
3.5000000000029616, -0.809955135423697 
3.5100000000029827, -0.8107643368295891 
3.520000000003004, -0.8115988661148981 
3.530000000003025, -0.8124381250795679 
3.540000000003046, -0.813320309253659 
3.550000000003067, -0.814316696122698 
3.5600000000030882, -0.8154888042457683 
3.5700000000031094, -0.816842114205949 
3.5800000000031305, -0.8182916776117753 
3.5900000000031516, -0.8196626456096677 
3.6000000000031727, -0.8207471255393012 
3.6100000000031938, -0.8213951826713755 
3.620000000003215, -0.8215747866912577 
3.630000000003236, -0.8213725516039195 
3.640000000003257, -0.8209758425061431 
3.650000000003278, -0.8206792016309775 
3.6600000000032993, -0.8209044638070718 
3.6700000000033204, -0.8221746046197742 
3.6800000000033415, -0.8249872964299776 
3.6900000000033626, -0.8296270845607957 
3.7000000000033837, -0.8360577966503586 
3.710000000003405, -0.8439933394601695 
3.720000000003426, -0.8530825721631089 
3.730000000003447, -0.8630704861953429 
3.740000000003468, -0.873867055616169 
3.750000000003489, -0.8855346680160899 
3.7600000000035103, -0.898212564612424 
3.7700000000035314, -0.9119574009513254 
3.7800000000035525, -0.9264651936417826 
3.7900000000035736, -0.940774111706021 
3.8000000000035947, -0.9533548326157074 
3.810000000003616, -0.962892133224163 
3.820000000003637, -0.9690802272779513 
3.830000000003658, -0.9725199164685785 
3.840000000003679, -0.9740616193870482 
3.8500000000037002, -0.9743843569219447 
3.8600000000037213, -0.973968368830908 
3.8700000000037424, -0.9733063193590563 
3.8800000000037635, -0.9732688528238684 
3.8900000000037847, -0.9754660567098549 
3.9000000000038058, -0.982034865426152 
3.910000000003827, -0.9943268160047488 
3.920000000003848, -1.011566359541543 
3.930000000003869, -1.0313563128990362 
3.94000000000389, -1.0514220736409374 
3.9500000000039113, -1.0705667913664612 
3.9600000000039324, -1.0884983657998666 
3.9700000000039535, -1.1052976990475913 
3.9800000000039746, -1.1209752479001902 
3.9900000000039957, -1.1351918281318985 
4.000000000004016, -1.1472352263394898 
4.010000000003993, -1.1563892592070768 
4.02000000000397, -1.1624650608175109 
4.030000000003946, -1.1659215519474322 
4.040000000003923, -1.1675033435765028 
4.0500000000039, -1.1678877805868089 
4.0600000000038765, -1.1676212652059885 
4.070000000003853, -1.1672596695702997 
4.08000000000383, -1.1674784236635205 
4.090000000003807, -1.1688723061411002 
4.100000000003783, -1.1715179214611862 
4.11000000000376, -1.1749150816207814 
4.120000000003737, -1.1784487396466958 
4.130000000003713, -1.1817540115199465 
4.14000000000369, -1.1847112399944288 
4.150000000003667, -1.1873029871190772 
4.1600000000036434, -1.1895327183283453 
4.17000000000362, -1.1914153246936983 
4.180000000003597, -1.1929771837568113 
4.1900000000035735, -1.1942356385471167 
4.20000000000355, -1.1951723381129913 
4.210000000003527, -1.195728760323141 
4.220000000003504, -1.1958374389363926 
4.23000000000348, -1.1954722775589957 
4.240000000003457, -1.1946847512764145 
4.250000000003434, -1.1936064910478583 
4.26000000000341, -1.1924113350425987 
4.270000000003387, -1.1912404837233708 
4.280000000003364, -1.1901500853276787 
4.2900000000033405, -1.189159874700764 
4.300000000003317, -1.1883533013417016 
4.310000000003294, -1.187871426023318 
4.320000000003271, -1.1877602905008295 
4.330000000003247, -1.1878541252480221 
4.340000000003224, -1.1878424004560373 
4.350000000003201, -1.1874061650195535 
4.360000000003177, -1.1862863641708148 
4.370000000003154, -1.18431321600554 
4.380000000003131, -1.1814465518513886 
4.390000000003107, -1.1777856056193237 
4.400000000003084, -1.1734985070343515 
4.410000000003061, -1.1687175096265963 
4.4200000000030375, -1.1634817605040282 
4.430000000003014, -1.157743223620522 
4.440000000002991, -1.1514026028064417 
4.450000000002968, -1.1443650239065932 
4.460000000002944, -1.1366610845856093 
4.470000000002921, -1.1286791440278032 
4.480000000002898, -1.1213692503896928 
4.490000000002874, -1.1159668295814689 
4.500000000002851, -1.1130833181772655 
4.510000000002828, -1.1121700691728977 
4.520000000002804, -1.11210977378386 
4.530000000002781, -1.1119789028616467 
4.540000000002758, -1.1111592039332383 
4.5500000000027345, -1.1090581764862064 
4.560000000002711, -1.1048245877471283 
4.570000000002688, -1.0972764475505106 
4.580000000002665, -1.0853020497063797 
4.590000000002641, -1.0687151032323337 
4.600000000002618, -1.0486666703041365 
4.610000000002595, -1.0268848140646176 
4.620000000002571, -1.0046374468080472 
4.630000000002548, -0.9824579790919759 
4.640000000002525, -0.9604774005304002 
4.6500000000025015, -0.9388797613786768 
4.660000000002478, -0.9182765977561378 
4.670000000002455, -0.8998630544462756 
4.6800000000024315, -0.8851183001734174 
4.690000000002408, -0.8750198243430154 
4.700000000002385, -0.8693699514302444 
4.710000000002362, -0.8669471587010896 
4.720000000002338, -0.8662786155473661 
4.730000000002315, -0.8662360851787041 
4.740000000002292, -0.8661371930323553 
4.750000000002268, -0.865577820226792 
4.760000000002245, -0.8642557120733676 
4.770000000002222, -0.8619004930602274 
4.7800000000021985, -0.858343159061983 
4.790000000002175, -0.8536727318435913 
4.800000000002152, -0.8482954957651447 
4.810000000002129, -0.8427576664473915 
4.820000000002105, -0.8374826865202822 
4.830000000002082, -0.8326600111987859 
4.840000000002059, -0.8282986521345801 
4.850000000002035, -0.8243276859890821 
4.860000000002012, -0.8206720740118781 
4.870000000001989, -0.8172915675862624 
4.880000000001965, -0.8141901842347998 
4.890000000001942, -0.8114081262752144 
4.900000000001919, -0.8090084178727425 
4.9100000000018955, -0.8070641199308151 
4.920000000001872, -0.8056420794524684 
4.930000000001849, -0.8047774927335947 
