t, s[1].omega / s[0].omega 
0, -0.7699976797683898 
0.009999999999999995, -0.7698962443249002 
0.019999999999999934, -0.7700070631319365 
0.029999999999999874, -0.7702041007939003 
0.04000000000000012, -0.7703248087055278 
0.050000000000000405, -0.7702405938918571 
0.06000000000000069, -0.7699194259028539 
0.07000000000000098, -0.7694512749875483 
0.08000000000000126, -0.7690453285739092 
0.09000000000000155, -0.7690132738860819 
0.10000000000000184, -0.7697243232308748 
0.11000000000000212, -0.77151345573759 
0.12000000000000241, -0.7745711687905684 
0.130000000000002, -0.7788887397603624 
0.1400000000000009, -0.7843034977978223 
0.1499999999999998, -0.7906075574504909 
0.1599999999999987, -0.797648544965232 
0.1699999999999976, -0.8053860373556578 
0.1799999999999965, -0.8139117359454595 
0.1899999999999954, -0.8234511876558093 
0.1999999999999943, -0.8343433784132298 
0.2099999999999932, -0.8469514693142249 
0.2199999999999921, -0.86140168160613 
0.229999999999991, -0.87708594050492 
0.2399999999999899, -0.8922857833342779 
0.2499999999999888, -0.9047936085830092 
0.2599999999999877, -0.9133855056815158 
0.2699999999999866, -0.9183602719854038 
0.2799999999999855, -0.9207317276367404 
0.2899999999999844, -0.9214184253550464 
0.2999999999999833, -0.921050794992636 
0.3099999999999822, -0.9202068818631164 
0.3199999999999811, -0.9199675672233762 
0.32999999999998, -0.9227695017731357 
0.3399999999999789, -0.9328150610325141 
0.3499999999999778, -0.9541232182388937 
0.35999999999997667, -0.9863892958611797 
0.36999999999997557, -1.0241637735897444 
0.37999999999997447, -1.0614304238265677 
0.38999999999997337, -1.0952232418861754 
0.39999999999997227, -1.1252841377590228 
0.40999999999997117, -1.1523991847795207 
0.41999999999997006, -1.1772190398914328 
0.42999999999996896, -1.1996201689701183 
0.43999999999996786, -1.2185636370709718 
0.44999999999996676, -1.2327824899571307 
0.45999999999996566, -1.2419503087255401 
0.46999999999996456, -1.246976688259976 
0.47999999999996346, -1.2492243829729772 
0.48999999999996235, -1.2498240957139166 
0.49999999999996125, -1.2496167606452253 
0.5099999999999602, -1.2494228542252634 
0.519999999999959, -1.2501207905172627 
0.529999999999958, -1.2521625986668496 
0.5399999999999568, -1.255140600403975 
0.5499999999999557, -1.2582605756009244 
0.5599999999999546, -1.2610305273669258 
0.5699999999999535, -1.2633528001461667 
0.5799999999999524, -1.2652714072920268 
0.5899999999999513, -1.2667955034872818 
0.5999999999999502, -1.2678979841451024 
0.6099999999999491, -1.2685759687061933 
0.619999999999948, -1.2688681930422998 
0.6299999999999469, -1.2688218301381216 
0.6399999999999458, -1.268450605952592 
0.6499999999999447, -1.2677220509669023 
0.6599999999999436, -1.2665848840968652 
0.6699999999999425, -1.2650160006781754 
0.6799999999999414, -1.2630442254482623 
0.6899999999999403, -1.2607150436292123 
0.6999999999999392, -1.2580247942306944 
0.7099999999999381, -1.2549457536723243 
0.719999999999937, -1.2516243135420189 
0.7299999999999359, -1.2485852837063414 
0.7399999999999348, -1.246526308422617 
0.7499999999999337, -1.2456514596090382 
0.7599999999999326, -1.2454117360616335 
0.7699999999999315, -1.2449821037791593 
0.7799999999999304, -1.2436026669081595 
0.7899999999999293, -1.2404559407635107 
0.7999999999999282, -1.2345041990959567 
0.8099999999999271, -1.2247174729841768 
0.819999999999926, -1.2107333609684494 
0.8299999999999249, -1.1932097587090207 
0.8399999999999238, -1.1732149865310055 
0.8499999999999227, -1.151341563518661 
0.8599999999999216, -1.1274064297772 
0.8699999999999205, -1.1006852668165514 
0.8799999999999194, -1.07048777650432 
0.8899999999999183, -1.0372603960755657 
0.8999999999999172, -1.0040903249888105 
0.9099999999999161, -0.9766718088313038 
0.919999999999915, -0.9594956369289337 
0.9299999999999139, -0.9519871127311774 
0.9399999999999128, -0.950125910310412 
0.9499999999999117, -0.9502946848023136 
0.9599999999999106, -0.9505752810757722 
0.9699999999999095, -0.9501148292587949 
0.9799999999999084, -0.9483224143953984 
0.9899999999999073, -0.9443786219564304 
0.9999999999999062, -0.9370730327857375 
1.0099999999999052, -0.9252274360878034 
1.019999999999904, -0.9088641991822802 
1.029999999999903, -0.8899307957895329 
1.039999999999902, -0.8711037709943718 
1.0499999999999008, -0.8540632618936712 
1.0599999999998997, -0.8391926434431471 
1.0699999999998986, -0.8261998924805167 
1.0799999999998975, -0.8146475000817255 
1.0899999999998964, -0.8041856370807562 
1.0999999999998953, -0.7946235472402949 
1.1099999999998942, -0.7859435878300844 
1.119999999999893, -0.7782871710382984 
1.129999999999892, -0.7718982910973782 
1.1399999999998909, -0.767008461433712 
1.1499999999998898, -0.7636936146444951 
1.1599999999998887, -0.7617888373574053 
1.1699999999998876, -0.760926821811643 
1.1799999999998865, -0.7606660232243592 
1.1899999999998854, -0.7606121880480798 
1.1999999999998843, -0.7604786320409915 
1.2099999999998832, -0.7601019884433703 
1.219999999999882, -0.7594474590899498 
1.229999999999881, -0.7586028818817656 
1.2399999999998799, -0.7577354988722742 
1.2499999999998788, -0.7570153978350344 
1.2599999999998777, -0.7565496442774738 
1.2699999999998766, -0.7563544033878957 
1.2799999999998755, -0.7563561215932318 
1.2899999999998744, -0.7564147875919514 
1.2999999999998733, -0.756376032886607 
1.3099999999998722, -0.7561402283899061 
1.319999999999871, -0.7557127792469924 
1.32999999999987, -0.7552187807110322 
1.3399999999998689, -0.7548960174769033 
1.3499999999998678, -0.755072398235607 
1.3599999999998666, -0.7561097890708022 
1.3699999999998655, -0.758307287146304 
1.3799999999998644, -0.761805931186647 
1.3899999999998633, -0.7665620810568612 
1.3999999999998622, -0.7724106403914186 
1.4099999999998611, -0.7791709531413735 
1.41999999999986, -0.7867351979732883 
1.429999999999859, -0.7951172190867148 
1.4399999999998578, -0.8044728300347295 
1.4499999999998567, -0.8151029662202551 
1.4599999999998556, -0.8274225601651602 
1.4699999999998545, -0.8418212109294989 
1.4799999999998534, -0.8582792576532625 
1.4899999999998523, -0.8757399986974344 
1.4999999999998512, -0.8919067208133953 
1.5099999999998501, -0.9044284226298128 
1.519999999999849, -0.9125163373544799 
1.529999999999848, -0.9169378537633968 
1.5399999999998468, -0.9188835570359087 
1.5499999999998457, -0.9192621854907932 
1.5599999999998446, -0.9186671336203395 
1.5699999999998435, -0.9177206035186425 
1.5799999999998424, -0.9177731260198231 
1.5899999999998413, -0.921958101214973 
1.5999999999998402, -0.9355245237514975 
1.6099999999998391, -0.9629193478888615 
1.619999999999838, -1.0025379901769311 
1.629999999999837, -1.0468468642618014 
1.6399999999998358, -1.0888699187516235 
1.6499999999998347, -1.1258893897026443 
1.6599999999998336, -1.1581724355422987 
1.6699999999998325, -1.186803161701714 
1.6799999999998314, -1.2124197264088754 
1.6899999999998303, -1.234684974482795 
1.6999999999998292, -1.252477094056623 
1.709999999999828, -1.2649297882460622 
1.719999999999827, -1.272394583403576 
1.729999999999826, -1.2761770847461325 
1.7399999999998248, -1.2776471886269898 
1.7499999999998237, -1.2778236471079418 
1.7599999999998226, -1.2775188555864385 
1.7699999999998215, -1.277586979078317 
1.7799999999998204, -1.2787447498310438 
1.7899999999998193, -1.281003262484588 
1.7999999999998182, -1.2836984262299946 
1.809999999999817, -1.2862071864744984 
1.819999999999816, -1.2883161066860276 
1.8299999999998149, -1.2900513514435974 
1.8399999999998138, -1.2914311901001319 
1.8499999999998127, -1.2924024661475284 
1.8599999999998116, -1.2929106620696669 
1.8699999999998105, -1.2929573201710691 
1.8799999999998094, -1.2925907184403846 
1.8899999999998083, -1.2918583041989185 
1.8999999999998072, -1.2907672538325556 
1.909999999999806, -1.2892822120768805 
1.919999999999805, -1.2873567896878806 
1.9299999999998039, -1.2849648146430928 
1.9399999999998028, -1.2820883455159549 
1.9499999999998017, -1.2786676426741512 
1.9599999999998006, -1.2746227002482087 
1.9699999999997995, -1.2700771656287282 
1.9799999999997984, -1.2656835229581973 
1.9899999999997973, -1.262498799732699 
1.9999999999997962, -1.2610446843200958 
2.0099999999998173, -1.2607176756128768 
2.0199999999998384, -1.260445443503086 
2.0299999999998595, -1.259297247992657 
2.0399999999998806, -1.2562965023780364 
2.0499999999999017, -1.2499370642269332 
2.059999999999923, -1.2380056842663067 
2.069999999999944, -1.2184023236268755 
2.079999999999965, -1.1908644395057393 
2.089999999999986, -1.157401979281138 
2.100000000000007, -1.1203998307887115 
2.1100000000000283, -1.0809312994278848 
2.1200000000000494, -1.0388297370530306 
2.1300000000000705, -0.9937831612465278 
2.1400000000000916, -0.9468349298670564 
2.1500000000001127, -0.9017140199407313 
2.160000000000134, -0.8642470919672025 
2.170000000000155, -0.8388050455300304 
2.180000000000176, -0.825176960279894 
2.190000000000197, -0.8196507396402788 
2.2000000000002182, -0.8181991361961967 
2.2100000000002393, -0.8181795657087075 
2.2200000000002604, -0.8182601229185297 
2.2300000000002815, -0.8178044678757569 
2.2400000000003026, -0.8164010606229033 
2.2500000000003237, -0.8136541344912421 
2.260000000000345, -0.809232374711186 
2.270000000000366, -0.8031410120108463 
2.280000000000387, -0.7959471833061306 
2.290000000000408, -0.7885665989068161 
2.3000000000004293, -0.7817505531223137 
2.3100000000004504, -0.7758198461437066 
2.3200000000004715, -0.77075926988699 
2.3300000000004926, -0.7664096484398624 
2.3400000000005137, -0.7625967261680171 
2.3500000000005348, -0.7591911189163378 
2.360000000000556, -0.7561270522808088 
2.370000000000577, -0.7533958967980092 
2.380000000000598, -0.7510261343333323 
2.390000000000619, -0.7490625056921238 
2.4000000000006403, -0.7475520508696023 
2.4100000000006614, -0.7465346415705695 
2.4200000000006825, -0.7460305351326115 
2.4300000000007036, -0.7460237422620777 
2.4400000000007247, -0.7464514326683035 
2.450000000000746, -0.747212451222474 
2.460000000000767, -0.7481971038245221 
2.470000000000788, -0.7493263138692318 
2.480000000000809, -0.7505827641407494 
2.49000000000083, -0.7520199469989345 
2.5000000000008513, -0.7537440845186817 
2.5100000000008724, -0.7558744937785967 
2.5200000000008935, -0.758488128391395 
2.5300000000009146, -0.7615461032774405 
2.5400000000009357, -0.764820804869075 
2.550000000000957, -0.7679035754666239 
2.560000000000978, -0.7703634802934629 
2.570000000000999, -0.7719553196258205 
2.58000000000102, -0.7726862490143969 
2.5900000000010412, -0.7727399076776422 
2.6000000000010624, -0.7724167490386828 
2.6100000000010835, -0.772197004109319 
2.6200000000011046, -0.7729276690933198 
2.6300000000011257, -0.7760262339355282 
2.6400000000011468, -0.7834284834635803 
2.650000000001168, -0.7969673414827595 
2.660000000001189, -0.8173520415926371 
2.67000000000121, -0.8436461741396176 
2.680000000001231, -0.8738905180628599 
2.6900000000012523, -0.9062830198108249 
2.7000000000012734, -0.9399033749339845 
2.7100000000012945, -0.974699062118435 
2.7200000000013156, -1.0109660230065605 
2.7300000000013367, -1.0484176158447363 
2.740000000001358, -1.0849545335652784 
2.750000000001379, -1.116396156882815 
2.7600000000014, -1.139001239286831 
2.770000000001421, -1.1525007424820086 
2.780000000001442, -1.1593993193708687 
2.7900000000014633, -1.1623971879029409 
2.8000000000014844, -1.1632550597010791 
2.8100000000015055, -1.1629990735114475 
2.8200000000015266, -1.1625295621010512 
2.8300000000015477, -1.1631915635749785 
2.840000000001569, -1.1666105311575798 
2.85000000000159, -1.1732953584450938 
2.860000000001611, -1.1818650020962034 
2.870000000001632, -1.1904346713702076 
2.8800000000016532, -1.1979919261761587 
2.8900000000016743, -1.2043847531867544 
2.9000000000016954, -1.209812597893412 
2.9100000000017165, -1.214511654591031 
2.9200000000017377, -1.218660772088867 
2.9300000000017588, -1.2223632897093253 
2.94000000000178, -1.2256256774946759 
2.950000000001801, -1.2283449628955005 
2.960000000001822, -1.230353559197456 
2.970000000001843, -1.2315270431479255 
2.9800000000018643, -1.2318795749981652 
2.9900000000018854, -1.2315819199325087 
3.0000000000019065, -1.2309246406709544 
3.0100000000019276, -1.2302387985147436 
3.0200000000019487, -1.2297441789377521 
3.03000000000197, -1.2294349261564614 
3.040000000001991, -1.2291841331200284 
3.050000000002012, -1.2289600649770145 
3.060000000002033, -1.22887385583613 
3.070000000002054, -1.2289989129280858 
3.0800000000020753, -1.2291957211069289 
3.0900000000020964, -1.2291571607737264 
3.1000000000021175, -1.2285694832351142 
3.1100000000021386, -1.227217672308288 
3.1200000000021597, -1.2250341624521834 
3.130000000002181, -1.2221040113252055 
3.140000000002202, -1.2185938367130857 
3.150000000002223, -1.2146390512827985 
3.160000000002244, -1.2102752396305638 
3.1700000000022652, -1.205437551987526 
3.1800000000022863, -1.199985934130498 
3.1900000000023074, -1.1937217297505414 
3.2000000000023285, -1.1864326693942921 
3.2100000000023496, -1.1780878850931145 
3.2200000000023707, -1.1692627540067613 
3.230000000002392, -1.1614510299516954 
3.240000000002413, -1.1563419957963839 
3.250000000002434, -1.1542445137312822 
3.260000000002455, -1.1539026501457368 
3.2700000000024763, -1.1538416733830192 
3.2800000000024974, -1.153057274312233 
3.2900000000025185, -1.1506918378157613 
3.3000000000025396, -1.1454710403107882 
3.3100000000025607, -1.13536971080856 
3.3200000000025818, -1.1181275050722628 
3.330000000002603, -1.0930896793546148 
3.340000000002624, -1.0625504140396038 
3.350000000002645, -1.0300970382540675 
3.360000000002666, -0.9980663263367306 
3.3700000000026873, -0.9670650142020889 
3.3800000000027084, -0.9368419476769028 
3.3900000000027295, -0.9071662580499616 
3.4000000000027506, -0.8784321146209575 
3.4100000000027717, -0.8519758786290657 
3.420000000002793, -0.8298266357957818 
3.430000000002814, -0.8136967374510933 
3.440000000002835, -0.8038578817522566 
3.450000000002856, -0.7990121886353518 
3.460000000002877, -0.7972110204995668 
3.4700000000028983, -0.7967922924624563 
3.4800000000029194, -0.7966936115028149 
3.4900000000029405, -0.7963130150661615 
3.5000000000029616, -0.7952826997808535 
3.5100000000029827, -0.7933480250812976 
3.520000000003004, -0.7903977181565186 
3.530000000003025, -0.7865786909091977 
3.540000000003046, -0.7823120027894493 
3.550000000003067, -0.7781005595217918 
3.5600000000030882, -0.7742936382926174 
3.5700000000031094, -0.7710120320209207 
3.5800000000031305, -0.7682136462266971 
3.5900000000031516, -0.7657855892874348 
3.6000000000031727, -0.7636127643461198 
3.6100000000031938, -0.7616224382174445 
3.620000000003215, -0.7598056159909572 
3.630000000003236, -0.7582119584384995 
3.640000000003257, -0.756922976820456 
3.650000000003278, -0.7560181529033652 
3.6600000000032993, -0.7555506871861846 
3.6700000000033204, -0.7555412276533805 
3.6800000000033415, -0.7559842840161803 
3.6900000000033626, -0.7568552998739925 
3.7000000000033837, -0.7581129232191961 
3.710000000003405, -0.7597025509275717 
3.720000000003426, -0.7615703797273992 
3.730000000003447, -0.7636885594786939 
3.740000000003468, -0.7660804660798546 
3.750000000003489, -0.7688311631765536 
3.7600000000035103, -0.7720736667980618 
3.7700000000035314, -0.7759464584411415 
3.7800000000035525, -0.780511300068234 
3.7900000000035736, -0.7856248419030905 
3.8000000000035947, -0.790831788208662 
3.810000000003616, -0.795454277364045 
3.820000000003637, -0.7989255483462704 
3.830000000003658, -0.8010632639939905 
3.840000000003679, -0.8020256322558288 
3.8500000000037002, -0.8021161353016831 
3.8600000000037213, -0.8017007620661067 
3.8700000000037424, -0.8013296950140724 
3.8800000000037635, -0.8020580123997639 
3.8900000000037847, -0.8058528323654581 
3.9000000000038058, -0.8156430209763865 
3.910000000003827, -0.834290960995047 
3.920000000003848, -0.8626056143758338 
3.930000000003869, -0.8983304886030539 
3.94000000000389, -0.9376190309317399 
3.9500000000039113, -0.9774059511981298 
3.9600000000039324, -1.0163904573872655 
3.9700000000039535, -1.054540700440512 
3.9800000000039746, -1.092038593469574 
3.9900000000039957, -1.1281138313393717 
4.000000000004016, -1.1602594587361204 
4.010000000003993, -1.1851628284181461 
4.02000000000397, -1.2013641520020422 
4.030000000003946, -1.2102925505161026 
4.040000000003923, -1.2145142741207307 
4.0500000000039, -1.216067472153677 
4.0600000000038765, -1.216194850375213 
4.070000000003853, -1.2157905725650742 
4.08000000000383, -1.2159242930778775 
4.090000000003807, -1.217843734387769 
4.100000000003783, -1.2220314259582095 
4.11000000000376, -1.2275873297118935 
4.120000000003737, -1.2331785677023628 
4.130000000003713, -1.2380719110370682 
4.14000000000369, -1.2421523246273023 
4.150000000003667, -1.2455412915959292 
4.1600000000036434, -1.2483651263296645 
4.17000000000362, -1.2507140036323903 
4.180000000003597, -1.2526593619089441 
4.1900000000035735, -1.254246154893733 
4.20000000000355, -1.255465531702323 
4.210000000003527, -1.2562485874860998 
4.220000000003504, -1.256506378740524 
4.23000000000348, -1.256199465430289 
4.240000000003457, -1.255389588170956 
4.250000000003434, -1.2542368236541788 
4.26000000000341, -1.252925249979577 
4.270000000003387, -1.2515468610368505 
4.280000000003364, -1.2500778280775404 
4.2900000000033405, -1.2485334648893096 
4.300000000003317, -1.2471353911524257 
4.310000000003294, -1.2462154343548089 
4.320000000003271, -1.24585934084608 
4.330000000003247, -1.245734654611288 
4.340000000003224, -1.245304311380861 
4.350000000003201, -1.2440441657188916 
4.360000000003177, -1.2414829752293515 
4.370000000003154, -1.237258099757715 
4.380000000003131, -1.2312747870071579 
4.390000000003107, -1.2237707370506192 
4.400000000003084, -1.215117170207239 
4.410000000003061, -1.2055322447456027 
4.4200000000030375, -1.1949437832007197 
4.430000000003014, -1.182999196505279 
4.440000000002991, -1.1691497123971173 
4.450000000002968, -1.1528934981232748 
4.460000000002944, -1.134440883084798 
4.470000000002921, -1.1158073102873458 
4.480000000002898, -1.1008944023141105 
4.490000000002874, -1.0925864958396283 
4.500000000002851, -1.089928006133864 
4.510000000002828, -1.0898798640419274 
4.520000000002804, -1.0901666681777784 
4.530000000002781, -1.0896643712873355 
4.540000000002758, -1.0875684685454987 
4.5500000000027345, -1.082575391791522 
4.560000000002711, -1.0722096568177113 
4.570000000002688, -1.0527902777849012 
4.580000000002665, -1.0216402219192746 
4.590000000002641, -0.9810438342798251 
4.600000000002618, -0.9377689959869651 
4.610000000002595, -0.8974466698380471 
4.620000000002571, -0.8619692720149725 
4.630000000002548, -0.8309868380892548 
4.640000000002525, -0.8036466674933864 
4.6500000000025015, -0.7793689038224579 
4.660000000002478, -0.7580397594940542 
4.670000000002455, -0.7399386104648521 
4.6800000000024315, -0.7254915646976223 
4.690000000002408, -0.7149296972045238 
4.700000000002385, -0.708027575428636 
4.710000000002362, -0.7040949724293862 
4.720000000002338, -0.7022083436967879 
4.730000000002315, -0.7014903122832187 
4.740000000002292, -0.7012688343211488 
4.750000000002268, -0.7010957888357623 
4.760000000002245, -0.7007007320304699 
4.770000000002222, -0.6999541828373141 
4.7800000000021985, -0.6988635044201018 
4.790000000002175, -0.6975674655061407 
4.800000000002152, -0.6962821937377656 
4.810000000002129, -0.6952094540903823 
4.820000000002105, -0.6944683841166941 
4.830000000002082, -0.6940775410810047 
4.840000000002059, -0.6939646935386004 
4.850000000002035, -0.6939888156107938 
4.860000000002012, -0.6939843384205486 
4.870000000001989, -0.6938263807712814 
4.880000000001965, -0.6934857109894889 
4.890000000001942, -0.6930511348363586 
4.900000000001919, -0.6927326973516303 
4.9100000000018955, -0.6928632891999612 
4.920000000001872, -0.6938871535808815 
4.930000000001849, -0.6963043958313099 
