t, s[1].omega / s[0].omega 
0, -1.0602824131990405 
0.009999999999999995, -1.087451247167508 
0.019999999999999934, -1.1110829384616923 
0.029999999999999874, -1.1291926764856468 
0.04000000000000012, -1.1411401285381697 
0.050000000000000405, -1.1479598710030077 
0.06000000000000069, -1.1513304789172012 
0.07000000000000098, -1.152632078196571 
0.08000000000000126, -1.1527463835730196 
0.09000000000000155, -1.152291713939082 
0.10000000000000184, -1.1519829153720558 
0.11000000000000212, -1.1528507607667393 
0.12000000000000241, -1.1558703963423125 
0.130000000000002, -1.1610983420275438 
0.1400000000000009, -1.167543881225012 
0.1499999999999998, -1.1740646264118513 
0.1599999999999987, -1.1800314412931756 
0.1699999999999976, -1.1852913039509327 
0.1799999999999965, -1.1899019828234079 
0.1899999999999954, -1.1939635386619145 
0.1999999999999943, -1.1975558524618262 
0.2099999999999932, -1.2007098485633665 
0.2199999999999921, -1.2033855079818758 
0.229999999999991, -1.2054783637804873 
0.2399999999999899, -1.206875739035765 
0.2499999999999888, -1.2075353107459903 
0.2599999999999877, -1.2075271798817289 
0.2699999999999866, -1.2070255096444762 
0.2799999999999855, -1.2062804005759435 
0.2899999999999844, -1.2055627805289562 
0.2999999999999833, -1.205056618871787 
0.3099999999999822, -1.2047820997645542 
0.3199999999999811, -1.204667960126403 
0.32999999999998, -1.2046893858272179 
0.3399999999999789, -1.2048833400692074 
0.3499999999999778, -1.205230655387524 
0.35999999999997667, -1.2055764829564954 
0.36999999999997557, -1.205685479113211 
0.37999999999997447, -1.2053413361489747 
0.38999999999997337, -1.2044048410520638 
0.39999999999997227, -1.202836968657254 
0.40999999999997117, -1.2006923860899659 
0.41999999999997006, -1.198071015291721 
0.42999999999996896, -1.1950522408670623 
0.43999999999996786, -1.1916583944119423 
0.44999999999996676, -1.1878604518446867 
0.45999999999996566, -1.183601927127689 
0.46999999999996456, -1.1788190324393697 
0.47999999999996346, -1.173477610535008 
0.48999999999996235, -1.1676909792623105 
0.49999999999996125, -1.1619262973156452 
0.5099999999999602, -1.15706791437958 
0.519999999999959, -1.1539549097910493 
0.529999999999958, -1.1526468561752583 
0.5399999999999568, -1.1523964468348793 
0.5499999999999557, -1.1523063528450128 
0.5599999999999546, -1.151702270796529 
0.5699999999999535, -1.150002044130635 
0.5799999999999524, -1.146441185170238 
0.5899999999999513, -1.1399386988408846 
0.5999999999999502, -1.1293537910977958 
0.6099999999999491, -1.114204807786682 
0.619999999999948, -1.0951906323083458 
0.6299999999999469, -1.073717952375971 
0.6399999999999458, -1.0509549839303591 
0.6499999999999447, -1.0274368121663295 
0.6599999999999436, -1.0033081092967184 
0.6699999999999425, -0.9788197325713373 
0.6799999999999414, -0.9548473199648291 
0.6899999999999403, -0.9331660592317634 
0.6999999999999392, -0.9159922427214935 
0.7099999999999381, -0.9047058501082452 
0.719999999999937, -0.8988735142286908 
0.7299999999999359, -0.8967077893055617 
0.7399999999999348, -0.896312023423872 
0.7499999999999337, -0.8964001695587726 
0.7599999999999326, -0.8962717997827925 
0.7699999999999315, -0.8955166666618786 
0.7799999999999304, -0.8937742661911869 
0.7899999999999293, -0.8906440826466875 
0.7999999999999282, -0.8857901226260557 
0.8099999999999271, -0.8792143863564948 
0.819999999999926, -0.8714375793769046 
0.8299999999999249, -0.8632822173916394 
0.8399999999999238, -0.8554342146165761 
0.8499999999999227, -0.8482226721343833 
0.8599999999999216, -0.8416896721224489 
0.8699999999999205, -0.8357472951796069 
0.8799999999999194, -0.8302917292692978 
0.8899999999999183, -0.8252591179400163 
0.8999999999999172, -0.8206441006477048 
0.9099999999999161, -0.8165000030423462 
0.919999999999915, -0.8129282780514042 
0.9299999999999139, -0.8100522059808595 
0.9399999999999128, -0.8079682683417901 
0.9499999999999117, -0.8066876239219258 
0.9599999999999106, -0.8061034190392856 
0.9699999999999095, -0.806011809158756 
0.9799999999999084, -0.8061734793910323 
0.9899999999999073, -0.8063757926662648 
0.9999999999999062, -0.806471418269551 
1.0099999999999052, -0.8063962830961705 
1.019999999999904, -0.8061723519507737 
1.029999999999903, -0.8058879618606645 
1.039999999999902, -0.8056526475091452 
1.0499999999999008, -0.8055448946423068 
1.0599999999998997, -0.8055767649826638 
1.0699999999998986, -0.8056857445145257 
1.0799999999998975, -0.8057568224022621 
1.0899999999998964, -0.805672212207911 
1.0999999999998953, -0.8053673169173339 
1.1099999999998942, -0.804864112374946 
1.119999999999893, -0.8042768066984103 
1.129999999999892, -0.8038040207770598 
1.1399999999998909, -0.8037091919607813 
1.1499999999998898, -0.8042733780494771 
1.1599999999998887, -0.8057186689880078 
1.1699999999998876, -0.8081394087162055 
1.1799999999998865, -0.8114904438031845 
1.1899999999998854, -0.8156393494660323 
1.1999999999998843, -0.8204416458968646 
1.2099999999998832, -0.8257973464483991 
1.219999999999882, -0.8316779509318281 
1.229999999999881, -0.8381320725170353 
1.2399999999998799, -0.8452725565181576 
1.2499999999998788, -0.8532306801839452 
1.2599999999998777, -0.8620475254456028 
1.2699999999998766, -0.8714858892861411 
1.2799999999998755, -0.8808548261660747 
1.2899999999998744, -0.8891166293861572 
1.2999999999998733, -0.895405294110802 
1.3099999999998722, -0.8994945620003183 
1.319999999999871, -0.9017212840854804 
1.32999999999987, -0.9025987266779039 
1.3399999999998689, -0.9025702032523132 
1.3499999999998678, -0.9020126146048343 
1.3599999999998666, -0.9014324236327498 
1.3699999999998655, -0.901819697785587 
1.3799999999998644, -0.905013090762222 
1.3899999999998633, -0.9135394774417425 
1.3999999999998622, -0.9293420820753135 
1.4099999999998611, -0.9521520438880634 
1.41999999999986, -0.9794791949027657 
1.429999999999859, -1.008370784416634 
1.4399999999998578, -1.036891922726956 
1.4499999999998567, -1.0642754328534325 
1.4599999999998556, -1.0903104675661102 
1.4699999999998545, -1.1146415392750277 
1.4799999999998534, -1.1363098485578786 
1.4899999999998523, -1.153902321557682 
1.4999999999998512, -1.166449772358445 
1.5099999999998501, -1.1742052918219608 
1.519999999999849, -1.1783535154954508 
1.529999999999848, -1.180179175021275 
1.5399999999998468, -1.1806238469045884 
1.5499999999998457, -1.1803366084235254 
1.5599999999998446, -1.1799443377879792 
1.5699999999998435, -1.1802657818974729 
1.5799999999998424, -1.1821039181769346 
1.5899999999998413, -1.1856139742703833 
1.5999999999998402, -1.190125645859605 
1.6099999999998391, -1.1947755629536867 
1.619999999999838, -1.1990555794657094 
1.629999999999837, -1.2028199444839465 
1.6399999999998358, -1.2060828138920499 
1.6499999999998347, -1.208890846254388 
1.6599999999998336, -1.2112906834488133 
1.6699999999998325, -1.2133197936793019 
1.6799999999998314, -1.2149858031467187 
1.6899999999998303, -1.2162488778317047 
1.6999999999998292, -1.217034377615169 
1.709999999999828, -1.217280227376426 
1.719999999999827, -1.2169892934442468 
1.729999999999826, -1.2162537200183654 
1.7399999999998248, -1.215243834709448 
1.7499999999998237, -1.2141571109232765 
1.7599999999998226, -1.2131315897927357 
1.7699999999998215, -1.2122015494438978 
1.7799999999998204, -1.2113735618180987 
1.7899999999998193, -1.2107332648593219 
1.7999999999998182, -1.2104104499793675 
1.809999999999817, -1.2104085651331962 
1.819999999999816, -1.2105181065706105 
1.8299999999998149, -1.2104152722612598 
1.8399999999998138, -1.20978903916324 
1.8499999999998127, -1.208393041099185 
1.8599999999998116, -1.2060772320698236 
1.8699999999998105, -1.2028292717696785 
1.8799999999998094, -1.198766184209027 
1.8899999999998083, -1.194045369661552 
1.8999999999998072, -1.1887633998959546 
1.909999999999806, -1.1829138240293604 
1.919999999999805, -1.176401223187504 
1.9299999999998039, -1.16908382088884 
1.9399999999998028, -1.1608658260392537 
1.9499999999998017, -1.1519160905250003 
1.9599999999998006, -1.1430051674213426 
1.9699999999997995, -1.135572182359096 
1.9799999999997984, -1.1309104677757689 
1.9899999999997973, -1.1290177746557897 
1.9999999999997962, -1.1287214076070313 
2.0099999999998173, -1.1287758936767482 
2.0199999999998384, -1.1283722937622875 
2.0299999999998595, -1.1269090765503427 
2.0399999999998806, -1.1235811154433333 
2.0499999999999017, -1.1170525245860277 
2.059999999999923, -1.1054662086923006 
2.069999999999944, -1.0872651138452805 
2.079999999999965, -1.0626170913971218 
2.089999999999986, -1.0337031986521543 
2.100000000000007, -1.0031604852531129 
2.1100000000000283, -0.9726701297381345 
2.1200000000000494, -0.9429205729544199 
2.1300000000000705, -0.9142608906618218 
2.1400000000000916, -0.8873068377832771 
2.1500000000001127, -0.8632236540961555 
2.160000000000134, -0.8435111711929206 
2.170000000000155, -0.8292837459008082 
2.180000000000176, -0.8205428148958985 
2.190000000000197, -0.8161398876849114 
2.2000000000002182, -0.8144457406088632 
2.2100000000002393, -0.8140507004367133 
2.2200000000002604, -0.8140291025325952 
2.2300000000002815, -0.8138497555341976 
2.2400000000003026, -0.8131912484920477 
2.2500000000003237, -0.8118160320223164 
2.260000000000345, -0.8095533045094406 
2.270000000000366, -0.8063812112470556 
2.280000000000387, -0.8025143517858172 
2.290000000000408, -0.7983542845080703 
2.3000000000004293, -0.7943008701723893 
2.3100000000004504, -0.7905961683230718 
2.3200000000004715, -0.7873053978792244 
2.3300000000004926, -0.7843830150223594 
2.3400000000005137, -0.7817470944488161 
2.3500000000005348, -0.7793322249705176 
2.360000000000556, -0.7771169898605478 
2.370000000000577, -0.7751272166537546 
2.380000000000598, -0.7734206651158385 
2.390000000000619, -0.7720639887638562 
2.4000000000006403, -0.7711132777139806 
2.4100000000006614, -0.7706036274178721 
2.4200000000006825, -0.7705450480107424 
2.4300000000007036, -0.7709193661385976 
2.4400000000007247, -0.7716782477634855 
2.450000000000746, -0.7727487272513583 
2.460000000000767, -0.7740509361811121 
2.470000000000788, -0.7755241967235313 
2.480000000000809, -0.7771505789219707 
2.49000000000083, -0.7789640407212111 
2.5000000000008513, -0.7810376025026947 
2.5100000000008724, -0.7834476643386833 
2.5200000000008935, -0.7862186390578637 
2.5300000000009146, -0.7892569442226016 
2.5400000000009357, -0.7923100258838053 
2.550000000000957, -0.7950165808561799 
2.560000000000978, -0.7970599218449909 
2.570000000000999, -0.7983060203532262 
2.58000000000102, -0.7988115934043127 
2.5900000000010412, -0.7987480818058488 
2.6000000000010624, -0.7983596488746209 
2.6100000000010835, -0.7980140275834875 
2.6200000000011046, -0.7983367455159531 
2.6300000000011257, -0.8003536310987137 
2.6400000000011468, -0.8054695693415841 
2.650000000001168, -0.8150949059333005 
2.660000000001189, -0.8300078779390899 
2.67000000000121, -0.8499518396832437 
2.680000000001231, -0.8738753828186396 
2.6900000000012523, -0.9005864853783068 
2.7000000000012734, -0.9292563567740155 
2.7100000000012945, -0.9594786235428991 
2.7200000000013156, -0.9909014326114454 
2.7300000000013367, -1.0225357161090853 
2.740000000001358, -1.0521105129481103 
2.750000000001379, -1.0764912394311295 
2.7600000000014, -1.0936196009082668 
2.770000000001421, -1.1038985512429018 
2.780000000001442, -1.1092822711065664 
2.7900000000014633, -1.1116950721787537 
2.8000000000014844, -1.1124025668443287 
2.8100000000015055, -1.1121459094017194 
2.8200000000015266, -1.111525632487193 
2.8300000000015477, -1.1114497377849493 
2.840000000001569, -1.11336287748855 
2.85000000000159, -1.1186039482715073 
2.860000000001611, -1.1271108888342325 
2.870000000001632, -1.1373214605283846 
2.8800000000016532, -1.147544989459515 
2.8900000000016743, -1.1568941818557017 
2.9000000000016954, -1.1651879157005411 
2.9100000000017165, -1.1725521606841327 
2.9200000000017377, -1.17915766903225 
2.9300000000017588, -1.1851009510360722 
2.94000000000178, -1.1903503193363814 
2.950000000001801, -1.1947452204198106 
2.960000000001822, -1.198081236515566 
2.970000000001843, -1.2002531841029374 
2.9800000000018643, -1.201338679967935 
2.9900000000018854, -1.2015633980252558 
3.0000000000019065, -1.2012320892903499 
3.0100000000019276, -1.2007036918064413 
3.0200000000019487, -1.2003550912827978 
3.03000000000197, -1.2004423040052632 
3.040000000001991, -1.2009637068174435 
3.050000000002012, -1.2017352995197987 
3.060000000002033, -1.202595941159927 
3.070000000002054, -1.203485619485563 
3.0800000000020753, -1.2043627855194752 
3.0900000000020964, -1.2051224902410724 
3.1000000000021175, -1.205615991053681 
3.1100000000021386, -1.2057206152378699 
3.1200000000021597, -1.205384106240834 
3.130000000002181, -1.2046255424223329 
3.140000000002202, -1.2035020384088708 
3.150000000002223, -1.2020625599628048 
3.160000000002244, -1.200319454293413 
3.1700000000022652, -1.198253695885846 
3.1800000000022863, -1.1958423122218187 
3.1900000000023074, -1.19308014818552 
3.2000000000023285, -1.1899770642276741 
3.2100000000023496, -1.186552919766384 
3.2200000000023707, -1.18289421182051 
3.230000000002392, -1.1792872521882602 
3.240000000002413, -1.1762686655634773 
3.250000000002434, -1.1743483638064807 
3.260000000002455, -1.1735531133671364 
3.2700000000024763, -1.173378510831938 
3.2800000000024974, -1.1731747024083825 
3.2900000000025185, -1.1723886739144562 
3.3000000000025396, -1.1704969417943927 
3.3100000000025607, -1.1668767572338063 
3.3200000000025818, -1.1608535492342853 
3.330000000002603, -1.1520083933630998 
3.340000000002624, -1.140498964233104 
3.350000000002645, -1.1269591420921914 
3.360000000002666, -1.1120285948860142 
3.3700000000026873, -1.096013371764711 
3.3800000000027084, -1.078892678988471 
3.3900000000027295, -1.0605590839860357 
3.4000000000027506, -1.041217609703238 
3.4100000000027717, -1.0218995217791806 
3.420000000002793, -1.0047125963169279 
3.430000000002814, -0.9920531208506922 
3.440000000002835, -0.9848984280327393 
3.450000000002856, -0.9821037640998002 
3.460000000002877, -0.9816027510068931 
3.4700000000028983, -0.9817700862065027 
3.4800000000029194, -0.9817107833866497 
3.4900000000029405, -0.9809204084009167 
3.5000000000029616, -0.9789139248404884 
3.5100000000029827, -0.9750038347232113 
3.520000000003004, -0.9683155121174437 
3.530000000003025, -0.9582039770411954 
3.540000000003046, -0.9449355360462409 
3.550000000003067, -0.9298310009254731 
3.5600000000030882, -0.9144684046855603 
3.5700000000031094, -0.8998599857979427 
3.5800000000031305, -0.886337812015357 
3.5900000000031516, -0.8738550020116543 
3.6000000000031727, -0.8622750060813674 
3.6100000000031938, -0.8515386177779247 
3.620000000003215, -0.8417423697736728 
3.630000000003236, -0.8331495664185848 
3.640000000003257, -0.8261162046733583 
3.650000000003278, -0.820924338445274 
3.6600000000032993, -0.8175971324608285 
3.6700000000033204, -0.8158345865350597 
3.6800000000033415, -0.815128030345609 
3.6900000000033626, -0.8149496514538039 
3.7000000000033837, -0.8148768028473532 
3.710000000003405, -0.8146159922708242 
3.720000000003426, -0.8139818027748792 
3.730000000003447, -0.812889846995408 
3.740000000003468, -0.8113736527421139 
3.750000000003489, -0.8095830204506976 
3.7600000000035103, -0.8077243065490455 
3.7700000000035314, -0.8059705858657115 
3.7800000000035525, -0.804405531251698 
3.7900000000035736, -0.8030224664786839 
3.8000000000035947, -0.8017576991103657 
3.810000000003616, -0.8005361770955428 
3.820000000003637, -0.799314886630113 
3.830000000003658, -0.7981102201843981 
3.840000000003679, -0.7970013959913993 
3.8500000000037002, -0.7961114394049384 
3.8600000000037213, -0.7955725992110598 
3.8700000000037424, -0.7954883062099565 
3.8800000000037635, -0.795908609227186 
3.8900000000037847, -0.7968295491145876 
3.9000000000038058, -0.7982102314724976 
3.910000000003827, -0.7999924022761581 
3.920000000003848, -0.8021146731746368 
3.930000000003869, -0.8045249397237134 
3.94000000000389, -0.8071959143088151 
3.9500000000039113, -0.8101405032211468 
3.9600000000039324, -0.8134161159706123 
3.9700000000039535, -0.8171061826863241 
3.9800000000039746, -0.8212702733055274 
3.9900000000039957, -0.8258599827318873 
4.000000000004016, -0.8306257021571819 
4.010000000003993, -0.835103947280694 
4.02000000000397, -0.8387813501562089 
4.030000000003946, -0.8413482681832614 
4.040000000003923, -0.8428010277182848 
4.0500000000039, -0.8433376238282362 
4.0600000000038765, -0.8432229786660524 
4.070000000003853, -0.8427646843450407 
4.08000000000383, -0.8424219892381746 
4.090000000003807, -0.8430105746261379 
4.100000000003783, -0.8458724376026041 
4.11000000000376, -0.8527214911861444 
4.120000000003737, -0.8649441574730716 
4.130000000003713, -0.8827423382624909 
4.14000000000369, -0.9049874177203441 
4.150000000003667, -0.9299839495905131 
4.1600000000036434, -0.9563545036526682 
4.17000000000362, -0.98336953533424 
4.180000000003597, -1.0107246725519412 
4.1900000000035735, -1.0380151015911663 
4.20000000000355, -1.0641291536814326 
4.210000000003527, -1.0870336375142426 
4.220000000003504, -1.1046332380118418 
4.23000000000348, -1.1162358058477913 
4.240000000003457, -1.1228475520790493 
4.250000000003434, -1.1261065103604606 
4.26000000000341, -1.1273502252870893 
4.270000000003387, -1.1274291091643414 
4.280000000003364, -1.1269422817166181 
4.2900000000033405, -1.1266052278527316 
4.300000000003317, -1.1275127357095645 
4.310000000003294, -1.1308172307742335 
4.320000000003271, -1.136765420864478 
4.330000000003247, -1.1443525217186539 
4.340000000003224, -1.1522265342971274 
4.350000000003201, -1.1595548102304956 
4.360000000003177, -1.1660897192162054 
4.370000000003154, -1.1718797759370942 
4.380000000003131, -1.177048166606657 
4.390000000003107, -1.1816934045776006 
4.400000000003084, -1.1858428985182772 
4.410000000003061, -1.1894270655926138 
4.4200000000030375, -1.1922969741014893 
4.430000000003014, -1.1943067926749997 
4.440000000002991, -1.195414662939934 
4.450000000002968, -1.1957203094291782 
4.460000000002944, -1.1954347819800717 
4.470000000002921, -1.1948450070337997 
4.480000000002898, -1.1942771616311996 
4.490000000002874, -1.193994977468107 
4.500000000002851, -1.1940709858352168 
4.510000000002828, -1.1944006505102822 
4.520000000002804, -1.1948636501539665 
4.530000000002781, -1.1954215407152027 
4.540000000002758, -1.196056135037519 
4.5500000000027345, -1.1966719056997086 
4.560000000002711, -1.19709710743469 
4.570000000002688, -1.1971608930758189 
4.580000000002665, -1.1967571101245666 
4.590000000002641, -1.1958656690828244 
4.600000000002618, -1.1945364150140847 
4.610000000002595, -1.192843231606267 
4.620000000002571, -1.190835421940295 
4.630000000002548, -1.1885183697469794 
4.640000000002525, -1.1858686586382057 
4.6500000000025015, -1.1828613250049549 
4.660000000002478, -1.1794828172571676 
4.670000000002455, -1.1757314244087729 
4.6800000000024315, -1.171654660217517 
4.690000000002408, -1.1674702383061768 
4.700000000002385, -1.1636838609780418 
4.710000000002362, -1.1609407989417586 
4.720000000002338, -1.1595365532961686 
4.730000000002315, -1.159124600865536 
4.740000000002292, -1.1590181092365521 
4.750000000002268, -1.1585875783132997 
4.760000000002245, -1.157307648507504 
4.770000000002222, -1.1546012630033653 
4.7800000000021985, -1.1497621769939537 
4.790000000002175, -1.142139482577889 
4.800000000002152, -1.13154503188389 
4.810000000002129, -1.1184547339133502 
4.820000000002105, -1.1036671333583499 
4.830000000002082, -1.087783590550907 
4.840000000002059, -1.0710081466851369 
4.850000000002035, -1.0532854123039217 
4.860000000002012, -1.0346121341388312 
4.870000000001989, -1.0154633257131451 
4.880000000001965, -0.9972067631868866 
4.890000000001942, -0.9820057118295891 
4.900000000001919, -0.9716932196157412 
4.9100000000018955, -0.9663942484216964 
4.920000000001872, -0.9645786737733534 
4.930000000001849, -0.9643782921298746 
