t, s[1].omega / s[0].omega 
0, -1.1202133592717909 
0.009999999999999995, -1.1403299468797161 
0.019999999999999934, -1.157261280574377 
0.029999999999999874, -1.1699912409994964 
0.04000000000000012, -1.1783337513421688 
0.050000000000000405, -1.1830649532539348 
0.06000000000000069, -1.1853162078370496 
0.07000000000000098, -1.1860350759798863 
0.08000000000000126, -1.1858925600732024 
0.09000000000000155, -1.1854768434288356 
0.10000000000000184, -1.185511721503508 
0.11000000000000212, -1.1867662539489117 
0.12000000000000241, -1.189533328748423 
0.130000000000002, -1.1933407965719565 
0.1400000000000009, -1.1974145587624636 
0.1499999999999998, -1.2012347147926263 
0.1599999999999987, -1.2046207547500625 
0.1699999999999976, -1.2075593400850158 
0.1799999999999965, -1.2100744325628987 
0.1899999999999954, -1.2121951222794514 
0.1999999999999943, -1.2139545526209123 
0.2099999999999932, -1.215373956046141 
0.2199999999999921, -1.216438502297415 
0.229999999999991, -1.217092988351935 
0.2399999999999899, -1.2172726133285736 
0.2499999999999888, -1.2169531943582674 
0.2599999999999877, -1.2161875381364626 
0.2699999999999866, -1.215108289538309 
0.2799999999999855, -1.213889823464669 
0.2899999999999844, -1.2126718710283757 
0.2999999999999833, -1.211507471212282 
0.3099999999999822, -1.21041942029838 
0.3199999999999811, -1.2095093773368544 
0.32999999999998, -1.2089446207867414 
0.3399999999999789, -1.2087804961019324 
0.3499999999999778, -1.2088322044121216 
0.35999999999997667, -1.2087585919113315 
0.36999999999997557, -1.2082108316539546 
0.37999999999997447, -1.2068938974226557 
0.38999999999997337, -1.204591098507081 
0.39999999999997227, -1.201218457989215 
0.40999999999997117, -1.1968572377617939 
0.41999999999997006, -1.1916869462275836 
0.42999999999996896, -1.1858583209076599 
0.43999999999996786, -1.1794107210508886 
0.44999999999996676, -1.172266420701848 
0.45999999999996566, -1.1642723022309553 
0.46999999999996456, -1.155291050930722 
0.47999999999996346, -1.1454124900277816 
0.48999999999996235, -1.135317725954047 
0.49999999999996125, -1.126481942518722 
0.5099999999999602, -1.1205039660363179 
0.519999999999959, -1.1177571475975712 
0.529999999999958, -1.1171411320622326 
0.5399999999999568, -1.1172289323371571 
0.5499999999999557, -1.1170565691046517 
0.5599999999999546, -1.116006872233077 
0.5699999999999535, -1.1133843563183976 
0.5799999999999524, -1.108031477738942 
0.5899999999999513, -1.0981662745977938 
0.5999999999999502, -1.0818951873516145 
0.6099999999999491, -1.0586469218936825 
0.619999999999948, -1.030159257386616 
0.6299999999999469, -0.9993573303703676 
0.6399999999999458, -0.9684848697195296 
0.6499999999999447, -0.9385679375084823 
0.6599999999999436, -0.9099708365376775 
0.6699999999999425, -0.8830750576449796 
0.6799999999999414, -0.8586799311544245 
0.6899999999999403, -0.8379980316897523 
0.6999999999999392, -0.8221858926470741 
0.7099999999999381, -0.8116543747329027 
0.719999999999937, -0.8057420458563413 
0.7299999999999359, -0.8030686029548859 
0.7399999999999348, -0.8021969687849424 
0.7499999999999337, -0.8020559168190523 
0.7599999999999326, -0.8019879561612122 
0.7699999999999315, -0.8016089111267857 
0.7799999999999304, -0.8006658215018219 
0.7899999999999293, -0.7989773572215186 
0.7999999999999282, -0.7964713008718902 
0.8099999999999271, -0.7932656942822673 
0.819999999999926, -0.7896732253523889 
0.8299999999999249, -0.7860679253158642 
0.8399999999999238, -0.782722185817229 
0.8499999999999227, -0.7797451570164431 
0.8599999999999216, -0.7771201901592939 
0.8699999999999205, -0.7747724065294969 
0.8799999999999194, -0.7726262221857648 
0.8899999999999183, -0.7706428058814117 
0.8999999999999172, -0.7688346718107056 
0.9099999999999161, -0.7672582055290642 
0.919999999999915, -0.7659912572697785 
0.9299999999999139, -0.7651073143283373 
0.9399999999999128, -0.7646570670276155 
0.9499999999999117, -0.7646617183585807 
0.9599999999999106, -0.7651141919526587 
0.9699999999999095, -0.7659821779392051 
0.9799999999999084, -0.767212381420028 
0.9899999999999073, -0.7687407030255236 
0.9999999999999062, -0.7705111238806943 
1.0099999999999052, -0.7724985826871263 
1.019999999999904, -0.7747252012094816 
1.029999999999903, -0.777259052967694 
1.039999999999902, -0.7801890925843936 
1.0499999999999008, -0.7835735902479557 
1.0599999999998997, -0.7873630284816707 
1.0699999999998986, -0.7913230917304853 
1.0799999999998975, -0.7950374361246186 
1.0899999999998964, -0.7980612958988944 
1.0999999999998953, -0.8001338234563604 
1.1099999999998942, -0.8012524118106242 
1.119999999999893, -0.8015835147625143 
1.129999999999892, -0.8013598816026916 
1.1399999999998909, -0.8008771814773429 
1.1499999999998898, -0.800613540748731 
1.1599999999998887, -0.8014507458860205 
1.1699999999998876, -0.8048914484249383 
1.1799999999998865, -0.8129953459075038 
1.1899999999998854, -0.8277262602041571 
1.1999999999998843, -0.8499030133712348 
1.2099999999998832, -0.87865282750817 
1.219999999999882, -0.9119888950497517 
1.229999999999881, -0.9479331836933229 
1.2399999999998799, -0.9851696618490626 
1.2499999999998788, -1.022880182478638 
1.2599999999998777, -1.0600024901907272 
1.2699999999998766, -1.0944101328996796 
1.2799999999998755, -1.1230031382136427 
1.2899999999998744, -1.1434582994214382 
1.2999999999998733, -1.15596146682274 
1.3099999999998722, -1.1626211128768762 
1.319999999999871, -1.1657084841370335 
1.32999999999987, -1.1667757548448738 
1.3399999999998689, -1.1667215222195852 
1.3499999999998678, -1.1661868708984808 
1.3599999999998666, -1.1659949676434038 
1.3699999999998655, -1.1673448106202706 
1.3799999999998644, -1.1712276077239845 
1.3899999999998633, -1.1774256795065863 
1.3999999999998622, -1.1846466243465392 
1.4099999999998611, -1.1916709199138176 
1.41999999999986, -1.1979417179631722 
1.429999999999859, -1.2033885281861518 
1.4399999999998578, -1.2081179228442105 
1.4499999999998567, -1.2122516133262113 
1.4599999999998556, -1.2158720325321974 
1.4699999999998545, -1.2189969788087898 
1.4799999999998534, -1.2215675632570486 
1.4899999999998523, -1.2234748252137622 
1.4999999999998512, -1.2246314796358466 
1.5099999999998501, -1.2250425233293638 
1.519999999999849, -1.224825278208276 
1.529999999999848, -1.2241898870012975 
1.5399999999998468, -1.2234045245477991 
1.5499999999998457, -1.222717602892023 
1.5599999999998446, -1.2222448929977543 
1.5699999999998435, -1.2219520979811709 
1.5799999999998424, -1.2217844952245174 
1.5899999999998413, -1.2217705983054472 
1.5999999999998402, -1.2219551199633427 
1.6099999999998391, -1.2222598375782476 
1.619999999999838, -1.222464405419224 
1.629999999999837, -1.2223076661006504 
1.6399999999998358, -1.221576655536129 
1.6499999999998347, -1.2201471358565932 
1.6599999999998336, -1.2180031335924146 
1.6699999999998325, -1.2152220390265265 
1.6799999999998314, -1.211911389404088 
1.6899999999998303, -1.208138513740066 
1.6999999999998292, -1.2039008388387005 
1.709999999999828, -1.1991364143148115 
1.719999999999827, -1.1937473042293472 
1.729999999999826, -1.1876364873127907 
1.7399999999998248, -1.180818937961973 
1.7499999999998237, -1.173668164990549 
1.7599999999998226, -1.1671435862093646 
1.7699999999998215, -1.1624781674187765 
1.7799999999998204, -1.1601896290696672 
1.7899999999998193, -1.159609939790565 
1.7999999999998182, -1.1596102524925123 
1.809999999999817, -1.1593195006681354 
1.819999999999816, -1.1581102754912667 
1.8299999999998149, -1.1552367993287445 
1.8399999999998138, -1.1494893024941606 
1.8499999999998127, -1.1391160280505361 
1.8599999999998116, -1.1224439028538409 
1.8699999999998105, -1.0991779601740164 
1.8799999999998094, -1.0709488030281578 
1.8899999999998083, -1.0401166127128891 
1.8999999999998072, -1.0083575121233461 
1.909999999999806, -0.9764484198995316 
1.919999999999805, -0.944869314783257 
1.9299999999998039, -0.9145007035287194 
1.9399999999998028, -0.8870061975321695 
1.9499999999998017, -0.864529917278537 
1.9599999999998006, -0.8486311014524978 
1.9699999999997995, -0.8392627599570801 
1.9799999999997984, -0.8348558595920469 
1.9899999999997973, -0.8333553039346218 
1.9999999999997962, -0.8331214031905867 
2.0099999999998173, -0.8331611658759386 
2.0199999999998384, -0.8329387839112851 
2.0299999999998595, -0.832125125464316 
2.0399999999998806, -0.8304452262968978 
2.0499999999999017, -0.8276631689978666 
2.059999999999923, -0.8237002574255456 
2.069999999999944, -0.8187819283156731 
2.079999999999965, -0.8134096702248621 
2.089999999999986, -0.8081165145637517 
2.100000000000007, -0.8032402082367808 
2.1100000000000283, -0.7988855995352562 
2.1200000000000494, -0.7950114616804684 
2.1300000000000705, -0.7915273687090718 
2.1400000000000916, -0.7883566883677928 
2.1500000000001127, -0.7854652496250126 
2.160000000000134, -0.7828637810435299 
2.170000000000155, -0.7805943925479146 
2.180000000000176, -0.778712677002072 
2.190000000000197, -0.7772729535822317 
2.2000000000002182, -0.7763162192600432 
2.2100000000002393, -0.7758564441299642 
2.2200000000002604, -0.7758661832225731 
2.2300000000002815, -0.776271100796831 
2.2400000000003026, -0.7769627709090684 
2.2500000000003237, -0.7778279465367318 
2.260000000000345, -0.7787821330992232 
2.270000000000366, -0.7797941490145546 
2.280000000000387, -0.7808921541534313 
2.290000000000408, -0.7821465300305296 
2.3000000000004293, -0.7836326446242834 
2.3100000000004504, -0.7853826045531614 
2.3200000000004715, -0.7873371227551932 
2.3300000000004926, -0.7893200654484488 
2.3400000000005137, -0.7910741608425339 
2.3500000000005348, -0.7923647637067075 
2.360000000000556, -0.7930801695080423 
2.370000000000577, -0.7932535192768047 
2.380000000000598, -0.7930281978136395 
2.390000000000619, -0.7926423153511277 
2.4000000000006403, -0.7924697961875031 
2.4100000000006614, -0.7930915435530328 
2.4200000000006825, -0.795311755853696 
2.4300000000007036, -0.8000139963570755 
2.4400000000007247, -0.8078531027402752 
2.450000000000746, -0.8189799943650616 
2.460000000000767, -0.8330425384931095 
2.470000000000788, -0.8494643636488604 
2.480000000000809, -0.867769320735618 
2.49000000000083, -0.8877521991690477 
2.5000000000008513, -0.9094468179738999 
2.5100000000008724, -0.9328887390654715 
2.5200000000008935, -0.9576331901940035 
2.5300000000009146, -0.9821423023160145 
2.5400000000009357, -1.0037529197493142 
2.550000000000957, -1.020039299720803 
2.560000000000978, -1.0304617070663196 
2.570000000000999, -1.0362348831608341 
2.58000000000102, -1.0389888972381558 
2.5900000000010412, -1.0399362834404555 
2.6000000000010624, -1.0398070540823463 
2.6100000000010835, -1.0391225667009647 
2.6200000000011046, -1.0386173798286362 
2.6300000000011257, -1.0397223575172183 
2.6400000000011468, -1.044575270818277 
2.650000000001168, -1.054740658150382 
2.660000000001189, -1.069546829802878 
2.67000000000121, -1.086495781562423 
2.680000000001231, -1.1032628724693028 
2.6900000000012523, -1.1187338009634846 
2.7000000000012734, -1.1327324194004844 
2.7100000000012945, -1.1454466667087764 
2.7200000000013156, -1.1570396105386522 
2.7300000000013367, -1.1674469647596328 
2.740000000001358, -1.176333096028003 
2.750000000001379, -1.1832624769134554 
2.7600000000014, -1.188024141545122 
2.770000000001421, -1.1908083725147616 
2.780000000001442, -1.1920727813349212 
2.7900000000014633, -1.1923176159748778 
2.8000000000014844, -1.1920099224517808 
2.8100000000015055, -1.1916473570040442 
2.8200000000015266, -1.191767673675667 
2.8300000000015477, -1.1927286973951685 
2.840000000001569, -1.1944565916403356 
2.85000000000159, -1.1965621202347223 
2.860000000001611, -1.1986888258282482 
2.870000000001632, -1.2006675242268408 
2.8800000000016532, -1.202438475415959 
2.8900000000016743, -1.2039502172897678 
2.9000000000016954, -1.2051448525093087 
2.9100000000017165, -1.2059909889827574 
2.9200000000017377, -1.2064984926282012 
2.9300000000017588, -1.2066983064207735 
2.94000000000178, -1.2066079310367028 
2.950000000001801, -1.2062113838962716 
2.960000000001822, -1.2054701333861764 
2.970000000001843, -1.2043584350923826 
2.9800000000018643, -1.2028977052606247 
2.9900000000018854, -1.201162306788834 
3.0000000000019065, -1.1992451934465822 
3.0100000000019276, -1.1972138105651555 
3.0200000000019487, -1.1951293577910953 
3.03000000000197, -1.1931460070122761 
3.040000000001991, -1.1915557588868424 
3.050000000002012, -1.190618602916251 
3.060000000002033, -1.1902951519764373 
3.070000000002054, -1.1902239752134194 
3.0800000000020753, -1.1899407860050575 
3.0900000000020964, -1.1890213789275852 
3.1000000000021175, -1.187074509809166 
3.1100000000021386, -1.1837454896043016 
3.1200000000021597, -1.1788278733399928 
3.130000000002181, -1.1723867026789974 
3.140000000002202, -1.1647097066567658 
3.150000000002223, -1.1560953360769568 
3.160000000002244, -1.146678450126322 
3.1700000000022652, -1.1364000932232148 
3.1800000000022863, -1.1250851868667948 
3.1900000000023074, -1.1126114683368307 
3.2000000000023285, -1.0992293162576723 
3.2100000000023496, -1.085999027071178 
3.2200000000023707, -1.074858366807847 
3.230000000002392, -1.0675815269009346 
3.240000000002413, -1.0642913487102694 
3.250000000002434, -1.0635272685345825 
3.260000000002455, -1.063645313523756 
3.2700000000024763, -1.0636047950910388 
3.2800000000024974, -1.0628053412287772 
3.2900000000025185, -1.0606617968234244 
3.3000000000025396, -1.056258430071987 
3.3100000000025607, -1.0482087583616795 
3.3200000000025818, -1.0350418822905705 
3.330000000002603, -1.0163173185396717 
3.340000000002624, -0.9934683115790687 
3.350000000002645, -0.9689788870187609 
3.360000000002666, -0.9448032881781974 
3.3700000000026873, -0.9218032609439163 
3.3800000000027084, -0.9001451135529386 
3.3900000000027295, -0.8798399396790326 
3.4000000000027506, -0.8610950653868092 
3.4100000000027717, -0.8444518889945345 
3.420000000002793, -0.830682090820452 
3.430000000002814, -0.8204324631245669 
3.440000000002835, -0.8138053043604548 
3.450000000002856, -0.8102214748163001 
3.460000000002877, -0.8086951312102005 
3.4700000000028983, -0.8082513052872435 
3.4800000000029194, -0.8081667719769957 
3.4900000000029405, -0.8079806058294343 
3.5000000000029616, -0.8074022716557658 
3.5100000000029827, -0.8062382145696183 
3.520000000003004, -0.8043897353178476 
3.530000000003025, -0.8019055205875688 
3.540000000003046, -0.7990048340409652 
3.550000000003067, -0.7959965514270988 
3.5600000000030882, -0.7931412226355026 
3.5700000000031094, -0.7905698254662148 
3.5800000000031305, -0.7882918451142585 
3.5900000000031516, -0.786247285342785 
3.6000000000031727, -0.7843619041268407 
3.6100000000031938, -0.782589963550213 
3.620000000003215, -0.7809371172392067 
3.630000000003236, -0.7794599868763638 
3.640000000003257, -0.7782463200540513 
3.650000000003278, -0.7773860301136 
3.6600000000032993, -0.776946067374501 
3.6700000000033204, -0.7769586578457446 
3.6800000000033415, -0.7774227865045471 
3.6900000000033626, -0.7783109621732149 
3.7000000000033837, -0.779575368208868 
3.710000000003405, -0.7811555697605195 
3.720000000003426, -0.7829930870994908 
3.730000000003447, -0.7850524770566609 
3.740000000003468, -0.7873403502903887 
3.750000000003489, -0.7899104234689902 
3.7600000000035103, -0.7928457538570688 
3.7700000000035314, -0.7962140830817084 
3.7800000000035525, -0.7999958552394273 
3.7900000000035736, -0.8040023450734198 
3.8000000000035947, -0.8078514884485797 
3.810000000003616, -0.8110873137043988 
3.820000000003637, -0.8133963207282091 
3.830000000003658, -0.8147246922756173 
3.840000000003679, -0.8152158687230685 
3.8500000000037002, -0.8150974840381295 
3.8600000000037213, -0.8146519773874605 
3.8700000000037424, -0.8143078519751453 
3.8800000000037635, -0.814829722201233 
3.8900000000037847, -0.8175090946110268 
3.9000000000038058, -0.824111180278407 
3.910000000003827, -0.8363123929097978 
3.920000000003848, -0.8548092063427987 
3.930000000003869, -0.8788762722222682 
3.94000000000389, -0.906873520910564 
3.9500000000039113, -0.9371896999536867 
3.9600000000039324, -0.9687980392489631 
3.9700000000039535, -1.0011650778699788 
3.9800000000039746, -1.033688607056512 
3.9900000000039957, -1.0649454285259745 
4.000000000004016, -1.0923802093116266 
4.010000000003993, -1.1133653989292451 
4.02000000000397, -1.1270692797531443 
4.030000000003946, -1.134800445420813 
4.040000000003923, -1.1386083823214777 
4.0500000000039, -1.1401169348216036 
4.0600000000038765, -1.1403168708150107 
4.070000000003853, -1.1398484458341054 
4.08000000000383, -1.139415585750828 
4.090000000003807, -1.1401226922778425 
4.100000000003783, -1.1432412437955197 
4.11000000000376, -1.1491840110112332 
4.120000000003737, -1.156966056768851 
4.130000000003713, -1.1651116542503959 
4.14000000000369, -1.1726764287411862 
4.150000000003667, -1.17937280510857 
4.1600000000036434, -1.1852523968294948 
4.17000000000362, -1.1904524920904236 
4.180000000003597, -1.1950848557865157 
4.1900000000035735, -1.1991894039032718 
4.20000000000355, -1.2027105439466834 
4.210000000003527, -1.205514064287052 
4.220000000003504, -1.207465303913658 
4.23000000000348, -1.208526420152817 
4.240000000003457, -1.208795231048595 
4.250000000003434, -1.2084789296945273 
4.26000000000341, -1.2078599355417048 
4.270000000003387, -1.2072553757093065 
4.280000000003364, -1.206911953339998 
4.2900000000033405, -1.2068866864587917 
4.300000000003317, -1.207078808952977 
4.310000000003294, -1.2073927281446672 
4.320000000003271, -1.2078163585489174 
4.330000000003247, -1.2083385013556847 
4.340000000003224, -1.2088486148713096 
4.350000000003201, -1.209152337809357 
4.360000000003177, -1.2090592636131903 
4.370000000003154, -1.2084476903274122 
4.380000000003131, -1.207287380541778 
4.390000000003107, -1.2056273101148478 
4.400000000003084, -1.2035493832724362 
4.410000000003061, -1.201113521392783 
4.4200000000030375, -1.198331247367888 
4.430000000003014, -1.1951760643425384 
4.440000000002991, -1.1916077660788242 
4.450000000002968, -1.1875864049478557 
4.460000000002944, -1.1830876483279367 
4.470000000002921, -1.178179808005659 
4.480000000002898, -1.1731953698377962 
4.490000000002874, -1.1688393568466984 
4.500000000002851, -1.1658882593153594 
4.510000000002828, -1.1645395346879779 
4.520000000002804, -1.164225541985656 
4.530000000002781, -1.164125950658415 
4.540000000002758, -1.1635749649897382 
4.5500000000027345, -1.1620039186307118 
4.560000000002711, -1.158705528561563 
4.570000000002688, -1.1527173559372945 
4.580000000002665, -1.143054549154477 
4.590000000002641, -1.129317887772571 
4.600000000002618, -1.1120952141773166 
4.610000000002595, -1.0925366754017245 
4.620000000002571, -1.071570720779189 
4.630000000002548, -1.0495836742865177 
4.640000000002525, -1.0266331605350207 
4.6500000000025015, -1.002912916780942 
4.660000000002478, -0.979300279376066 
4.670000000002455, -0.9577053111693082 
4.6800000000024315, -0.940604216680957 
4.690000000002408, -0.9295658114950521 
4.700000000002385, -0.9241068295886068 
4.710000000002362, -0.9222689475987493 
4.720000000002338, -0.9220589217379626 
4.730000000002315, -0.9221920071651061 
4.740000000002292, -0.9219935794382919 
4.750000000002268, -0.9210497764771454 
4.760000000002245, -0.9189443742184091 
4.770000000002222, -0.9151648569000755 
4.7800000000021985, -0.9092411235181578 
4.790000000002175, -0.9011162731597773 
4.800000000002152, -0.8914175938901874 
4.810000000002129, -0.8811897443049104 
4.820000000002105, -0.8713104579568336 
4.830000000002082, -0.8621981470419241 
4.840000000002059, -0.853907759809674 
4.850000000002035, -0.846335176788324 
4.860000000002012, -0.8393607785297339 
4.870000000001989, -0.8329195014641074 
4.880000000001965, -0.8270277643219716 
4.890000000001942, -0.8217867298384105 
4.900000000001919, -0.8173607848405468 
4.9100000000018955, -0.8139197524848599 
4.920000000001872, -0.8115510947099593 
4.930000000001849, -0.8101874228093499 
