t, s[1].omega / s[0].omega 
0, -0.8800285527101515 
0.009999999999999995, -0.8829542756925661 
0.019999999999999934, -0.8858840644581765 
0.029999999999999874, -0.8885336790422688 
0.04000000000000012, -0.8906065432536469 
0.050000000000000405, -0.891932640418635 
0.06000000000000069, -0.892524062096774 
0.07000000000000098, -0.8925315507975757 
0.08000000000000126, -0.8921958486306132 
0.09000000000000155, -0.8918603149761003 
0.10000000000000184, -0.8920187690271936 
0.11000000000000212, -0.8932962669754116 
0.12000000000000241, -0.8962643231875317 
0.130000000000002, -0.9011590610637527 
0.1400000000000009, -0.9077588144443356 
0.1499999999999998, -0.9155563355879688 
0.1599999999999987, -0.9240489517378784 
0.1699999999999976, -0.9329166319573396 
0.1799999999999965, -0.9420437474536415 
0.1899999999999954, -0.95145673492593 
0.1999999999999943, -0.9612291062761376 
0.2099999999999932, -0.9713511163382222 
0.2199999999999921, -0.9815571620670631 
0.229999999999991, -0.9911982199982521 
0.2399999999999899, -0.999378737051489 
0.2499999999999888, -1.0054223824903683 
0.2599999999999877, -1.0092461777156696 
0.2699999999999866, -1.0112521582535023 
0.2799999999999855, -1.0119756640630801 
0.2899999999999844, -1.0118873881733723 
0.2999999999999833, -1.0114347240107935 
0.3099999999999822, -1.0112273377510197 
0.3199999999999811, -1.0121873411439959 
0.32999999999998, -1.01535182253474 
0.3399999999999789, -1.0212247734940803 
0.3499999999999778, -1.0293218974250327 
0.35999999999997667, -1.038549687701995 
0.36999999999997557, -1.0479390749883248 
0.37999999999997447, -1.0569829335131595 
0.38999999999997337, -1.065553181931929 
0.39999999999997227, -1.0737045760122776 
0.40999999999997117, -1.0815193026553829 
0.41999999999997006, -1.0889924146423782 
0.42999999999996896, -1.0959428072548536 
0.43999999999996786, -1.1020008623863407 
0.44999999999996676, -1.1067531894193858 
0.45999999999996566, -1.1099852390611122 
0.46999999999996456, -1.111795018591754 
0.47999999999996346, -1.1124905991467458 
0.48999999999996235, -1.1124439896567135 
0.49999999999996125, -1.1120572828292803 
0.5099999999999602, -1.1118098492978317 
0.519999999999959, -1.1122192871183834 
0.529999999999958, -1.1136052570524129 
0.5399999999999568, -1.1158715611929377 
0.5499999999999557, -1.1186222507921675 
0.5599999999999546, -1.121472784375301 
0.5699999999999535, -1.1242077005703952 
0.5799999999999524, -1.1267405078753445 
0.5899999999999513, -1.129032587631846 
0.5999999999999502, -1.131063606399105 
0.6099999999999491, -1.1328366065615603 
0.619999999999948, -1.1343729963187665 
0.6299999999999469, -1.1356847804709058 
0.6399999999999458, -1.1367434600635167 
0.6499999999999447, -1.137473919912082 
0.6599999999999436, -1.1377877130932714 
0.6699999999999425, -1.1376388941487845 
0.6799999999999414, -1.1370653439860303 
0.6899999999999403, -1.1361957142835364 
0.6999999999999392, -1.135221822378629 
0.7099999999999381, -1.1343320760330102 
0.719999999999937, -1.133631154055455 
0.7299999999999359, -1.1331264597594255 
0.7399999999999348, -1.1328058110417771 
0.7499999999999337, -1.1327016172387963 
0.7599999999999326, -1.1328464631580748 
0.7699999999999315, -1.133174995682786 
0.7799999999999304, -1.1335034816903118 
0.7899999999999293, -1.133606791778298 
0.7999999999999282, -1.1333027862506055 
0.8099999999999271, -1.1324964887748448 
0.819999999999926, -1.1311927108731081 
0.8299999999999249, -1.1294747173580468 
0.8399999999999238, -1.1274481687022255 
0.8499999999999227, -1.1251844578417807 
0.8599999999999216, -1.1227009515986714 
0.8699999999999205, -1.1199804329563394 
0.8799999999999194, -1.117004394084369 
0.8899999999999183, -1.1137731433007088 
0.8999999999999172, -1.1103083148426742 
0.9099999999999161, -1.1066693136335273 
0.919999999999915, -1.103019395902347 
0.9299999999999139, -1.099699957041457 
0.9399999999999128, -1.0971641408733266 
0.9499999999999117, -1.0956911261999447 
0.9599999999999106, -1.095132490240705 
0.9699999999999095, -1.0950072156105652 
0.9799999999999084, -1.0947886175952388 
0.9899999999999073, -1.0940411322220451 
0.9999999999999062, -1.0923875333214792 
1.0099999999999052, -1.0894838147972372 
1.019999999999904, -1.0851139075989655 
1.029999999999903, -1.0793420306383843 
1.039999999999902, -1.0725209350281097 
1.0499999999999008, -1.0650879192738498 
1.0599999999998997, -1.0573463811625994 
1.0699999999998986, -1.0494029951858765 
1.0799999999998975, -1.0412285353204618 
1.0899999999998964, -1.0327542620610173 
1.0999999999998953, -1.0239782143524314 
1.1099999999998942, -1.015100003599449 
1.119999999999893, -1.006659078168708 
1.129999999999892, -0.9995161602295524 
1.1399999999998909, -0.9944767429649973 
1.1499999999998898, -0.9917293785248693 
1.1599999999998887, -0.990704108765755 
1.1699999999998876, -0.9905137731177801 
1.1799999999998865, -0.9904121993485289 
1.1899999999998854, -0.9898919731206496 
1.1999999999998843, -0.988560182207225 
1.2099999999998832, -0.986028344816179 
1.219999999999882, -0.9819488697403556 
1.229999999999881, -0.9762148729801965 
1.2399999999998799, -0.9691402688519215 
1.2499999999998788, -0.9613502614437207 
1.2599999999998777, -0.9534415058898903 
1.2699999999998766, -0.9457537553664326 
1.2799999999998755, -0.9383791670976377 
1.2899999999998744, -0.9312797209407776 
1.2999999999998733, -0.9243942150740934 
1.3099999999998722, -0.9177084550105542 
1.319999999999871, -0.9113036570713812 
1.32999999999987, -0.9053900779017703 
1.3399999999998689, -0.9002975300504901 
1.3499999999998678, -0.8963738335791718 
1.3599999999998666, -0.893801143408416 
1.3699999999998655, -0.8924591527712702 
1.3799999999998644, -0.8919679591329389 
1.3899999999998633, -0.8918649825308849 
1.3999999999998622, -0.8917525268447548 
1.4099999999998611, -0.89134166666199 
1.41999999999986, -0.8904427075820402 
1.429999999999859, -0.8889708699620721 
1.4399999999998578, -0.8869747149318385 
1.4499999999998567, -0.884631484877667 
1.4599999999998556, -0.8821701042656758 
1.4699999999998545, -0.8797700377023341 
1.4799999999998534, -0.8775108814771245 
1.4899999999998523, -0.8753858768657 
1.4999999999998512, -0.8733474071500412 
1.5099999999998501, -0.8713550865443995 
1.519999999999849, -0.8694085486243207 
1.529999999999848, -0.8675550325045525 
1.5399999999998468, -0.865872972036029 
1.5499999999998457, -0.8644448440728707 
1.5599999999998446, -0.8633372631907494 
1.5699999999998435, -0.862596726662573 
1.5799999999998424, -0.8622512447050117 
1.5899999999998413, -0.8623022130280285 
1.5999999999998402, -0.8627073608467187 
1.6099999999998391, -0.8633746807859419 
1.619999999999838, -0.8641827313565245 
1.629999999999837, -0.8650195658853042 
1.6399999999998358, -0.865818958305244 
1.6499999999998347, -0.8665769486413216 
1.6599999999998336, -0.8673411463926934 
1.6699999999998325, -0.8681755287119299 
1.6799999999998314, -0.869114545068139 
1.6899999999998303, -0.8701248664702291 
1.6999999999998292, -0.8710934336176486 
1.709999999999828, -0.8718591638558874 
1.719999999999827, -0.8722830130698664 
1.729999999999826, -0.8723131521990609 
1.7399999999998248, -0.8720074205434969 
1.7499999999998237, -0.8715253124260205 
1.7599999999998226, -0.8711185845786394 
1.7699999999998215, -0.8711128872718081 
1.7799999999998204, -0.8718430787573347 
1.7899999999998193, -0.87353901854804 
1.7999999999998182, -0.8762347216995314 
1.809999999999817, -0.8797819001026633 
1.819999999999816, -0.883952892274974 
1.8299999999998149, -0.8885451963075177 
1.8399999999998138, -0.8934321653165714 
1.8499999999998127, -0.8985680165765038 
1.8599999999998116, -0.9039739951766894 
1.8699999999998105, -0.9097134996607738 
1.8799999999998094, -0.9158433866881474 
1.8899999999998083, -0.9223256397860016 
1.8999999999998072, -0.9289120387719473 
1.909999999999806, -0.9350916360218781 
1.919999999999805, -0.9402410548568371 
1.9299999999998039, -0.9439432808476436 
1.9399999999998028, -0.9461741771210395 
1.9499999999998017, -0.9471964342657337 
1.9599999999998006, -0.9473591809937011 
1.9699999999997995, -0.9470202014865571 
1.9799999999997984, -0.9466248142050974 
1.9899999999997973, -0.9468611939410094 
1.9999999999997962, -0.948706967676206 
2.0099999999998173, -0.953119133823566 
2.0199999999998384, -0.9604373178592642 
2.0299999999998595, -0.9701097998737636 
2.0399999999998806, -0.98110392216071 
2.0499999999999017, -0.9925222603211958 
2.059999999999923, -1.0038815354058064 
2.069999999999944, -1.0150519819239654 
2.079999999999965, -1.0260798048612263 
2.089999999999986, -1.037006936405438 
2.100000000000007, -1.0476952645513253 
2.1100000000000283, -1.0576876980415055 
2.1200000000000494, -1.0662555341637578 
2.1300000000000705, -1.0727492810324288 
2.1400000000000916, -1.0769967946523036 
2.1500000000001127, -1.0793253012602964 
2.160000000000134, -1.0802643934302836 
2.170000000000155, -1.0803129953052624 
2.180000000000176, -1.0799328928924778 
2.190000000000197, -1.0796849421182728 
2.2000000000002182, -1.0803027406974264 
2.2100000000002393, -1.082450579171091 
2.2200000000002604, -1.0862498875290472 
2.2300000000002815, -1.091168211407247 
2.2400000000003026, -1.0964639227952637 
2.2500000000003237, -1.1016216528977405 
2.260000000000345, -1.106428370152749 
2.270000000000366, -1.1108520393706065 
2.280000000000387, -1.1149296663291106 
2.290000000000408, -1.1187113881073796 
2.3000000000004293, -1.1222251156943688 
2.3100000000004504, -1.1254380778595858 
2.3200000000004715, -1.1282322953683246 
2.3300000000004926, -1.1304322160140248 
2.3400000000005137, -1.1318921729995783 
2.3500000000005348, -1.1325829032549708 
2.360000000000556, -1.1326108998744053 
2.370000000000577, -1.132188060629268 
2.380000000000598, -1.1316029934849716 
2.390000000000619, -1.1311758586186031 
2.4000000000006403, -1.1311451682683022 
2.4100000000006614, -1.1315522183333722 
2.4200000000006825, -1.132270935403771 
2.4300000000007036, -1.1331558323994015 
2.4400000000007247, -1.1341276805269156 
2.450000000000746, -1.1351347962875478 
2.460000000000767, -1.136088331324427 
2.470000000000788, -1.1368639830698581 
2.480000000000809, -1.1373550065476339 
2.49000000000083, -1.1375149629827885 
2.5000000000008513, -1.1373615374313328 
2.5100000000008724, -1.136945917928823 
2.5200000000008935, -1.1363092464866806 
2.5300000000009146, -1.1354547444108571 
2.5400000000009357, -1.1343527249017191 
2.550000000000957, -1.132973111562847 
2.560000000000978, -1.1313220194545668 
2.570000000000999, -1.1294553279332011 
2.58000000000102, -1.1274568708224506 
2.5900000000010412, -1.1254026821589287 
2.6000000000010624, -1.1233640751129756 
2.6100000000010835, -1.1214683399047294 
2.6200000000011046, -1.1199350990179195 
2.6300000000011257, -1.1189754264436678 
2.6400000000011468, -1.1186000088631933 
2.650000000001168, -1.1185572464431297 
2.660000000001189, -1.1184698332609615 
2.67000000000121, -1.1179826419660137 
2.680000000001231, -1.1168091540471947 
2.6900000000012523, -1.1147470600242548 
2.7000000000012734, -1.1117307057233097 
2.7100000000012945, -1.1078718350347252 
2.7200000000013156, -1.1034019967944038 
2.7300000000013367, -1.0985424976829705 
2.740000000001358, -1.0934138662004742 
2.750000000001379, -1.088031496615995 
2.7600000000014, -1.0823497628937289 
2.770000000001421, -1.0763134124539895 
2.780000000001442, -1.0699171284195446 
2.7900000000014633, -1.0633045786597348 
2.8000000000014844, -1.056899466726185 
2.8100000000015055, -1.0514252514659064 
2.8200000000015266, -1.0475963904689256 
2.8300000000015477, -1.045598142832405 
2.840000000001569, -1.0449340616856122 
2.85000000000159, -1.044823758123942 
2.860000000001611, -1.044606950941507 
2.870000000001632, -1.0438043521351645 
2.8800000000016532, -1.041989546727487 
2.8900000000016743, -1.0387082797546598 
2.9000000000016954, -1.0335781860236273 
2.9100000000017165, -1.0265478153487573 
2.9200000000017377, -1.018045579772299 
2.9300000000017588, -1.008764223439941 
2.94000000000178, -0.9992798561988581 
2.950000000001801, -0.9898721022368587 
2.960000000001822, -0.9805834190158571 
2.970000000001843, -0.971357078406584 
2.9800000000018643, -0.9621618894695564 
2.9900000000018854, -0.9531008004100237 
3.0000000000019065, -0.9445060800845073 
3.0100000000019276, -0.9369582908350852 
3.0200000000019487, -0.9311117282161696 
3.03000000000197, -0.927330331915079 
3.040000000001991, -0.9254215301377894 
3.050000000002012, -0.9247549517702309 
3.060000000002033, -0.9246195390596939 
3.070000000002054, -0.9244607276746816 
3.0800000000020753, -0.9238959150260342 
3.0900000000020964, -0.9226405758197963 
3.1000000000021175, -0.9204809163583174 
3.1100000000021386, -0.91733989707574 
3.1200000000021597, -0.9133680214056545 
3.130000000002181, -0.9089172988105835 
3.140000000002202, -0.9043715199374525 
3.150000000002223, -0.8999860039652873 
3.160000000002244, -0.8958529187142256 
3.1700000000022652, -0.8919578887391821 
3.1800000000022863, -0.8882522778268861 
3.1900000000023074, -0.8847033644792474 
3.2000000000023285, -0.8813158628825264 
3.2100000000023496, -0.8781330015510352 
3.2200000000023707, -0.8752315068013686 
3.230000000002392, -0.8727178466442705 
3.240000000002413, -0.8707154121614928 
3.250000000002434, -0.8693254365670485 
3.260000000002455, -0.8685681171621722 
3.2700000000024763, -0.8683455721810025 
3.2800000000024974, -0.8684633965528459 
3.2900000000025185, -0.8686965515952648 
3.3000000000025396, -0.8688537620680739 
3.3100000000025607, -0.8688159912125644 
3.3200000000025818, -0.8685526836326588 
3.330000000002603, -0.8681169438706096 
3.340000000002624, -0.8676118601893741 
3.350000000002645, -0.8671361220609898 
3.360000000002666, -0.8667371147375882 
3.3700000000026873, -0.8663928867711377 
3.3800000000027084, -0.8660267457373942 
3.3900000000027295, -0.8655484114602541 
3.4000000000027506, -0.8649045969681513 
3.4100000000027717, -0.8641146563630808 
3.420000000002793, -0.8632789594060336 
3.430000000002814, -0.862562552161952 
3.440000000002835, -0.8621560766679108 
3.450000000002856, -0.8622186119259286 
3.460000000002877, -0.8628273911234192 
3.4700000000028983, -0.8639673143799363 
3.4800000000029194, -0.8655629159473648 
3.4900000000029405, -0.867520837045093 
3.5000000000029616, -0.8697548700553794 
3.5100000000029827, -0.872194439565738 
3.520000000003004, -0.8747918435196425 
3.530000000003025, -0.8775336248659569 
3.540000000003046, -0.8804458143371783 
3.550000000003067, -0.8835787405412583 
3.5600000000030882, -0.8869644362728675 
3.5700000000031094, -0.8905514769814127 
3.5800000000031305, -0.8941442224901721 
3.5900000000031516, -0.8974085934157678 
3.6000000000031727, -0.8999942225725208 
3.6100000000031938, -0.9017022986321244 
3.620000000003215, -0.9025496446663567 
3.630000000003236, -0.9027065645436763 
3.640000000003257, -0.9024262765812114 
3.650000000003278, -0.9020529298695589 
3.6600000000032993, -0.9020904158595595 
3.6700000000033204, -0.9032243032318144 
3.6800000000033415, -0.906156860167837 
3.6900000000033626, -0.9112671869735213 
3.7000000000033837, -0.9183857764198631 
3.710000000003405, -0.9269355109649892 
3.720000000003426, -0.9362883494891889 
3.730000000003447, -0.9460192860132303 
3.740000000003468, -0.9559546040582543 
3.750000000003489, -0.9660988612723118 
3.7600000000035103, -0.9765207713407671 
3.7700000000035314, -0.9872088832149675 
3.7800000000035525, -0.9978918157487667 
3.7900000000035736, -1.0079102294268127 
3.8000000000035947, -1.0163610852426506 
3.810000000003616, -1.0225746179364488 
3.820000000003637, -1.02649095133441 
3.830000000003658, -1.0285409772974103 
3.840000000003679, -1.0292832818661766 
3.8500000000037002, -1.0292038519482918 
3.8600000000037213, -1.02876072059185 
3.8700000000037424, -1.0285683001303902 
3.8800000000037635, -1.0295265189010183 
3.8900000000037847, -1.0325853387219643 
3.9000000000038058, -1.0381101752818989 
3.910000000003827, -1.0455366246662163 
3.920000000003848, -1.0538239136590632 
3.930000000003869, -1.0621265283046608 
3.94000000000389, -1.0700378762470755 
3.9500000000039113, -1.0774757000624782 
3.9600000000039324, -1.0845019816857777 
3.9700000000039535, -1.0911949453043372 
3.9800000000039746, -1.0975586563182103 
3.9900000000039957, -1.103451832146666 
4.000000000004016, -1.1085762804945696 
4.010000000003993, -1.1125901489164423 
4.02000000000397, -1.1153041536710355 
4.030000000003946, -1.1167846229611307 
4.040000000003923, -1.1172853115767838 
4.0500000000039, -1.1171370927438051 
4.0600000000038765, -1.1167208370439736 
4.070000000003853, -1.1164882099257685 
4.08000000000383, -1.1168829584163906 
4.090000000003807, -1.118117134560086 
4.100000000003783, -1.1200416188796198 
4.11000000000376, -1.1223106567941832 
4.120000000003737, -1.1246347946857025 
4.130000000003713, -1.1268646338193986 
4.14000000000369, -1.1289307809101237 
4.150000000003667, -1.1307823728942603 
4.1600000000036434, -1.1323819778396615 
4.17000000000362, -1.133722817504155 
4.180000000003597, -1.1348256654867064 
4.1900000000035735, -1.1357098191428014 
4.20000000000355, -1.1363604222635415 
4.210000000003527, -1.1367193003427125 
4.220000000003504, -1.1367122653824326 
4.23000000000348, -1.1362989548212814 
4.240000000003457, -1.135513017059882 
4.250000000003434, -1.1344705415632332 
4.26000000000341, -1.1333401995010364 
4.270000000003387, -1.1322767929284583 
4.280000000003364, -1.1313590918704564 
4.2900000000033405, -1.1306028958605918 
4.300000000003317, -1.130039177709849 
4.310000000003294, -1.1297440735159427 
4.320000000003271, -1.1297570365327325 
4.330000000003247, -1.1299804971153558 
4.340000000003224, -1.130190441813261 
4.350000000003201, -1.1301353787748032 
4.360000000003177, -1.1296182106724664 
4.370000000003154, -1.1285346834200896 
4.380000000003131, -1.1268892099075547 
4.390000000003107, -1.1247773492562605 
4.400000000003084, -1.1223250984380764 
4.410000000003061, -1.119622779130601 
4.4200000000030375, -1.116699185739606 
4.430000000003014, -1.113539640602346 
4.440000000002991, -1.1101198833767167 
4.450000000002968, -1.1064288336129473 
4.460000000002944, -1.1024798804468392 
4.470000000002921, -1.098344460876057 
4.480000000002898, -1.0942343099444758 
4.490000000002874, -1.0905671558392762 
4.500000000002851, -1.0878489451291935 
4.510000000002828, -1.0863332508045904 
4.520000000002804, -1.0857888853111672 
4.530000000002781, -1.0856683447304154 
4.540000000002758, -1.085420682233148 
4.5500000000027345, -1.0846034609747348 
4.560000000002711, -1.082825968643676 
4.570000000002688, -1.0797189263176652 
4.580000000002665, -1.075042085197151 
4.590000000002641, -1.0688605769965904 
4.600000000002618, -1.0615637386321946 
4.610000000002595, -1.0536413426473676 
4.620000000002571, -1.045437604319488 
4.630000000002548, -1.0370794709815783 
4.640000000002525, -1.0285443822026117 
4.6500000000025015, -1.0197662889048178 
4.660000000002478, -1.01074721045264 
4.670000000002455, -1.0016895523181666 
4.6800000000024315, -0.99312386360455 
4.690000000002408, -0.9858829458784314 
4.700000000002385, -0.9807419669689329 
4.710000000002362, -0.9778884304978886 
4.720000000002338, -0.976779665859344 
4.730000000002315, -0.9765510422619481 
4.740000000002292, -0.9764608283325993 
4.750000000002268, -0.9760022574088716 
4.760000000002245, -0.9747954031677182 
4.770000000002222, -0.9724828950350466 
4.7800000000021985, -0.9687576444567606 
4.790000000002175, -0.9635365200819423 
4.800000000002152, -0.9571147718113746 
4.810000000002129, -0.9500645408345816 
4.820000000002105, -0.9429306348495065 
4.830000000002082, -0.9360247015525174 
4.840000000002059, -0.9294319882306519 
4.850000000002035, -0.9231171366345379 
4.860000000002012, -0.9170209071834565 
4.870000000001989, -0.9111206764219111 
4.880000000001965, -0.9054675212523764 
4.890000000001942, -0.9002123926334346 
4.900000000001919, -0.8956082573509038 
4.9100000000018955, -0.8919495685524744 
4.920000000001872, -0.8894358311295587 
4.930000000001849, -0.888036002363829 
