t, s[1].omega / s[0].omega 
0, -0.39961532246277776 
0.009999999999999995, -0.3696535026433884 
0.019999999999999934, -0.35141914497319793 
0.029999999999999874, -0.33984229497740526 
0.04000000000000012, -0.33217294952055565 
0.050000000000000405, -0.3269162466613861 
0.06000000000000069, -0.3232395762265088 
0.07000000000000098, -0.3206740518693084 
0.08000000000000126, -0.31896486784628875 
0.09000000000000155, -0.31799574024135063 
0.10000000000000184, -0.3177534541682731 
0.11000000000000212, -0.31831848190091855 
0.12000000000000241, -0.31987809674894674 
0.130000000000002, -0.3227663975306466 
0.1400000000000009, -0.32754594798017944 
0.1499999999999998, -0.3351640635923595 
0.1599999999999987, -0.3472540446382938 
0.1699999999999976, -0.3667300919334325 
0.1799999999999965, -0.3989789134796869 
0.1899999999999954, -0.4541469460826938 
0.1999999999999943, -0.5504870973641453 
0.2099999999999932, -0.7128569457769768 
0.2199999999999921, -0.9421052057545415 
0.229999999999991, -1.163906482734658 
0.2399999999999899, -1.299509362317155 
0.2499999999999888, -1.359481240823302 
0.2599999999999877, -1.3827418232218236 
0.2699999999999866, -1.3915083209106511 
0.2799999999999855, -1.3946249854599937 
0.2899999999999844, -1.3953260205002285 
0.2999999999999833, -1.3949092325121617 
0.3099999999999822, -1.394346834333677 
0.3199999999999811, -1.3950307958714043 
0.32999999999998, -1.3981359039606418 
0.3399999999999789, -1.4031204942325182 
0.3499999999999778, -1.408324198358403 
0.35999999999997667, -1.4127145336541167 
0.36999999999997557, -1.4161321978873453 
0.37999999999997447, -1.4187269634143682 
0.38999999999997337, -1.4206263076301886 
0.39999999999997227, -1.4218984828150698 
0.40999999999997117, -1.4225922445116963 
0.41999999999997006, -1.4227459328049235 
0.42999999999996896, -1.4223738352694784 
0.43999999999996786, -1.4214614269757986 
0.44999999999996676, -1.4199808726551557 
0.45999999999996566, -1.4179111485931661 
0.46999999999996456, -1.4152301744704923 
0.47999999999996346, -1.4118688982308067 
0.48999999999996235, -1.4077247920465066 
0.49999999999996125, -1.402928329023736 
0.5099999999999602, -1.3983043197757186 
0.519999999999959, -1.3951969963745128 
0.529999999999958, -1.3940919207399396 
0.5399999999999568, -1.3940479812156388 
0.5499999999999557, -1.393845322309184 
0.5599999999999546, -1.3925510488498243 
0.5699999999999535, -1.3889022624583254 
0.5799999999999524, -1.3799396078634867 
0.5899999999999513, -1.358293651006771 
0.5999999999999502, -1.3078669512099381 
0.6099999999999491, -1.2049004095383007 
0.619999999999948, -1.0426039611715776 
0.6299999999999469, -0.8589647116312209 
0.6399999999999458, -0.7033461602965857 
0.6499999999999447, -0.5931000685605669 
0.6599999999999436, -0.5212262816823822 
0.6699999999999425, -0.4756744318763967 
0.6799999999999414, -0.44692896986829134 
0.6899999999999403, -0.4287424898956407 
0.6999999999999392, -0.417229275629313 
0.7099999999999381, -0.40998988269820436 
0.719999999999937, -0.4055273575626721 
0.7299999999999359, -0.4028941111223724 
0.7399999999999348, -0.40148354882149634 
0.7499999999999337, -0.4009072001330596 
0.7599999999999326, -0.4009225144887981 
0.7699999999999315, -0.40139220232024186 
0.7799999999999304, -0.4022649570665927 
0.7899999999999293, -0.40357182723920415 
0.7999999999999282, -0.4054345345230087 
0.8099999999999271, -0.4080846641527759 
0.819999999999926, -0.4118979001483979 
0.8299999999999249, -0.4174492809374019 
0.8399999999999238, -0.42557059255466934 
0.8499999999999227, -0.4372910713031696 
0.8599999999999216, -0.45334048527829507 
0.8699999999999205, -0.47293973363381026 
0.8799999999999194, -0.4929032883661953 
0.8899999999999183, -0.5093012695481658 
0.8999999999999172, -0.5203963688583028 
0.9099999999999161, -0.5269039879468032 
0.919999999999915, -0.5302868113020439 
0.9299999999999139, -0.5316601106681023 
0.9399999999999128, -0.5315796581586862 
0.9499999999999117, -0.530077783840966 
0.9599999999999106, -0.5265603497495361 
0.9699999999999095, -0.519275200808831 
0.9799999999999084, -0.5037419945055968 
0.9899999999999073, -0.4690154143594271 
0.9999999999999062, -0.3941734612597043 
1.0099999999999052, -0.2697138433707459 
1.019999999999904, -0.14475046911760883 
1.029999999999903, -0.0676095722022271 
1.039999999999902, -0.02966285547572784 
1.0499999999999008, -0.011332895667380561 
1.0599999999998997, -0.0019579418612668113 
1.0699999999998986, 0.002848595581869438 
1.0799999999998975, 0.00531464406730558 
1.0899999999998964, 0.006564534306174671 
1.0999999999998953, 0.007120935202998139 
1.1099999999998942, 0.00729474242483039 
1.119999999999893, 0.007286582068346048 
1.129999999999892, 0.0072320778560656775 
1.1399999999998909, 0.007234578647942809 
1.1499999999998898, 0.007411928747340858 
1.1599999999998887, 0.008001885393484493 
1.1699999999998876, 0.009678827701217262 
1.1799999999998865, 0.014667381564851981 
1.1899999999998854, 0.030776683213237465 
1.1999999999998843, 0.08240073163781397 
1.2099999999998832, 0.20402185027093842 
1.219999999999882, 0.34208651645573 
1.229999999999881, 0.41577974840604376 
1.2399999999998799, 0.4442951470918713 
1.2499999999998788, 0.4552718812618927 
1.2599999999998777, 0.45966472840479816 
1.2699999999998766, 0.46118894700111757 
1.2799999999998755, 0.46109071461929724 
1.2899999999998744, 0.45969969887139683 
1.2999999999998733, 0.4569792699207703 
1.3099999999998722, 0.45286661907552517 
1.319999999999871, 0.4476306616735637 
1.32999999999987, 0.44206052094715087 
1.3399999999998689, 0.43714851696000334 
1.3499999999998678, 0.43351228224150845 
1.3599999999998666, 0.43120280477509965 
1.3699999999998655, 0.429940342296692 
1.3799999999998644, 0.4293754585028987 
1.3899999999998633, 0.42919610829261723 
1.3999999999998622, 0.4291328735065025 
1.4099999999998611, 0.4289311284700735 
1.41999999999986, 0.4283031739830248 
1.429999999999859, 0.42681805065048756 
1.4399999999998578, 0.42359578207019144 
1.4499999999998567, 0.4163337147325148 
1.4599999999998556, 0.397488961098319 
1.4699999999998545, 0.3344203939072027 
1.4799999999998534, 0.03590923646544957 
1.4899999999998523, -1.0232826931321441 
1.4999999999998512, -1.6646928752192338 
1.5099999999998501, -1.7887742344789643 
1.519999999999849, -1.8153758801899582 
1.529999999999848, -1.8223531650584022 
1.5399999999998468, -1.8240432368896653 
1.5499999999998457, -1.8239192302198775 
1.5599999999998446, -1.8234898382185505 
1.5699999999998435, -1.8239909869762445 
1.5799999999998424, -1.8254521746119718 
1.5899999999998413, -1.826828094736964 
1.5999999999998402, -1.8276688961222203 
1.6099999999998391, -1.828157870493572 
1.619999999999838, -1.8282914761342641 
1.629999999999837, -1.8276503056984992 
1.6399999999998358, -1.8255125199773854 
1.6499999999998347, -1.8206358992576834 
1.6599999999998336, -1.8107210130119427 
1.6699999999998325, -1.7914596164077476 
1.6799999999998314, -1.7540538157137047 
1.6899999999998303, -1.6777659603976176 
1.6999999999998292, -1.5132689328503315 
1.709999999999828, -1.2047686288385813 
1.719999999999827, -0.8783003980226679 
1.729999999999826, -0.7045307568696102 
1.7399999999998248, -0.6400358395189496 
1.7499999999998237, -0.6191648582747595 
1.7599999999998226, -0.6133613588728761 
1.7699999999998215, -0.6124096453036971 
1.7799999999998204, -0.6127778283213378 
1.7899999999998193, -0.613256871476979 
1.7999999999998182, -0.6134206524342718 
1.809999999999817, -0.6130788419902331 
1.819999999999816, -0.6120890437640151 
1.8299999999998149, -0.6103245247904953 
1.8399999999998138, -0.6077394366430069 
1.8499999999998127, -0.6044761200873223 
1.8599999999998116, -0.6008932348534899 
1.8699999999998105, -0.5974302855791185 
1.8799999999998094, -0.5944144326340816 
1.8899999999998083, -0.5919775506677182 
1.8999999999998072, -0.5900952232024791 
1.909999999999806, -0.5886584578421397 
1.919999999999805, -0.5875281792832823 
1.9299999999998039, -0.5865747055602811 
1.9399999999998028, -0.5857106961421794 
1.9499999999998017, -0.5849140991133939 
1.9599999999998006, -0.5842379858021495 
1.9699999999997995, -0.5838133625313542 
1.9799999999997984, -0.5838524475211306 
1.9899999999997973, -0.5846525440694601 
1.9999999999997962, -0.5865943725573743 
2.0099999999998173, -0.5901297611042996 
2.0199999999998384, -0.5957617897089305 
2.0299999999998595, -0.6040311595123338 
2.0399999999998806, -0.6155290940508188 
2.0499999999999017, -0.630955551308632 
2.059999999999923, -0.6512328370104863 
2.069999999999944, -0.6776664981918494 
2.079999999999965, -0.71208698348585 
2.089999999999986, -0.7566988119294497 
2.100000000000007, -0.8128382468533812 
2.1100000000000283, -0.8775532925821385 
2.1200000000000494, -0.9402712586277661 
2.1300000000000705, -0.9880490167359797 
2.1400000000000916, -1.0168328011413676 
2.1500000000001127, -1.0315509860207608 
2.160000000000134, -1.0383864024175327 
2.170000000000155, -1.0412354268871298 
2.180000000000176, -1.0419992583202498 
2.190000000000197, -1.0415062434021316 
2.2000000000002182, -1.0401982798878504 
2.2100000000002393, -1.0388601231057562 
2.2200000000002604, -1.039899236960383 
2.2300000000002815, -1.0487666786766279 
2.2400000000003026, -1.072069647047396 
2.2500000000003237, -1.1101696475503269 
2.260000000000345, -1.1544568271944007 
2.270000000000366, -1.195757667310269 
2.280000000000387, -1.2304147364682565 
2.290000000000408, -1.2586546305132176 
2.3000000000004293, -1.2816530132033885 
2.3100000000004504, -1.3001980043119306 
2.3200000000004715, -1.3145170737474356 
2.3300000000004926, -1.3246807754462337 
2.3400000000005137, -1.331096983102777 
2.3500000000005348, -1.3345950226077266 
2.360000000000556, -1.3361077081612178 
2.370000000000577, -1.3364008130854441 
2.380000000000598, -1.3360732262015422 
2.390000000000619, -1.3356898579644367 
2.4000000000006403, -1.3357559712402645 
2.4100000000006614, -1.3364383430808444 
2.4200000000006825, -1.3374801871692232 
2.4300000000007036, -1.3385498039737638 
2.4400000000007247, -1.3395179330813223 
2.450000000000746, -1.3403774857494692 
2.460000000000767, -1.3410582525805048 
2.470000000000788, -1.3413939891504003 
2.480000000000809, -1.3412082629934408 
2.49000000000083, -1.340382814056072 
2.5000000000008513, -1.3388767768731484 
2.5100000000008724, -1.3367092238621416 
2.5200000000008935, -1.3339118552566067 
2.5300000000009146, -1.3304781596825326 
2.5400000000009357, -1.3263363246123396 
2.550000000000957, -1.321340705236064 
2.560000000000978, -1.3152668040485176 
2.570000000000999, -1.3078626098667665 
2.58000000000102, -1.2991345665766303 
2.5900000000010412, -1.289986725191169 
2.6000000000010624, -1.2825299087091664 
2.6100000000010835, -1.2785742048452367 
2.6200000000011046, -1.2776398801147222 
2.6300000000011257, -1.2778594462601407 
2.6400000000011468, -1.2778191247980382 
2.650000000001168, -1.2766847287691863 
2.660000000001189, -1.2733871716583178 
2.67000000000121, -1.265435594131928 
2.680000000001231, -1.2467539209451846 
2.6900000000012523, -1.2044011589514514 
2.7000000000012734, -1.1199487198752007 
2.7100000000012945, -0.9894016237472517 
2.7200000000013156, -0.843243719646901 
2.7300000000013367, -0.7184543872400144 
2.740000000001358, -0.6273386423560391 
2.750000000001379, -0.5650104681457949 
2.7600000000014, -0.523185092063789 
2.770000000001421, -0.49519030782597306 
2.780000000001442, -0.47645465347591365 
2.7900000000014633, -0.4639667797237511 
2.8000000000014844, -0.4557397482618694 
2.8100000000015055, -0.45044243125150557 
2.8200000000015266, -0.4471680300437284 
2.8300000000015477, -0.4452916095559741 
2.840000000001569, -0.4443817301819763 
2.85000000000159, -0.44414485354785604 
2.860000000001611, -0.4443907336430974 
2.870000000001632, -0.4450128738751548 
2.8800000000016532, -0.44598095626378803 
2.8900000000016743, -0.4473424676975341 
2.9000000000016954, -0.44923023772822895 
2.9100000000017165, -0.4518742666638952 
2.9200000000017377, -0.4556194240099636 
2.9300000000017588, -0.4609433058320236 
2.94000000000178, -0.46842750591022037 
2.950000000001801, -0.47854896922331597 
2.960000000001822, -0.4911348694685878 
2.970000000001843, -0.5047470472656636 
2.9800000000018643, -0.5170251874197499 
2.9900000000018854, -0.5262177627367356 
3.0000000000019065, -0.5320886565860532 
3.0100000000019276, -0.535342085799839 
3.0200000000019487, -0.5367610882948546 
3.03000000000197, -0.5368200430174072 
3.040000000001991, -0.5355965572932212 
3.050000000002012, -0.5326617557250336 
3.060000000002033, -0.5266516472264972 
3.070000000002054, -0.5138666079705793 
3.0800000000020753, -0.48381484323465684 
3.0900000000020964, -0.4068741429077205 
3.1000000000021175, -0.22966158655438668 
3.1100000000021386, 0.00486623451545934 
3.1200000000021597, 0.14574703638987088 
3.130000000002181, 0.20130170827002844 
3.140000000002202, 0.22272763037942744 
3.150000000002223, 0.23177336101958476 
3.160000000002244, 0.23583571846920887 
3.1700000000022652, 0.23758381194994813 
3.1800000000022863, 0.2380955385386018 
3.1900000000023074, 0.23788113089195634 
3.2000000000023285, 0.23725378020056706 
3.2100000000023496, 0.23646848255938066 
3.2200000000023707, 0.2357627037098799 
3.230000000002392, 0.2353644584388226 
3.240000000002413, 0.2355120153747198 
3.250000000002434, 0.23650055668078335 
3.260000000002455, 0.2387305554002971 
3.2700000000024763, 0.24267144266758284 
3.2800000000024974, 0.24859067213247094 
3.2900000000025185, 0.2560493204589326 
3.3000000000025396, 0.2637275584015025 
3.3100000000025607, 0.2701604819322929 
3.3200000000025818, 0.2746367247315667 
3.330000000002603, 0.27722873666073855 
3.340000000002624, 0.2782774310678003 
3.350000000002645, 0.27799236741645905 
3.360000000002666, 0.27625978406090196 
3.3700000000026873, 0.27249667082774454 
3.3800000000027084, 0.2654879736086552 
3.3900000000027295, 0.25351557646066303 
3.4000000000027506, 0.23574537205681217 
3.4100000000027717, 0.21489589306756224 
3.420000000002793, 0.19666378432394066 
3.430000000002814, 0.1843987808847727 
3.440000000002835, 0.17740721625174002 
3.450000000002856, 0.17370378946744247 
3.460000000002877, 0.1717957036859388 
3.4700000000028983, 0.17084694681595375 
3.4800000000029194, 0.1704149026367871 
3.4900000000029405, 0.17023621062306793 
3.5000000000029616, 0.17010609487799971 
3.5100000000029827, 0.1698160880856619 
3.520000000003004, 0.1691137989137283 
3.530000000003025, 0.1676402296949936 
3.540000000003046, 0.16477001043649747 
3.550000000003067, 0.1591846961464036 
3.5600000000030882, 0.14766761147360427 
3.5700000000031094, 0.12140285081431865 
3.5800000000031305, 0.05484352860993622 
3.5900000000031516, -0.1091127983361766 
3.6000000000031727, -0.3689456165009162 
3.6100000000031938, -0.5567820506563385 
3.620000000003215, -0.6368321118096046 
3.630000000003236, -0.6676040917881032 
3.640000000003257, -0.6801884115395853 
3.650000000003278, -0.6856390873287432 
3.6600000000032993, -0.6878551671996542 
3.6700000000033204, -0.6882158834920585 
3.6800000000033415, -0.687008134930159 
3.6900000000033626, -0.6837248153487204 
3.7000000000033837, -0.6767416806433932 
3.710000000003405, -0.6623492727131759 
3.720000000003426, -0.6335696315263302 
3.730000000003447, -0.5825538407773435 
3.740000000003468, -0.5127690461333824 
3.750000000003489, -0.44497030671201115 
3.7600000000035103, -0.39539759681462916 
3.7700000000035314, -0.3640272737222906 
3.7800000000035525, -0.34480286068177524 
3.7900000000035736, -0.33275997537632185 
3.8000000000035947, -0.3249208807445901 
3.810000000003616, -0.31962074114371986 
3.820000000003637, -0.31592663544071226 
3.830000000003658, -0.31330986014874573 
3.840000000003679, -0.3114781853981742 
3.8500000000037002, -0.31029173280294586 
3.8600000000037213, -0.3097232924167734 
3.8700000000037424, -0.3098471846023595 
3.8800000000037635, -0.31085349065642537 
3.8900000000037847, -0.31309368581090746 
3.9000000000038058, -0.3171757432496367 
3.910000000003827, -0.3241489610125433 
3.920000000003848, -0.33586397124516243 
3.930000000003869, -0.3556857744998776 
3.94000000000389, -0.3899044380114788 
3.9500000000039113, -0.45032452460931066 
3.9600000000039324, -0.5575423491119187 
3.9700000000039535, -0.7375890810574103 
3.9800000000039746, -0.9897120372939593 
3.9900000000039957, -1.2410498129412781 
4.000000000004016, -1.4078855487691553 
4.010000000003993, -1.4884120928044486 
4.02000000000397, -1.5212787501429574 
4.030000000003946, -1.5339074356362894 
4.040000000003923, -1.5385566540916031 
4.0500000000039, -1.53993961282934 
4.0600000000038765, -1.5398967640955463 
4.070000000003853, -1.539463325326798 
4.08000000000383, -1.53963737272008 
4.090000000003807, -1.5409629705971022 
4.100000000003783, -1.542934092240796 
4.11000000000376, -1.5447526096751256 
4.120000000003737, -1.54613818408809 
4.130000000003713, -1.5471477921083563 
4.14000000000369, -1.5477651449021907 
4.150000000003667, -1.5478160518052095 
4.1600000000036434, -1.5470781308063952 
4.17000000000362, -1.5453468877413359 
4.180000000003597, -1.5424459225582718 
4.1900000000035735, -1.5382010261271633 
4.20000000000355, -1.5323542028809787 
4.210000000003527, -1.5244075816508043 
4.220000000003504, -1.5133871016975426 
4.23000000000348, -1.4975741193166174 
4.240000000003457, -1.4748192223169554 
4.250000000003434, -1.4457064308553527 
4.26000000000341, -1.4197386185837497 
4.270000000003387, -1.4083788090486968 
4.280000000003364, -1.408116458112541 
4.2900000000033405, -1.410196517634523 
4.300000000003317, -1.411243085187284 
4.310000000003294, -1.4106169772612769 
4.320000000003271, -1.4073725066369858 
4.330000000003247, -1.3977764363261052 
4.340000000003224, -1.3671501287809629 
4.350000000003201, -1.2481872143809005 
4.360000000003177, -0.6773920863525795 
4.370000000003154, 0.8636442559653815 
4.380000000003131, 1.1995433935098057 
4.390000000003107, 1.2341508709501168 
4.400000000003084, 1.2409533826166381 
4.410000000003061, 1.2422479588433817 
4.4200000000030375, 1.2410122789065834 
4.430000000003014, 1.2362000426768773 
4.440000000002991, 1.22159489192464 
4.450000000002968, 1.17934948949694 
4.460000000002944, 1.1146992481301088 
4.470000000002921, 1.0976431534540863 
4.480000000002898, 1.1051659121796287 
4.490000000002874, 1.110543970183764 
4.500000000002851, 1.1126842398070937 
4.510000000002828, 1.112747877662419 
4.520000000002804, 1.1107218280084854 
4.530000000002781, 1.1046299934802033 
4.540000000002758, 1.08737989431147 
4.5500000000027345, 1.0541414936165028 
4.560000000002711, 1.1682210105945203 
4.570000000002688, 1.3397201474578184 
4.580000000002665, 1.3794851462519166 
4.590000000002641, 1.3880586395493495 
4.600000000002618, 1.389870990511796 
4.610000000002595, 1.3887887941452548 
4.620000000002571, 1.3831137549183363 
4.630000000002548, 1.3562092405382553 
4.640000000002525, 1.1241850984410102 
4.6500000000025015, 0.19972681349993238 
4.660000000002478, 0.0366342619020884 
4.670000000002455, 0.06535799999045565 
4.6800000000024315, 0.08484893065041088 
4.690000000002408, 0.09411950320891235 
4.700000000002385, 0.09852788885220645 
4.710000000002362, 0.10062945734887382 
4.720000000002338, 0.10152478299016006 
4.730000000002315, 0.10167962521667384 
4.740000000002292, 0.1012520420735471 
4.750000000002268, 0.10020147915445166 
4.760000000002245, 0.09828225117068645 
4.770000000002222, 0.09491827411539464 
4.7800000000021985, 0.08883266654162418 
4.790000000002175, 0.07697203681298813 
4.800000000002152, 0.05099577260022562 
4.810000000002129, -0.016019808251455686 
4.820000000002105, -0.22391869464096295 
4.830000000002082, -0.8168533511969599 
4.840000000002059, -1.4691960779590547 
4.850000000002035, -1.6972615203793027 
4.860000000002012, -1.754738888255309 
4.870000000001989, -1.7706009611953202 
4.880000000001965, -1.7753046268797026 
4.890000000001942, -1.7763849610597096 
4.900000000001919, -1.776134730776527 
4.9100000000018955, -1.7758089600642903 
4.920000000001872, -1.7763082287153324 
