t, s[1].omega / s[0].omega 
0, -0.4595502631575509 
0.009999999999999995, -0.42404108212082026 
0.019999999999999934, -0.40193001783141985 
0.029999999999999874, -0.38765847324561686 
0.04000000000000012, -0.37808099582358107 
0.050000000000000405, -0.3714452112720192 
0.06000000000000069, -0.3667556081853417 
0.07000000000000098, -0.36343551949433517 
0.08000000000000126, -0.3611509261229534 
0.09000000000000155, -0.35971699818048386 
0.10000000000000184, -0.3590485200570422 
0.11000000000000212, -0.3591359455195049 
0.12000000000000241, -0.3600390479637973 
0.130000000000002, -0.3618960976292902 
0.1400000000000009, -0.36495152556129423 
0.1499999999999998, -0.3696115319563262 
0.1599999999999987, -0.37654840476192575 
0.1699999999999976, -0.38689705491675375 
0.1799999999999965, -0.40263456326346436 
0.1899999999999954, -0.4273227759108039 
0.1999999999999943, -0.46748528806393636 
0.2099999999999932, -0.5344440003733939 
0.2199999999999921, -0.6426299232396253 
0.229999999999991, -0.7903599811712367 
0.2399999999999899, -0.9322013393491734 
0.2499999999999888, -1.0218578921349166 
0.2599999999999877, -1.0642305367218898 
0.2699999999999866, -1.0820432223961272 
0.2799999999999855, -1.0893102137531891 
0.2899999999999844, -1.0920535610376607 
0.2999999999999833, -1.0925948685328002 
0.3099999999999822, -1.0917670617780593 
0.3199999999999811, -1.089934419043337 
0.32999999999998, -1.0880106002512924 
0.3399999999999789, -1.0895936198720764 
0.3499999999999778, -1.103539026304952 
0.35999999999997667, -1.1395428595027823 
0.36999999999997557, -1.1937759448104 
0.37999999999997447, -1.2495057138716699 
0.38999999999997337, -1.2954588697094314 
0.39999999999997227, -1.3303880541616464 
0.40999999999997117, -1.3567350938481353 
0.41999999999997006, -1.3767382936757508 
0.42999999999996896, -1.3916705039887023 
0.43999999999996786, -1.4021992075567125 
0.44999999999996676, -1.4089361867436252 
0.45999999999996566, -1.4127021690965356 
0.46999999999996456, -1.4143963041763103 
0.47999999999996346, -1.414781937740768 
0.48999999999996235, -1.4144577914903378 
0.49999999999996125, -1.4139561363840365 
0.5099999999999602, -1.4137092176780728 
0.519999999999959, -1.4138246397498233 
0.529999999999958, -1.4140916806635524 
0.5399999999999568, -1.4143330435224482 
0.5499999999999557, -1.414581869835358 
0.5599999999999546, -1.4148849776042658 
0.5699999999999535, -1.41508501073709 
0.5799999999999524, -1.414863241227979 
0.5899999999999513, -1.4138726753529864 
0.5999999999999502, -1.4117869751287377 
0.6099999999999491, -1.4083293931584457 
0.619999999999948, -1.4033168192890493 
0.6299999999999469, -1.3966373883550127 
0.6399999999999458, -1.388117653037157 
0.6499999999999447, -1.3773401217171268 
0.6599999999999436, -1.3634840485509552 
0.6699999999999425, -1.345320007438603 
0.6799999999999414, -1.3218993104647347 
0.6899999999999403, -1.2949980536437677 
0.6999999999999392, -1.2717930371917903 
0.7099999999999381, -1.25970357352629 
0.719999999999937, -1.2572600207944784 
0.7299999999999359, -1.2583263021251534 
0.7399999999999348, -1.259360983984717 
0.7499999999999337, -1.2592899685808523 
0.7599999999999326, -1.2574861196076959 
0.7699999999999315, -1.252285860864793 
0.7799999999999304, -1.238391494904762 
0.7899999999999293, -1.1981667698292457 
0.7999999999999282, -1.073221653902079 
0.8099999999999271, -0.7446303920350043 
0.819999999999926, -0.32233905965833126 
0.8299999999999249, -0.09964894492481777 
0.8399999999999238, -0.01678547651204459 
0.8499999999999227, 0.01576787743920507 
0.8599999999999216, 0.030232059711917614 
0.8699999999999205, 0.0373906012377654 
0.8799999999999194, 0.04116042374032118 
0.8899999999999183, 0.043185283308335196 
0.8999999999999172, 0.0442344186980307 
0.9099999999999161, 0.04469382082515275 
0.919999999999915, 0.04475304161960468 
0.9299999999999139, 0.044476490672443955 
0.9399999999999128, 0.04381961198161124 
0.9499999999999117, 0.042602416564051164 
0.9599999999999106, 0.04043669487140198 
0.9699999999999095, 0.03667930196643611 
0.9799999999999084, 0.031355618719447774 
0.9899999999999073, 0.03599383352584552 
0.9999999999999062, 0.15961978161228613 
1.0099999999999052, 0.6444093756682063 
1.019999999999904, 0.9099285217957946 
1.029999999999903, 0.9612445451868172 
1.039999999999902, 0.9732388451438692 
1.0499999999999008, 0.9765852598692041 
1.0599999999998997, 0.9769133028122461 
1.0699999999998986, 0.9750625475473088 
1.0799999999998975, 0.9697006905731111 
1.0899999999998964, 0.9562154830948035 
1.0999999999998953, 0.9255770972295243 
1.1099999999998942, 0.8808435885989429 
1.119999999999893, 0.8548433799558139 
1.129999999999892, 0.8516645924186117 
1.1399999999998909, 0.8542481546435907 
1.1499999999998898, 0.8563684778988359 
1.1599999999998887, 0.8572608821561631 
1.1699999999998876, 0.856897258340733 
1.1799999999998865, 0.8547581194548771 
1.1899999999998854, 0.8486214522803974 
1.1999999999998843, 0.8289978608523679 
1.2099999999998832, 0.7376935918920882 
1.219999999999882, 0.025932986642229365 
1.229999999999881, -3.375712113040381 
1.2399999999998799, -3.7483740321137162 
1.2499999999998788, -3.7655090084421827 
1.2599999999998777, -3.76767514149905 
1.2699999999998766, -3.7660491231716207 
1.2799999999998755, -3.7575092651886592 
1.2899999999998744, -3.675889835993008 
1.2999999999998733, -3.1080104195307974 
1.3099999999998722, -3.319326663958985 
1.319999999999871, -3.335876615393061 
1.32999999999987, -3.3370737861028763 
1.3399999999998689, -3.3364686106481423 
1.3499999999998678, -3.3356669895462927 
1.3599999999998666, -3.3336345012187842 
1.3699999999998655, -3.3326282695020994 
1.3799999999998644, -3.3322412080441453 
1.3899999999998633, -3.3272737924010913 
1.3999999999998622, -3.311230117359488 
1.4099999999998611, -3.3505795444349395 
1.41999999999986, -3.3713431018391278 
1.429999999999859, -3.3753608909583988 
1.4399999999998578, -3.375575775835293 
1.4499999999998567, -3.372650602102497 
1.4599999999998556, -3.358948680547626 
1.4699999999998545, -3.237625473718032 
1.4799999999998534, 0.10018066501794476 
1.4899999999998523, 1.311017012809373 
1.4999999999998512, 1.3589094610898043 
1.5099999999998501, 1.3663301535146 
1.519999999999849, 1.3679837387285896 
1.529999999999848, 1.3680974775558445 
1.5399999999998468, 1.367579268301026 
1.5499999999998457, 1.3666438058794041 
1.5599999999998446, 1.3653602210732074 
1.5699999999998435, 1.363939749582816 
1.5799999999998424, 1.3627704909135758 
1.5899999999998413, 1.362071249048742 
1.5999999999998402, 1.3616145792828784 
1.6099999999998391, 1.3607789448971386 
1.619999999999838, 1.3582205865965349 
1.629999999999837, 1.3485864040782887 
1.6399999999998358, 1.2862200072002732 
1.6499999999998347, -0.2393504630901281 
1.6599999999998336, -3.4296832709386735 
1.6699999999998325, -3.52399487439993 
1.6799999999998314, -3.5338547225587975 
1.6899999999998303, -3.5351214296595677 
1.6999999999998292, -3.5331758276905822 
1.709999999999828, -3.5247955552062407 
1.719999999999827, -3.467796537324003 
1.729999999999826, -3.3362812667199906 
1.7399999999998248, -3.390039496022763 
1.7499999999998237, -3.396525044649229 
1.7599999999998226, -3.3964408302902904 
1.7699999999998215, -3.3960573283273434 
1.7799999999998204, -3.395638845655624 
1.7899999999998193, -3.3943586095093963 
1.7999999999998182, -3.3939522015526746 
1.809999999999817, -3.3919287911531497 
1.819999999999816, -3.3769331248210306 
1.8299999999998149, -3.3701111058192446 
1.8399999999998138, -3.455896384103035 
1.8499999999998127, -3.471307119554787 
1.8599999999998116, -3.4739244150014876 
1.8699999999998105, -3.473208967307871 
1.8799999999998094, -3.46806730296072 
1.8899999999998083, -3.4405941251140946 
1.8999999999998072, -2.9301784280539236 
1.909999999999806, 1.1526903757842193 
1.919999999999805, 1.3884407156258392 
1.9299999999998039, 1.407665985237126 
1.9399999999998028, 1.411390386107771 
1.9499999999998017, 1.4121392108920348 
1.9599999999998006, 1.4120563329368145 
1.9699999999997995, 1.4117568101204094 
1.9799999999997984, 1.4114137944267826 
1.9899999999997973, 1.411010821108862 
1.9999999999997962, 1.4105592586500657 
2.0099999999998173, 1.4101601119925458 
2.0199999999998384, 1.409810223877951 
2.0299999999998595, 1.4092041225282423 
2.0399999999998806, 1.4074660328196358 
2.0499999999999017, 1.4013721723375174 
2.059999999999923, 1.3684073563401191 
2.069999999999944, 0.7657900912039817 
2.079999999999965, -3.277639567569486 
2.089999999999986, -3.474876797773754 
2.100000000000007, -3.490547039192228 
2.1100000000000283, -3.4929749524642637 
2.1200000000000494, -3.491867001478629 
2.1300000000000705, -3.486475820318946 
2.1400000000000916, -3.458045751670988 
2.1500000000001127, -3.347703852150736 
2.160000000000134, -3.383229076996647 
2.170000000000155, -3.392303911178864 
2.180000000000176, -3.392557145171221 
2.190000000000197, -3.3920911422869366 
2.2000000000002182, -3.3921468046693555 
2.2100000000002393, -3.3912034045716766 
2.2200000000002604, -3.3906821412423547 
2.2300000000002815, -3.3892131416675957 
2.2400000000003026, -3.3777550142546753 
2.2500000000003237, -3.3323164463110424 
2.260000000000345, -3.468481122949484 
2.270000000000366, -3.498881730660552 
2.280000000000387, -3.5035090176003343 
2.290000000000408, -3.5036222644708923 
2.3000000000004293, -3.500243773795926 
2.3100000000004504, -3.4842971284726145 
2.3200000000004715, -3.3012933647925173 
2.3300000000004926, 0.6071944766127377 
2.3400000000005137, 1.3161093996206776 
2.3500000000005348, 1.354201934786061 
2.360000000000556, 1.3606807894295954 
2.370000000000577, 1.362130575500426 
2.380000000000598, 1.362284964956776 
2.390000000000619, 1.3622024245675741 
2.4000000000006403, 1.36236818832308 
2.4100000000006614, 1.3628845728229366 
2.4200000000006825, 1.363515582944934 
2.4300000000007036, 1.3639827244105773 
2.4400000000007247, 1.3641667443669543 
2.450000000000746, 1.3639854097475148 
2.460000000000767, 1.3631106188100512 
2.470000000000788, 1.3602911992280855 
2.480000000000809, 1.3493680505740095 
2.49000000000083, 1.269398167909841 
2.5000000000008513, -1.1357024416585275 
2.5100000000008724, -3.289692714875463 
2.5200000000008935, -3.3594287349327763 
2.5300000000009146, -3.3683845685047893 
2.5400000000009357, -3.3695152784898648 
2.550000000000957, -3.367783733426947 
2.560000000000978, -3.361308229808464 
2.570000000000999, -3.3322065170618265 
2.58000000000102, -3.2980097198012066 
2.5900000000010412, -3.314091756916502 
2.6000000000010624, -3.3169828681702542 
2.6100000000010835, -3.3162094693322652 
2.6200000000011046, -3.316476450975552 
2.6300000000011257, -3.317316208362314 
2.6400000000011468, -3.3169986504053974 
2.650000000001168, -3.316551990483739 
2.660000000001189, -3.3138319135946555 
2.67000000000121, -3.291344988813994 
2.680000000001231, -3.0701011791002997 
2.6900000000012523, -3.672301140323859 
2.7000000000012734, -3.7344532199428526 
2.7100000000012945, -3.7407963770800614 
2.7200000000013156, -3.7410191517204354 
2.7300000000013367, -3.7373745805758203 
2.740000000001358, -3.717273819257845 
2.750000000001379, -3.290261536202599 
2.7600000000014, -0.15926153196794116 
2.770000000001421, 0.5203695110136425 
2.780000000001442, 0.632798496852401 
2.7900000000014633, 0.6591874575851638 
2.8000000000014844, 0.6676305248399583 
2.8100000000015055, 0.6706333195217596 
2.8200000000015266, 0.6713208653094145 
2.8300000000015477, 0.6704798197089317 
2.840000000001569, 0.6678788402077689 
2.85000000000159, 0.6621638867639428 
2.860000000001611, 0.6498863742428255 
2.870000000001632, 0.6279977292813392 
2.8800000000016532, 0.6560807972535755 
2.8900000000016743, 0.9012912632859841 
2.9000000000016954, 1.0515427108259685 
2.9100000000017165, 1.0860810296324535 
2.9200000000017377, 1.094777991507156 
2.9300000000017588, 1.0970316882163182 
2.94000000000178, 1.0965989952591164 
2.950000000001801, 1.093297364732693 
2.960000000001822, 1.082782868076508 
2.970000000001843, 1.0456941856067894 
2.9800000000018643, 0.9255388693033314 
2.9900000000018854, 0.7995684522422792 
3.0000000000019065, 0.7942407962435528 
3.0100000000019276, 0.8080860323888552 
3.0200000000019487, 0.8154620653823969 
3.03000000000197, 0.8186161592942869 
3.040000000001991, 0.8195321842127736 
3.050000000002012, 0.818798365743889 
3.060000000002033, 0.8158624123417096 
3.070000000002054, 0.8079545606900975 
3.0800000000020753, 0.7840240915121279 
3.0900000000020964, 0.6945430772417838 
3.1000000000021175, 0.5512791249865614 
3.1100000000021386, 1.6458695382254827 
3.1200000000021597, 1.8352879230502601 
3.130000000002181, 1.850344455009821 
3.140000000002202, 1.8524635557168232 
3.150000000002223, 1.8508787039607948 
3.160000000002244, 1.8412886277052418 
3.1700000000022652, 1.753259899415249 
3.1800000000022863, 0.668700511736982 
3.1900000000023074, 0.5530480122931296 
3.2000000000023285, 0.6834614224057838 
3.2100000000023496, 0.7201000298546797 
3.2200000000023707, 0.7315834630137378 
3.230000000002392, 0.7356766841195568 
3.240000000002413, 0.7368709229719197 
3.250000000002434, 0.7363477314904856 
3.260000000002455, 0.7339932572720731 
3.2700000000024763, 0.7283560756138281 
3.2800000000024974, 0.7149829035611938 
3.2900000000025185, 0.6844441553686661 
3.3000000000025396, 0.6838271048703537 
3.3100000000025607, 0.9878249976131359 
3.3200000000025818, 1.175470404850768 
3.330000000002603, 1.2109188778360214 
3.340000000002624, 1.218911266381395 
3.350000000002645, 1.2207099193458792 
3.360000000002666, 1.2198026730084213 
3.3700000000026873, 1.2152496186083468 
3.3800000000027084, 1.1988840710131494 
3.3900000000027295, 1.1260638074007003 
3.4000000000027506, 0.900894779717093 
3.4100000000027717, 0.8182608875587052 
3.420000000002793, 0.845161131665485 
3.430000000002814, 0.8604597832909245 
3.440000000002835, 0.8665123613126304 
3.450000000002856, 0.8686674645234508 
3.460000000002877, 0.8687810253790682 
3.4700000000028983, 0.8670600317726838 
3.4800000000029194, 0.8622380716621605 
3.4900000000029405, 0.849590146603856 
3.5000000000029616, 0.8147851123766537 
3.5100000000029827, 0.7826276115665878 
3.520000000003004, 1.112927815975893 
3.530000000003025, 1.3123608923191814 
3.540000000003046, 1.3445460807835805 
3.550000000003067, 1.3512492248469061 
3.5600000000030882, 1.352437683728308 
3.5700000000031094, 1.3508250411637537 
3.5800000000031305, 1.3439018451757019 
3.5900000000031516, 1.312767392135607 
3.6000000000031727, 1.1181139271583636 
3.6100000000031938, 0.7568638509100916 
3.620000000003215, 0.7827863498851124 
3.630000000003236, 0.8196561977163382 
3.640000000003257, 0.8329074043310991 
3.650000000003278, 0.8377023164578393 
3.6600000000032993, 0.8391943120616085 
3.6700000000033204, 0.8388223626973945 
3.6800000000033415, 0.8365196969874404 
3.6900000000033626, 0.8306774829177648 
3.7000000000033837, 0.8161346434683503 
3.710000000003405, 0.7833013227334267 
3.720000000003426, 0.8137453072249559 
3.730000000003447, 1.1038439743490998 
3.740000000003468, 1.2227081234456174 
3.750000000003489, 1.2457241944327007 
3.7600000000035103, 1.2512057227983047 
3.7700000000035314, 1.252130526059447 
3.7800000000035525, 1.250401521017718 
3.7900000000035736, 1.2435835877752883 
3.8000000000035947, 1.2158917482725622 
3.810000000003616, 1.0707768325639697 
3.820000000003637, 0.7661157257687461 
3.830000000003658, 0.7518775789188293 
3.840000000003679, 0.7840750738742228 
3.8500000000037002, 0.7976672094790836 
3.8600000000037213, 0.8029067740117493 
3.8700000000037424, 0.8047182342777143 
3.8800000000037635, 0.8046380879722266 
3.8900000000037847, 0.8027309456567181 
3.9000000000038058, 0.7976064197343107 
3.910000000003827, 0.7841713343122102 
3.920000000003848, 0.745179909692303 
3.930000000003869, 0.6785716733530969 
3.94000000000389, 1.0790603514905774 
3.9500000000039113, 1.385964841018238 
3.9600000000039324, 1.4259611951581461 
3.9700000000039535, 1.4332876736396876 
3.9800000000039746, 1.4345170719567628 
3.9900000000039957, 1.4328190787167867 
4.000000000004016, 1.4252852067591897 
4.010000000003993, 1.3882294969852411 
4.02000000000397, 1.1377412950414123 
4.030000000003946, 0.8228803226244779 
4.040000000003923, 0.8824871436747583 
4.0500000000039, 0.9149743252975311 
4.0600000000038765, 0.9254779853954009 
4.070000000003853, 0.9290018212808515 
4.08000000000383, 0.9297484748836655 
4.090000000003807, 0.9287018489364931 
4.100000000003783, 0.9254377930950591 
4.11000000000376, 0.918042257598275 
4.120000000003737, 0.904365645725919 
4.130000000003713, 0.9109098139221669 
4.14000000000369, 1.021480807196662 
4.150000000003667, 1.1141513269400292 
4.1600000000036434, 1.1423263005628814 
4.17000000000362, 1.1502190716633547 
4.180000000003597, 1.1522868558838968 
4.1900000000035735, 1.1517120935467842 
4.20000000000355, 1.1479360943990806 
4.210000000003527, 1.134441795311843 
4.220000000003504, 1.0706727402926761 
4.23000000000348, 0.7450679953134383 
4.240000000003457, 0.4238402395236669 
4.250000000003434, 0.42842589036476086 
4.26000000000341, 0.45403478979921646 
4.270000000003387, 0.4665610576241737 
4.280000000003364, 0.4722734286502465 
4.2900000000033405, 0.4748301449541941 
4.300000000003317, 0.47568444333851917 
4.310000000003294, 0.47528286127846586 
4.320000000003271, 0.473426291536411 
4.330000000003247, 0.4689984578049439 
4.340000000003224, 0.45837916753073077 
4.350000000003201, 0.4279359782828312 
4.360000000003177, 0.30528674016502794 
4.370000000003154, -0.4561235630940633 
4.380000000003131, -2.151213044024811 
4.390000000003107, -2.5010347581168904 
4.400000000003084, -2.5570703859284842 
4.410000000003061, -2.5717887482887134 
4.4200000000030375, -2.576362249958233 
4.430000000003014, -2.577290606487794 
4.440000000002991, -2.576330596011105 
4.450000000002968, -2.573622527396839 
4.460000000002944, -2.567405544460461 
4.470000000002921, -2.554091906400958 
4.480000000002898, -2.543305189202724 
4.490000000002874, -2.5458914542181668 
4.500000000002851, -2.5478765635633653 
4.510000000002828, -2.546724203948378 
4.520000000002804, -2.5428671736697894 
4.530000000002781, -2.545351020672195 
4.540000000002758, -2.5583310192541906 
4.5500000000027345, -2.5661032917004714 
4.560000000002711, -2.5690496330390546 
4.570000000002688, -2.569888285406776 
4.580000000002665, -2.5690961275555617 
4.590000000002641, -2.5656896514169185 
4.600000000002618, -2.5559228996726477 
4.610000000002595, -2.524425975849905 
4.620000000002571, -2.374753059829159 
4.630000000002548, -1.2918669508055225 
4.640000000002525, 0.15943205885316458 
4.6500000000025015, 0.4145912720026166 
4.660000000002478, 0.46523491539411843 
4.670000000002455, 0.48044158124724196 
4.6800000000024315, 0.48612325634177844 
4.690000000002408, 0.4883009265908079 
4.700000000002385, 0.4887666869118702 
4.710000000002362, 0.4880288197444046 
4.720000000002338, 0.48596619328434254 
4.730000000002315, 0.4818054742163653 
4.740000000002292, 0.4736804435953931 
4.750000000002268, 0.45890667337028085 
4.760000000002245, 0.45151940141323027 
4.770000000002222, 0.5917377394999417 
4.7800000000021985, 0.8756380876117881 
4.790000000002175, 0.9749614317151789 
4.800000000002152, 0.9978590918294821 
4.810000000002129, 1.0041459271137654 
4.820000000002105, 1.0056931689712993 
4.830000000002082, 1.004878193408598 
4.840000000002059, 1.0011928424006067 
4.850000000002035, 0.9907020549297787 
4.860000000002012, 0.9602463365989522 
4.870000000001989, 0.8881428244671719 
4.880000000001965, 0.8190223269502109 
4.890000000001942, 0.8071934474927772 
4.900000000001919, 0.8130311011121446 
4.9100000000018955, 0.8177075366675446 
4.920000000001872, 0.8200008433837814 
4.930000000001849, 0.8206142175413154 
4.940000000001826, 0.8197251188665577 
4.950000000001802, 0.8165419279340561 
4.960000000001779, 0.8076887502310679 
4.970000000001756, 0.7782923606831381 
4.980000000001732, 0.6377272048017704 
4.990000000001709, -0.10130458645334446 
5.000000000001686, -4.53461322400757 
