t, s[1].omega / s[0].omega 
0, -0.5598950515014278 
0.009999999999999995, -0.5507661254273412 
0.019999999999999934, -0.5438852065338767 
0.029999999999999874, -0.5386339763567701 
0.04000000000000012, -0.534547276133201 
0.050000000000000405, -0.5313122352587585 
0.06000000000000069, -0.528738725729683 
0.07000000000000098, -0.5267295098730944 
0.08000000000000126, -0.5252541209861767 
0.09000000000000155, -0.5243269139010105 
0.10000000000000184, -0.5239899259267969 
0.11000000000000212, -0.5243011406515509 
0.12000000000000241, -0.5253287551602401 
0.130000000000002, -0.5271523506714426 
0.1400000000000009, -0.5298723283008261 
0.1499999999999998, -0.5336296347286797 
0.1599999999999987, -0.5386389241585836 
0.1699999999999976, -0.5452402538520604 
0.1799999999999965, -0.5539774028487724 
0.1899999999999954, -0.5657123442952041 
0.1999999999999943, -0.5817678637410166 
0.2099999999999932, -0.6039868675049431 
0.2199999999999921, -0.6342552969577143 
0.229999999999991, -0.6725505074114175 
0.2399999999999899, -0.7138556212295213 
0.2499999999999888, -0.7491614272799698 
0.2599999999999877, -0.772921338738919 
0.2699999999999866, -0.786304210317577 
0.2799999999999855, -0.793062636511525 
0.2899999999999844, -0.7961311427478548 
0.2999999999999833, -0.7971003139283972 
0.3099999999999822, -0.7966273046419751 
0.3199999999999811, -0.7947579160477461 
0.32999999999998, -0.7910053320081487 
0.3399999999999789, -0.7842602918466544 
0.3499999999999778, -0.7729494366774476 
0.35999999999997667, -0.7582335400864393 
0.36999999999997557, -0.7705861406161472 
0.37999999999997447, -1.1392703374748117 
0.38999999999997337, -2.929004702283618 
0.39999999999997227, -3.2047489985555977 
0.40999999999997117, -3.2290171259873928 
0.41999999999997006, -3.2337888137575077 
0.42999999999996896, -3.2341555890748808 
0.43999999999996786, -3.2317488794316738 
0.44999999999996676, -3.2231034110982 
0.45999999999996566, -3.1767848946435837 
0.46999999999996456, -2.9810283921563636 
0.47999999999996346, -3.0308321033889394 
0.48999999999996235, -3.048004640729316 
0.49999999999996125, -3.0497872555609744 
0.5099999999999602, -3.0492081027266384 
0.519999999999959, -3.0493224873223417 
0.529999999999958, -3.0493389408113503 
0.5399999999999568, -3.0486094764302094 
0.5499999999999557, -3.0482292937663984 
0.5599999999999546, -3.0464338611085315 
0.5699999999999535, -3.0344957153297414 
0.5799999999999524, -2.922408426440657 
0.5899999999999513, -3.2223946925827702 
0.5999999999999502, -3.421885636140646 
0.6099999999999491, -3.439738526300949 
0.619999999999948, -3.4428126020317187 
0.6299999999999469, -3.442230373157318 
0.6399999999999458, -3.4377905512731806 
0.6499999999999447, -3.4169907718980084 
0.6599999999999436, -3.1534965532661845 
0.6699999999999425, -2.0506835429423487 
0.6799999999999414, -2.3242635928845674 
0.6899999999999403, -2.377084622212206 
0.6999999999999392, -2.3853549159913263 
0.7099999999999381, -2.386485852326147 
0.719999999999937, -2.385941446488066 
0.7299999999999359, -2.386016943141823 
0.7399999999999348, -2.387104903737026 
0.7499999999999337, -2.387691266907429 
0.7599999999999326, -2.3876915657337254 
0.7699999999999315, -2.387551206122403 
0.7799999999999304, -2.386501101182943 
0.7899999999999293, -2.382079144755239 
0.7999999999999282, -2.3634265763120714 
0.8099999999999271, -2.2462131896775683 
0.819999999999926, -1.073406022778176 
0.8299999999999249, 0.5373730951730457 
0.8399999999999238, 0.7233567843614154 
0.8499999999999227, 0.7534136957695186 
0.8599999999999216, 0.7614832850950842 
0.8699999999999205, 0.7640694714390934 
0.8799999999999194, 0.764641375869204 
0.8899999999999183, 0.7641713698995853 
0.8999999999999172, 0.7629923217522909 
0.9099999999999161, 0.7613018006840926 
0.919999999999915, 0.7593537361048421 
0.9299999999999139, 0.7574870506704037 
0.9399999999999128, 0.756015919886578 
0.9499999999999117, 0.7550894242166107 
0.9599999999999106, 0.7546500694587553 
0.9699999999999095, 0.7544987038128971 
0.9799999999999084, 0.7543780662717878 
0.9899999999999073, 0.753998258951728 
0.9999999999999062, 0.7529503996488764 
1.0099999999999052, 0.7503658569387703 
1.019999999999904, 0.7436194068210755 
1.029999999999903, 0.7216193785742282 
1.039999999999902, 0.607128999170965 
1.0499999999999008, -0.5706257128897434 
1.0599999999998997, -2.4503234682880795 
1.0699999999998986, -2.645099821875821 
1.0799999999998975, -2.671031352808727 
1.0899999999998964, -2.676247975285556 
1.0999999999998953, -2.6768859573466974 
1.1099999999998942, -2.675976175647666 
1.119999999999893, -2.673984299571684 
1.129999999999892, -2.6698460950420566 
1.1399999999998909, -2.66476264693407 
1.1499999999998898, -2.664235538151924 
1.1599999999998887, -2.664885895176797 
1.1699999999998876, -2.662838213727139 
1.1799999999998865, -2.6544863565487407 
1.1899999999998854, -2.6543670231286254 
1.1999999999998843, -2.6910850840737384 
1.2099999999998832, -2.709597562655605 
1.219999999999882, -2.7153458705737625 
1.229999999999881, -2.7170666308031812 
1.2399999999998799, -2.716719541174955 
1.2499999999998788, -2.714008880104641 
1.2599999999998777, -2.7062981225464724 
1.2699999999998766, -2.6815545517987984 
1.2799999999998755, -2.553341292972468 
1.2899999999998744, -1.5714062975865806 
1.2999999999998733, -0.44524427734402094 
1.3099999999998722, -0.17548225669321532 
1.319999999999871, -0.10105676134301547 
1.32999999999987, -0.07477500305255752 
1.3399999999998689, -0.06376221207959884 
1.3499999999998678, -0.05859176503999941 
1.3599999999998666, -0.056004775204288294 
1.3699999999998655, -0.05471682026493581 
1.3799999999998644, -0.05418623866287152 
1.3899999999998633, -0.05420079949211366 
1.3999999999998622, -0.054733811782653574 
1.4099999999998611, -0.05591068791152322 
1.41999999999986, -0.058046272992151135 
1.429999999999859, -0.06177499300204579 
1.4399999999998578, -0.06838168107442759 
1.4499999999998567, -0.08065933436162863 
1.4599999999998556, -0.1052841379674488 
1.4699999999998545, -0.1596389884353395 
1.4799999999998534, -0.2878138063716086 
1.4899999999998523, -0.5505422452385479 
1.4999999999998512, -0.854299833415511 
1.5099999999998501, -1.022612250629774 
1.519999999999849, -1.085935248463408 
1.529999999999848, -1.108510332041835 
1.5399999999998468, -1.1169026610076505 
1.5499999999998457, -1.1199265207363083 
1.5599999999998446, -1.1204912141678567 
1.5699999999998435, -1.1194846878667801 
1.5799999999998424, -1.1170809928104248 
1.5899999999998413, -1.1138178779697536 
1.5999999999998402, -1.1135868976619985 
1.6099999999998391, -1.1299821603755937 
1.619999999999838, -1.1840741644599657 
1.629999999999837, -1.2722468143317949 
1.6399999999998358, -1.3580987975971417 
1.6499999999998347, -1.4205207627452006 
1.6599999999998336, -1.46205301325803 
1.6699999999998325, -1.489891613450814 
1.6799999999998314, -1.5088669369949692 
1.6899999999998303, -1.5215947555518299 
1.6999999999998292, -1.5296244738934741 
1.709999999999828, -1.5341730201823054 
1.719999999999827, -1.5363175453580251 
1.729999999999826, -1.5369246211800551 
1.7399999999998248, -1.5366409877244065 
1.7499999999998237, -1.535990171088598 
1.7599999999998226, -1.5353599008854757 
1.7699999999998215, -1.5348251824569281 
1.7799999999998204, -1.5342289942522351 
1.7899999999998193, -1.5335812330205576 
1.7999999999998182, -1.533153228852012 
1.809999999999817, -1.5330455432770103 
1.819999999999816, -1.532896145076589 
1.8299999999998149, -1.5320945818590925 
1.8399999999998138, -1.5298841690355802 
1.8499999999998127, -1.5251079448598734 
1.8599999999998116, -1.5159122921724706 
1.8699999999998105, -1.49971706200767 
1.8799999999998094, -1.4734249673413755 
1.8899999999998083, -1.4331996335308368 
1.8999999999998072, -1.373282063969923 
1.909999999999806, -1.2854063073457604 
1.919999999999805, -1.1652178376587787 
1.9299999999998039, -1.0316187922235711 
1.9399999999998028, -0.9269833976609168 
1.9499999999998017, -0.8713022549552376 
1.9599999999998006, -0.8505004517968846 
1.9699999999997995, -0.8455358556509143 
1.9799999999997984, -0.8457099739619045 
1.9899999999997973, -0.8468232039787548 
1.9999999999997962, -0.847559720210333 
2.0099999999998173, -0.8475269096287261 
2.0199999999998384, -0.8464585356500862 
2.0299999999998595, -0.843885925551952 
2.0399999999998806, -0.8389812840097559 
2.0499999999999017, -0.8306375666060843 
2.059999999999923, -0.8180895911257082 
2.069999999999944, -0.8019483834618338 
2.079999999999965, -0.7843663468925283 
2.089999999999986, -0.7676695874489418 
2.100000000000007, -0.7531040699119076 
2.1100000000000283, -0.7408470503650335 
2.1200000000000494, -0.7305795777189449 
2.1300000000000705, -0.7218992416511338 
2.1400000000000916, -0.7144855217402863 
2.1500000000001127, -0.7081342156632324 
2.160000000000134, -0.7027427404777633 
2.170000000000155, -0.6982792109950392 
2.180000000000176, -0.6947454127290815 
2.190000000000197, -0.6921377139815047 
2.2000000000002182, -0.6904126246807347 
2.2100000000002393, -0.6894679570719251 
2.2200000000002604, -0.6891480491887725 
2.2300000000002815, -0.6892704801075366 
2.2400000000003026, -0.6896613159935495 
2.2500000000003237, -0.6901858511660176 
2.260000000000345, -0.6907693805786922 
2.270000000000366, -0.6914068089293548 
2.280000000000387, -0.6921574161552526 
2.290000000000408, -0.6931210513765123 
2.3000000000004293, -0.6943996189481441 
2.3100000000004504, -0.6960515561203728 
2.3200000000004715, -0.6980429701007058 
2.3300000000004926, -0.7002092597507497 
2.3400000000005137, -0.7022704699991735 
2.3500000000005348, -0.7039316985568289 
2.360000000000556, -0.705009291103752 
2.370000000000577, -0.705479205640741 
2.380000000000598, -0.7054389607009981 
2.390000000000619, -0.7050663039711698 
2.4000000000006403, -0.7046457802367683 
2.4100000000006614, -0.7046934566581567 
2.4200000000006825, -0.7061877327658626 
2.4300000000007036, -0.7108651090320598 
2.4400000000007247, -0.7214059163013616 
2.450000000000746, -0.7411584352887342 
2.460000000000767, -0.7730898434444171 
2.470000000000788, -0.8182492865616233 
2.480000000000809, -0.8748957072979872 
2.49000000000083, -0.9392460597122753 
2.5000000000008513, -1.007082698174346 
2.5100000000008724, -1.0744475519137315 
2.5200000000008935, -1.1369105851863632 
2.5300000000009146, -1.1890731589328098 
2.5400000000009357, -1.226625683705824 
2.550000000000957, -1.2495307366466004 
2.560000000000978, -1.2616285688116446 
2.570000000000999, -1.2673291258164952 
2.58000000000102, -1.2696435197794675 
2.5900000000010412, -1.2701959324935932 
2.6000000000010624, -1.2698696153422517 
2.6100000000010835, -1.2694293931689218 
2.6200000000011046, -1.2698968549667735 
2.6300000000011257, -1.2722076981208599 
2.6400000000011468, -1.276292850032376 
2.650000000001168, -1.281100665878941 
2.660000000001189, -1.2856477807464133 
2.67000000000121, -1.2895395392841034 
2.680000000001231, -1.2927595251021624 
2.6900000000012523, -1.2953831168405328 
2.7000000000012734, -1.2974726179086202 
2.7100000000012945, -1.2990776447063934 
2.7200000000013156, -1.3002383889768976 
2.7300000000013367, -1.3009700107191782 
2.740000000001358, -1.3012529882305717 
2.750000000001379, -1.3010503623380323 
2.7600000000014, -1.300346309785159 
2.770000000001421, -1.299179911694896 
2.780000000001442, -1.297647603162638 
2.7900000000014633, -1.2958587620207527 
2.8000000000014844, -1.2938732853696608 
2.8100000000015055, -1.291725287918719 
2.8200000000015266, -1.2895784431173678 
2.8300000000015477, -1.2878195896497462 
2.840000000001569, -1.286813308481664 
2.85000000000159, -1.286494098732015 
2.860000000001611, -1.2863698516876476 
2.870000000001632, -1.2858523499467196 
2.8800000000016532, -1.2843743008032422 
2.8900000000016743, -1.2812622423909554 
2.9000000000016954, -1.2756571580366485 
2.9100000000017165, -1.2667040328458248 
2.9200000000017377, -1.2539519012529 
2.9300000000017588, -1.2375128372416613 
2.94000000000178, -1.2176937923195255 
2.950000000001801, -1.19449010202668 
2.960000000001822, -1.1674417821908132 
2.970000000001843, -1.1360686147018941 
2.9800000000018643, -1.1011002535253354 
2.9900000000018854, -1.0662473595303106 
3.0000000000019065, -1.0380642928921682 
3.0100000000019276, -1.021293855911384 
3.0200000000019487, -1.0146872829315634 
3.03000000000197, -1.0135427594717332 
3.040000000001991, -1.014103996944273 
3.050000000002012, -1.0146033623262203 
3.060000000002033, -1.014358471359269 
3.070000000002054, -1.0128969358869824 
3.0800000000020753, -1.0094053820332034 
3.0900000000020964, -1.00227957431685 
3.1000000000021175, -0.9888644243222359 
3.1100000000021386, -0.9662588718925607 
3.1200000000021597, -0.9340092275637536 
3.130000000002181, -0.8960965008750668 
3.140000000002202, -0.8583235475134602 
3.150000000002223, -0.8243729962097287 
3.160000000002244, -0.7952100515900127 
3.1700000000022652, -0.7704662179696915 
3.1800000000022863, -0.7495249165069698 
3.1900000000023074, -0.7319416365107476 
3.2000000000023285, -0.7174973599795412 
3.2100000000023496, -0.7060992886689635 
3.2200000000023707, -0.6976320794867018 
3.230000000002392, -0.6918340038305528 
3.240000000002413, -0.6882592969227012 
3.250000000002434, -0.6863405151909971 
3.260000000002455, -0.6855022267583277 
3.2700000000024763, -0.6852558961306416 
3.2800000000024974, -0.6852394562498128 
3.2900000000025185, -0.6852120470978571 
3.3000000000025396, -0.6850355524603414 
3.3100000000025607, -0.6846654358471691 
3.3200000000025818, -0.6841480640558262 
3.330000000002603, -0.6836020796192083 
3.340000000002624, -0.6831718180097923 
3.350000000002645, -0.6829719020180927 
3.360000000002666, -0.6830492519704621 
3.3700000000026873, -0.6833675719121756 
3.3800000000027084, -0.6838115744853804 
3.3900000000027295, -0.6842192221151048 
3.4000000000027506, -0.6844421315763496 
3.4100000000027717, -0.6844036726407132 
3.420000000002793, -0.6841235073948791 
3.430000000002814, -0.6837173282419227 
3.440000000002835, -0.6834048303698126 
3.450000000002856, -0.6835429999909899 
3.460000000002877, -0.6846700504127117 
3.4700000000028983, -0.6875185621890566 
3.4800000000029194, -0.6929505420140086 
3.4900000000029405, -0.7018045713907393 
3.5000000000029616, -0.7147202165579284 
3.5100000000029827, -0.7320525705120582 
3.520000000003004, -0.7539454992094214 
3.530000000003025, -0.7805235599702884 
3.540000000003046, -0.8120752766227974 
3.550000000003067, -0.8490465556708642 
3.5600000000030882, -0.8915614859608272 
3.5700000000031094, -0.938129029920591 
3.5800000000031305, -0.9840332689983896 
3.5900000000031516, -1.0222214783456185 
3.6000000000031727, -1.0482111632542568 
3.6100000000031938, -1.0630335754449205 
3.620000000003215, -1.0704795877999391 
3.630000000003236, -1.0738095647401165 
3.640000000003257, -1.0749242223224909 
3.650000000003278, -1.0747719480432432 
3.6600000000032993, -1.073911231421765 
3.6700000000033204, -1.0731156411371114 
3.6800000000033415, -1.074130576908114 
3.6900000000033626, -1.0799474455701756 
3.7000000000033837, -1.0930082683709244 
3.710000000003405, -1.1123070052358022 
3.720000000003426, -1.133938044549125 
3.730000000003447, -1.1545160782255655 
3.740000000003468, -1.17269750852792 
3.750000000003489, -1.1884841496327492 
3.7600000000035103, -1.202271192826435 
3.7700000000035314, -1.2143361007759281 
3.7800000000035525, -1.2246593338205023 
3.7900000000035736, -1.2329758959386106 
3.8000000000035947, -1.2390351605305312 
3.810000000003616, -1.2428866487549526 
3.820000000003637, -1.244913650192046 
3.830000000003658, -1.2456350843622723 
3.840000000003679, -1.2455461205123668 
3.8500000000037002, -1.2451232085079649 
3.8600000000037213, -1.2448723912850275 
3.8700000000037424, -1.2452065887467354 
3.8800000000037635, -1.2461911600200466 
3.8900000000037847, -1.2475479366869462 
3.9000000000038058, -1.24896622778444 
3.910000000003827, -1.2503013994967929 
3.920000000003848, -1.2515098003322673 
3.930000000003869, -1.2525229051694051 
3.94000000000389, -1.253227247696717 
3.9500000000039113, -1.2535227421751451 
3.9600000000039324, -1.2533679903709003 
3.9700000000039535, -1.2527806919358642 
3.9800000000039746, -1.251804890008733 
3.9900000000039957, -1.2504707319386765 
4.000000000004016, -1.2487746183600932 
4.010000000003993, -1.2466899590499565 
4.02000000000397, -1.2441926460194632 
4.030000000003946, -1.2412724786963658 
4.040000000003923, -1.2379208447931445 
4.0500000000039, -1.2341426932805943 
4.0600000000038765, -1.2300750342318392 
4.070000000003853, -1.2261767827769703 
4.08000000000383, -1.2231876818774365 
4.090000000003807, -1.2215915580495675 
4.100000000003783, -1.2211207230645718 
4.11000000000376, -1.221021965670162 
4.120000000003737, -1.2205749691803498 
4.130000000003713, -1.2191652135346045 
4.14000000000369, -1.216038224964111 
4.150000000003667, -1.2100828449762016 
4.1600000000036434, -1.1999379825984844 
4.17000000000362, -1.184622366086758 
4.180000000003597, -1.1642457173537781 
4.1900000000035735, -1.139854476071281 
4.20000000000355, -1.1125154976119165 
4.210000000003527, -1.0827353089741445 
4.220000000003504, -1.0506644908032194 
4.23000000000348, -1.0168577351052128 
4.240000000003457, -0.9832485477031238 
4.250000000003434, -0.9535142155337732 
4.26000000000341, -0.9315752400090652 
4.270000000003387, -0.9188392135817297 
4.280000000003364, -0.9133811157113803 
4.2900000000033405, -0.9119543533306658 
4.300000000003317, -0.9120374420887731 
4.310000000003294, -0.912280439123969 
4.320000000003271, -0.9120557926452992 
4.330000000003247, -0.9109682315730308 
4.340000000003224, -0.9085567440354374 
4.350000000003201, -0.9041891485694219 
4.360000000003177, -0.8972233134096552 
4.370000000003154, -0.8874935888875545 
4.380000000003131, -0.8757404192244955 
4.390000000003107, -0.8633232345419393 
4.400000000003084, -0.8514187553357756 
4.410000000003061, -0.8405875939144811 
4.4200000000030375, -0.8308975454628353 
4.430000000003014, -0.8222036608274881 
4.440000000002991, -0.8143385478254921 
4.450000000002968, -0.8071989210031323 
4.460000000002944, -0.8007736092005402 
4.470000000002921, -0.7951409470526708 
4.480000000002898, -0.7904396185436209 
4.490000000002874, -0.7868079156823933 
4.500000000002851, -0.7843022802670159 
4.510000000002828, -0.7828359379451398 
4.520000000002804, -0.782181780579079 
4.530000000002781, -0.7820389239225431 
4.540000000002758, -0.7821148611909069 
4.5500000000027345, -0.7821792560631315 
4.560000000002711, -0.7820852813417367 
4.570000000002688, -0.7817772534556331 
4.580000000002665, -0.7812909705235358 
4.590000000002641, -0.7807325737760397 
4.600000000002618, -0.7802291904696059 
4.610000000002595, -0.7798730295814116 
4.620000000002571, -0.7796862659074735 
4.630000000002548, -0.7796149002734827 
4.640000000002525, -0.7795502890510345 
4.6500000000025015, -0.7793755230499033 
4.660000000002478, -0.7790195390989677 
4.670000000002455, -0.7784924568537799 
4.6800000000024315, -0.7778943363129889 
4.690000000002408, -0.7774096825261549 
4.700000000002385, -0.777292139128615 
4.710000000002362, -0.7778263293910362 
4.720000000002338, -0.779260335640726 
4.730000000002315, -0.7817349436977346 
4.740000000002292, -0.7852555663424886 
4.750000000002268, -0.7897263961306009 
4.760000000002245, -0.7950203847570921 
4.770000000002222, -0.8010442416916705 
4.7800000000021985, -0.8077783489974852 
4.790000000002175, -0.8152925092651534 
4.800000000002152, -0.8237386453209791 
4.810000000002129, -0.8333039318603872 
4.820000000002105, -0.8440831274519148 
4.830000000002082, -0.8558318115104596 
4.840000000002059, -0.8676967399946701 
4.850000000002035, -0.8783001682611916 
4.860000000002012, -0.886437159244716 
4.870000000001989, -0.8917702940277221 
4.880000000001965, -0.8947479845273177 
4.890000000001942, -0.8960533801055718 
4.900000000001919, -0.8962434787749627 
4.9100000000018955, -0.8957158423925549 
4.920000000001872, -0.8948941926847487 
4.930000000001849, -0.8946198663544294 
