t, s[1].omega / s[0].omega 
0, -0.4001645684829609 
0.009999999999999995, -0.42077494577745317 
0.019999999999999934, -0.4513487882203858 
0.029999999999999874, -0.4914804521414541 
0.04000000000000012, -0.5335485814455039 
0.050000000000000405, -0.5669004514871774 
0.06000000000000069, -0.5877182351238437 
0.07000000000000098, -0.5989488468682398 
0.08000000000000126, -0.6045429100313354 
0.09000000000000155, -0.6070349388544904 
0.10000000000000184, -0.6076541749606087 
0.11000000000000212, -0.6067819365977785 
0.12000000000000241, -0.6041107838385764 
0.130000000000002, -0.5983435504437862 
0.1400000000000009, -0.5860080845477396 
0.1499999999999998, -0.5582149073625631 
0.1599999999999987, -0.49477109343358217 
0.1699999999999976, -0.3715993164289879 
0.1799999999999965, -0.21883950055647702 
0.1899999999999954, -0.11058441120575564 
0.1999999999999943, -0.05588203910196573 
0.2099999999999932, -0.030099631356254875 
0.2199999999999921, -0.01732302870628052 
0.229999999999991, -0.010521855228222193 
0.2399999999999899, -0.0066849397097180005 
0.2499999999999888, -0.004437483031562103 
0.2599999999999877, -0.00308833947321616 
0.2699999999999866, -0.002252057024227317 
0.2799999999999855, -0.0016964670905283234 
0.2899999999999844, -0.001278467937742691 
0.2999999999999833, -0.0009102487486835743 
0.3099999999999822, -0.000529223109798413 
0.3199999999999811, -0.00004554898666583842 
0.32999999999998, 0.00041397341847772013 
0.3399999999999789, 0.0023021435601244685 
0.3499999999999778, 0.010326719933298369 
0.35999999999997667, 0.0447262336942416 
0.36999999999997557, 0.16788334814372485 
0.37999999999997447, 0.3833614447698451 
0.38999999999997337, 0.5145722281636338 
0.39999999999997227, 0.5593125830560931 
0.40999999999997117, 0.5742169359526478 
0.41999999999997006, 0.5796499137456581 
0.42999999999996896, 0.5814760179322044 
0.43999999999996786, 0.5814344015969828 
0.44999999999996676, 0.5798973641813694 
0.45999999999996566, 0.5766338864091853 
0.46999999999996456, 0.5711929276608503 
0.47999999999996346, 0.5635227587047511 
0.48999999999996235, 0.5547426633885281 
0.49999999999996125, 0.5468926456368568 
0.5099999999999602, 0.5413744090939118 
0.519999999999959, 0.5381759592073128 
0.529999999999958, 0.5365567448710225 
0.5399999999999568, 0.5357881678999468 
0.5499999999999557, 0.5353596337423121 
0.5599999999999546, 0.5349108592462263 
0.5699999999999535, 0.5341031697208041 
0.5799999999999524, 0.5324376284063143 
0.5899999999999513, 0.528837535916929 
0.5999999999999502, 0.5202413489637515 
0.6099999999999491, 0.4951684207135079 
0.619999999999948, 0.39026071990850253 
0.6299999999999469, -0.3239694107456854 
0.6399999999999458, -2.0131578341562624 
0.6499999999999447, -2.3700093057324283 
0.6599999999999436, -2.4210940500388127 
0.6699999999999425, -2.4318613738693244 
0.6799999999999414, -2.4342689213879085 
0.6899999999999403, -2.4342057514611524 
0.6999999999999392, -2.4332720074398324 
0.7099999999999381, -2.431682811661806 
0.719999999999937, -2.428836985970674 
0.7299999999999359, -2.4258943538974824 
0.7399999999999348, -2.4253718793749286 
0.7499999999999337, -2.4253905542255225 
0.7599999999999326, -2.423019745917658 
0.7699999999999315, -2.411714480123784 
0.7799999999999304, -2.368855559523521 
0.7899999999999293, -2.459335410700114 
0.7999999999999282, -2.6265116054608546 
0.8099999999999271, -2.666123883052836 
0.819999999999926, -2.676519706836147 
0.8299999999999249, -2.6798790669520693 
0.8399999999999238, -2.68045379855084 
0.8499999999999227, -2.679037349955089 
0.8599999999999216, -2.6748567200443456 
0.8699999999999205, -2.663589018873222 
0.8799999999999194, -2.623342824950702 
0.8899999999999183, -2.490503785380022 
0.8999999999999172, -2.4611291033933456 
0.9099999999999161, -2.4877979689345695 
0.919999999999915, -2.4938773387496433 
0.9299999999999139, -2.4943133391073196 
0.9399999999999128, -2.4932899554205474 
0.9499999999999117, -2.494064944601617 
0.9599999999999106, -2.4967347715070365 
0.9699999999999095, -2.498340729213343 
0.9799999999999084, -2.498850059093476 
0.9899999999999073, -2.4987255503512853 
0.9999999999999062, -2.4971221374063473 
1.0099999999999052, -2.4908705892783263 
1.019999999999904, -2.4644984650271615 
1.029999999999903, -2.2965290978706343 
1.039999999999902, -0.9026345918247458 
1.0499999999999008, 0.40882453246507017 
1.0599999999998997, 0.5754876783128993 
1.0699999999998986, 0.6071218181830781 
1.0799999999998975, 0.6164423400817046 
1.0899999999998964, 0.6197924990926227 
1.0999999999998953, 0.6209880309877235 
1.1099999999998942, 0.6212544811668193 
1.119999999999893, 0.6211217307788304 
1.129999999999892, 0.6209231821391861 
1.1399999999998909, 0.6209598042749265 
1.1499999999998898, 0.6215494270299128 
1.1599999999998887, 0.6229920632954904 
1.1699999999998876, 0.625430022362297 
1.1799999999998865, 0.6286535230558716 
1.1899999999998854, 0.6320726804823538 
1.1999999999998843, 0.6350078317136886 
1.2099999999998832, 0.6370309852939628 
1.219999999999882, 0.6380068418621795 
1.229999999999881, 0.6378649634027513 
1.2399999999998799, 0.6362475684545816 
1.2499999999998788, 0.6318018951676454 
1.2599999999998777, 0.6196147123890965 
1.2699999999998766, 0.5777642741961043 
1.2799999999998755, 0.375582450577198 
1.2899999999998744, -0.41290896940184724 
1.2999999999998733, -1.0399887794665845 
1.3099999999998722, -1.2063720279145311 
1.319999999999871, -1.2501137725936435 
1.32999999999987, -1.2636918099284842 
1.3399999999998689, -1.2682441994169094 
1.3499999999998678, -1.269360519564588 
1.3599999999998666, -1.2685901017935342 
1.3699999999998655, -1.2662446188647936 
1.3799999999998644, -1.2629486982292495 
1.3899999999998633, -1.2632839103959146 
1.3999999999998622, -1.2807609998508869 
1.4099999999998611, -1.3257134053747248 
1.41999999999986, -1.38184373263518 
1.429999999999859, -1.4278090459897885 
1.4399999999998578, -1.4596190091555752 
1.4499999999998567, -1.4812112737058596 
1.4599999999998556, -1.4962798256695746 
1.4699999999998545, -1.5069709483815543 
1.4799999999998534, -1.514394169737135 
1.4899999999998523, -1.5191919937322589 
1.4999999999998512, -1.5218929880567198 
1.5099999999998501, -1.5230211833235887 
1.519999999999849, -1.5230646583842056 
1.529999999999848, -1.5224586054033078 
1.5399999999998468, -1.521585850391193 
1.5499999999998457, -1.5206676886739097 
1.5599999999998446, -1.5196701338635772 
1.5699999999998435, -1.5185371671409547 
1.5799999999998424, -1.517512136051314 
1.5899999999998413, -1.516962168241397 
1.5999999999998402, -1.516818239144111 
1.6099999999998391, -1.5165162428685153 
1.619999999999838, -1.5153312971657398 
1.629999999999837, -1.5123029294598467 
1.6399999999998358, -1.5057505001367293 
1.6499999999998347, -1.4927486153119307 
1.6599999999998336, -1.4690169288380988 
1.6699999999998325, -1.4294626133491573 
1.6799999999998314, -1.3685516768549546 
1.6899999999998303, -1.2799480990903094 
1.6999999999998292, -1.1588685524209703 
1.709999999999828, -1.013690566821683 
1.719999999999827, -0.8765827280835202 
1.729999999999826, -0.780173994399386 
1.7399999999998248, -0.7278295779957464 
1.7499999999998237, -0.7044534667321911 
1.7599999999998226, -0.6957102457483579 
1.7699999999998215, -0.6932089227900207 
1.7799999999998204, -0.6929523659212873 
1.7899999999998193, -0.6932415450665985 
1.7999999999998182, -0.6933885668721251 
1.809999999999817, -0.6930838205971347 
1.819999999999816, -0.6921218656933574 
1.8299999999998149, -0.6903171436052427 
1.8399999999998138, -0.6875484380467243 
1.8499999999998127, -0.6838856567780005 
1.8599999999998116, -0.6796689235942374 
1.8699999999998105, -0.6753965044624938 
1.8799999999998094, -0.6714895967854214 
1.8899999999998083, -0.6681528991595399 
1.8999999999998072, -0.6653971375542173 
1.909999999999806, -0.6631268345093455 
1.919999999999805, -0.6612149540765577 
1.9299999999998039, -0.6595518045426143 
1.9399999999998028, -0.6580754734168321 
1.9499999999998017, -0.6567855958931472 
1.9599999999998006, -0.6557409489669819 
1.9699999999997995, -0.6550448092472474 
1.9799999999997984, -0.6548229580782594 
1.9899999999997973, -0.6551990539447107 
1.9999999999997962, -0.6562735940233222 
2.0099999999998173, -0.6581133504202594 
2.0199999999998384, -0.6607550583499162 
2.0299999999998595, -0.6642220789954597 
2.0399999999998806, -0.6685499317719296 
2.0499999999999017, -0.6738171758332465 
2.059999999999923, -0.6801795063955158 
2.069999999999944, -0.6879037148488955 
2.079999999999965, -0.6973901885560452 
2.089999999999986, -0.709146698918668 
2.100000000000007, -0.7236147696518194 
2.1100000000000283, -0.740693478959507 
2.1200000000000494, -0.75903496710496 
2.1300000000000705, -0.7759831373088294 
2.1400000000000916, -0.789053426576031 
2.1500000000001127, -0.7975482457233093 
2.160000000000134, -0.8023310435313175 
2.170000000000155, -0.8046230297957802 
2.180000000000176, -0.805314685897154 
2.190000000000197, -0.8048782286562867 
2.2000000000002182, -0.803498970256857 
2.2100000000002393, -0.8013102354685039 
2.2200000000002604, -0.799008667105648 
2.2300000000002815, -0.799899765928338 
2.2400000000003026, -0.8163703189768359 
2.2500000000003237, -0.8860438993418025 
2.260000000000345, -1.0797005269292075 
2.270000000000366, -1.3761548368323806 
2.280000000000387, -1.5946633338540008 
2.290000000000408, -1.7026771512658398 
2.3000000000004293, -1.754593604962905 
2.3100000000004504, -1.7812654968638497 
2.3200000000004715, -1.795377888373319 
2.3300000000004926, -1.8026035843832495 
2.3400000000005137, -1.8059099713161806 
2.3500000000005348, -1.8069788937681175 
2.360000000000556, -1.8067773090247907 
2.370000000000577, -1.8059072259289137 
2.380000000000598, -1.8046947584839284 
2.390000000000619, -1.8030713008815695 
2.4000000000006403, -1.800916154253267 
2.4100000000006614, -1.7988441097035603 
2.4200000000006825, -1.7978684159916607 
2.4300000000007036, -1.7977316526276645 
2.4400000000007247, -1.7971493925757969 
2.450000000000746, -1.7945953235933878 
2.460000000000767, -1.786332920789853 
2.470000000000788, -1.7570146560487756 
2.480000000000809, -1.6263126114786115 
2.49000000000083, -1.0044339774654873 
2.5000000000008513, -0.032304207288551746 
2.5100000000008724, 0.262427619672515 
2.5200000000008935, 0.329107081033878 
2.5300000000009146, 0.3494575693910597 
2.5400000000009357, 0.3572192034347796 
2.550000000000957, 0.36051805295643496 
2.560000000000978, 0.3618974968585667 
2.570000000000999, 0.3623428657139461 
2.58000000000102, 0.3623291436952278 
2.5900000000010412, 0.362154568891279 
2.6000000000010624, 0.36207079514453244 
2.6100000000010835, 0.3623613783991687 
2.6200000000011046, 0.363427078011611 
2.6300000000011257, 0.36588137182253655 
2.6400000000011468, 0.37054453170238244 
2.650000000001168, 0.3780285795877466 
2.660000000001189, 0.3877878345946423 
2.67000000000121, 0.3977471586080282 
2.680000000001231, 0.4057340184051628 
2.6900000000012523, 0.41097570553149476 
2.7000000000012734, 0.4138452134379212 
2.7100000000012945, 0.41493816141431683 
2.7200000000013156, 0.41455854431204 
2.7300000000013367, 0.412506697271552 
2.740000000001358, 0.40778156557432454 
2.750000000001379, 0.3978938685418071 
2.7600000000014, 0.37799338497221546 
2.770000000001421, 0.34305309813248425 
2.780000000001442, 0.29893072179441316 
2.7900000000014633, 0.2641274551813387 
2.8000000000014844, 0.24591915988377053 
2.8100000000015055, 0.23826619017936093 
2.8200000000015266, 0.2352211263724462 
2.8300000000015477, 0.2339552129702886 
2.840000000001569, 0.2333507953347375 
2.85000000000159, 0.23295455990640795 
2.860000000001611, 0.2325335559534225 
2.870000000001632, 0.23189511877228716 
2.8800000000016532, 0.23078766925717922 
2.8900000000016743, 0.22878447128366103 
2.9000000000016954, 0.22502816272505602 
2.9100000000017165, 0.21750640850053063 
2.9200000000017377, 0.20062994149611 
2.9300000000017588, 0.15542450015844522 
2.94000000000178, 0.0019948480075810075 
2.950000000001801, -0.547882300381343 
2.960000000001822, -1.319673726226331 
2.970000000001843, -1.5931049067965306 
2.9800000000018643, -1.656952815631098 
2.9900000000018854, -1.6738404335967831 
3.0000000000019065, -1.6787911300472966 
3.0100000000019276, -1.6799383444692022 
3.0200000000019487, -1.6796343000061706 
3.03000000000197, -1.6791950158514202 
3.040000000001991, -1.6799797688718958 
3.050000000002012, -1.6822418401329475 
3.060000000002033, -1.6847660729399738 
3.070000000002054, -1.6866766944277298 
3.0800000000020753, -1.687951537454388 
3.0900000000020964, -1.6887229958374992 
3.1000000000021175, -1.6888897637402387 
3.1100000000021386, -1.6881878228218283 
3.1200000000021597, -1.6862871594414366 
3.130000000002181, -1.6827895998202753 
3.140000000002202, -1.6771777826549479 
3.150000000002223, -1.668645773083347 
3.160000000002244, -1.6556520334972302 
3.1700000000022652, -1.6349544629897494 
3.1800000000022863, -1.6000872087689264 
3.1900000000023074, -1.5428347589168139 
3.2000000000023285, -1.4729858098014845 
3.2100000000023496, -1.4327234393840649 
3.2200000000023707, -1.428647573161566 
3.230000000002392, -1.4336440690527505 
3.240000000002413, -1.4369335264669216 
3.250000000002434, -1.4378597960361772 
3.260000000002455, -1.436659795507826 
3.2700000000024763, -1.4321910060001286 
3.2800000000024974, -1.4198325175623008 
3.2900000000025185, -1.3866664426520818 
3.3000000000025396, -1.3322074975505787 
3.3100000000025607, -1.6068712793792717 
3.3200000000025818, -2.448761512388883 
3.330000000002603, -2.6375822807549762 
3.340000000002624, -2.6702307609314513 
3.350000000002645, -2.679318750975672 
3.360000000002666, -2.6821649472434737 
3.3700000000026873, -2.682336863071728 
3.3800000000027084, -2.6805362554855234 
3.3900000000027295, -2.6757704526356045 
3.4000000000027506, -2.66251182478008 
3.4100000000027717, -2.6238746204041883 
3.420000000002793, -2.5930431594902315 
3.430000000002814, -2.6046767289512016 
3.440000000002835, -2.6094559151970724 
3.450000000002856, -2.609454140958657 
3.460000000002877, -2.607885608429992 
3.4700000000028983, -2.6093513572830456 
3.4800000000029194, -2.6136114351892656 
3.4900000000029405, -2.6159699192314805 
3.5000000000029616, -2.616730312687337 
3.5100000000029827, -2.616516670473998 
3.520000000003004, -2.6143599633927717 
3.530000000003025, -2.606052075517611 
3.540000000003046, -2.5684790126555606 
3.550000000003067, -2.2861623003033276 
3.5600000000030882, -0.323091270990261 
3.5700000000031094, 0.5481329523964532 
3.5800000000031305, 0.6467071262213033 
3.5900000000031516, 0.6675007986889541 
3.6000000000031727, 0.6739379773719039 
3.6100000000031938, 0.6762360437461601 
3.620000000003215, 0.6769745761764625 
3.630000000003236, 0.6770500452274026 
3.640000000003257, 0.6769038921782741 
3.650000000003278, 0.6768678959752062 
3.6600000000032993, 0.6772760764491952 
3.6700000000033204, 0.6784616474789475 
3.6800000000033415, 0.6806322063546 
3.6900000000033626, 0.6836591507447076 
3.7000000000033837, 0.6869995773008153 
3.710000000003405, 0.6899572263834003 
3.720000000003426, 0.6920573142652573 
3.730000000003447, 0.6931355906230222 
3.740000000003468, 0.6931271056533532 
3.750000000003489, 0.6917164355292769 
3.7600000000035103, 0.6876513339444648 
3.7700000000035314, 0.6762151195890127 
3.7800000000035525, 0.6350041660535225 
3.7900000000035736, 0.40647952636630597 
3.8000000000035947, -0.6854133554294923 
3.810000000003616, -1.4449279883151507 
3.820000000003637, -1.5925947638267437 
3.830000000003658, -1.6243354925597135 
3.840000000003679, -1.632854665386385 
3.8500000000037002, -1.6351186623823868 
3.8600000000037213, -1.6351012312091313 
3.8700000000037424, -1.6342384268933725 
3.8800000000037635, -1.6342414579302216 
3.8900000000037847, -1.6370653543955753 
3.9000000000038058, -1.6420885983315507 
3.910000000003827, -1.6468857282290716 
3.920000000003848, -1.6503795029529698 
3.930000000003869, -1.6527172880090824 
3.94000000000389, -1.654185824256892 
3.9500000000039113, -1.6548719421489708 
3.9600000000039324, -1.6547475494381405 
3.9700000000039535, -1.6537568074533013 
3.9800000000039746, -1.651821407137843 
3.9900000000039957, -1.6487996793684268 
4.000000000004016, -1.644409999529024 
4.010000000003993, -1.6380872603839634 
4.02000000000397, -1.628711737411989 
4.030000000003946, -1.6143662813105628 
4.040000000003923, -1.5934909062126767 
4.0500000000039, -1.5705300013024952 
4.0600000000038765, -1.5577667440139131 
4.070000000003853, -1.5568803343059008 
4.08000000000383, -1.5590516764415514 
4.090000000003807, -1.5600974648721455 
4.100000000003783, -1.5592596407391093 
4.11000000000376, -1.555299708894201 
4.120000000003737, -1.5430903414024435 
4.130000000003713, -1.503346367415844 
4.14000000000369, -1.3886260250097546 
4.150000000003667, -1.5375068459084387 
4.1600000000036434, -3.0505833679894647 
4.17000000000362, -3.2350611480197955 
4.180000000003597, -3.253684574924164 
4.1900000000035735, -3.25741669101579 
4.20000000000355, -3.2573322778581413 
4.210000000003527, -3.254285647426875 
4.220000000003504, -3.2429541976324168 
4.23000000000348, -3.172298202970306 
4.240000000003457, -2.9539989429802125 
4.250000000003434, -3.0270553043492487 
4.26000000000341, -3.040747637876967 
4.270000000003387, -3.0420139504677963 
4.280000000003364, -3.041435641447308 
4.2900000000033405, -3.0415677737898923 
4.300000000003317, -3.041337971580373 
4.310000000003294, -3.0405400253903077 
4.320000000003271, -3.0401608909271483 
4.330000000003247, -3.0379905930775473 
4.340000000003224, -3.023352896198442 
4.350000000003201, -2.902919516134425 
4.360000000003177, -3.237844838005755 
4.370000000003154, -3.368660262028839 
4.380000000003131, -3.382758814563837 
4.390000000003107, -3.385324415799283 
4.400000000003084, -3.3845459197595895 
4.410000000003061, -3.3798214739771013 
4.4200000000030375, -3.3581630578275004 
4.430000000003014, -3.099191179606728 
4.440000000002991, -2.0047367451747493 
4.450000000002968, -2.2587934143240505 
4.460000000002944, -2.3158321865864133 
4.470000000002921, -2.3251037422010707 
4.480000000002898, -2.326522256646118 
4.490000000002874, -2.3260037983703246 
4.500000000002851, -2.3259248887658623 
4.510000000002828, -2.327194709264087 
4.520000000002804, -2.3282352046030192 
4.530000000002781, -2.3285104777028756 
4.540000000002758, -2.3285132423076993 
4.5500000000027345, -2.3278788570715867 
4.560000000002711, -2.3249994757711474 
4.570000000002688, -2.3144318687199963 
4.580000000002665, -2.267045852582332 
4.590000000002641, -1.9471214561032315 
4.600000000002618, -0.37701454391002126 
4.610000000002595, 0.371775411344449 
4.620000000002571, 0.4837218064161787 
4.630000000002548, 0.5097951650974675 
4.640000000002525, 0.5183525760067187 
4.6500000000025015, 0.521647253637868 
4.660000000002478, 0.5229075076537552 
4.670000000002455, 0.5232538582525897 
4.6800000000024315, 0.5231946158856472 
4.690000000002408, 0.5230542065247847 
4.700000000002385, 0.5231322717377518 
4.710000000002362, 0.5237838690879575 
4.720000000002338, 0.5254501291505089 
4.730000000002315, 0.5285683087596685 
4.740000000002292, 0.533254718136505 
4.750000000002268, 0.5389160894070153 
4.760000000002245, 0.544373504134205 
4.770000000002222, 0.548615680849223 
4.7800000000021985, 0.5512940093083374 
4.790000000002175, 0.5525145053778815 
4.800000000002152, 0.552391540366627 
4.810000000002129, 0.550658944968114 
4.820000000002105, 0.5460593078311553 
4.830000000002082, 0.5343868876313284 
4.840000000002059, 0.5007942771277043 
4.850000000002035, 0.39331651308370635 
4.860000000002012, 0.14218264070288375 
4.870000000001989, -0.07378368374565013 
4.880000000001965, -0.15038632141415292 
4.890000000001942, -0.1726389352799326 
4.900000000001919, -0.18014440554437214 
4.9100000000018955, -0.18324161597785416 
4.920000000001872, -0.18470571275660527 
4.930000000001849, -0.1853980773708475 
4.940000000001826, -0.1856283779607343 
4.950000000001802, -0.1855266427559811 
