t, s[1].omega / s[0].omega 
0, -0.7802453908140021 
0.009999999999999995, -0.8067560926586645 
0.019999999999999934, -0.8356976591799198 
0.029999999999999874, -0.8630656028585622 
0.04000000000000012, -0.8844670914324924 
0.050000000000000405, -0.8983305372712953 
0.06000000000000069, -0.9060680841031775 
0.07000000000000098, -0.9098827238317753 
0.08000000000000126, -0.9113949753780035 
0.09000000000000155, -0.9114924484984916 
0.10000000000000184, -0.9105934509219085 
0.11000000000000212, -0.9089940180012235 
0.12000000000000241, -0.9074945936352161 
0.130000000000002, -0.9089168795730244 
0.1400000000000009, -0.9210459867466934 
0.1499999999999998, -0.958489409521898 
0.1599999999999987, -1.0336502577254782 
0.1699999999999976, -1.135792600586917 
0.1799999999999965, -1.2348555657686797 
0.1899999999999954, -1.3127515793903992 
0.1999999999999943, -1.3692306226940307 
0.2099999999999932, -1.409405693968916 
0.2199999999999921, -1.4373804163397208 
0.229999999999991, -1.455809436570639 
0.2399999999999899, -1.46689844403994 
0.2499999999999888, -1.4728483228382703 
0.2599999999999877, -1.475578550028784 
0.2699999999999866, -1.4764444216931005 
0.2799999999999855, -1.4763166212305208 
0.2899999999999844, -1.4758523589158878 
0.2999999999999833, -1.4756072035047254 
0.3099999999999822, -1.4757977102568751 
0.3199999999999811, -1.476196524431653 
0.32999999999998, -1.4765374819566524 
0.3399999999999789, -1.4768195772519663 
0.3499999999999778, -1.4771211385282401 
0.35999999999997667, -1.4773097238144237 
0.36999999999997557, -1.477049794273324 
0.37999999999997447, -1.4759453316148528 
0.38999999999997337, -1.4735806681384185 
0.39999999999997227, -1.4695335734101196 
0.40999999999997117, -1.4634274488355001 
0.41999999999997006, -1.454920901351843 
0.42999999999996896, -1.4435283163593966 
0.43999999999996786, -1.4282972728963679 
0.44999999999996676, -1.4074517135786255 
0.45999999999996566, -1.3783967987865742 
0.46999999999996456, -1.3397471020689795 
0.47999999999996346, -1.2977456180421074 
0.48999999999996235, -1.2681759086830546 
0.49999999999996125, -1.2580173533640766 
0.5099999999999602, -1.258252386257698 
0.519999999999959, -1.2603172291020224 
0.529999999999958, -1.2614309968299762 
0.5399999999999568, -1.261073142585651 
0.5499999999999557, -1.2585997711883692 
0.5599999999999546, -1.2516668944665796 
0.5699999999999535, -1.2321840457988045 
0.5799999999999524, -1.1696699709937008 
0.5899999999999513, -0.9438112585101746 
0.5999999999999502, -0.3364422475978961 
0.6099999999999491, 0.15654349628487668 
0.619999999999948, 0.29912766790929834 
0.6299999999999469, 0.33855333812979144 
0.6399999999999458, 0.3521427647172949 
0.6499999999999447, 0.35760774397287876 
0.6599999999999436, 0.3598852932328954 
0.6699999999999425, 0.3606599459658947 
0.6799999999999414, 0.3606270574697369 
0.6899999999999403, 0.3601558936367929 
0.6999999999999392, 0.3595152419668547 
0.7099999999999381, 0.3589499737902043 
0.719999999999937, 0.3587047372638418 
0.7299999999999359, 0.3590392578810365 
0.7399999999999348, 0.36024164679173293 
0.7499999999999337, 0.36259821091423095 
0.7599999999999326, 0.3662474182385228 
0.7699999999999315, 0.3709288270653147 
0.7799999999999304, 0.3758858285656966 
0.7899999999999293, 0.3802034125840155 
0.7999999999999282, 0.38330400114226015 
0.8099999999999271, 0.38506438128921494 
0.819999999999926, 0.38555954928992414 
0.8299999999999249, 0.38474599606025583 
0.8399999999999238, 0.3821514319687112 
0.8499999999999227, 0.37632783484100313 
0.8599999999999216, 0.36350885255149995 
0.8699999999999205, 0.3348883473969062 
0.8799999999999194, 0.27718480163542963 
0.8899999999999183, 0.1969368771781974 
0.8999999999999172, 0.13515504883548343 
0.9099999999999161, 0.10617522383745756 
0.919999999999915, 0.09514194218065052 
0.9299999999999139, 0.09091453299778547 
0.9399999999999128, 0.08910942805528008 
0.9499999999999117, 0.08821401949552807 
0.9599999999999106, 0.08768456475670475 
0.9699999999999095, 0.08728878996975484 
0.9799999999999084, 0.08688052009540176 
0.9899999999999073, 0.086310048692713 
0.9999999999999062, 0.08537274169378892 
1.0099999999999052, 0.0837498291256363 
1.019999999999904, 0.08088496070896475 
1.029999999999903, 0.07567168002820521 
1.039999999999902, 0.06560559514382429 
1.0499999999999008, 0.044311341617848596 
1.0599999999998997, -0.005857167208600725 
1.0699999999998986, -0.12993379979582384 
1.0799999999998975, -0.3743574110690461 
1.0899999999998964, -0.6192751648887034 
1.0999999999998953, -0.74293045508232 
1.1099999999998942, -0.790612350377356 
1.119999999999893, -0.8090822454030604 
1.129999999999892, -0.8166595602832774 
1.1399999999998909, -0.8197065675811878 
1.1499999999998898, -0.8204452266809807 
1.1599999999998887, -0.8194725225111272 
1.1699999999998876, -0.8163694168306803 
1.1799999999998865, -0.8092657738676738 
1.1899999999998854, -0.7926368788893099 
1.1999999999998843, -0.749408828038278 
1.2099999999998832, -0.6248454478420525 
1.219999999999882, -0.30754977282949014 
1.229999999999881, 0.07076566162700235 
1.2399999999998799, 0.23848713642982844 
1.2499999999998788, 0.2913041779087616 
1.2599999999998777, 0.30972120719031776 
1.2699999999998766, 0.31711082685578684 
1.2799999999998755, 0.3202627384424935 
1.2899999999998744, 0.321463341391366 
1.2999999999998733, 0.3216096731775607 
1.3099999999998722, 0.32113265080384346 
1.319999999999871, 0.32031753962816145 
1.32999999999987, 0.31941769073537996 
1.3399999999998689, 0.31868030060569785 
1.3499999999998678, 0.3183443975752249 
1.3599999999998666, 0.3186473360440707 
1.3699999999998655, 0.3198370032050474 
1.3799999999998644, 0.3221423467389476 
1.3899999999998633, 0.32563938095171324 
1.3999999999998622, 0.3300392998136898 
1.4099999999998611, 0.33463190928291825 
1.41999999999986, 0.33859716090530434 
1.429999999999859, 0.34142289584862184 
1.4399999999998578, 0.3429896927286379 
1.4499999999998567, 0.34334114810680544 
1.4599999999998556, 0.34239788574541474 
1.4699999999998545, 0.33966698307838744 
1.4799999999998534, 0.3337476660980615 
1.4899999999998523, 0.32125335876171224 
1.4999999999998512, 0.2951708301184843 
1.5099999999998501, 0.24723432336423876 
1.519999999999849, 0.18529848983715624 
1.529999999999848, 0.13731863324147292 
1.5399999999998468, 0.11293706248943178 
1.5499999999998457, 0.10265875807394667 
1.5599999999998446, 0.09834932583499982 
1.5699999999998435, 0.09639262478723322 
1.5799999999998424, 0.09540534561503469 
1.5899999999998413, 0.09484505273970739 
1.5999999999998402, 0.09446278297188306 
1.6099999999998391, 0.09409639745175283 
1.619999999999838, 0.09358313466826966 
1.629999999999837, 0.0927092929555994 
1.6399999999998358, 0.09115275541473475 
1.6499999999998347, 0.0883607083792386 
1.6599999999998336, 0.08323788844761018 
1.6699999999998325, 0.07330533873255339 
1.6799999999998314, 0.05227816122807325 
1.6899999999998303, 0.003014069426649251 
1.6999999999998292, -0.11598362635768777 
1.709999999999828, -0.34040732966114384 
1.719999999999827, -0.5583259778203196 
1.729999999999826, -0.6690362826529632 
1.7399999999998248, -0.7128211639084847 
1.7499999999998237, -0.730261349626627 
1.7599999999998226, -0.7376179905342999 
1.7699999999998215, -0.7406759307439837 
1.7799999999998204, -0.741503416719407 
1.7899999999998193, -0.7406837567622545 
1.7999999999998182, -0.7378858551140695 
1.809999999999817, -0.7315787021712044 
1.819999999999816, -0.7176188992431267 
1.8299999999998149, -0.6855355299729551 
1.8399999999998138, -0.6131355884833023 
1.8499999999998127, -0.4802942047216921 
1.8599999999998116, -0.32694342962674444 
1.8699999999998105, -0.22088015098089922 
1.8799999999998094, -0.16550503483691553 
1.8899999999998083, -0.13795508600576073 
1.8999999999998072, -0.12354270693537124 
1.909999999999806, -0.11546750957147282 
1.919999999999805, -0.11066256560982093 
1.9299999999998039, -0.10766761653699305 
1.9399999999998028, -0.10573742651711907 
1.9499999999998017, -0.10447353590077091 
1.9599999999998006, -0.10367020724056127 
1.9699999999997995, -0.10325290332854782 
1.9799999999997984, -0.10326753228605826 
1.9899999999997973, -0.10392113151834974 
1.9999999999997962, -0.10571898587876165 
2.0099999999998173, -0.10984710334036 
2.0199999999998384, -0.11929824861902975 
2.0299999999998595, -0.14265190554748775 
2.0399999999998806, -0.20936764905396604 
2.0499999999999017, -0.44949870681666326 
2.059999999999923, -1.5132354798095258 
2.069999999999944, -2.6037239117729927 
2.079999999999965, -2.7399983694693644 
2.089999999999986, -2.763758156424843 
2.100000000000007, -2.7703438170174675 
2.1100000000000283, -2.7720376283733597 
2.1200000000000494, -2.771381376351056 
2.1300000000000705, -2.7684842305496487 
2.1400000000000916, -2.7606631520846405 
2.1500000000001127, -2.7358811008519064 
2.160000000000134, -2.69197492425766 
2.170000000000155, -2.6972613423058873 
2.180000000000176, -2.704765323117613 
2.190000000000197, -2.705677509069182 
2.2000000000002182, -2.7042819802261073 
2.2100000000002393, -2.7047350489904924 
2.2200000000002604, -2.7083889881776524 
2.2300000000002815, -2.7105900544071906 
2.2400000000003026, -2.711229330158955 
2.2500000000003237, -2.7109786497656434 
2.260000000000345, -2.7087145020001313 
2.270000000000366, -2.699007230165864 
2.280000000000387, -2.6430907314169234 
2.290000000000408, -1.95476776017698 
2.3000000000004293, 0.5235010391380497 
2.3100000000004504, 0.8327943841125057 
2.3200000000004715, 0.869687930471971 
2.3300000000004926, 0.8783699492706873 
2.3400000000005137, 0.8809637249142828 
2.3500000000005348, 0.881504421662541 
2.360000000000556, 0.8810397342940064 
2.370000000000577, 0.8799055921470164 
2.380000000000598, 0.878286656261621 
2.390000000000619, 0.8764237848163094 
2.4000000000006403, 0.8746507900982439 
2.4100000000006614, 0.8732749961337305 
2.4200000000006825, 0.8724191191033176 
2.4300000000007036, 0.8719828903922242 
2.4400000000007247, 0.8717246102491538 
2.450000000000746, 0.8713352662331978 
2.460000000000767, 0.8703911141390636 
2.470000000000788, 0.8680259989674252 
2.480000000000809, 0.8615674498986247 
2.49000000000083, 0.8388274169211571 
2.5000000000008513, 0.6993281938473939 
2.5100000000008724, -1.0537577026809055 
2.5200000000008935, -2.7035923749264845 
2.5300000000009146, -2.8287210148878232 
2.5400000000009357, -2.8470072505990442 
2.550000000000957, -2.850749473042869 
2.560000000000978, -2.8508334690019774 
2.570000000000999, -2.8492524928351397 
2.58000000000102, -2.845371854143214 
2.5900000000010412, -2.836467861448206 
2.6000000000010624, -2.8294182181404626 
2.6100000000010835, -2.831643135826167 
2.6200000000011046, -2.8323920702337695 
2.6300000000011257, -2.8298392762292246 
2.6400000000011468, -2.8271652861984817 
2.650000000001168, -2.8367371191155195 
2.660000000001189, -2.845007944173349 
2.67000000000121, -2.847826581725489 
2.680000000001231, -2.8484068793896786 
2.6900000000012523, -2.8471503877978033 
2.7000000000012734, -2.8417291345622315 
2.7100000000012945, -2.8196808481679407 
2.7200000000013156, -2.675038151502562 
2.7300000000013367, -0.8950483833930715 
2.740000000001358, 0.6970892205502073 
2.750000000001379, 0.8254238233258488 
2.7600000000014, 0.8468838835123582 
2.770000000001421, 0.852768135138304 
2.780000000001442, 0.854654129216694 
2.7900000000014633, 0.8551514937151163 
2.8000000000014844, 0.8551394463065438 
2.8100000000015055, 0.8550873834239315 
2.8200000000015266, 0.8553853512562078 
2.8300000000015477, 0.8563773571799975 
2.840000000001569, 0.8582118818552337 
2.85000000000159, 0.8606559778089367 
2.860000000001611, 0.8631528869123668 
2.870000000001632, 0.8651574315465534 
2.8800000000016532, 0.8663787061172761 
2.8900000000016743, 0.8667067138215623 
2.9000000000016954, 0.8659305182150125 
2.9100000000017165, 0.8631978016523718 
2.9200000000017377, 0.8551153253261375 
2.9300000000017588, 0.8241330828533397 
2.94000000000178, 0.6033511983697583 
2.950000000001801, -1.4437224334374965 
2.960000000001822, -2.421868888106032 
2.970000000001843, -2.5028746397284904 
2.9800000000018643, -2.5153831873238546 
2.9900000000018854, -2.517740942793086 
3.0000000000019065, -2.5176012341528753 
3.0100000000019276, -2.5168002472393303 
3.0200000000019487, -2.5155168650031774 
3.03000000000197, -2.513188975235622 
3.040000000001991, -2.511210745972373 
3.050000000002012, -2.511053702288969 
3.060000000002033, -2.510435577383613 
3.070000000002054, -2.5059107518869688 
3.0800000000020753, -2.4830830297440394 
3.0900000000020964, -2.4262249075852864 
3.1000000000021175, -2.670663679317818 
3.1100000000021386, -2.7820580064764195 
3.1200000000021597, -2.8032187579481143 
3.130000000002181, -2.808981094885996 
3.140000000002202, -2.8104582132758256 
3.150000000002223, -2.8096713769477937 
3.160000000002244, -2.806312692247197 
3.1700000000022652, -2.7967980773592953 
3.1800000000022863, -2.7605097570204777 
3.1900000000023074, -2.598806670051865 
3.2000000000023285, -2.535723737748995 
3.2100000000023496, -2.574439094273705 
3.2200000000023707, -2.5822772999641783 
3.230000000002392, -2.5830614238486564 
3.240000000002413, -2.5822451440677634 
3.250000000002434, -2.582793647482628 
3.260000000002455, -2.5845608431086156 
3.2700000000024763, -2.5853571729929294 
3.2800000000024974, -2.585454315395331 
3.2900000000025185, -2.5850737320211046 
3.3000000000025396, -2.582760280118296 
3.3100000000025607, -2.5726086120423766 
3.3200000000025818, -2.509890673475854 
3.330000000002603, -1.6548123356850866 
3.340000000002624, 0.7619657196809289 
3.350000000002645, 0.9908198374003765 
3.360000000002666, 1.0178912767004824 
3.3700000000026873, 1.0241060674116633 
3.3800000000027084, 1.025639669681658 
3.3900000000027295, 1.0252807231034406 
3.4000000000027506, 1.023436811314109 
3.4100000000027717, 1.019784627668145 
3.420000000002793, 1.0139892983255192 
3.430000000002814, 1.006802751331749 
3.440000000002835, 1.0005158329023787 
3.450000000002856, 0.9969094507434985 
3.460000000002877, 0.9956091905697665 
3.4700000000028983, 0.9953219058038888 
3.4800000000029194, 0.9950551930886476 
3.4900000000029405, 0.9940733027922368 
3.5000000000029616, 0.9911542044378898 
3.5100000000029827, 0.9820927738974363 
3.520000000003004, 0.9430478583743825 
3.530000000003025, 0.5794175960001332 
3.540000000003046, -2.4957255339051594 
3.550000000003067, -3.0856313454526108 
3.5600000000030882, -3.126911065124149 
3.5700000000031094, -3.1345935863476972 
3.5800000000031305, -3.135941707973252 
3.5900000000031516, -3.1346144030820846 
3.6000000000031727, -3.1297743978572976 
3.6100000000031938, -3.1113727769719546 
3.620000000003215, -3.0494385700670934 
3.630000000003236, -3.0509426507569386 
3.640000000003257, -3.06237665250742 
3.650000000003278, -3.063606137158349 
3.6600000000032993, -3.062703302031453 
3.6700000000033204, -3.0634308495843316 
3.6800000000033415, -3.064567897462982 
3.6900000000033626, -3.0645227392544117 
3.7000000000033837, -3.0641941883553243 
3.710000000003405, -3.0621989645752943 
3.720000000003426, -3.0494168287620385 
3.730000000003447, -2.8723478273892904 
3.740000000003468, -1.305955632941108 
3.750000000003489, -6.14246914340044 
3.7600000000035103, -6.159221526040925 
3.7700000000035314, -6.156462808789977 
3.7800000000035525, -5.955828063699586 
3.7900000000035736, 4.095894777770983 
3.8000000000035947, 4.10984583050022 
3.810000000003616, 4.108484430497137 
3.820000000003637, 4.0840165509185855 
3.830000000003658, 4.051264548031571 
3.840000000003679, 4.067469192055134 
3.8500000000037002, 4.067656630553708 
3.8600000000037213, 4.066950430110152 
3.8700000000037424, 4.064435027614689 
3.8800000000037635, 4.063517785459821 
3.8900000000037847, 4.0624291821845855 
3.9000000000038058, 4.0566098936138335 
3.910000000003827, 4.066693345653535 
3.920000000003848, 4.069869900071492 
3.930000000003869, 4.0686927075332715 
3.94000000000389, 4.048237503764499 
3.9500000000039113, 4.332236627055308 
3.9600000000039324, 4.563214428348666 
3.9700000000039535, 4.563904037320516 
3.9800000000039746, 4.5340786511575875 
3.9900000000039957, -6.459930090998651 
4.000000000004016, -6.492712039444965 
4.010000000003993, -6.490070480213783 
4.02000000000397, -6.334339630387439 
4.030000000003946, -6.3920708887417055 
4.040000000003923, -6.394065137364724 
4.0500000000039, -6.389932210736151 
4.0600000000038765, -6.3836312886753035 
4.070000000003853, -6.385400290645977 
4.08000000000383, -6.384350412163506 
4.090000000003807, -6.382407917766115 
4.100000000003783, -6.380818443553361 
4.11000000000376, -6.378603257853327 
4.120000000003737, -6.382298758005213 
4.130000000003713, -6.3805467531854685 
4.14000000000369, -6.31611116478647 
4.150000000003667, -6.428657030253706 
4.1600000000036434, -6.4319419343426345 
4.17000000000362, -6.422723641401018 
4.180000000003597, 4.3373966105303525 
4.1900000000035735, 4.615566312719911 
4.20000000000355, 4.615761097453405 
4.210000000003527, 4.5730793006838315 
4.220000000003504, -2.1661184672719456 
4.23000000000348, -3.6660148059178956 
4.240000000003457, -3.6947425815118846 
4.250000000003434, -3.69647230662684 
4.26000000000341, -3.6955610043363407 
4.270000000003387, -3.6930283145283633 
4.280000000003364, -3.687845549480174 
4.2900000000033405, -3.687963686224491 
4.300000000003317, -3.68785082496733 
4.310000000003294, -3.684113980775872 
4.320000000003271, -3.6882306970482803 
4.330000000003247, -3.6939124069718736 
4.340000000003224, -3.694910307610548 
4.350000000003201, -3.6939787840483964 
4.360000000003177, -3.6864705414581076 
4.370000000003154, -3.557128067417247 
4.380000000003131, 2.0291915359531925 
4.390000000003107, 2.391715280693872 
4.400000000003084, 2.4021227579938356 
4.410000000003061, 2.4024453660964316 
4.4200000000030375, 2.3972622600899243 
4.430000000003014, 2.343392377396923 
4.440000000002991, 1.6909929047978154 
4.450000000002968, 1.92278845031175 
4.460000000002944, 1.955769548927013 
4.470000000002921, 1.9601043572948833 
4.480000000002898, 1.9605030989005308 
4.490000000002874, 1.9603167356994162 
4.500000000002851, 1.9607937165693534 
4.510000000002828, 1.9617620659913004 
4.520000000002804, 1.9623002655816084 
4.530000000002781, 1.962251331854087 
4.540000000002758, 1.9618207659463802 
4.5500000000027345, 1.960435889545374 
4.560000000002711, 1.954226438979537 
4.570000000002688, 1.8971469860306454 
4.580000000002665, -1.1088567864130572 
4.590000000002641, -4.520851097045972 
4.600000000002618, -4.547246718454728 
4.610000000002595, -4.548601968360475 
4.620000000002571, -4.544703163494608 
4.630000000002548, -4.4988859270521955 
4.640000000002525, -1.4591686526009924 
4.6500000000025015, -0.8373468348461592 
4.660000000002478, -0.9185809492733974 
4.670000000002455, -0.97692738830424 
4.6800000000024315, -1.003897462667353 
4.690000000002408, -1.015595591335554 
4.700000000002385, -1.0205824346001848 
4.710000000002362, -1.022379623788308 
4.720000000002338, -1.0222097257997709 
4.730000000002315, -1.0200205911174813 
4.740000000002292, -1.0142968266791716 
4.750000000002268, -1.0000230521956197 
4.760000000002245, -0.960473458006196 
4.770000000002222, -0.8328421714933978 
4.7800000000021985, -0.4091531229491031 
4.790000000002175, 0.23500771155735603 
4.800000000002152, 0.4726245808361278 
4.810000000002129, 0.527567783092482 
4.820000000002105, 0.5434434476809711 
4.830000000002082, 0.5490197852252399 
4.840000000002059, 0.5509759885134421 
4.850000000002035, 0.5512270178414544 
4.860000000002012, 0.5503766267361281 
4.870000000001989, 0.5486280100040436 
4.880000000001965, 0.5461416114648561 
4.890000000001942, 0.5432223159272248 
4.900000000001919, 0.5403336585441806 
4.9100000000018955, 0.5379294914225741 
4.920000000001872, 0.5362637050682608 
4.930000000001849, 0.535345320747582 
4.940000000001826, 0.5350165950488496 
4.950000000001802, 0.5350445237209152 
4.960000000001779, 0.5351754766411718 
4.970000000001756, 0.5351535221359558 
