t, s[1].omega / s[0].omega 
0, -1.3999807694609794 
0.009999999999999995, -1.397744066267221 
0.019999999999999934, -1.3948508488487223 
0.029999999999999874, -1.3912035218593792 
0.04000000000000012, -1.386632636680098 
0.050000000000000405, -1.3808727664239424 
0.06000000000000069, -1.3736211098929731 
0.07000000000000098, -1.3649386444746354 
0.08000000000000126, -1.3560939393497429 
0.09000000000000155, -1.3496396817388916 
0.10000000000000184, -1.34701068513636 
0.11000000000000212, -1.346868074634109 
0.12000000000000241, -1.3471679533121024 
0.130000000000002, -1.3467050913660354 
0.1400000000000009, -1.3445493673824052 
0.1499999999999998, -1.338732744519326 
0.1599999999999987, -1.3236471757619328 
0.1699999999999976, -1.2831089656616188 
0.1799999999999965, -1.1768885596902732 
0.1899999999999954, -0.9557998174736531 
0.1999999999999943, -0.6788518096389692 
0.2099999999999932, -0.47844825667243907 
0.2199999999999921, -0.3697132321084523 
0.229999999999991, -0.3134042415008439 
0.2399999999999899, -0.2828514215048174 
0.2499999999999888, -0.2652001972347567 
0.2599999999999877, -0.25442852099960767 
0.2699999999999866, -0.24758663548683066 
0.2799999999999855, -0.24314982996023665 
0.2899999999999844, -0.24029819122514282 
0.2999999999999833, -0.23858857015145332 
0.3099999999999822, -0.23780042817661048 
0.3199999999999811, -0.2378663430022001 
0.32999999999998, -0.2388515839548256 
0.3399999999999789, -0.24097298758973956 
0.3499999999999778, -0.24466597109682037 
0.35999999999997667, -0.25073326604738516 
0.36999999999997557, -0.26065876477384836 
0.37999999999997447, -0.27728738587565654 
0.38999999999997337, -0.30635863262885454 
0.39999999999997227, -0.36000512803978896 
0.40999999999997117, -0.4637539014268066 
0.41999999999997006, -0.6606511529798744 
0.42999999999996896, -0.961914273615992 
0.43999999999996786, -1.2430730169339896 
0.44999999999996676, -1.3939838895084087 
0.45999999999996566, -1.4528686678882115 
0.46999999999996456, -1.4739362697578362 
0.47999999999996346, -1.4814586083204486 
0.48999999999996235, -1.4839440414030187 
0.49999999999996125, -1.4843222085382366 
0.5099999999999602, -1.4838312457162217 
0.519999999999959, -1.4835697594133328 
0.529999999999958, -1.4847914036589516 
0.5399999999999568, -1.487771349606558 
0.5499999999999557, -1.4913751281401457 
0.5599999999999546, -1.494519577744058 
0.5699999999999535, -1.496920810646135 
0.5799999999999524, -1.4986727467981555 
0.5899999999999513, -1.4998360339394716 
0.5999999999999502, -1.5003791375024569 
0.6099999999999491, -1.5002561680499875 
0.619999999999948, -1.4994455173956598 
0.6299999999999469, -1.4979365460858742 
0.6399999999999458, -1.495695203376438 
0.6499999999999447, -1.4926308481351902 
0.6599999999999436, -1.4885651015227095 
0.6699999999999425, -1.4831770981187102 
0.6799999999999414, -1.4759417079534765 
0.6899999999999403, -1.4663085944538847 
0.6999999999999392, -1.4547167019896672 
0.7099999999999381, -1.4442196486190089 
0.719999999999937, -1.438782480592986 
0.7299999999999359, -1.438064872163519 
0.7399999999999348, -1.438782707570188 
0.7499999999999337, -1.4388923234031128 
0.7599999999999326, -1.437422419014465 
0.7699999999999315, -1.4326262606013607 
0.7799999999999304, -1.4185317463628098 
0.7899999999999293, -1.3714269953430116 
0.7999999999999282, -1.1849449349827958 
0.8099999999999271, -0.548481083377436 
0.819999999999926, 0.11500203641600559 
0.8299999999999249, 0.3063631611981158 
0.8399999999999238, 0.3547027403169263 
0.8499999999999227, 0.3704273584540707 
0.8599999999999216, 0.37656559015445695 
0.8699999999999205, 0.37911437770721634 
0.8799999999999194, 0.3800322344485937 
0.8899999999999183, 0.38010012607448007 
0.8999999999999172, 0.37971580792897536 
0.9099999999999161, 0.3791558461803305 
0.919999999999915, 0.3786666812403149 
0.9299999999999139, 0.378496682306742 
0.9399999999999128, 0.3789154944067119 
0.9499999999999117, 0.3802253746122236 
0.9599999999999106, 0.3827195272618198 
0.9699999999999095, 0.38651513094496903 
0.9799999999999084, 0.39129383970761455 
0.9899999999999073, 0.3962442478441144 
0.9999999999999062, 0.4004559953257246 
1.0099999999999052, 0.40340452211562283 
1.019999999999904, 0.4050098628034946 
1.029999999999903, 0.4053508852596752 
1.039999999999902, 0.4043447794903079 
1.0499999999999008, 0.40140974488700154 
1.0599999999998997, 0.3947942828208125 
1.0699999999998986, 0.3798181213645215 
1.0799999999998975, 0.34513181390439807 
1.0899999999998964, 0.27402054760015365 
1.0999999999998953, 0.17987699345755406 
1.1099999999998942, 0.11494253631341392 
1.119999999999893, 0.0875190209775859 
1.129999999999892, 0.07772544988164272 
1.1399999999998909, 0.07407596462311851 
1.1499999999998898, 0.07251567092523595 
1.1599999999998887, 0.07172005411510299 
1.1699999999998876, 0.0712258914151217 
1.1799999999998865, 0.0708344828821459 
1.1899999999998854, 0.07041394024229385 
1.1999999999998843, 0.06982047797346727 
1.2099999999998832, 0.06885133670788987 
1.219999999999882, 0.06718767041350725 
1.229999999999881, 0.064273543978482 
1.2399999999998799, 0.059010921477786235 
1.2499999999998788, 0.04894358532393874 
1.2599999999998777, 0.027934729097173185 
1.2699999999998766, -0.020370284052553318 
1.2799999999998755, -0.13602435947551889 
1.2899999999998744, -0.35649100768057046 
1.2999999999998733, -0.5782854207767982 
1.3099999999998722, -0.6942305688493928 
1.319999999999871, -0.74037413159353 
1.32999999999987, -0.7586442487238765 
1.3399999999998689, -0.7662781835365796 
1.3499999999998678, -0.7694233610258444 
1.3599999999998666, -0.7702704385598869 
1.3699999999998655, -0.7694398035629492 
1.3799999999998644, -0.7665925783829156 
1.3899999999998633, -0.7601056965248246 
1.3999999999998622, -0.7453807435662612 
1.4099999999998611, -0.7096558047004073 
1.41999999999986, -0.6203568328576978 
1.429999999999859, -0.43338552806755243 
1.4399999999998578, -0.2079293190734365 
1.4499999999998567, -0.06899952289370956 
1.4599999999998556, -0.007874639077206166 
1.4699999999998545, 0.018276073188057112 
1.4799999999998534, 0.0303796271007424 
1.4899999999998523, 0.036442854928157256 
1.4999999999998512, 0.03960703745571649 
1.5099999999998501, 0.041248962114143986 
1.519999999999849, 0.04204474545182818 
1.529999999999848, 0.04236601203882902 
1.5399999999998468, 0.042435340027340146 
1.5499999999998457, 0.04239330073598317 
1.5599999999998446, 0.04233881532890841 
1.5699999999998435, 0.042376871829273806 
1.5799999999998424, 0.04272573313355975 
1.5899999999998413, 0.04406091260960788 
1.5999999999998402, 0.04880190845860082 
1.6099999999998391, 0.06597669631541321 
1.619999999999838, 0.12414164136836889 
1.629999999999837, 0.256691638850472 
1.6399999999998358, 0.3912969046779554 
1.6499999999998347, 0.45655629325630276 
1.6599999999998336, 0.48091996432223577 
1.6699999999998325, 0.4902051781073897 
1.6799999999998314, 0.49383666549719757 
1.6899999999998303, 0.4949279823305212 
1.6999999999998292, 0.4944706038425523 
1.709999999999828, 0.49263809974122924 
1.719999999999827, 0.48925818875309046 
1.729999999999826, 0.4841805337569314 
1.7399999999998248, 0.4777522562853348 
1.7499999999998237, 0.4710569830360269 
1.7599999999998226, 0.46538173078498246 
1.7699999999998215, 0.4613876288056741 
1.7799999999998204, 0.4589701603401159 
1.7899999999998193, 0.4576807588466325 
1.7999999999998182, 0.45706849204031713 
1.809999999999817, 0.4567772087592135 
1.819999999999816, 0.45652025521836004 
1.8299999999998149, 0.45602141983371614 
1.8399999999998138, 0.45492365506800364 
1.8499999999998127, 0.4525835349984558 
1.8599999999998116, 0.44746616320472266 
1.8699999999998105, 0.43493620914169 
1.8799999999998094, 0.39665946317971273 
1.8899999999998083, 0.2281663274581336 
1.8999999999998072, -0.6912175384521452 
1.909999999999806, -1.8172887454440125 
1.919999999999805, -2.0355386436580485 
1.9299999999998039, -2.0737475567599377 
1.9399999999998028, -2.082619112002452 
1.9499999999998017, -2.0846915892285915 
1.9599999999998006, -2.0846788446145066 
1.9699999999997995, -2.084220886543997 
1.9799999999997984, -2.0840788626075097 
1.9899999999997973, -2.083898079332277 
1.9999999999997962, -2.0832997218315956 
2.0099999999998173, -2.0827892199966964 
2.0199999999998384, -2.08258627464562 
2.0299999999998595, -2.0817657014640707 
2.0399999999998806, -2.0784790366257146 
2.0499999999999017, -2.066860032076969 
2.059999999999923, -2.016912839973092 
2.069999999999944, -1.7153593970250984 
2.079999999999965, -0.4078613474934653 
2.089999999999986, 0.3127355454407176 
2.100000000000007, 0.43512348940176526 
2.1100000000000283, 0.46425455781989966 
2.1200000000000494, 0.4738796293856501 
2.1300000000000705, 0.4776205624925919 
2.1400000000000916, 0.4790743251861467 
2.1500000000001127, 0.4794743948829511 
2.160000000000134, 0.47936217455769486 
2.170000000000155, 0.47906117175766205 
2.180000000000176, 0.4788396562787903 
2.190000000000197, 0.47897737077668656 
2.2000000000002182, 0.4797959902995914 
2.2100000000002393, 0.48164321595137016 
2.2200000000002604, 0.48476649602616684 
2.2300000000002815, 0.4890509648801479 
2.2400000000003026, 0.4938393602256091 
2.2500000000003237, 0.49819091229771173 
2.260000000000345, 0.501423807325786 
2.270000000000366, 0.503335562978907 
2.280000000000387, 0.5039791031534411 
2.290000000000408, 0.5033142140849635 
2.3000000000004293, 0.5008277952387956 
2.3100000000004504, 0.49474240007468173 
2.3200000000004715, 0.4794074794778827 
2.3300000000004926, 0.4358574504409858 
2.3400000000005137, 0.31011863652503935 
2.3500000000005348, 0.0847421996761894 
2.360000000000556, -0.06841104173016332 
2.370000000000577, -0.1208099711994199 
2.380000000000598, -0.13686339554544896 
2.390000000000619, -0.14253290784677866 
2.4000000000006403, -0.14491145188078294 
2.4100000000006614, -0.14601554009839515 
2.4200000000006825, -0.14649828023038178 
2.4300000000007036, -0.14660383498921067 
2.4400000000007247, -0.1464454771887484 
2.450000000000746, -0.1461076867093302 
2.460000000000767, -0.1456958950189006 
2.470000000000788, -0.14536014184670154 
2.480000000000809, -0.1452970148769837 
2.49000000000083, -0.14574451442045763 
2.5000000000008513, -0.14699912617625116 
2.5100000000008724, -0.14947866813620123 
2.5200000000008935, -0.15382686299620107 
2.5300000000009146, -0.16099166834533657 
2.5400000000009357, -0.17203803681475646 
2.550000000000957, -0.18725661179120096 
2.560000000000978, -0.20478961250965533 
2.570000000000999, -0.22092269583410382 
2.58000000000102, -0.23288918918735058 
2.5900000000010412, -0.2404376911284632 
2.6000000000010624, -0.24468264200164863 
2.6100000000010835, -0.2467492033016173 
2.6200000000011046, -0.24732797470354478 
2.6300000000011257, -0.24669505893177607 
2.6400000000011468, -0.2448048661322816 
2.650000000001168, -0.24137626009894939 
2.660000000001189, -0.2360600647195442 
2.67000000000121, -0.22881112483594115 
2.680000000001231, -0.2203246138523665 
2.6900000000012523, -0.211951415472581 
2.7000000000012734, -0.20491374487941966 
2.7100000000012945, -0.1996967916506862 
2.7200000000013156, -0.19616780918990437 
2.7300000000013367, -0.1939741741696247 
2.740000000001358, -0.19278277450689274 
2.750000000001379, -0.1923312140444448 
2.7600000000014, -0.19239537699721576 
2.770000000001421, -0.1927529455804606 
2.780000000001442, -0.1931821770183607 
2.7900000000014633, -0.19349175681124392 
2.8000000000014844, -0.1935445898558027 
2.8100000000015055, -0.1932462027135107 
2.8200000000015266, -0.19249649518800066 
2.8300000000015477, -0.19110281922033762 
2.840000000001569, -0.18859670954822721 
2.85000000000159, -0.1837191939807476 
2.860000000001611, -0.17270752480879076 
2.870000000001632, -0.14336847533858704 
2.8800000000016532, -0.060419519503884765 
2.8900000000016743, 0.1126817500107471 
2.9000000000016954, 0.27950507486545473 
2.9100000000017165, 0.3572324822627642 
2.9200000000017377, 0.3857929715490646 
2.9300000000017588, 0.39675362342544046 
2.94000000000178, 0.401220255994326 
2.950000000001801, 0.4028719937404789 
2.960000000001822, 0.4029896513437931 
2.970000000001843, 0.40201628797610856 
2.9800000000018643, 0.40011311561747254 
2.9900000000018854, 0.3974405031513346 
3.0000000000019065, 0.3943207342099747 
3.0100000000019276, 0.39123340126980405 
3.0200000000019487, 0.3886412378903553 
3.03000000000197, 0.38681569329114385 
3.040000000001991, 0.38580876446597023 
3.050000000002012, 0.3855274311014695 
3.060000000002033, 0.38580209169634194 
3.070000000002054, 0.38641424400878466 
3.0800000000020753, 0.3871107832292763 
3.0900000000020964, 0.387628390547505 
3.1000000000021175, 0.3877101549512422 
3.1100000000021386, 0.38706590797853824 
3.1200000000021597, 0.38521177411720087 
3.130000000002181, 0.3810278702207458 
3.140000000002202, 0.371391883210146 
3.150000000002223, 0.34599440466693265 
3.160000000002244, 0.26413446982697086 
3.1700000000022652, -0.022363018200180256 
3.1800000000022863, -0.5453183196396711 
3.1900000000023074, -0.8365419313053046 
3.2000000000023285, -0.9301135455832978 
3.2100000000023496, -0.960913107107233 
3.2200000000023707, -0.9722641728916693 
3.230000000002392, -0.9766433826420002 
3.240000000002413, -0.9779649622300471 
3.250000000002434, -0.9773909901549717 
3.260000000002455, -0.9747980835343549 
3.2700000000024763, -0.968738803506102 
3.2800000000024974, -0.9550216690396625 
3.2900000000025185, -0.9220232049352619 
3.3000000000025396, -0.8345775990730478 
3.3100000000025607, -0.5235564658080588 
3.3200000000025818, 1.2257965643246131 
3.330000000002603, 1.7552540558393352 
3.340000000002624, 1.7839305935411893 
3.350000000002645, 1.787958627699139 
3.360000000002666, 1.7875335615544494 
3.3700000000026873, 1.7824205804210513 
3.3800000000027084, 1.7520661143078697 
3.3900000000027295, 1.4249288972726724 
3.4000000000027506, 1.1064162932427355 
3.4100000000027717, 1.2227688012196658 
3.420000000002793, 1.249162169197933 
3.430000000002814, 1.255504425877971 
3.440000000002835, 1.2569337816642168 
3.450000000002856, 1.2564391624155349 
3.460000000002877, 1.2548304264286894 
3.4700000000028983, 1.2534730288312972 
3.4800000000029194, 1.2570810546349211 
3.4900000000029405, 1.2698065966673862 
3.5000000000029616, 1.283854423462666 
3.5100000000029827, 1.2920863790688788 
3.520000000003004, 1.295588621067719 
3.530000000003025, 1.2964712386611499 
3.540000000003046, 1.2953554940962593 
3.550000000003067, 1.2903906309703204 
3.5600000000030882, 1.2673922317035038 
3.5700000000031094, 1.0072181309109909 
3.5800000000031305, -2.3746627239643967 
3.5900000000031516, -2.9211260150557634 
3.6000000000031727, -2.9527243550951363 
3.6100000000031938, -2.957114252226069 
3.620000000003215, -2.9571967861961235 
3.630000000003236, -2.9560015862350757 
3.640000000003257, -2.9533086418014274 
3.650000000003278, -2.9482086187881964 
3.6600000000032993, -2.9461680812649087 
3.6700000000033204, -2.947095119860461 
3.6800000000033415, -2.9455943857166584 
3.6900000000033626, -2.9389579563297463 
3.7000000000033837, -2.9431996705639447 
3.710000000003405, -2.964181915883713 
3.720000000003426, -2.9721517357721696 
3.730000000003447, -2.974287646194243 
3.740000000003468, -2.9741548648066947 
3.750000000003489, -2.9713281958910547 
3.7600000000035103, -2.960743955111009 
3.7700000000035314, -2.908365658126119 
3.7800000000035525, -2.2802217599902947 
3.7900000000035736, 0.5894616803104613 
3.8000000000035947, 0.9194917197434898 
3.810000000003616, 0.9551117685732322 
3.820000000003637, 0.9631905603486681 
3.830000000003658, 0.9655634767461022 
3.840000000003679, 0.9661752262928 
3.8500000000037002, 0.9661887198502732 
3.8600000000037213, 0.9661886349317701 
3.8700000000037424, 0.9666602604750809 
3.8800000000037635, 0.9679931714659519 
3.8900000000037847, 0.9702257508064411 
3.9000000000038058, 0.9728805760565384 
3.910000000003827, 0.975259608624721 
3.920000000003848, 0.9769000282723649 
3.930000000003869, 0.9776557842323289 
3.94000000000389, 0.9774368419098332 
3.9500000000039113, 0.975773269095324 
3.9600000000039324, 0.9706523821012999 
3.9700000000039535, 0.9521697688688222 
3.9800000000039746, 0.835408497767553 
3.9900000000039957, -0.8989011514802613 
4.000000000004016, -2.663258355998186 
4.010000000003993, -2.773875108230611 
4.02000000000397, -2.7879496729373328 
4.030000000003946, -2.7903478988365746 
4.040000000003923, -2.7900272080920705 
4.0500000000039, -2.7886567599556717 
4.0600000000038765, -2.7857220039656587 
4.070000000003853, -2.78074048483591 
4.08000000000383, -2.778835568674639 
4.090000000003807, -2.779658948914917 
4.100000000003783, -2.778356193128365 
4.11000000000376, -2.7715222544815195 
4.120000000003737, -2.768165442178638 
4.130000000003713, -2.799280954677353 
4.14000000000369, -2.8160734896657713 
4.150000000003667, -2.8210557985804714 
4.1600000000036434, -2.822356004436708 
4.17000000000362, -2.8215786671431538 
4.180000000003597, -2.8178485683330696 
4.1900000000035735, -2.8061805105022533 
4.20000000000355, -2.7580795784298537 
4.210000000003527, -2.3467039563601833 
4.220000000003504, -0.12873295851700017 
4.23000000000348, 0.5140418880283442 
4.240000000003457, 0.6013996277739022 
4.250000000003434, 0.6221669489015582 
4.26000000000341, 0.6289770045754813 
4.270000000003387, 0.631391063555692 
4.280000000003364, 0.6318846508352578 
4.2900000000033405, 0.6311479171958598 
4.300000000003317, 0.6291821859452023 
4.310000000003294, 0.6255758347103129 
4.320000000003271, 0.6201806906263672 
4.330000000003247, 0.6185637343589553 
4.340000000003224, 0.6535182824237752 
4.350000000003201, 0.7534443800656544 
4.360000000003177, 0.830310512021228 
4.370000000003154, 0.8594742090749514 
4.380000000003131, 0.8692803744858084 
4.390000000003107, 0.8725302909110348 
4.400000000003084, 0.8729864612354339 
4.410000000003061, 0.871305097563204 
4.4200000000030375, 0.8661015164905601 
4.430000000003014, 0.851761297600808 
4.440000000002991, 0.8108424065962069 
4.450000000002968, 0.7205491052301716 
4.460000000002944, 0.6410251202391923 
4.470000000002921, 0.6241935820397716 
4.480000000002898, 0.6278733577942665 
4.490000000002874, 0.6321171955227177 
4.500000000002851, 0.634570483882045 
4.510000000002828, 0.6355960665116034 
4.520000000002804, 0.6354598792458298 
4.530000000002781, 0.6339562070221403 
4.540000000002758, 0.6299669691966882 
4.5500000000027345, 0.6195650948950603 
4.560000000002711, 0.5859395234719538 
4.570000000002688, 0.4174455408156468 
4.580000000002665, -0.9322984740965288 
4.590000000002641, -2.613130340742809 
4.600000000002618, -2.78117966622403 
4.610000000002595, -2.8075642768307194 
4.620000000002571, -2.8143835353565567 
4.630000000002548, -2.8159594898571756 
4.640000000002525, -2.815159288911485 
4.6500000000025015, -2.812099874095649 
4.660000000002478, -2.803680388610462 
4.670000000002455, -2.779064738058168 
4.6800000000024315, -2.7561666080918688 
4.690000000002408, -2.764315116489878 
4.700000000002385, -2.767828601828274 
4.710000000002362, -2.7672394360641532 
4.720000000002338, -2.765742690954359 
4.730000000002315, -2.7685680837061954 
4.740000000002292, -2.7724371934023546 
4.750000000002268, -2.7739486353921095 
4.760000000002245, -2.7742192713928224 
4.770000000002222, -2.773186484329821 
4.7800000000021985, -2.768227436656797 
4.790000000002175, -2.74416824588906 
4.800000000002152, -2.529788840616049 
4.810000000002129, -0.1157151814301663 
4.820000000002105, 0.8323795414164967 
4.830000000002082, 0.9061531714751485 
4.840000000002059, 0.9199653552234551 
4.850000000002035, 0.9238113753190023 
4.860000000002012, 0.9247994008041236 
4.870000000001989, 0.9245478414415386 
4.880000000001965, 0.9235095692523801 
4.890000000001942, 0.9218575639582862 
4.900000000001919, 0.9197938409015951 
4.9100000000018955, 0.9176666683162183 
4.920000000001872, 0.9158817471538564 
4.930000000001849, 0.9146799032889582 
4.940000000001826, 0.9140187713813261 
4.950000000001802, 0.9136484633895584 
