t, s[1].omega / s[0].omega 
0, -1.3610889852777677 
0.009999999999999995, -1.448333382726506 
0.019999999999999934, -1.4997450940802903 
0.029999999999999874, -1.52685012515021 
0.04000000000000012, -1.5397836946768346 
0.050000000000000405, -1.545409982368809 
0.06000000000000069, -1.5474897483071304 
0.07000000000000098, -1.5478567183768273 
0.08000000000000126, -1.5475030567573185 
0.09000000000000155, -1.5472107896726928 
0.10000000000000184, -1.5475039146207292 
0.11000000000000212, -1.5482580941997675 
0.12000000000000241, -1.549004873356885 
0.130000000000002, -1.549557150102295 
0.1400000000000009, -1.5500004237752778 
0.1499999999999998, -1.5503039831355885 
0.1599999999999987, -1.5501867362312525 
0.1699999999999976, -1.5492505627951274 
0.1799999999999965, -1.5470454967748406 
0.1899999999999954, -1.5430609405783637 
0.1999999999999943, -1.5367485934149714 
0.2099999999999932, -1.5274993354979487 
0.2199999999999921, -1.5144139243863086 
0.229999999999991, -1.4957965540273686 
0.2399999999999899, -1.468430321557507 
0.2499999999999888, -1.42740544466705 
0.2599999999999877, -1.3705628462508883 
0.2699999999999866, -1.3122771847717882 
0.2799999999999855, -1.2793208376234868 
0.2899999999999844, -1.2727416841895134 
0.2999999999999833, -1.2752622698252591 
0.3099999999999822, -1.2778958830622522 
0.3199999999999811, -1.2789450494834107 
0.32999999999998, -1.2782720633703193 
0.3399999999999789, -1.2751014751698622 
0.3499999999999778, -1.26626152983177 
0.35999999999997667, -1.2401914434715 
0.36999999999997557, -1.1487655770038105 
0.37999999999997447, -0.7670712811676756 
0.38999999999997337, 0.23876505819720634 
0.39999999999997227, 0.6772367947961868 
0.40999999999997117, 0.7494313633869008 
0.41999999999997006, 0.7659637940603805 
0.42999999999996896, 0.7709622258642208 
0.43999999999996786, 0.7723374435323999 
0.44999999999996676, 0.7719274609147242 
0.45999999999996566, 0.7700127271956263 
0.46999999999996456, 0.766290617494887 
0.47999999999996346, 0.7604082247446333 
0.48999999999996235, 0.7527857462677305 
0.49999999999996125, 0.745165082253475 
0.5099999999999602, 0.7394985665582585 
0.519999999999959, 0.7363132341138796 
0.529999999999958, 0.7348904950361005 
0.5399999999999568, 0.734319028558167 
0.5499999999999557, 0.7339427625590128 
0.5599999999999546, 0.7332811313328377 
0.5699999999999535, 0.7317533588543593 
0.5799999999999524, 0.728079366017379 
0.5899999999999513, 0.7180891338534054 
0.5999999999999502, 0.6820634870300268 
0.6099999999999491, 0.45373541165882914 
0.619999999999948, -1.4710104011969953 
0.6299999999999469, -2.5858288035492656 
0.6399999999999458, -2.6967898434003947 
0.6499999999999447, -2.716816588934681 
0.6599999999999436, -2.7216458398449728 
0.6699999999999425, -2.722295485004362 
0.6799999999999414, -2.7211313550997938 
0.6899999999999403, -2.7182022872632245 
0.6999999999999392, -2.711318038468691 
0.7099999999999381, -2.7008343409432696 
0.719999999999937, -2.6995633955134988 
0.7299999999999359, -2.701794071823922 
0.7399999999999348, -2.7011685031858668 
0.7499999999999337, -2.6972026537053226 
0.7599999999999326, -2.697620667112557 
0.7699999999999315, -2.711196370765241 
0.7799999999999304, -2.719391011296047 
0.7899999999999293, -2.722208563747025 
0.7999999999999282, -2.722832051111474 
0.8099999999999271, -2.7216356927119465 
0.819999999999926, -2.7169349389141955 
0.8299999999999249, -2.7013020561928336 
0.8399999999999238, -2.6316888183486236 
0.8499999999999227, -2.032607756554412 
0.8599999999999216, 0.19922030170008204 
0.8699999999999205, 0.6305989263989317 
0.8799999999999194, 0.6875338891957854 
0.8899999999999183, 0.7014400958810993 
0.8999999999999172, 0.7059909269914422 
0.9099999999999161, 0.7075316955517109 
0.919999999999915, 0.7078191339442839 
0.9299999999999139, 0.707515123783794 
0.9399999999999128, 0.7070705849264576 
0.9499999999999117, 0.707243994256514 
0.9599999999999106, 0.7097750077298521 
0.9699999999999095, 0.7176327982779678 
0.9799999999999084, 0.7321489833877545 
0.9899999999999073, 0.7486271627805191 
0.9999999999999062, 0.7609218175156797 
1.0099999999999052, 0.7678684450078468 
1.019999999999904, 0.7711151219708338 
1.029999999999903, 0.7720876441977474 
1.039999999999902, 0.7712681861777881 
1.0499999999999008, 0.7679225293969989 
1.0599999999998997, 0.7583841008193655 
1.0699999999998986, 0.726951754789863 
1.0799999999998975, 0.599021820804861 
1.0899999999998964, 0.22931157812536673 
1.0999999999998953, -0.03762675241014425 
1.1099999999998942, -0.09951819403670621 
1.119999999999893, -0.11112883843316557 
1.129999999999892, -0.11363945032351193 
1.1399999999998909, -0.11435746083359026 
1.1499999999998898, -0.11464007175961896 
1.1599999999998887, -0.11476184298716816 
1.1699999999998876, -0.11478529662015254 
1.1799999999998865, -0.11473799969982587 
1.1899999999998854, -0.11465989339629487 
1.1999999999998843, -0.11462591436770919 
1.2099999999998832, -0.1147623577372753 
1.219999999999882, -0.11526013605217622 
1.229999999999881, -0.11639556089074587 
1.2399999999998799, -0.1185861250209946 
1.2499999999998788, -0.12252440798578032 
1.2599999999998777, -0.12944214230970683 
1.2699999999998766, -0.14151012141015681 
1.2799999999998755, -0.16199700398466596 
1.2899999999998744, -0.19355262226036643 
1.2999999999998733, -0.23294967752890722 
1.3099999999998722, -0.26932524476673253 
1.319999999999871, -0.294415958004565 
1.32999999999987, -0.3087243193357935 
1.3399999999998689, -0.3161985030402056 
1.3499999999998678, -0.31990250320347147 
1.3599999999998666, -0.321482446275661 
1.3699999999998655, -0.32167223302768194 
1.3799999999998644, -0.32068619699596745 
1.3899999999998633, -0.3184184468818284 
1.3999999999998622, -0.3145822421190028 
1.4099999999998611, -0.308946891926243 
1.41999999999986, -0.30172939104072866 
1.429999999999859, -0.29383824253455504 
1.4399999999998578, -0.2865055514944078 
1.4499999999998567, -0.2805791578004634 
1.4599999999998556, -0.27625761389677095 
1.4699999999998545, -0.2733349424248276 
1.4799999999998534, -0.27149841184196594 
1.4899999999998523, -0.2704629842352848 
1.4999999999998512, -0.26998598074581576 
1.5099999999998501, -0.26984774444435383 
1.519999999999849, -0.26984800469574577 
1.529999999999848, -0.26982449988016466 
1.5399999999998468, -0.26967157811485787 
1.5499999999998457, -0.26934024611682816 
1.5599999999998446, -0.2688244559391145 
1.5699999999998435, -0.2681518363731248 
1.5799999999998424, -0.2673976275533993 
1.5899999999998413, -0.26674450387986676 
1.5999999999998402, -0.2666114518110497 
1.6099999999998391, -0.26762035299894077 
1.619999999999838, -0.2665142290057433 
1.629999999999837, -0.1934864323783228 
1.6399999999998358, 0.6798565501194089 
1.6499999999998347, 1.412257422930368 
1.6599999999998336, 1.4747921468555498 
1.6699999999998325, 1.483993950598077 
1.6799999999998314, 1.485582820971024 
1.6899999999998303, 1.4841561733764947 
1.6999999999998292, 1.4774962020011864 
1.709999999999828, 1.4470516864340344 
1.719999999999827, 1.2801402835228601 
1.729999999999826, 1.1031095150900236 
1.7399999999998248, 1.147096273969042 
1.7499999999998237, 1.1683581157703504 
1.7599999999998226, 1.1747863698297485 
1.7699999999998215, 1.1764785342244994 
1.7799999999998204, 1.1760027996606566 
1.7899999999998193, 1.1736652625784223 
1.7999999999998182, 1.1691808602929183 
1.809999999999817, 1.1663218318363207 
1.819999999999816, 1.184691152182804 
1.8299999999998149, 1.223651818707907 
1.8399999999998138, 1.2475672088329235 
1.8499999999998127, 1.2566024289509419 
1.8599999999998116, 1.2594868419405123 
1.8699999999998105, 1.2596028848937677 
1.8799999999998094, 1.2570518896954173 
1.8899999999998083, 1.2469423402831292 
1.8999999999998072, 1.1877068946421068 
1.909999999999806, 0.3114696140506369 
1.919999999999805, -1.8812866211706551 
1.9299999999998039, -2.153947100463987 
1.9399999999998028, -2.186962467390588 
1.9499999999998017, -2.193333325995174 
1.9599999999998006, -2.1943784192900413 
1.9699999999997995, -2.1939916240251134 
1.9799999999997984, -2.193832687993288 
1.9899999999997973, -2.1942738733654132 
1.9999999999997962, -2.1944176351541937 
2.0099999999998173, -2.1941518376361153 
2.0199999999998384, -2.1939838345802243 
2.0299999999998595, -2.193494505182334 
2.0399999999998806, -2.1912085736999063 
2.0499999999999017, -2.1829587258479566 
2.059999999999923, -2.1485030690249944 
2.069999999999944, -1.9413990777433507 
2.079999999999965, -0.6985894698486604 
2.089999999999986, 0.31175735546539196 
2.100000000000007, 0.47238554767260715 
2.1100000000000283, 0.5064782537179464 
2.1200000000000494, 0.5170583817758932 
2.1300000000000705, 0.5210262165802748 
2.1400000000000916, 0.5225336250663146 
2.1500000000001127, 0.5229362669727973 
2.160000000000134, 0.52280609747851 
2.170000000000155, 0.5224754640954162 
2.180000000000176, 0.522216491696126 
2.190000000000197, 0.5223065134975367 
2.2000000000002182, 0.5230440861321922 
2.2100000000002393, 0.5247101863304465 
2.2200000000002604, 0.5274368066309563 
2.2300000000002815, 0.5310114189605799 
2.2400000000003026, 0.534824524178975 
2.2500000000003237, 0.5381458597104577 
2.260000000000345, 0.5404968632212936 
2.270000000000366, 0.5417300877736909 
2.280000000000387, 0.5418142337713197 
2.290000000000408, 0.5405132730124621 
2.3000000000004293, 0.5368761070823281 
2.3100000000004504, 0.5277591188302382 
2.3200000000004715, 0.5018819714705391 
2.3300000000004926, 0.4129851306732874 
2.3400000000005137, 0.12400852722111186 
2.3500000000005348, -0.26054670230986776 
2.360000000000556, -0.42949954991012956 
2.370000000000577, -0.4835555292892534 
2.380000000000598, -0.5033542359954516 
2.390000000000619, -0.5118837687514847 
2.4000000000006403, -0.5159057919243162 
2.4100000000006614, -0.5177355502400852 
2.4200000000006825, -0.518230652521184 
2.4300000000007036, -0.5176443830809374 
2.4400000000007247, -0.5158952472506777 
2.450000000000746, -0.5126839428696142 
2.460000000000767, -0.5076640514375614 
2.470000000000788, -0.5007909246053882 
2.480000000000809, -0.49268652068178714 
2.49000000000083, -0.4845204027785721 
2.5000000000008513, -0.4773489989857812 
2.5100000000008724, -0.47163784176898976 
2.5200000000008935, -0.46733961308382116 
2.5300000000009146, -0.46418481741211537 
2.5400000000009357, -0.4618747115896292 
2.550000000000957, -0.4601518783107107 
2.560000000000978, -0.45881759270097994 
2.570000000000999, -0.45773917873158176 
2.58000000000102, -0.45685643353616934 
2.5900000000010412, -0.4561857326480217 
2.6000000000010624, -0.4558257040160873 
2.6100000000010835, -0.4559734429208745 
2.6200000000011046, -0.4569602873498392 
2.6300000000011257, -0.45931566201604446 
2.6400000000011468, -0.46387034211768957 
2.650000000001168, -0.4719172625358885 
2.660000000001189, -0.48545651319355076 
2.67000000000121, -0.507551866014132 
2.680000000001231, -0.5427849491605071 
2.6900000000012523, -0.5976123644028936 
2.7000000000012734, -0.6799105210442622 
2.7100000000012945, -0.7960083259892864 
2.7200000000013156, -0.9431209113386299 
2.7300000000013367, -1.0999130362265719 
2.740000000001358, -1.2310061602246094 
2.750000000001379, -1.314547350957765 
2.7600000000014, -1.3569989443226271 
2.770000000001421, -1.37580035586785 
2.780000000001442, -1.3835574998044113 
2.7900000000014633, -1.3864696131869199 
2.8000000000014844, -1.3871704708607628 
2.8100000000015055, -1.3868441529818472 
2.8200000000015266, -1.38639795544361 
2.8300000000015477, -1.3869734238858633 
2.840000000001569, -1.3893789453107308 
2.85000000000159, -1.3931247137147575 
2.860000000001611, -1.3970098860543863 
2.870000000001632, -1.4003141514295157 
2.8800000000016532, -1.4029227177410402 
2.8900000000016743, -1.4049157484999262 
2.9000000000016954, -1.4063375543736938 
2.9100000000017165, -1.407193403037093 
2.9200000000017377, -1.4074956190400436 
2.9300000000017588, -1.4072698601064046 
2.94000000000178, -1.4065327255532956 
2.950000000001801, -1.4052731985202427 
2.960000000001822, -1.4034551395465518 
2.970000000001843, -1.401031795070654 
2.9800000000018643, -1.3979421307529944 
2.9900000000018854, -1.3940764472850165 
3.0000000000019065, -1.3892996764474232 
3.0100000000019276, -1.3837287157635991 
3.0200000000019487, -1.3782477627087328 
3.03000000000197, -1.3744092982037217 
3.040000000001991, -1.3729245747696859 
3.050000000002012, -1.372839867080784 
3.060000000002033, -1.3727905611333835 
3.070000000002054, -1.3718068155317966 
3.0800000000020753, -1.368787402362126 
3.0900000000020964, -1.361252273385666 
3.1000000000021175, -1.342866415035838 
3.1100000000021386, -1.2988485912063243 
3.1200000000021597, -1.2041070757161632 
3.130000000002181, -1.0448322504947358 
3.140000000002202, -0.8564239870976784 
3.150000000002223, -0.6953755301728195 
3.160000000002244, -0.5827256304204245 
3.1700000000022652, -0.5103613289948308 
3.1800000000022863, -0.464862911435577 
3.1900000000023074, -0.4361416626925358 
3.2000000000023285, -0.41782821866520115 
3.2100000000023496, -0.40606857137070246 
3.2200000000023707, -0.3985247617818837 
3.230000000002392, -0.3937526976000666 
3.240000000002413, -0.39084158186906615 
3.250000000002434, -0.38920746211237695 
3.260000000002455, -0.38847430455919596 
3.2700000000024763, -0.3884054536295693 
3.2800000000024974, -0.38886572387813967 
3.2900000000025185, -0.38980408795373084 
3.3000000000025396, -0.3912521124752949 
3.3100000000025607, -0.3933361396459626 
3.3200000000025818, -0.3963043044422523 
3.330000000002603, -0.40057537419108674 
3.340000000002624, -0.4068222527803697 
3.350000000002645, -0.41608852095952714 
3.360000000002666, -0.42983909812193327 
3.3700000000026873, -0.4495512032818872 
3.3800000000027084, -0.47515021720589407 
3.3900000000027295, -0.5029108477852489 
3.4000000000027506, -0.526710487158826 
3.4100000000027717, -0.5430381347443579 
3.420000000002793, -0.5525884637775249 
3.430000000002814, -0.5576161103197648 
3.440000000002835, -0.5599243626645156 
3.450000000002856, -0.5604926912783507 
3.460000000002877, -0.5596342812757071 
3.4700000000028983, -0.5570539202223342 
3.4800000000029194, -0.551553141024598 
3.4900000000029405, -0.5399767725446866 
3.5000000000029616, -0.5144498237137916 
3.5100000000029827, -0.4577627320226186 
3.520000000003004, -0.35040367748412404 
3.530000000003025, -0.21697835629628687 
3.540000000003046, -0.11902125874137537 
3.550000000003067, -0.06744393049641795 
3.5600000000030882, -0.042440225331121344 
3.5700000000031094, -0.029844452585938243 
3.5800000000031305, -0.02307480924610708 
3.5900000000031516, -0.01923316316211338 
3.6000000000031727, -0.016974938567024683 
3.6100000000031938, -0.01561695301708595 
3.620000000003215, -0.014774726004832036 
3.630000000003236, -0.014214676355247303 
3.640000000003257, -0.013792086744500841 
3.650000000003278, -0.013419067730958046 
3.6600000000032993, -0.013037222812957425 
3.6700000000033204, -0.012573345994529351 
3.6800000000033415, -0.01181174042705019 
3.6900000000033626, -0.009890157807518214 
3.7000000000033837, -0.0030235204008738003 
3.710000000003405, 0.025536381653192015 
3.720000000003426, 0.1366845819289385 
3.730000000003447, 0.3649696351874634 
3.740000000003468, 0.5211799014259906 
3.750000000003489, 0.5744830447736862 
3.7600000000035103, 0.5916271069650287 
3.7700000000035314, 0.5977364013034391 
3.7800000000035525, 0.5998238900271549 
3.7900000000035736, 0.5999264455345269 
3.8000000000035947, 0.5985048318732777 
3.810000000003616, 0.5953382996471496 
3.820000000003637, 0.5899112661920907 
3.830000000003658, 0.5820333719476481 
3.840000000003679, 0.5727497693345792 
3.8500000000037002, 0.5642799077382203 
3.8600000000037213, 0.5582981737128448 
3.8700000000037424, 0.5548687142678872 
3.8800000000037635, 0.5531695113381568 
3.8900000000037847, 0.5523827006792088 
3.9000000000038058, 0.5519485420094029 
3.910000000003827, 0.5514852863296001 
3.920000000003848, 0.5506399661805343 
3.930000000003869, 0.5488842073185702 
3.94000000000389, 0.5450456852096852 
3.9500000000039113, 0.5356872540236012 
3.9600000000039324, 0.5073650846270976 
3.9700000000039535, 0.3806773854274641 
3.9800000000039746, -0.5236639696875798 
3.9900000000039957, -2.1471905546248204 
4.000000000004016, -2.425741630882608 
4.010000000003993, -2.467557357132287 
4.02000000000397, -2.4766801676797434 
4.030000000003946, -2.4786506656661915 
4.040000000003923, -2.4784027222257956 
4.0500000000039, -2.477281182660689 
4.0600000000038765, -2.475245599378034 
4.070000000003853, -2.471657818971311 
4.08000000000383, -2.468550397116133 
4.090000000003807, -2.468457012337722 
4.100000000003783, -2.4684098864435313 
4.11000000000376, -2.465364725373148 
4.120000000003737, -2.451892735037483 
4.130000000003713, -2.428244875843963 
4.14000000000369, -2.530201514889913 
4.150000000003667, -2.6013562738042286 
4.1600000000036434, -2.620167673294731 
4.17000000000362, -2.626062190985471 
4.180000000003597, -2.6279250025539787 
4.1900000000035735, -2.6276706773733607 
4.20000000000355, -2.6253673644979623 
4.210000000003527, -2.6194584460523593 
4.220000000003504, -2.6029046698820753 
4.23000000000348, -2.539101108391471 
4.240000000003457, -2.3499952433015734 
4.250000000003434, -2.3369562898093053 
4.26000000000341, -2.36634961979815 
4.270000000003387, -2.372940506538445 
4.280000000003364, -2.373629477686428 
4.2900000000033405, -2.3726181930577996 
4.300000000003317, -2.3729393302389417 
4.310000000003294, -2.375781218964555 
4.320000000003271, -2.3780883980410277 
4.330000000003247, -2.379055571481458 
4.340000000003224, -2.3792963842005386 
4.350000000003201, -2.3785562985148867 
4.360000000003177, -2.3753529488025413 
4.370000000003154, -2.364673600940807 
4.380000000003131, -2.323937554166691 
4.390000000003107, -2.1131028735553885 
4.400000000003084, -0.9765226297101011 
4.410000000003061, 0.13370773863999977 
4.4200000000030375, 0.3460984358509742 
4.430000000003014, 0.39302825340646785 
4.440000000002991, 0.40792730300245444 
4.450000000002968, 0.41375082689205006 
4.460000000002944, 0.4162161393774376 
4.470000000002921, 0.4171777651439578 
4.480000000002898, 0.4173579292572325 
4.490000000002874, 0.4170857538336123 
4.500000000002851, 0.41657367182578386 
4.510000000002828, 0.41615185086983636 
4.520000000002804, 0.4168067091709782 
4.530000000002781, 0.42170217680580013 
4.540000000002758, 0.4388008326177924 
4.5500000000027345, 0.47649302871970595 
4.560000000002711, 0.5227322452463237 
4.570000000002688, 0.5549484822009494 
4.580000000002665, 0.5710347244230574 
4.590000000002641, 0.5781491125304021 
4.600000000002618, 0.581009491663176 
4.610000000002595, 0.5816120142310834 
4.620000000002571, 0.580484729806112 
4.630000000002548, 0.5771562577012866 
4.640000000002525, 0.5699436251433293 
4.6500000000025015, 0.5555188399806339 
4.660000000002478, 0.5306173790348254 
4.670000000002455, 0.4995915211445717 
4.6800000000024315, 0.4755217962026804 
4.690000000002408, 0.4636353567627432 
4.700000000002385, 0.4593533858563489 
4.710000000002362, 0.4581273231780857 
4.720000000002338, 0.4578436447404529 
4.730000000002315, 0.4576997233366499 
4.740000000002292, 0.45734686970145466 
4.750000000002268, 0.4565045967531206 
4.760000000002245, 0.45471847279589667 
4.770000000002222, 0.45095824458794376 
4.7800000000021985, 0.44237413502538053 
4.790000000002175, 0.41905726096074797 
4.800000000002152, 0.3331276020631037 
4.810000000002129, -0.15601986345855995 
4.820000000002105, -1.739004179800847 
4.830000000002082, -2.3016549620641364 
4.840000000002059, -2.3894086811052455 
4.850000000002035, -2.4083688772548353 
4.860000000002012, -2.413224226503948 
4.870000000001989, -2.4140549204499413 
4.880000000001965, -2.4133982092490487 
4.890000000001942, -2.4119908210578176 
4.900000000001919, -2.40942124205551 
4.9100000000018955, -2.4054635683572902 
4.920000000001872, -2.4030566185568194 
4.930000000001849, -2.4033168600015284 
4.940000000001826, -2.402908320409601 
