t, s[1].omega / s[0].omega 
0, -1.2396673960860385 
0.009999999999999995, -1.202952006699722 
0.019999999999999934, -1.15924547175005 
0.029999999999999874, -1.1083378477673271 
0.04000000000000012, -1.051724704994599 
0.050000000000000405, -0.9952102124163991 
0.06000000000000069, -0.9484511358357945 
0.07000000000000098, -0.918456757490433 
0.08000000000000126, -0.9041934075763113 
0.09000000000000155, -0.8995754437980968 
0.10000000000000184, -0.8990631779683194 
0.11000000000000212, -0.8996201013974421 
0.12000000000000241, -0.8999958271070383 
0.130000000000002, -0.8996915115664332 
0.1400000000000009, -0.8983371833193516 
0.1499999999999998, -0.8953759813297328 
0.1599999999999987, -0.8899394337641386 
0.1699999999999976, -0.8810393028597906 
0.1799999999999965, -0.8682785954794598 
0.1899999999999954, -0.8526270297949139 
0.1999999999999943, -0.8361059096010643 
0.2099999999999932, -0.820504833392485 
0.2199999999999921, -0.8066451365716226 
0.229999999999991, -0.7945854531196436 
0.2399999999999899, -0.7840746304863236 
0.2499999999999888, -0.7748366759578318 
0.2599999999999877, -0.7666836927230749 
0.2699999999999866, -0.7595405186273962 
0.2799999999999855, -0.7534294184143964 
0.2899999999999844, -0.7484293595155292 
0.2999999999999833, -0.7446138870236748 
0.3099999999999822, -0.7419822855262761 
0.3199999999999811, -0.7404154737548803 
0.32999999999998, -0.7396841063302884 
0.3399999999999789, -0.7395036004512252 
0.3499999999999778, -0.7396003962781262 
0.35999999999997667, -0.7397576734387548 
0.36999999999997557, -0.7398360415931687 
0.37999999999997447, -0.7397813289503152 
0.38999999999997337, -0.7396237754126542 
0.39999999999997227, -0.7394584698379203 
0.40999999999997117, -0.7394023117187996 
0.41999999999997006, -0.7395436051575796 
0.42999999999996896, -0.7399046412052123 
0.43999999999996786, -0.7404248719144362 
0.44999999999996676, -0.7409706339611553 
0.45999999999996566, -0.7413803111526975 
0.46999999999996456, -0.7415314972302943 
0.47999999999996346, -0.7413904670428539 
0.48999999999996235, -0.7410241442430245 
0.49999999999996125, -0.740597013200657 
0.5099999999999602, -0.7403801116274934 
0.519999999999959, -0.740767166650109 
0.529999999999958, -0.7422612030435127 
0.5399999999999568, -0.7453943184762318 
0.5499999999999557, -0.7505911839086019 
0.5599999999999546, -0.7580540140228923 
0.5699999999999535, -0.7677548687768552 
0.5799999999999524, -0.7795440685889872 
0.5899999999999513, -0.7933036955206065 
0.5999999999999502, -0.809067713916013 
0.6099999999999491, -0.827065444399272 
0.619999999999948, -0.8476481600989653 
0.6299999999999469, -0.8709979518541002 
0.6399999999999458, -0.8964866537827371 
0.6499999999999447, -0.9219230960955436 
0.6599999999999436, -0.9438646200214663 
0.6699999999999425, -0.9597277842788403 
0.6799999999999414, -0.9694419864000162 
0.6899999999999403, -0.974626259046051 
0.6999999999999392, -0.9769942927756988 
0.7099999999999381, -0.9776850902308107 
0.719999999999937, -0.9773321084138178 
0.7299999999999359, -0.9763757866996624 
0.7399999999999348, -0.9755465710600225 
0.7499999999999337, -0.9766448692755997 
0.7599999999999326, -0.9832603716769135 
0.7699999999999315, -0.9997625001622762 
0.7799999999999304, -1.027529798555827 
0.7899999999999293, -1.062585188170564 
0.7999999999999282, -1.0988279797922655 
0.8099999999999271, -1.1323188082957547 
0.819999999999926, -1.161909248342507 
0.8299999999999249, -1.1877835348274688 
0.8399999999999238, -1.2101993185774964 
0.8499999999999227, -1.2289463411557986 
0.8599999999999216, -1.2434787680578374 
0.8699999999999205, -1.2535406784030427 
0.8799999999999194, -1.2596344866162243 
0.8899999999999183, -1.26279741682123 
0.8999999999999172, -1.2640661285987458 
0.9099999999999161, -1.2642182093492849 
0.919999999999915, -1.2638574046808715 
0.9299999999999139, -1.2636064112769048 
0.9399999999999128, -1.2640875933896953 
0.9499999999999117, -1.265554675714235 
0.9599999999999106, -1.2676852533249334 
0.9699999999999095, -1.269951483676482 
0.9799999999999084, -1.2720351300884687 
0.9899999999999073, -1.2738474112516365 
0.9999999999999062, -1.2753599988038242 
1.0099999999999052, -1.2765176930453432 
1.019999999999904, -1.2772628660014864 
1.029999999999903, -1.277576153739187 
1.039999999999902, -1.2774784260331753 
1.0499999999999008, -1.2770014715468694 
1.0599999999998997, -1.2761565303488296 
1.0699999999998986, -1.2749257165793806 
1.0799999999998975, -1.273281202744032 
1.0899999999998964, -1.2712132585532419 
1.0999999999998953, -1.268737209551914 
1.1099999999998942, -1.2658683438477236 
1.119999999999893, -1.2626153017937798 
1.129999999999892, -1.2590855082317183 
1.1399999999998909, -1.2556784385803217 
1.1499999999998898, -1.25306854350838 
1.1599999999998887, -1.2517026753595772 
1.1699999999998876, -1.251320358235218 
1.1799999999998865, -1.251202041671893 
1.1899999999998854, -1.2506495212440976 
1.1999999999998843, -1.2490286989719444 
1.2099999999998832, -1.2455114633416025 
1.219999999999882, -1.2388668084837122 
1.229999999999881, -1.2276150773698329 
1.2399999999998799, -1.2107206793390426 
1.2499999999998788, -1.1882725644225811 
1.2599999999998777, -1.1612156970043934 
1.2699999999998766, -1.13041292695415 
1.2799999999998755, -1.096173224559069 
1.2899999999998744, -1.0586637346011696 
1.2999999999998733, -1.0190126682337008 
1.3099999999998722, -0.9805369640280883 
1.319999999999871, -0.9484978520748418 
1.32999999999987, -0.9270577752588995 
1.3399999999998689, -0.9161463248024001 
1.3499999999998678, -0.9122722213483494 
1.3599999999998666, -0.9116770135165663 
1.3699999999998655, -0.9120197078716163 
1.3799999999998644, -0.9122130805173561 
1.3899999999998633, -0.911758671342219 
1.3999999999998622, -0.9102608081834065 
1.4099999999998611, -0.9071661093534933 
1.41999999999986, -0.9017068051098214 
1.429999999999859, -0.893174189977352 
1.4399999999998578, -0.8815547846525889 
1.4499999999998567, -0.8679341146190798 
1.4599999999998556, -0.8539484121906977 
1.4699999999998545, -0.8408288037601073 
1.4799999999998534, -0.8290588011775032 
1.4899999999998523, -0.8186198604728098 
1.4999999999998512, -0.8093148887435543 
1.5099999999998501, -0.8009566244367005 
1.519999999999849, -0.7934432918375129 
1.529999999999848, -0.7867763344810151 
1.5399999999998468, -0.7810461236624665 
1.5499999999998457, -0.7763879029014252 
1.5599999999998446, -0.7729085002908453 
1.5699999999998435, -0.7706065911089972 
1.5799999999998424, -0.7693320653064769 
1.5899999999998413, -0.7688147558037353 
1.5999999999998402, -0.7687417861571548 
1.6099999999998391, -0.7688319799724146 
1.619999999999838, -0.768876547263609 
1.629999999999837, -0.7687530089006639 
1.6399999999998358, -0.7684303665853881 
1.6499999999998347, -0.767965296344565 
1.6599999999998336, -0.7674738702162143 
1.6699999999998325, -0.7670787418468218 
1.6799999999998314, -0.7668571696832988 
1.6899999999998303, -0.7668122679958049 
1.6999999999998292, -0.7668715557538873 
1.709999999999828, -0.7669130269418597 
1.719999999999827, -0.7668160291151105 
1.729999999999826, -0.7665157481770677 
1.7399999999998248, -0.7660342141510139 
1.7499999999998237, -0.765485553248417 
1.7599999999998226, -0.7650719211501202 
1.7699999999998215, -0.7650732048014116 
1.7799999999998204, -0.76581264825421 
1.7899999999998193, -0.7675862975515578 
1.7999999999998182, -0.7705805110879689 
1.809999999999817, -0.7748300344134091 
1.819999999999816, -0.7802472943391038 
1.8299999999998149, -0.7867008279494224 
1.8399999999998138, -0.7940958103117136 
1.8499999999998127, -0.8024273454146634 
1.8599999999998116, -0.8118020079457645 
1.8699999999998105, -0.8224253818239436 
1.8799999999998094, -0.8345297205064922 
1.8899999999998083, -0.8481802886307431 
1.8999999999998072, -0.8629186189779118 
1.909999999999806, -0.8774445034027722 
1.919999999999805, -0.8899196439137805 
1.9299999999998039, -0.8990371616128636 
1.9399999999998028, -0.9047327103195443 
1.9499999999998017, -0.9077804063268331 
1.9599999999998006, -0.9090503433459279 
1.9699999999997995, -0.9091656857566234 
1.9799999999997984, -0.9085366804525853 
1.9899999999997973, -0.9076040865443573 
1.9999999999997962, -0.9073135237340854 
2.0099999999998173, -0.9098800277650323 
2.0199999999998384, -0.9193589396986178 
2.0299999999998595, -0.9404493388488543 
2.0399999999998806, -0.9747487536553017 
2.0499999999999017, -1.0182299657389504 
2.059999999999923, -1.064113483792796 
2.069999999999944, -1.10748207438031 
2.079999999999965, -1.1464668433508087 
2.089999999999986, -1.1808091810187424 
2.100000000000007, -1.2103365084628581 
2.1100000000000283, -1.23434572932466 
2.1200000000000494, -1.2520488958408023 
2.1300000000000705, -1.2635402198592562 
2.1400000000000916, -1.2700545116247557 
2.1500000000001127, -1.2732372285377114 
2.160000000000134, -1.2744237526951543 
2.170000000000155, -1.2744942686887226 
2.180000000000176, -1.2741026802044668 
2.190000000000197, -1.2739461506833232 
2.2000000000002182, -1.2747206495384888 
2.2100000000002393, -1.2766494746780284 
2.2200000000002604, -1.2792787405826613 
2.2300000000002815, -1.281976331766715 
2.2400000000003026, -1.284395786977336 
2.2500000000003237, -1.2864567655193722 
2.260000000000345, -1.288147793868181 
2.270000000000366, -1.289436250470057 
2.280000000000387, -1.2902902905188192 
2.290000000000408, -1.2907105945300716 
2.3000000000004293, -1.290724400068739 
2.3100000000004504, -1.290355635808353 
2.3200000000004715, -1.2896015915452477 
2.3300000000004926, -1.2884361291596695 
2.3400000000005137, -1.2868362176295385 
2.3500000000005348, -1.284807301334832 
2.360000000000556, -1.2823784331553894 
2.370000000000577, -1.2795679981401191 
2.380000000000598, -1.2763915659505947 
2.390000000000619, -1.2730019850351273 
2.4000000000006403, -1.269874724682381 
2.4100000000006614, -1.267678397188495 
2.4200000000006825, -1.266689417146035 
2.4300000000007036, -1.2664718372242896 
2.4400000000007247, -1.2662804060090154 
2.450000000000746, -1.2654458085408726 
2.460000000000767, -1.2632857326256839 
2.470000000000788, -1.2588126766611587 
2.480000000000809, -1.2505813696784354 
2.49000000000083, -1.237006744944019 
2.5000000000008513, -1.2172008711877806 
2.5100000000008724, -1.1914982831819358 
2.5200000000008935, -1.1608786414620818 
2.5300000000009146, -1.1260190987228968 
2.5400000000009357, -1.0871076779825406 
2.550000000000957, -1.0446450175632176 
2.560000000000978, -1.0009057816863964 
2.570000000000999, -0.9608904771615417 
2.58000000000102, -0.9305412534244579 
2.5900000000010412, -0.9125294123140424 
2.6000000000010624, -0.9045985883574357 
2.6100000000010835, -0.9023609623970892 
2.6200000000011046, -0.9023518965741946 
2.6300000000011257, -0.9027469660155211 
2.6400000000011468, -0.9027605312453876 
2.650000000001168, -0.9019858710200023 
2.660000000001189, -0.8999994779677436 
2.67000000000121, -0.8961751969768967 
2.680000000001231, -0.8897300835927606 
2.6900000000012523, -0.8801458614701104 
2.7000000000012734, -0.8678152058928991 
2.7100000000012945, -0.8541282380627129 
2.7200000000013156, -0.8406480680934634 
2.7300000000013367, -0.8283146769259562 
2.740000000001358, -0.8173764947195595 
2.750000000001379, -0.8077122066713518 
2.7600000000014, -0.799108349872621 
2.770000000001421, -0.7913965290846906 
2.780000000001442, -0.7845004235581259 
2.7900000000014633, -0.7784393929504559 
2.8000000000014844, -0.7733061360141035 
2.8100000000015055, -0.7692186334901556 
2.8200000000015266, -0.7662502404103125 
2.8300000000015477, -0.7643635174842799 
2.840000000001569, -0.7633876048172061 
2.85000000000159, -0.7630566019575424 
2.860000000001611, -0.7630820376275835 
2.870000000001632, -0.7632153601978184 
2.8800000000016532, -0.763280684835511 
2.8900000000016743, -0.7631872836133199 
2.9000000000016954, -0.762933484712659 
2.9100000000017165, -0.7625958987216813 
2.9200000000017377, -0.7622926603029045 
2.9300000000017588, -0.7621301176614004 
2.94000000000178, -0.7621582312433379 
2.950000000001801, -0.7623492424407299 
2.960000000001822, -0.7626024998952696 
2.970000000001843, -0.762779450424057 
2.9800000000018643, -0.7627620500388528 
2.9900000000018854, -0.7625048979612054 
3.0000000000019065, -0.7620568441048914 
3.0100000000019276, -0.7615610364901297 
3.0200000000019487, -0.7612534615595208 
3.03000000000197, -0.7614568527677599 
3.040000000001991, -0.7625441806882403 
3.050000000002012, -0.7648567989391102 
3.060000000002033, -0.7686075358227995 
3.070000000002054, -0.7738326346943204 
3.0800000000020753, -0.7804290668946836 
3.0900000000020964, -0.7882498001818149 
3.1000000000021175, -0.7972000001521863 
3.1100000000021386, -0.8072984350072738 
3.1200000000021597, -0.8186967073804616 
3.130000000002181, -0.831647778509533 
3.140000000002202, -0.8463802543876664 
3.150000000002223, -0.8627965100551636 
3.160000000002244, -0.8800047025734526 
3.1700000000022652, -0.8961211213004006 
3.1800000000022863, -0.9090583397103525 
3.1900000000023074, -0.917862803869822 
3.2000000000023285, -0.9230131971244478 
3.2100000000023496, -0.9255837848806729 
3.2200000000023707, -0.926501495305178 
3.230000000002392, -0.9263590671732684 
3.240000000002413, -0.9255580496968479 
3.250000000002434, -0.9246416567624269 
3.260000000002455, -0.9248972015439115 
3.2700000000024763, -0.9291898932867083 
3.2800000000024974, -0.9421006506770659 
3.2900000000025185, -0.9675643664656233 
3.3000000000025396, -1.0048271773239015 
3.3100000000025607, -1.0480859894104833 
3.3200000000025818, -1.0910449076803155 
3.330000000002603, -1.1303304148708855 
3.340000000002624, -1.1651325056296553 
3.350000000002645, -1.1955121006798017 
3.360000000002666, -1.2212449774702387 
3.3700000000026873, -1.241615885691194 
3.3800000000027084, -1.2560922300929838 
3.3900000000027295, -1.265116905374089 
3.4000000000027506, -1.2700173660618708 
3.4100000000027717, -1.27225113610537 
3.420000000002793, -1.272909061366518 
3.430000000002814, -1.2727262804350525 
3.440000000002835, -1.2723383231520056 
3.450000000002856, -1.2724557643063392 
3.460000000002877, -1.2736313869074976 
3.4700000000028983, -1.275805155148317 
3.4800000000029194, -1.278402032263586 
3.4900000000029405, -1.2809006844178472 
3.5000000000029616, -1.2830907577587707 
3.5100000000029827, -1.2849381928692867 
3.520000000003004, -1.2864196279488898 
3.530000000003025, -1.2874907700722862 
3.540000000003046, -1.2881253217151603 
3.550000000003067, -1.2883344389322748 
3.5600000000030882, -1.2881483184984086 
3.5700000000031094, -1.2875843984655957 
3.5800000000031305, -1.2866311060063202 
3.5900000000031516, -1.2852600194248107 
3.6000000000031727, -1.2834549542644462 
3.6100000000031938, -1.2812293236449317 
3.620000000003215, -1.2786084411572465 
3.630000000003236, -1.2756005988723473 
3.640000000003257, -1.2722493809473967 
3.650000000003278, -1.2688173755136396 
3.6600000000032993, -1.2659045861183453 
3.6700000000033204, -1.2641214445825162 
3.6800000000033415, -1.2634790806020892 
3.6900000000033626, -1.2633562063169375 
3.7000000000033837, -1.263011567403663 
3.710000000003405, -1.2618001130896865 
3.720000000003426, -1.258965772457508 
3.730000000003447, -1.2533604418501505 
3.740000000003468, -1.2434186362140187 
3.750000000003489, -1.2276928568791496 
3.7600000000035103, -1.20572621669229 
3.7700000000035314, -1.17822183786505 
3.7800000000035525, -1.1461775387824877 
3.7900000000035736, -1.1101050025494485 
3.8000000000035947, -1.0701887487696902 
3.810000000003616, -1.0273473420798165 
3.820000000003637, -0.9846809135242213 
3.830000000003658, -0.9477359885658581 
3.840000000003679, -0.9216996956740445 
3.8500000000037002, -0.907535777009536 
3.8600000000037213, -0.9019519600983191 
3.8700000000037424, -0.9007158992255209 
3.8800000000037635, -0.9009547286999924 
3.8900000000037847, -0.9012741642071701 
3.9000000000038058, -0.9010708703857956 
3.910000000003827, -0.8999650214700627 
3.920000000003848, -0.8974847656912983 
3.930000000003869, -0.8929487317274791 
3.94000000000389, -0.8856213886530204 
3.9500000000039113, -0.875244718428314 
3.9600000000039324, -0.8625755846173224 
3.9700000000039535, -0.8491349664041795 
3.9800000000039746, -0.8362880036277524 
3.9900000000039957, -0.8246976292991693 
4.000000000004016, -0.8144469393766011 
4.010000000003993, -0.8053652851981822 
4.02000000000397, -0.7972502550101043 
4.030000000003946, -0.7899652241685767 
4.040000000003923, -0.7834677080106507 
4.0500000000039, -0.7778042151364738 
4.0600000000038765, -0.7730812177658895 
4.070000000003853, -0.7694107846869815 
4.08000000000383, -0.7668394732181649 
4.090000000003807, -0.7652920252082362 
4.100000000003783, -0.7645668679722404 
4.11000000000376, -0.7643881370466026 
4.120000000003737, -0.7644782738772368 
4.130000000003713, -0.7646116942538027 
4.14000000000369, -0.7646400158771722 
4.150000000003667, -0.7645017365717942 
4.1600000000036434, -0.7642229041895736 
4.17000000000362, -0.7638983792599792 
4.180000000003597, -0.7636474177791506 
4.1900000000035735, -0.7635607366542014 
4.20000000000355, -0.7636629322631359 
4.210000000003527, -0.7638994668854309 
4.220000000003504, -0.7641511486482887 
4.23000000000348, -0.7642791354164625 
4.240000000003457, -0.7641854015277545 
4.250000000003434, -0.7638557834169577 
4.26000000000341, -0.7633717688750805 
4.270000000003387, -0.7629083763960078 
4.280000000003364, -0.7627329087556449 
4.2900000000033405, -0.7631914856270209 
4.300000000003317, -0.7646564503655282 
4.310000000003294, -0.7674329192731486 
4.320000000003271, -0.7716714008551578 
4.330000000003247, -0.7773487977927762 
4.340000000003224, -0.7843322597534828 
4.350000000003201, -0.792481042960093 
4.360000000003177, -0.8017324171669233 
4.370000000003154, -0.8121478426731941 
4.380000000003131, -0.8239163682252384 
4.390000000003107, -0.8372987537249621 
4.400000000003084, -0.8524540696479159 
4.410000000003061, -0.869073855711281 
4.4200000000030375, -0.8859365224212754 
4.430000000003014, -0.9009819576240845 
4.440000000002991, -0.9124076372392003 
4.450000000002968, -0.9197899028593056 
4.460000000002944, -0.9239028728101314 
4.470000000002921, -0.9258069284958491 
4.480000000002898, -0.9263041933663916 
4.490000000002874, -0.9258932960454868 
4.500000000002851, -0.9249771527376793 
4.510000000002828, -0.9242715737868485 
4.520000000002804, -0.9255086672640763 
4.530000000002781, -0.9321830792771424 
4.540000000002758, -0.9489929676264062 
4.5500000000027345, -0.9785715981503271 
4.560000000002711, -1.018168734612482 
4.570000000002688, -1.0613551555504042 
4.580000000002665, -1.102793011735614 
4.590000000002641, -1.1402037331363788 
4.600000000002618, -1.1732526428622472 
4.610000000002595, -1.2019702648691744 
4.620000000002571, -1.2259196933577157 
4.630000000002548, -1.2443169566980303 
4.640000000002525, -1.2568709428605886 
4.6500000000025015, -1.2643613017230098 
4.660000000002478, -1.2682350918954417 
4.670000000002455, -1.2698519091653653 
4.6800000000024315, -1.2701638783730387 
4.690000000002408, -1.2698408463876696 
4.700000000002385, -1.2695380292749878 
4.710000000002362, -1.2699674952561892 
4.720000000002338, -1.2715274472819913 
4.730000000002315, -1.2739446278997897 
4.740000000002292, -1.2765964378141814 
4.750000000002268, -1.2790511263571243 
4.760000000002245, -1.2811733706411668 
4.770000000002222, -1.2829444453474808 
4.7800000000021985, -1.2843345124326933 
4.790000000002175, -1.285303503605182 
4.800000000002152, -1.2858391269149068 
4.810000000002129, -1.2859626800217951 
4.820000000002105, -1.2857029928020407 
4.830000000002082, -1.285067477441465 
4.840000000002059, -1.284035606855246 
4.850000000002035, -1.2825797495653368 
4.860000000002012, -1.2806946872421348 
4.870000000001989, -1.2784055973593396 
4.880000000001965, -1.2757400756108879 
4.890000000001942, -1.2727092503859097 
4.900000000001919, -1.2693960876164758 
4.9100000000018955, -1.266148241193016 
4.920000000001872, -1.2636011241281875 
4.930000000001849, -1.262225633273122 
