t, s[1].omega / s[0].omega 
0, -0.9799730589208309 
0.009999999999999995, -0.9772783902729149 
0.019999999999999934, -0.9745987081632539 
0.029999999999999874, -0.9719199277077804 
0.04000000000000012, -0.969215736156535 
0.050000000000000405, -0.9664836965095212 
0.06000000000000069, -0.9637569873473014 
0.07000000000000098, -0.9610966292385758 
0.08000000000000126, -0.9585847231545674 
0.09000000000000155, -0.9563328326344271 
0.10000000000000184, -0.9544872829049817 
0.11000000000000212, -0.9531913550952658 
0.12000000000000241, -0.952500059767195 
0.130000000000002, -0.952314758574915 
0.1400000000000009, -0.9524076057244434 
0.1499999999999998, -0.9525128548816942 
0.1599999999999987, -0.9524075736570726 
0.1699999999999976, -0.9519517651340305 
0.1799999999999965, -0.9511063927036849 
0.1899999999999954, -0.9499339189523315 
0.1999999999999943, -0.9485627230281519 
0.2099999999999932, -0.9471210789046335 
0.2199999999999921, -0.9456820924471175 
0.229999999999991, -0.9442501686653394 
0.2399999999999899, -0.9427857007301496 
0.2499999999999888, -0.9412481587396714 
0.2599999999999877, -0.939635113577963 
0.2699999999999866, -0.937998384124571 
0.2799999999999855, -0.9364304263715851 
0.2899999999999844, -0.9350308465941726 
0.2999999999999833, -0.9338771736465112 
0.3099999999999822, -0.933020789230716 
0.3199999999999811, -0.9325005569039982 
0.32999999999998, -0.932343047343654 
0.3399999999999789, -0.9325352699199614 
0.3499999999999778, -0.9329970653187795 
0.35999999999997667, -0.9335902910031845 
0.36999999999997557, -0.9341649949687627 
0.37999999999997447, -0.9346105767539463 
0.38999999999997337, -0.9348859765918348 
0.39999999999997227, -0.9350198975165117 
0.40999999999997117, -0.9350810789549472 
0.41999999999997006, -0.9351311559913322 
0.42999999999996896, -0.9351839163468414 
0.43999999999996786, -0.9351910195687783 
0.44999999999996676, -0.9350623973189128 
0.45999999999996566, -0.9347144075640405 
0.46999999999996456, -0.9341205781821136 
0.47999999999996346, -0.933338609629925 
0.48999999999996235, -0.9325072709714621 
0.49999999999996125, -0.9318164005647877 
0.5099999999999602, -0.931450203815346 
0.519999999999959, -0.931521905355243 
0.529999999999958, -0.9320439386856357 
0.5399999999999568, -0.9329557580635885 
0.5499999999999557, -0.9341745905930157 
0.5599999999999546, -0.9356219386138894 
0.5699999999999535, -0.9372207704802357 
0.5799999999999524, -0.9388920550618254 
0.5899999999999513, -0.9405694361223749 
0.5999999999999502, -0.9422217672245663 
0.6099999999999491, -0.9438610135014566 
0.619999999999948, -0.9455232308203673 
0.6299999999999469, -0.9472277366436952 
0.6399999999999458, -0.9489324801364389 
0.6499999999999447, -0.950512006919823 
0.6599999999999436, -0.9517859152732877 
0.6699999999999425, -0.952597244120434 
0.6799999999999414, -0.9528886660622966 
0.6899999999999403, -0.9527256003723998 
0.6999999999999392, -0.9522801463766909 
0.7099999999999381, -0.9518152809416522 
0.719999999999937, -0.9516608989289732 
0.7299999999999359, -0.9521345774609971 
0.7399999999999348, -0.9534124161659674 
0.7499999999999337, -0.95545356689141 
0.7599999999999326, -0.9580588672100137 
0.7699999999999315, -0.9610000720439086 
0.7799999999999304, -0.9641053190851953 
0.7899999999999293, -0.9672716530854821 
0.7999999999999282, -0.9704473853909835 
0.8099999999999271, -0.9736201816477855 
0.819999999999926, -0.9768092779564853 
0.8299999999999249, -0.9800432671706225 
0.8399999999999238, -0.98331506562247 
0.8499999999999227, -0.9865275087516336 
0.8599999999999216, -0.9894688795402328 
0.8699999999999205, -0.9918673990324199 
0.8799999999999194, -0.9935167174917255 
0.8899999999999183, -0.994373436794006 
0.8999999999999172, -0.9945536362439038 
0.9099999999999161, -0.9942801049021887 
0.919999999999915, -0.9938620431880709 
0.9299999999999139, -0.9937005005920151 
0.9399999999999128, -0.9942291276881766 
0.9499999999999117, -0.9957397790448054 
0.9599999999999106, -0.9982213316854065 
0.9699999999999095, -1.0013985514683055 
0.9799999999999084, -1.004930335935347 
0.9899999999999073, -1.0085647655395689 
0.9999999999999062, -1.0121671976289508 
1.0099999999999052, -1.0156832385578203 
1.019999999999904, -1.0191054121045355 
1.029999999999903, -1.022454649006469 
1.039999999999902, -1.0257555044981395 
1.0499999999999008, -1.0289928694353256 
1.0599999999998997, -1.032064468342743 
1.0699999999998986, -1.0347693441731722 
1.0799999999998975, -1.03687203003211 
1.0899999999998964, -1.0382185738079603 
1.0999999999998953, -1.0388104254920887 
1.1099999999998942, -1.0387903215841745 
1.119999999999893, -1.038399405702691 
1.129999999999892, -1.037961524319623 
1.1399999999998909, -1.037857185087495 
1.1499999999998898, -1.0384102304223366 
1.1599999999998887, -1.0397258598275165 
1.1699999999998876, -1.04165345671044 
1.1799999999998865, -1.043928240653787 
1.1899999999998854, -1.0463296212752096 
1.1999999999998843, -1.048726738227507 
1.2099999999998832, -1.051044441100596 
1.219999999999882, -1.053232803177515 
1.229999999999881, -1.055267338992469 
1.2399999999998799, -1.0571545553407327 
1.2499999999998788, -1.0589164731540595 
1.2599999999998777, -1.06055446989118 
1.2699999999998766, -1.0620145373323036 
1.2799999999998755, -1.063183209778408 
1.2899999999998744, -1.0639307977119414 
1.2999999999998733, -1.0641808457852906 
1.3099999999998722, -1.0639574228287505 
1.319999999999871, -1.0633900532330933 
1.32999999999987, -1.0626936054333647 
1.3399999999998689, -1.0621232865051105 
1.3499999999998678, -1.0618868590413513 
1.3599999999998666, -1.0620560176269354 
1.3699999999998655, -1.06256875822231 
1.3799999999998644, -1.063321181553029 
1.3899999999998633, -1.0642386129809025 
1.3999999999998622, -1.0652643094095178 
1.4099999999998611, -1.0663158212860049 
1.41999999999986, -1.0672808041454058 
1.429999999999859, -1.0680573470599164 
1.4399999999998578, -1.0685948045954228 
1.4499999999998567, -1.0689031201080024 
1.4599999999998556, -1.0690276850857885 
1.4699999999998545, -1.0690067551321294 
1.4799999999998534, -1.068838065027737 
1.4899999999998523, -1.068475573761453 
1.4999999999998512, -1.0678595687836716 
1.5099999999998501, -1.0669627016607532 
1.519999999999849, -1.0658239323304435 
1.529999999999848, -1.064550470334557 
1.5399999999998468, -1.0632827027648728 
1.5499999999998457, -1.062137487868269 
1.5599999999998446, -1.0611753364978502 
1.5699999999998435, -1.0604268614652363 
1.5799999999998424, -1.0599401135052577 
1.5899999999998413, -1.0597712169172868 
1.5999999999998402, -1.0599103770783895 
1.6099999999998391, -1.0602304113077108 
1.619999999999838, -1.0605238024618768 
1.629999999999837, -1.0605865430563335 
1.6399999999998358, -1.060280766009711 
1.6499999999998347, -1.0595622990708506 
1.6599999999998336, -1.0584783536820639 
1.6699999999998325, -1.0571299812149124 
1.6799999999998314, -1.0556127307327914 
1.6899999999998303, -1.0539734055370764 
1.6999999999998292, -1.0522069499679152 
1.709999999999828, -1.050286440975966 
1.719999999999827, -1.0482020229167728 
1.729999999999826, -1.045983344624919 
1.7399999999998248, -1.0436931105795924 
1.7499999999998237, -1.0414054211305972 
1.7599999999998226, -1.0392031640701413 
1.7699999999998215, -1.037208394033985 
1.7799999999998204, -1.0355994380126368 
1.7899999999998193, -1.034545442422327 
1.7999999999998182, -1.034075883393419 
1.809999999999817, -1.0340162551394672 
1.819999999999816, -1.0340647226870894 
1.8299999999998149, -1.0339172762942448 
1.8399999999998138, -1.0333382811461083 
1.8499999999998127, -1.0321863715062973 
1.8599999999998116, -1.0304382792372992 
1.8699999999998105, -1.0281954488151395 
1.8799999999998094, -1.0256332534556225 
1.8899999999998083, -1.02291268465601 
1.8999999999998072, -1.0201213618102893 
1.909999999999806, -1.0172739194443372 
1.919999999999805, -1.0143499571275874 
1.9299999999998039, -1.0113353378076575 
1.9399999999998028, -1.0082444608431644 
1.9499999999998017, -1.0051221374694712 
1.9599999999998006, -1.0020455749853254 
1.9699999999997995, -0.9991459524238868 
1.9799999999997984, -0.9966289467426332 
1.9899999999997973, -0.9947319602683388 
1.9999999999997962, -0.9935934629604436 
2.0099999999998173, -0.993131855371551 
2.0199999999998384, -0.9930646030690171 
2.0299999999998595, -0.9930424560218327 
2.0399999999998806, -0.9927619406533491 
2.0499999999999017, -0.9920045153506811 
2.059999999999923, -0.9906521776591971 
2.069999999999944, -0.9887135766338793 
2.079999999999965, -0.9863252485830023 
2.089999999999986, -0.9836870936445766 
2.100000000000007, -0.9809673849486741 
2.1100000000000283, -0.978249298946188 
2.1200000000000494, -0.9755399240861558 
2.1300000000000705, -0.9728132602203793 
2.1400000000000916, -0.9700535474016453 
2.1500000000001127, -0.967278202538117 
2.160000000000134, -0.9645369619147438 
2.170000000000155, -0.9619028365966507 
2.180000000000176, -0.9594753250179062 
2.190000000000197, -0.9573920978302661 
2.2000000000002182, -0.9558120350892757 
2.2100000000002393, -0.9548421089500193 
2.2200000000002604, -0.954449666387637 
2.2300000000002815, -0.9544465583430265 
2.2400000000003026, -0.9545648261647364 
2.2500000000003237, -0.9545518080947808 
2.260000000000345, -0.9542261558535989 
2.270000000000366, -0.9535021151982273 
2.280000000000387, -0.9524000029594314 
2.290000000000408, -0.9510289225550457 
2.3000000000004293, -0.9495295863994386 
2.3100000000004504, -0.9480073539892757 
2.3200000000004715, -0.9464983499628158 
2.3300000000004926, -0.9449796075712692 
2.3400000000005137, -0.9434071480031749 
2.3500000000005348, -0.9417592992455808 
2.360000000000556, -0.9400640000733441 
2.370000000000577, -0.9383974661935813 
2.380000000000598, -0.9368573517400772 
2.390000000000619, -0.9355301969280239 
2.4000000000006403, -0.9344779841232806 
2.4100000000006614, -0.9337479807228621 
2.4200000000006825, -0.9333796526183956 
2.4300000000007036, -0.933383645172194 
2.4400000000007247, -0.9337068964093934 
2.450000000000746, -0.9342253793519824 
2.460000000000767, -0.9347811724018236 
2.470000000000788, -0.9352377401026255 
2.480000000000809, -0.935520957448983 
2.49000000000083, -0.9356321856574 
2.5000000000008513, -0.9356304208906405 
2.5100000000008724, -0.9355894811729172 
2.5200000000008935, -0.935550893843909 
2.5300000000009146, -0.9354964508598916 
2.5400000000009357, -0.9353535790857308 
2.550000000000957, -0.9350330184324681 
2.560000000000978, -0.9344811803153249 
2.570000000000999, -0.9337189029385675 
2.58000000000102, -0.9328507496021503 
2.5900000000010412, -0.9320456934834136 
2.6000000000010624, -0.9314905819825965 
2.6100000000010835, -0.9313259737277967 
2.6200000000011046, -0.9316008437563342 
2.6300000000011257, -0.9322807961482852 
2.6400000000011468, -0.9332939993858534 
2.650000000001168, -0.9345661635270947 
2.660000000001189, -0.9360236278284629 
2.67000000000121, -0.9375862578296564 
2.680000000001231, -0.939176493132058 
2.6900000000012523, -0.9407434680427167 
2.7000000000012734, -0.942280494299145 
2.7100000000012945, -0.9438178573530951 
2.7200000000013156, -0.9453896013761804 
2.7300000000013367, -0.9469881319279079 
2.740000000001358, -0.9485294426810752 
2.750000000001379, -0.9498567893246948 
2.7600000000014, -0.9507985286453323 
2.770000000001421, -0.9512507420900225 
2.780000000001442, -0.9512255533434425 
2.7900000000014633, -0.9508488127009131 
2.8000000000014844, -0.9503425666765166 
2.8100000000015055, -0.9500075683601354 
2.8200000000015266, -0.9501696632454661 
2.8300000000015477, -0.9510661850637234 
2.840000000001569, -0.9527403978369209 
2.85000000000159, -0.9550483134863536 
2.860000000001611, -0.9577699683914268 
2.870000000001632, -0.9607154490469435 
2.8800000000016532, -0.9637605075180963 
2.8900000000016743, -0.9668353907229831 
2.9000000000016954, -0.9699108949106454 
2.9100000000017165, -0.9729930008808539 
2.9200000000017377, -0.9761100909214735 
2.9300000000017588, -0.9792781359762441 
2.94000000000178, -0.9824476843145173 
2.950000000001801, -0.9854602511807086 
2.960000000001822, -0.9880628117640111 
2.970000000001843, -0.9900072093425649 
2.9800000000018643, -0.9911724702839114 
2.9900000000018854, -0.9916073736790338 
3.0000000000019065, -0.9914897796492446 
3.0100000000019276, -0.9910875994493427 
3.0200000000019487, -0.9907600384397199 
3.03000000000197, -0.9909380462259014 
3.040000000001991, -0.9919974017882186 
3.050000000002012, -0.9940682091313324 
3.060000000002033, -0.9969748160958677 
3.070000000002054, -1.0003838375266447 
3.0800000000020753, -1.003996657230053 
3.0900000000020964, -1.007630722054951 
3.1000000000021175, -1.0112013876079455 
3.1100000000021386, -1.0146831731061776 
3.1200000000021597, -1.0180868177243327 
3.130000000002181, -1.0214398038527202 
3.140000000002202, -1.0247507598478784 
3.150000000002223, -1.0279595865573614 
3.160000000002244, -1.0309032758637156 
3.1700000000022652, -1.0333443070860624 
3.1800000000022863, -1.0350743552237562 
3.1900000000023074, -1.036020640986512 
3.2000000000023285, -1.0362687780146937 
3.2100000000023496, -1.0360206927833706 
3.2200000000023707, -1.0355646878226155 
3.230000000002392, -1.0352661538004824 
3.240000000002413, -1.0355024371103512 
3.250000000002434, -1.0365049009326666 
3.260000000002455, -1.038236896134335 
3.2700000000024763, -1.0404591524072289 
3.2800000000024974, -1.0429084328626466 
3.2900000000025185, -1.0454062090449487 
3.3000000000025396, -1.0478538677265177 
3.3100000000025607, -1.0501922734431952 
3.3200000000025818, -1.0523865212728205 
3.330000000002603, -1.0544312447406479 
3.340000000002624, -1.0563454200954743 
3.350000000002645, -1.0581434788138586 
3.360000000002666, -1.059796114015453 
3.3700000000026873, -1.0612089887638692 
3.3800000000027084, -1.0622457817385589 
3.3900000000027295, -1.0627936174508614 
3.4000000000027506, -1.062827311694735 
3.4100000000027717, -1.0624317679143545 
3.420000000002793, -1.061789747722171 
3.430000000002814, -1.0611518707495933 
3.440000000002835, -1.0607704795046042 
3.450000000002856, -1.0607974701669332 
3.460000000002877, -1.0612282395194952 
3.4700000000028983, -1.0619587016370324 
3.4800000000029194, -1.062885850559113 
3.4900000000029405, -1.063942526826518 
3.5000000000029616, -1.0650618513115424 
3.5100000000029827, -1.0661468652569184 
3.520000000003004, -1.0670899745404656 
3.530000000003025, -1.0678168466876115 
3.540000000003046, -1.0683117594584524 
3.550000000003067, -1.068607350369368 
3.5600000000030882, -1.068747454253761 
3.5700000000031094, -1.0687468590589884 
3.5800000000031305, -1.0685733176296526 
3.5900000000031516, -1.0681642303189016 
3.6000000000031727, -1.0674696972708175 
3.6100000000031938, -1.0664959449998064 
3.620000000003215, -1.0653235811033666 
3.630000000003236, -1.0640893800572668 
3.640000000003257, -1.0629347743749376 
3.650000000003278, -1.0619512965810496 
3.6600000000032993, -1.0611743532096103 
3.6700000000033204, -1.0606305508913418 
3.6800000000033415, -1.0603686283744909 
3.6900000000033626, -1.0604167873727988 
3.7000000000033837, -1.0607093119033293 
3.710000000003405, -1.061075830409784 
3.720000000003426, -1.0613080243830677 
3.730000000003447, -1.061236537232881 
3.740000000003468, -1.0607747748153438 
3.750000000003489, -1.0599303427700444 
3.7600000000035103, -1.0587833221917506 
3.7700000000035314, -1.0574339002566302 
3.7800000000035525, -1.0559489560884392 
3.7900000000035736, -1.054341070541693 
3.8000000000035947, -1.0525861959993332 
3.810000000003616, -1.0506620114770313 
3.820000000003637, -1.0485806516421652 
3.830000000003658, -1.0463952277192141 
3.840000000003679, -1.0441800637312446 
3.8500000000037002, -1.0420120590255624 
3.8600000000037213, -1.039985059917703 
3.8700000000037424, -1.0382435112153874 
3.8800000000037635, -1.0369668095150462 
3.8900000000037847, -1.0362643117132595 
3.9000000000038058, -1.0360626000992808 
3.910000000003827, -1.0361126875844644 
3.920000000003848, -1.036105025487584 
3.930000000003869, -1.0357712770275218 
3.94000000000389, -1.0349267031466831 
3.9500000000039113, -1.0334929346835886 
3.9600000000039324, -1.0315164058297017 
3.9700000000039535, -1.0291452070998042 
3.9800000000039746, -1.0265518870363939 
3.9900000000039957, -1.0238560691281218 
4.000000000004016, -1.0210994526931454 
4.010000000003993, -1.018271002048818 
4.02000000000397, -1.0153499716957364 
4.030000000003946, -1.0123378275388082 
4.040000000003923, -1.0092671911897173 
4.0500000000039, -1.0061994876849538 
4.0600000000038765, -1.0032364636676496 
4.070000000003853, -1.0005478354245843 
4.08000000000383, -0.9983667105057762 
4.090000000003807, -0.9968958435395263 
4.100000000003783, -0.9961627154789212 
4.11000000000376, -0.9959645687385624 
4.120000000003737, -0.9959649286213169 
4.130000000003713, -0.9958309774922369 
4.14000000000369, -0.9953037205776747 
4.150000000003667, -0.994216677872236 
4.1600000000036434, -0.9925180455214418 
4.17000000000362, -0.9902906555125236 
4.180000000003597, -0.987717917719538 
4.1900000000035735, -0.9849930295367166 
4.20000000000355, -0.9822398628851442 
4.210000000003527, -0.9794957035847214 
4.220000000003504, -0.9767437901165893 
4.23000000000348, -0.9739598896191991 
4.240000000003457, -0.9711456259231891 
4.250000000003434, -0.9683372252363442 
4.26000000000341, -0.9655979425693229 
4.270000000003387, -0.9630158047990742 
4.280000000003364, -0.9607158028788179 
4.2900000000033405, -0.9588599202002742 
4.300000000003317, -0.9575942107335378 
4.310000000003294, -0.9569531320371463 
4.320000000003271, -0.9568040233563189 
4.330000000003247, -0.9568928497399639 
4.340000000003224, -0.9569451314232266 
4.350000000003201, -0.9567412303071642 
4.360000000003177, -0.9561497677373936 
4.370000000003154, -0.9551440236228871 
4.380000000003131, -0.9538008418436986 
4.390000000003107, -0.9522597947962403 
4.400000000003084, -0.9506529974715751 
4.410000000003061, -0.9490516467026076 
4.4200000000030375, -0.94745768813962 
4.430000000003014, -0.9458327901068502 
4.440000000002991, -0.9441422613271554 
4.450000000002968, -0.9423911529451405 
4.460000000002944, -0.9406354271731161 
4.470000000002921, -0.9389645990377931 
4.480000000002898, -0.9374698696449238 
4.490000000002874, -0.9362229576974446 
4.500000000002851, -0.9352795033121497 
4.510000000002828, -0.9346896762864988 
4.520000000002804, -0.9344852124261548 
4.530000000002781, -0.9346420387635641 
4.540000000002758, -0.9350573826090376 
4.5500000000027345, -0.9355733702860208 
4.560000000002711, -0.9360324814663319 
4.570000000002688, -0.936327985712851 
4.580000000002665, -0.9364291215189272 
4.590000000002641, -0.9363761325755204 
4.600000000002618, -0.9362459239032569 
4.610000000002595, -0.9361027640965783 
4.620000000002571, -0.9359595912045531 
4.630000000002548, -0.9357686588985784 
4.640000000002525, -0.9354461722217096 
4.6500000000025015, -0.934920605747126 
4.660000000002478, -0.934179521416923 
4.670000000002455, -0.9332917294320113 
4.6800000000024315, -0.9323992910351915 
4.690000000002408, -0.9316814670522554 
4.700000000002385, -0.931296006344132 
4.710000000002362, -0.9313247604368377 
4.720000000002338, -0.9317628692854802 
4.730000000002315, -0.9325543774504904 
4.740000000002292, -0.9336319983513974 
4.750000000002268, -0.9349274939602618 
4.760000000002245, -0.936363230403861 
4.770000000002222, -0.9378547875302393 
4.7800000000021985, -0.9393336026319627 
4.790000000002175, -0.9407717074103441 
4.800000000002152, -0.9421864081974892 
4.810000000002129, -0.9436169276326881 
4.820000000002105, -0.9450819190692383 
4.830000000002082, -0.9465375754123677 
4.840000000002059, -0.9478617132344468 
4.850000000002035, -0.9488869637479554 
4.860000000002012, -0.9494762964703348 
4.870000000001989, -0.9495903651946971 
4.880000000001965, -0.9493059690634104 
4.890000000001942, -0.9488023700526439 
4.900000000001919, -0.9483448566893573 
4.9100000000018955, -0.9482491920422224 
4.920000000001872, -0.9487909729124248 
4.930000000001849, -0.9500895983486799 
