t, s[1].omega / s[0].omega 
0, -1.260019045728257 
0.009999999999999995, -1.2616795571885984 
0.019999999999999934, -1.2628145479372648 
0.029999999999999874, -1.2633629191191804 
0.04000000000000012, -1.2633112189928433 
0.050000000000000405, -1.2627287294345542 
0.06000000000000069, -1.2617675035995084 
0.07000000000000098, -1.2606243415958667 
0.08000000000000126, -1.259458126573005 
0.09000000000000155, -1.2583227022433057 
0.10000000000000184, -1.2572260328309968 
0.11000000000000212, -1.256268596457189 
0.12000000000000241, -1.2556457437121937 
0.130000000000002, -1.2554393484189852 
0.1400000000000009, -1.2554535997067273 
0.1499999999999998, -1.2553092114866602 
0.1599999999999987, -1.2546107616655917 
0.1699999999999976, -1.2529977546340865 
0.1799999999999965, -1.2501570003393656 
0.1899999999999954, -1.245897475816828 
0.1999999999999943, -1.240228252145529 
0.2099999999999932, -1.233309085879044 
0.2199999999999921, -1.225285568214356 
0.229999999999991, -1.2161504395729232 
0.2399999999999899, -1.2057067841155864 
0.2499999999999888, -1.193630802464466 
0.2599999999999877, -1.1796963594421304 
0.2699999999999866, -1.1643209323824586 
0.2799999999999855, -1.1493214139563421 
0.2899999999999844, -1.1377224232805674 
0.2999999999999833, -1.1314700190097207 
0.3099999999999822, -1.1295904884700072 
0.3199999999999811, -1.1296783289051733 
0.32999999999998, -1.1299732837418428 
0.3399999999999789, -1.129605118407098 
0.3499999999999778, -1.1279475275323825 
0.35999999999997667, -1.1239531077259102 
0.36999999999997557, -1.1154598945991059 
0.37999999999997447, -1.0985487344329248 
0.38999999999997337, -1.0682063939055229 
0.39999999999997227, -1.022249486072237 
0.40999999999997117, -0.965521271966805 
0.41999999999997006, -0.9069622502494467 
0.42999999999996896, -0.8530711743664195 
0.43999999999996786, -0.8062426045073361 
0.44999999999996676, -0.7666686287761949 
0.45999999999996566, -0.7339749619567428 
0.46999999999996456, -0.7078028011312291 
0.47999999999996346, -0.6877976364281537 
0.48999999999996235, -0.6734278294982359 
0.49999999999996125, -0.663875263303955 
0.5099999999999602, -0.6580895908281178 
0.519999999999959, -0.6549630319104327 
0.529999999999958, -0.653512907820407 
0.5399999999999568, -0.6529842935120387 
0.5499999999999557, -0.6528585296451086 
0.5599999999999546, -0.652806206535169 
0.5699999999999535, -0.6526322034287955 
0.5799999999999524, -0.652242668259736 
0.5899999999999513, -0.6516376830528465 
0.5999999999999502, -0.6509074634103642 
0.6099999999999491, -0.65020268133261 
0.619999999999948, -0.6496776295309676 
0.6299999999999469, -0.6494369288386508 
0.6399999999999458, -0.6495076086688468 
0.6499999999999447, -0.6498319364713292 
0.6599999999999436, -0.6502773096793664 
0.6699999999999425, -0.6506739101088742 
0.6799999999999414, -0.6508770261301299 
0.6899999999999403, -0.6508201576290384 
0.6999999999999392, -0.6505327616302601 
0.7099999999999381, -0.6501389164871887 
0.719999999999937, -0.6498724804863298 
0.7299999999999359, -0.6501279191203044 
0.7399999999999348, -0.651538851022844 
0.7499999999999337, -0.6550487428976788 
0.7599999999999326, -0.6619142261603549 
0.7699999999999315, -0.6735846598884698 
0.7799999999999304, -0.6914604102117823 
0.7899999999999293, -0.7166301461830781 
0.7999999999999282, -0.7497403794601775 
0.8099999999999271, -0.7910724683226622 
0.819999999999926, -0.8406963143718962 
0.8299999999999249, -0.8983127468603737 
0.8399999999999238, -0.9622062130925112 
0.8499999999999227, -1.0272222956258248 
0.8599999999999216, -1.0842488269144963 
0.8699999999999205, -1.125234762467194 
0.8799999999999194, -1.1494108939860461 
0.8899999999999183, -1.1617120104361331 
0.8999999999999172, -1.1673608438559306 
0.9099999999999161, -1.1696093633797715 
0.919999999999915, -1.1700842761405053 
0.9299999999999139, -1.1696017419308373 
0.9399999999999128, -1.1688696045418947 
0.9499999999999117, -1.1691314910505062 
0.9599999999999106, -1.1723032712346027 
0.9699999999999095, -1.1796403112106468 
0.9799999999999084, -1.1901327205408494 
0.9899999999999073, -1.201411408225177 
0.9999999999999062, -1.211777339741492 
1.0099999999999052, -1.2207063687117228 
1.019999999999904, -1.228307491657388 
1.029999999999903, -1.2348387331862738 
1.039999999999902, -1.240501543555855 
1.0499999999999008, -1.2453789659465266 
1.0599999999998997, -1.2494285129444505 
1.0699999999998986, -1.2525302918171604 
1.0799999999998975, -1.254592285827555 
1.0899999999998964, -1.255645216720111 
1.0999999999998953, -1.2558545774059746 
1.1099999999998942, -1.2554775600643047 
1.119999999999893, -1.2548298079270146 
1.129999999999892, -1.2542349927990115 
1.1399999999998909, -1.2538981817747834 
1.1499999999998898, -1.2538127196594504 
1.1599999999998887, -1.2538642251974366 
1.1699999999998876, -1.2540085619119892 
1.1799999999998865, -1.254282592494064 
1.1899999999998854, -1.2546594301338634 
1.1999999999998843, -1.254965589123531 
1.2099999999998832, -1.2549510672437334 
1.219999999999882, -1.254391535909122 
1.229999999999881, -1.2531408792878536 
1.2399999999998799, -1.2511537485474455 
1.2499999999998788, -1.2484787670377469 
1.2599999999998777, -1.2452051052273778 
1.2699999999998766, -1.2413918059739901 
1.2799999999998755, -1.2370286968038493 
1.2899999999998744, -1.2320367434466921 
1.2999999999998733, -1.2262846312022284 
1.3099999999998722, -1.2196269820345134 
1.319999999999871, -1.2120431514034142 
1.32999999999987, -1.2039645970474708 
1.3399999999998689, -1.1965924420597485 
1.3499999999998678, -1.1914702743592027 
1.3599999999998666, -1.189150431184583 
1.3699999999998655, -1.1887026437772032 
1.3799999999998644, -1.1887804997371751 
1.3899999999998633, -1.1884453523037073 
1.3999999999998622, -1.187021121710078 
1.4099999999998611, -1.183580705124688 
1.41999999999986, -1.1763961286952331 
1.429999999999859, -1.1625676922347419 
1.4399999999998578, -1.1386584245305855 
1.4499999999998567, -1.1031224164931785 
1.4599999999998556, -1.0584024486490922 
1.4699999999998545, -1.009316014187182 
1.4799999999998534, -0.9598507571906897 
1.4899999999998523, -0.9122443090461042 
1.4999999999998512, -0.8679139519487634 
1.5099999999998501, -0.8283820344397883 
1.519999999999849, -0.7954105448457683 
1.529999999999848, -0.7703774877174105 
1.5399999999998468, -0.7534821978596014 
1.5499999999998457, -0.7435398367816377 
1.5599999999998446, -0.7385505223997841 
1.5699999999998435, -0.7365136526289782 
1.5799999999998424, -0.7359245118827947 
1.5899999999998413, -0.7358445342049681 
1.5999999999998402, -0.7357448652352054 
1.6099999999998391, -0.7353236725673918 
1.619999999999838, -0.7343904640696873 
1.629999999999837, -0.7328385330017689 
1.6399999999998358, -0.7306853609919984 
1.6499999999998347, -0.7281109546524493 
1.6599999999998336, -0.725409217530063 
1.6699999999998325, -0.7228604562126693 
1.6799999999998314, -0.7206298637175529 
1.6899999999998303, -0.7187521786969617 
1.6999999999998292, -0.7171715148104487 
1.709999999999828, -0.7157925086214354 
1.719999999999827, -0.7145269216552692 
1.729999999999826, -0.7133302927945834 
1.7399999999998248, -0.7122215021102708 
1.7499999999998237, -0.7112826569170837 
1.7599999999998226, -0.7106430311884846 
1.7699999999998215, -0.7104516721521916 
1.7799999999998204, -0.7108443185410391 
1.7899999999998193, -0.7119149981758858 
1.7999999999998182, -0.713704021948127 
1.809999999999817, -0.7162065455177679 
1.819999999999816, -0.7193955659121123 
1.8299999999998149, -0.7232497668454998 
1.8399999999998138, -0.7277805421455508 
1.8499999999998127, -0.7330565634270003 
1.8599999999998116, -0.7392230665567261 
1.8699999999998105, -0.7465060069827085 
1.8799999999998094, -0.7551761813098967 
1.8899999999998083, -0.7654212941867795 
1.8999999999998072, -0.777066372746156 
1.909999999999806, -0.7892301456095805 
1.919999999999805, -0.8003651538723107 
1.9299999999998039, -0.809045565031217 
1.9399999999998028, -0.8148046443460595 
1.9499999999998017, -0.8180740416110274 
1.9599999999998006, -0.8195627780291476 
1.9699999999997995, -0.8198381496048641 
1.9799999999997984, -0.8192535747375036 
1.9899999999997973, -0.8180826531276579 
1.9999999999997962, -0.81686580338586 
2.0099999999998173, -0.8172491939458999 
2.0199999999998384, -0.8238344798700746 
2.0299999999998595, -0.8470254998711102 
2.0399999999998806, -0.903239419306342 
2.0499999999999017, -1.0024832133803296 
2.059999999999923, -1.1269198294673182 
2.069999999999944, -1.241716860230094 
2.079999999999965, -1.3294895788929417 
2.089999999999986, -1.3918362243093603 
2.100000000000007, -1.4348653360584855 
2.1100000000000283, -1.4633310005841407 
2.1200000000000494, -1.4807812549954689 
2.1300000000000705, -1.4904494286370258 
2.1400000000000916, -1.4952023083212038 
2.1500000000001127, -1.4971296163406265 
2.160000000000134, -1.4975188587274086 
2.170000000000155, -1.4971808057611609 
2.180000000000176, -1.4967731329260445 
2.190000000000197, -1.4967661961461771 
2.2000000000002182, -1.4971492057454558 
2.2100000000002393, -1.4975865085240994 
2.2200000000002604, -1.4979142150664548 
2.2300000000002815, -1.4982149863361705 
2.2400000000003026, -1.4984918433090155 
2.2500000000003237, -1.4984918425048606 
2.260000000000345, -1.4978250863907003 
2.270000000000366, -1.4960625059539516 
2.280000000000387, -1.4927366120863736 
2.290000000000408, -1.4873725653920693 
2.3000000000004293, -1.479527853835643 
2.3100000000004504, -1.4686906323820095 
2.3200000000004715, -1.4539688075138213 
2.3300000000004926, -1.4336344787354718 
2.3400000000005137, -1.4047735235257197 
2.3500000000005348, -1.3643384056511294 
2.360000000000556, -1.315171855896757 
2.370000000000577, -1.2737224247658852 
2.380000000000598, -1.2551199823859123 
2.390000000000619, -1.2529963076560504 
2.4000000000006403, -1.2552864169953157 
2.4100000000006614, -1.2570469544166958 
2.4200000000006825, -1.2573758867378717 
2.4300000000007036, -1.2559278921110717 
2.4400000000007247, -1.25132809715643 
2.450000000000746, -1.2387318082400949 
2.460000000000767, -1.2005100333883005 
2.470000000000788, -1.064691066416874 
2.480000000000809, -0.5883956476377213 
2.49000000000083, 0.10430368490904034 
2.5000000000008513, 0.35297487062811606 
2.5100000000008724, 0.4128725881978606 
2.5200000000008935, 0.43096716018792913 
2.5300000000009146, 0.43764516130669506 
2.5400000000009357, 0.44027465668838744 
2.550000000000957, 0.4410987122984028 
2.560000000000978, 0.4409388424009652 
2.570000000000999, 0.4401755463063921 
2.58000000000102, 0.43907321973942376 
2.5900000000010412, 0.43789184316139973 
2.6000000000010624, 0.4368983754306962 
2.6100000000010835, 0.4363345854638586 
2.6200000000011046, 0.43638375919986017 
2.6300000000011257, 0.43714354977415937 
2.6400000000011468, 0.43858642634237777 
2.650000000001168, 0.4405154550765532 
2.660000000001189, 0.44257627697081814 
2.67000000000121, 0.4443669724215719 
2.680000000001231, 0.44557041725033936 
2.6900000000012523, 0.4459808520582912 
2.7000000000012734, 0.4453830932419156 
2.7100000000012945, 0.44328191295590946 
2.7200000000013156, 0.438281262224243 
2.7300000000013367, 0.4261341356443767 
2.740000000001358, 0.39216976633034295 
2.750000000001379, 0.281818682002593 
2.7600000000014, -0.017528038058306012 
2.770000000001421, -0.3423976438011064 
2.780000000001442, -0.4817090758510811 
2.7900000000014633, -0.5292189940254526 
2.8000000000014844, -0.5473629042987809 
2.8100000000015055, -0.555259055186693 
2.8200000000015266, -0.5589087821600356 
2.8300000000015477, -0.5604294992494961 
2.840000000001569, -0.5605805735122662 
2.85000000000159, -0.5595056043029294 
2.860000000001611, -0.5569433236275467 
2.870000000001632, -0.5522957476280328 
2.8800000000016532, -0.5448229673920046 
2.8900000000016743, -0.5342378879642549 
2.9000000000016954, -0.5214837041976187 
2.9100000000017165, -0.508605353745237 
2.9200000000017377, -0.49743740275632 
2.9300000000017588, -0.48868488078872907 
2.94000000000178, -0.48215942239873544 
2.950000000001801, -0.47735912131568875 
2.960000000001822, -0.47379855121465786 
2.970000000001843, -0.47110305546334963 
2.9800000000018643, -0.46901135806472993 
2.9900000000018854, -0.4673614492256032 
3.0000000000019065, -0.46607833468216847 
3.0100000000019276, -0.4651642188235491 
3.0200000000019487, -0.46469176629762954 
3.03000000000197, -0.46480288013736315 
3.040000000001991, -0.46571482409579296 
3.050000000002012, -0.46773483295067386 
3.060000000002033, -0.4712855977408137 
3.070000000002054, -0.4769475714977835 
3.0800000000020753, -0.48553004262994615 
3.0900000000020964, -0.49819216683471845 
3.1000000000021175, -0.5166488195974165 
3.1100000000021386, -0.5435114021992739 
3.1200000000021597, -0.582799941149872 
3.130000000002181, -0.6404593130096294 
3.140000000002202, -0.7237258466062197 
3.150000000002223, -0.8355260617776704 
3.160000000002244, -0.9609358316503094 
3.1700000000022652, -1.0656927711446658 
3.1800000000022863, -1.129283805435097 
3.1900000000023074, -1.1600524864094692 
3.2000000000023285, -1.1734139464748568 
3.2100000000023496, -1.1789116685469425 
3.2200000000023707, -1.1808701187146045 
3.230000000002392, -1.1810539370937139 
3.240000000002413, -1.1802394850575957 
3.250000000002434, -1.179189200567666 
3.260000000002455, -1.1796458987215002 
3.2700000000024763, -1.1847330559784108 
3.2800000000024974, -1.1966476279477 
3.2900000000025185, -1.2134611613192425 
3.3000000000025396, -1.2309104596733422 
3.3100000000025607, -1.2462889489384898 
3.3200000000025818, -1.2590415690841466 
3.330000000002603, -1.2695639323011723 
3.340000000002624, -1.2783617006253887 
3.350000000002645, -1.2857611390056873 
3.360000000002666, -1.291866398675069 
3.3700000000026873, -1.2966230668141048 
3.3800000000027084, -1.2999596284895532 
3.3900000000027295, -1.3019309631158067 
3.4000000000027506, -1.302752583698533 
3.4100000000027717, -1.302735537660292 
3.420000000002793, -1.3022332422435676 
3.430000000002814, -1.3016220074936646 
3.440000000002835, -1.3012104828673203 
3.450000000002856, -1.3010852615181177 
3.460000000002877, -1.3011275285654842 
3.4700000000028983, -1.3012324749520219 
3.4800000000029194, -1.301425631701876 
3.4900000000029405, -1.3017367630342862 
3.5000000000029616, -1.3020406889061542 
3.5100000000029827, -1.302077862015962 
3.520000000003004, -1.3015731708625193 
3.530000000003025, -1.3003073677952903 
3.540000000003046, -1.2981496493078613 
3.550000000003067, -1.2950775761719764 
3.5600000000030882, -1.2911495582231192 
3.5700000000031094, -1.2864240345767295 
3.5800000000031305, -1.2808813117572035 
3.5900000000031516, -1.2743871671368865 
3.6000000000031727, -1.2666915634439089 
3.6100000000031938, -1.2574848666225955 
3.620000000003215, -1.246650348321742 
3.630000000003236, -1.2348880668711506 
3.640000000003257, -1.2243176974499494 
3.650000000003278, -1.217506905663456 
3.6600000000032993, -1.2149425877050366 
3.6700000000033204, -1.2147853088813798 
3.6800000000033415, -1.2150918420677734 
3.6900000000033626, -1.2147920159072263 
3.7000000000033837, -1.213160990268652 
3.710000000003405, -1.2089765959355456 
3.720000000003426, -1.1994141523435426 
3.730000000003447, -1.1783256019748989 
3.740000000003468, -1.1351785979787592 
3.750000000003489, -1.060556676979986 
3.7600000000035103, -0.9601776642126787 
3.7700000000035314, -0.8557624974881375 
3.7800000000035525, -0.7655217231498795 
3.7900000000035736, -0.6949717205205117 
3.8000000000035947, -0.6423138738854378 
3.810000000003616, -0.6039315573691858 
3.820000000003637, -0.5764711995417602 
3.830000000003658, -0.5572403124152304 
3.840000000003679, -0.5441373661051581 
3.8500000000037002, -0.5355215296004769 
3.8600000000037213, -0.5301130320565062 
3.8700000000037424, -0.5269261948082289 
3.8800000000037635, -0.5252204690185387 
3.8900000000037847, -0.5244580411736706 
3.9000000000038058, -0.5242639261409956 
3.910000000003827, -0.52439037787341 
3.920000000003848, -0.5246898866206663 
3.930000000003869, -0.5250994452825883 
3.94000000000389, -0.5256334196755732 
3.9500000000039113, -0.5263764238619844 
3.9600000000039324, -0.5274681183908041 
3.9700000000039535, -0.5290800953193205 
3.9800000000039746, -0.5313869236499233 
3.9900000000039957, -0.5345175972990361 
4.000000000004016, -0.5384610316994197 
4.010000000003993, -0.5429426946147413 
4.02000000000397, -0.5474014357818848 
4.030000000003946, -0.5512014888618318 
4.040000000003923, -0.553943196187999 
4.0500000000039, -0.5555653547828202 
4.0600000000038765, -0.556203669330195 
4.070000000003853, -0.556009209903788 
4.08000000000383, -0.5550462713180583 
4.090000000003807, -0.5532588541183181 
4.100000000003783, -0.5504811062833305 
4.11000000000376, -0.5465524867941219 
4.120000000003737, -0.5419024906440761 
4.130000000003713, -0.5403045366660667 
4.14000000000369, -0.5627099773877956 
4.150000000003667, -0.7536354910911213 
4.1600000000036434, -3.504968483990144 
4.17000000000362, -4.133217210498094 
4.180000000003597, -4.148926724335849 
4.1900000000035735, -4.150113464774133 
4.20000000000355, -4.146950976329182 
4.210000000003527, -4.1241554162897325 
4.220000000003504, -3.112960449549954 
4.23000000000348, -2.217030424733488 
4.240000000003457, -2.5245432956085625 
4.250000000003434, -2.5553125488620045 
4.26000000000341, -2.5598093001754716 
4.270000000003387, -2.560004146620953 
4.280000000003364, -2.559547115159521 
4.2900000000033405, -2.559753509640454 
4.300000000003317, -2.559700353889091 
4.310000000003294, -2.55909656823322 
4.320000000003271, -2.5587784332274346 
4.330000000003247, -2.55796706690271 
4.340000000003224, -2.553720597673583 
4.350000000003201, -2.5303713854586762 
4.360000000003177, -2.2787755937089926 
4.370000000003154, 1.0072287592001734 
4.380000000003131, 2.169416623914457 
4.390000000003107, 2.1958867537159765 
4.400000000003084, 2.1985054058544016 
4.410000000003061, 2.1967042665302166 
4.4200000000030375, 2.183370294304482 
4.430000000003014, 1.953008517108773 
4.440000000002991, 0.9465473659276078 
4.450000000002968, 1.2463271341513944 
4.460000000002944, 1.2950167558158203 
4.470000000002921, 1.3043579725482464 
4.480000000002898, 1.3065199278763573 
4.490000000002874, 1.3064984870589271 
4.500000000002851, 1.3056235134930514 
4.510000000002828, 1.3052224514208437 
4.520000000002804, 1.3078740308867107 
4.530000000002781, 1.3148962196832548 
4.540000000002758, 1.3226748393370265 
4.5500000000027345, 1.3277576059658462 
4.560000000002711, 1.3301160950694597 
4.570000000002688, 1.330618085520256 
4.580000000002665, 1.3293915475990432 
4.590000000002641, 1.324372796084105 
4.600000000002618, 1.3004182633888504 
4.610000000002595, 0.9928586426721813 
4.620000000002571, -2.7886662916537763 
4.630000000002548, -3.1897978768125603 
4.640000000002525, -3.2135007676232 
4.6500000000025015, -3.216683255618596 
4.660000000002478, -3.216225431464248 
4.670000000002455, -3.2139188345382963 
4.6800000000024315, -3.207291830503549 
4.690000000002408, -3.1970670469111537 
4.700000000002385, -3.198776780354561 
4.710000000002362, -3.2001611227203326 
4.720000000002338, -3.198128289685174 
4.730000000002315, -3.197673141833034 
4.740000000002292, -3.203601193285703 
4.750000000002268, -3.20639101915177 
4.760000000002245, -3.2068633975294154 
4.770000000002222, -3.205766668376507 
4.7800000000021985, -3.1991970271314942 
4.790000000002175, -3.1444729610019246 
4.800000000002152, -1.1562452753042411 
4.810000000002129, 1.4977747903068663 
4.820000000002105, 1.5676134074900254 
4.830000000002082, 1.5757907974050445 
4.840000000002059, 1.5770029451056564 
4.850000000002035, 1.575550635814409 
4.860000000002012, 1.5699903736739775 
4.870000000001989, 1.5526298454328795 
4.880000000001965, 1.5135242008253431 
4.890000000001942, 1.4923941540795531 
4.900000000001919, 1.4984327435210674 
4.9100000000018955, 1.503254264418254 
4.920000000001872, 1.5046422665596935 
4.930000000001849, 1.5037013739438208 
4.940000000001826, 1.499849000375338 
