t, s[1].omega / s[0].omega 
0, -0.8399317472094842 
0.009999999999999995, -0.8334300496807485 
0.019999999999999934, -0.8275761563182066 
0.029999999999999874, -0.822295640137129 
0.04000000000000012, -0.8174853265409519 
0.050000000000000405, -0.8130725877371952 
0.06000000000000069, -0.8090353700835429 
0.07000000000000098, -0.8054009232063539 
0.08000000000000126, -0.8022356595461735 
0.09000000000000155, -0.7996290674517963 
0.10000000000000184, -0.7976663226452485 
0.11000000000000212, -0.7963882574469493 
0.12000000000000241, -0.7957545378679407 
0.130000000000002, -0.7956362149476787 
0.1400000000000009, -0.7958475110334347 
0.1499999999999998, -0.7961980044833685 
0.1599999999999987, -0.7965384135014258 
0.1699999999999976, -0.7967884042464038 
0.1799999999999965, -0.796946127989936 
0.1899999999999954, -0.7970760796235863 
0.1999999999999943, -0.7972729261811771 
0.2099999999999932, -0.7976132002706995 
0.2199999999999921, -0.7981143651734562 
0.229999999999991, -0.7987142732893393 
0.2399999999999899, -0.7992814585974716 
0.2499999999999888, -0.7996634456625749 
0.2599999999999877, -0.7997543762251496 
0.2699999999999866, -0.7995411259421416 
0.2799999999999855, -0.7991122717225017 
0.2899999999999844, -0.7986528599139474 
0.2999999999999833, -0.7984431142437177 
0.3099999999999822, -0.7988435901252202 
0.3199999999999811, -0.8002325237854772 
0.32999999999998, -0.8028954475288664 
0.3399999999999789, -0.8069300765824368 
0.3499999999999778, -0.8122411295425813 
0.35999999999997667, -0.8186282277370751 
0.36999999999997557, -0.8258998094668145 
0.37999999999997447, -0.8339518364022508 
0.38999999999997337, -0.842797050600225 
0.39999999999997227, -0.852554421836652 
0.40999999999997117, -0.8633946300570206 
0.41999999999997006, -0.8754060196201227 
0.42999999999996896, -0.8883402251653058 
0.43999999999996786, -0.901324039061457 
0.44999999999996676, -0.912918353673468 
0.45999999999996566, -0.9218320844867985 
0.46999999999996456, -0.927689436809675 
0.47999999999996346, -0.9309796433952146 
0.48999999999996235, -0.9324616417772151 
0.49999999999996125, -0.9327578159531 
0.5099999999999602, -0.932309622616889 
0.519999999999959, -0.9315669825527586 
0.529999999999958, -0.9313614197198836 
0.5399999999999568, -0.9334010558882373 
0.5499999999999557, -0.9404038626096376 
0.5599999999999546, -0.9549504661550147 
0.5699999999999535, -0.9773320625696522 
0.5799999999999524, -1.0049180202251748 
0.5899999999999513, -1.0341327711799377 
0.5999999999999502, -1.0625409374176606 
0.6099999999999491, -1.089208059771205 
0.619999999999948, -1.1139982455105832 
0.6299999999999469, -1.136791330666479 
0.6399999999999458, -1.1569887304575164 
0.6499999999999447, -1.1735328751338212 
0.6599999999999436, -1.1855743556136829 
0.6699999999999425, -1.1932053610740128 
0.6799999999999414, -1.1973857738917268 
0.6899999999999403, -1.1992734077819371 
0.6999999999999392, -1.1997724185798115 
0.7099999999999381, -1.1995263936769165 
0.719999999999937, -1.199143496603423 
0.7299999999999359, -1.199372377780162 
0.7399999999999348, -1.2008938396368318 
0.7499999999999337, -1.2037874085441473 
0.7599999999999326, -1.2074537953701956 
0.7699999999999315, -1.211186144589341 
0.7799999999999304, -1.2145955132194017 
0.7899999999999293, -1.2175777178371296 
0.7999999999999282, -1.2201345724016206 
0.8099999999999271, -1.22228154013678 
0.819999999999926, -1.2240400476268427 
0.8299999999999249, -1.2254397962919206 
0.8399999999999238, -1.2264997585042743 
0.8499999999999227, -1.227204656104616 
0.8599999999999216, -1.2275045960029574 
0.8699999999999205, -1.227347429784233 
0.8799999999999194, -1.2267249433554814 
0.8899999999999183, -1.2257023638034397 
0.8999999999999172, -1.2244119180695043 
0.9099999999999161, -1.2230020880196049 
0.919999999999915, -1.221567088658748 
0.9299999999999139, -1.2201423557963984 
0.9399999999999128, -1.218805109420099 
0.9499999999999117, -1.2177488748885028 
0.9599999999999106, -1.217165797657548 
0.9699999999999095, -1.217020108769902 
0.9799999999999084, -1.2170066619467752 
0.9899999999999073, -1.216720508340948 
0.9999999999999062, -1.2157842850838356 
1.0099999999999052, -1.2138651342742564 
1.019999999999904, -1.2107038488228463 
1.029999999999903, -1.206204590461927 
1.039999999999902, -1.2004798365941036 
1.0499999999999008, -1.1937513798403399 
1.0599999999998997, -1.1861831168704018 
1.0699999999998986, -1.1777840687309853 
1.0799999999998975, -1.1684122060277 
1.0899999999998964, -1.1578521533523278 
1.0999999999998953, -1.1460034257725147 
1.1099999999998942, -1.1332721882372183 
1.119999999999893, -1.1210479865233114 
1.129999999999892, -1.1115109155864817 
1.1399999999998909, -1.1061047141140545 
1.1499999999998898, -1.1042342885327405 
1.1599999999998887, -1.1041166606907133 
1.1699999999998876, -1.104279566891872 
1.1799999999998865, -1.1039013016684467 
1.1899999999998854, -1.102390991351631 
1.1999999999998843, -1.0988951268498917 
1.2099999999998832, -1.0918899242341045 
1.219999999999882, -1.0790762127580467 
1.229999999999881, -1.0582617736447568 
1.2399999999998799, -1.0293667361023773 
1.2499999999998788, -0.9952897644105596 
1.2599999999998777, -0.9598848068501036 
1.2699999999998766, -0.9256908007237106 
1.2799999999998755, -0.8936959823823226 
1.2899999999998744, -0.8641874421254808 
1.2999999999998733, -0.837475677068402 
1.3099999999998722, -0.8141910016938786 
1.319999999999871, -0.795170575023625 
1.32999999999987, -0.7810356882752953 
1.3399999999998689, -0.7717440071927155 
1.3499999999998678, -0.7664879817333395 
1.3599999999998666, -0.7640266482583258 
1.3699999999998655, -0.7631510690834307 
1.3799999999998644, -0.7629585713686262 
1.3899999999998633, -0.7628766847341512 
1.3999999999998622, -0.7625621282681047 
1.4099999999998611, -0.7618004785436023 
1.41999999999986, -0.7604671723293557 
1.429999999999859, -0.7585529773882986 
1.4399999999998578, -0.7562003103937501 
1.4499999999998567, -0.7536700114955139 
1.4599999999998556, -0.7512293094298872 
1.4699999999998545, -0.7490490938526817 
1.4799999999998534, -0.7471772251613593 
1.4899999999998523, -0.7455701658901137 
1.4999999999998512, -0.7441420781979435 
1.5099999999998501, -0.742812236180753 
1.519999999999849, -0.7415425250864558 
1.529999999999848, -0.7403567448926194 
1.5399999999998468, -0.7393386431552561 
1.5499999999998457, -0.7386123737484339 
1.5599999999998446, -0.7383115014235888 
1.5699999999998435, -0.7385454646134334 
1.5799999999998424, -0.7393760675488708 
1.5899999999998413, -0.7408133501596864 
1.5999999999998402, -0.7428292280594374 
1.6099999999998391, -0.7453791079888965 
1.619999999999838, -0.7484234130854962 
1.629999999999837, -0.7519473792353446 
1.6399999999998358, -0.7559797274815269 
1.6499999999998347, -0.7606068278193879 
1.6599999999998336, -0.7659726011241427 
1.6699999999998325, -0.772247009558019 
1.6799999999998314, -0.7795349894724743 
1.6899999999998303, -0.787700583327718 
1.6999999999998292, -0.7961686598623537 
1.709999999999828, -0.8039547752958945 
1.719999999999827, -0.8101194152867901 
1.729999999999826, -0.8142818442256805 
1.7399999999998248, -0.8166453418063704 
1.7499999999998237, -0.8176493531980281 
1.7599999999998226, -0.8176933924246448 
1.7699999999998215, -0.8170874027932401 
1.7799999999998204, -0.8161925781763729 
1.7899999999998193, -0.8157836475825053 
1.7999999999998182, -0.8177683604224939 
1.809999999999817, -0.8262442799158916 
1.819999999999816, -0.8479776868259543 
1.8299999999998149, -0.889971250061031 
1.8399999999998138, -0.9532032307778587 
1.8499999999998127, -1.0288929687807973 
1.8599999999998116, -1.1044848581095343 
1.8699999999998105, -1.1719505416616793 
1.8799999999998094, -1.228763459897611 
1.8899999999998083, -1.2746174202136533 
1.8999999999998072, -1.3093294597900065 
1.909999999999806, -1.3330814014181036 
1.919999999999805, -1.3474245372556672 
1.9299999999998039, -1.35506062837093 
1.9399999999998028, -1.3586152448768964 
1.9499999999998017, -1.3598969705865682 
1.9599999999998006, -1.359973325336777 
1.9699999999997995, -1.3595793206872608 
1.9799999999997984, -1.3594477279002537 
1.9899999999997973, -1.3601947922737838 
1.9999999999997962, -1.3618384061256703 
2.0099999999998173, -1.3638352498685964 
2.0199999999998384, -1.3656961572148478 
2.0299999999998595, -1.3672647274476502 
2.0399999999998806, -1.368535637887742 
2.0499999999999017, -1.3694575465585763 
2.059999999999923, -1.3699219975471202 
2.069999999999944, -1.3698365186083827 
2.079999999999965, -1.3691643504432498 
2.089999999999986, -1.3679157904545416 
2.100000000000007, -1.3661119999706703 
2.1100000000000283, -1.3637473067410961 
2.1200000000000494, -1.3607717321055963 
2.1300000000000705, -1.357089903259967 
2.1400000000000916, -1.352551990021505 
2.1500000000001127, -1.3469475665468957 
2.160000000000134, -1.3401299444935075 
2.170000000000155, -1.3324695447339747 
2.180000000000176, -1.3254257745605869 
2.190000000000197, -1.3209582627866139 
2.2000000000002182, -1.3194745201269176 
2.2100000000002393, -1.3195199827728767 
2.2200000000002604, -1.3195637568213403 
2.2300000000002815, -1.3186642072706523 
2.2400000000003026, -1.31580522792131 
2.2500000000003237, -1.3087024486522543 
2.260000000000345, -1.2915454703495546 
2.270000000000366, -1.2508164587626502 
2.280000000000387, -1.1635346077367905 
2.290000000000408, -1.0170259484399276 
2.3000000000004293, -0.843912271890147 
2.3100000000004504, -0.6957984926913516 
2.3200000000004715, -0.591463879108329 
2.3300000000004926, -0.5234932196768215 
2.3400000000005137, -0.4799443971352078 
2.3500000000005348, -0.4518683530821936 
2.360000000000556, -0.4335759004757606 
2.370000000000577, -0.42157805048999136 
2.380000000000598, -0.41372074752580235 
2.390000000000619, -0.4086460518628684 
2.4000000000006403, -0.4054778883274743 
2.4100000000006614, -0.4036404618058291 
2.4200000000006825, -0.402752492416095 
2.4300000000007036, -0.4025653625698107 
2.4400000000007247, -0.4029280875422815 
2.450000000000746, -0.40377044705084303 
2.460000000000767, -0.4051001726871176 
2.470000000000788, -0.4070123688860291 
2.480000000000809, -0.4097113102861881 
2.49000000000083, -0.413548930082008 
2.5000000000008513, -0.4190896828841633 
2.5100000000008724, -0.42720353864504856 
2.5200000000008935, -0.43912215631738516 
2.5300000000009146, -0.4561793242699017 
2.5400000000009357, -0.4786701576053686 
2.550000000000957, -0.5039847905031538 
2.560000000000978, -0.526859081131143 
2.570000000000999, -0.5433849732082845 
2.58000000000102, -0.5534365111478129 
2.5900000000010412, -0.5588795034329407 
2.6000000000010624, -0.56147385622297 
2.6100000000010835, -0.5622589179695334 
2.6200000000011046, -0.5616252181920109 
2.6300000000011257, -0.559381443541431 
2.6400000000011468, -0.5545236939386986 
2.650000000001168, -0.5443243560290002 
2.660000000001189, -0.5217378774725256 
2.67000000000121, -0.4697817210216798 
2.680000000001231, -0.361884483782074 
2.6900000000012523, -0.20969103385697824 
2.7000000000012734, -0.08920242668502228 
2.7100000000012945, -0.02624059726564613 
2.7200000000013156, 0.002881516721455818 
2.7300000000013367, 0.016477602800909968 
2.740000000001358, 0.023293712022684182 
2.750000000001379, 0.026837561069917814 
2.7600000000014, 0.028661979959932738 
2.770000000001421, 0.029525973697637424 
2.780000000001442, 0.029849095163780936 
2.7900000000014633, 0.029892033876229275 
2.8000000000014844, 0.029830382925089504 
2.8100000000015055, 0.029793708631440697 
2.8200000000015266, 0.02990695781586339 
2.8300000000015477, 0.030368846169626984 
2.840000000001569, 0.031653911294598415 
2.85000000000159, 0.03513404215689471 
2.860000000001611, 0.04510094755084071 
2.870000000001632, 0.07431614497050507 
2.8800000000016532, 0.14716178089885099 
2.8900000000016743, 0.2569411913019948 
2.9000000000016954, 0.3392618115638566 
2.9100000000017165, 0.37778449396846203 
2.9200000000017377, 0.39363373587927575 
2.9300000000017588, 0.40025557242878956 
2.94000000000178, 0.40294189375638156 
2.950000000001801, 0.40362924107772225 
2.960000000001822, 0.40297760059868776 
2.970000000001843, 0.40113002047570623 
2.9800000000018643, 0.39807060176806225 
2.9900000000018854, 0.39392011174908664 
3.0000000000019065, 0.38916419875584185 
3.0100000000019276, 0.3845835810164402 
3.0200000000019487, 0.3808620383412301 
3.03000000000197, 0.37828105004002693 
3.040000000001991, 0.3767626172849897 
3.050000000002012, 0.3760696005725749 
3.060000000002033, 0.3759389729749973 
3.070000000002054, 0.3761184427539618 
3.0800000000020753, 0.3763625266122618 
3.0900000000020964, 0.37642426185505123 
3.1000000000021175, 0.3760342623024828 
3.1100000000021386, 0.37482166667316363 
3.1200000000021597, 0.37207863759345694 
3.130000000002181, 0.3660641039543001 
3.140000000002202, 0.35159102313754376 
3.150000000002223, 0.30963576781761076 
3.160000000002244, 0.15482808291167838 
3.1700000000022652, -0.37930450396811255 
3.1800000000022863, -0.9913806195746199 
3.1900000000023074, -1.20460274017524 
3.2000000000023285, -1.262182913435565 
3.2100000000023496, -1.2796934557305835 
3.2200000000023707, -1.285558123286541 
3.230000000002392, -1.2872592210933917 
3.240000000002413, -1.2869522642311813 
3.250000000002434, -1.2852707375711863 
3.260000000002455, -1.2829909740599694 
3.2700000000024763, -1.2835516008747292 
3.2800000000024974, -1.295068934422789 
3.2900000000025185, -1.3221844083357053 
3.3000000000025396, -1.3558004933662118 
3.3100000000025607, -1.384815432127661 
3.3200000000025818, -1.4063693833311066 
3.330000000002603, -1.4219857204434851 
3.340000000002624, -1.4335365179922546 
3.350000000002645, -1.442230768655039 
3.360000000002666, -1.4486977835336683 
3.3700000000026873, -1.4532451428021125 
3.3800000000027084, -1.4560926346996799 
3.3900000000027295, -1.4575099659120192 
3.4000000000027506, -1.4578284381315871 
3.4100000000027717, -1.4574011594880887 
3.420000000002793, -1.4565829245712845 
3.430000000002814, -1.4556662881250062 
3.440000000002835, -1.454745952848397 
3.450000000002856, -1.4537511898701 
3.460000000002877, -1.4527303644850968 
3.4700000000028983, -1.4519757138688774 
3.4800000000029194, -1.4516830570146884 
3.4900000000029405, -1.4515949835858766 
3.5000000000029616, -1.4511511329648459 
3.5100000000029827, -1.4497099518129994 
3.520000000003004, -1.4464358479518362 
3.530000000003025, -1.4400754406467373 
3.540000000003046, -1.4289564165254962 
3.550000000003067, -1.4113241844445845 
3.5600000000030882, -1.3856072611349641 
3.5700000000031094, -1.3500017684814705 
3.5800000000031305, -1.3016078287111426 
3.5900000000031516, -1.23658033662088 
3.6000000000031727, -1.1542817894380297 
3.6100000000031938, -1.0667077041658963 
3.620000000003215, -0.998137228802477 
3.630000000003236, -0.9616995356243772 
3.640000000003257, -0.9492423136673788 
3.650000000003278, -0.9474538722738035 
3.6600000000032993, -0.9485662366272614 
3.6700000000033204, -0.9497085395071865 
3.6800000000033415, -0.9500818000634474 
3.6900000000033626, -0.949376696581508 
3.7000000000033837, -0.9470954057955341 
3.710000000003405, -0.9421198300143464 
3.720000000003426, -0.9322749255070786 
3.730000000003447, -0.914306119090537 
3.740000000003468, -0.8856461382913373 
3.750000000003489, -0.8480357229332217 
3.7600000000035103, -0.8079505415543873 
3.7700000000035314, -0.7715477814551013 
3.7800000000035525, -0.741259000106435 
3.7900000000035736, -0.7168174813213288 
3.8000000000035947, -0.6971252938153611 
3.810000000003616, -0.6811616419157568 
3.820000000003637, -0.6682015030483115 
3.830000000003658, -0.6577817592026957 
3.840000000003679, -0.6496063735964827 
3.8500000000037002, -0.6434507132820438 
3.8600000000037213, -0.6390868963796155 
3.8700000000037424, -0.6362437805221364 
3.8800000000037635, -0.6346065377609746 
3.8900000000037847, -0.6338462487804473 
3.9000000000038058, -0.6336590278203521 
3.910000000003827, -0.6337962286282024 
3.920000000003848, -0.6340796805805959 
3.930000000003869, -0.634407092265188 
3.94000000000389, -0.6347536793058806 
3.9500000000039113, -0.6351677673925978 
3.9600000000039324, -0.6357522761911019 
3.9700000000039535, -0.6366308734002459 
3.9800000000039746, -0.6379073274673135 
3.9900000000039957, -0.6396221958401742 
4.000000000004016, -0.6417050796019872 
4.010000000003993, -0.6439430969549733 
4.02000000000397, -0.6460192577904034 
4.030000000003946, -0.6476365483218812 
4.040000000003923, -0.6486377488856298 
4.0500000000039, -0.649024573083069 
4.0600000000038765, -0.6489014433593836 
4.070000000003853, -0.6484366126745342 
4.08000000000383, -0.6479057697177295 
4.090000000003807, -0.6478664422812048 
4.100000000003783, -0.6495507774484336 
4.11000000000376, -0.655627607514987 
4.120000000003737, -0.6714598080283409 
4.130000000003713, -0.7064877629848888 
4.14000000000369, -0.77346469547804 
4.150000000003667, -0.8803054100215567 
4.1600000000036434, -1.0156821314272286 
4.17000000000362, -1.1510134829166303 
4.180000000003597, -1.2641010825570376 
4.1900000000035735, -1.3488598377024528 
4.20000000000355, -1.4074404213946994 
4.210000000003527, -1.4443048958717015 
4.220000000003504, -1.4650694387374115 
4.23000000000348, -1.4755481298058515 
4.240000000003457, -1.4802841234914488 
4.250000000003434, -1.4820459012985805 
4.26000000000341, -1.4823051236042724 
4.270000000003387, -1.4819359525919167 
4.280000000003364, -1.4816843744377586 
4.2900000000033405, -1.4820847839656541 
4.300000000003317, -1.4830537175120206 
4.310000000003294, -1.4841081161650787 
4.320000000003271, -1.4849742673531379 
4.330000000003247, -1.4856713356611029 
4.340000000003224, -1.4861965234051124 
4.350000000003201, -1.4863611849940639 
4.360000000003177, -1.4858812168340088 
4.370000000003154, -1.4844751487680037 
4.380000000003131, -1.4818954523319428 
4.390000000003107, -1.4779449074465518 
4.400000000003084, -1.4724515980934678 
4.410000000003061, -1.465159412491974 
4.4200000000030375, -1.4555491677305818 
4.430000000003014, -1.442619875575144 
4.440000000002991, -1.4247484120254508 
4.450000000002968, -1.4003330806932937 
4.460000000002944, -1.371053749888596 
4.470000000002921, -1.3462090792135648 
4.480000000002898, -1.3350441279635235 
4.490000000002874, -1.334154917130224 
4.500000000002851, -1.335888818537968 
4.510000000002828, -1.3369284976534062 
4.520000000002804, -1.3365104415419196 
4.530000000002781, -1.3338522451926058 
4.540000000002758, -1.3261865263927435 
4.5500000000027345, -1.3033887127953045 
4.560000000002711, -1.2232473517422975 
4.570000000002688, -0.8929548746817847 
4.580000000002665, -0.011768705568963252 
4.590000000002641, 0.46125476066597776 
4.600000000002618, 0.5555513031092829 
4.610000000002595, 0.5787085144239984 
4.620000000002571, 0.5861977476300109 
4.630000000002548, 0.5888452938154418 
4.640000000002525, 0.5894574508453151 
4.6500000000025015, 0.5888886354846591 
4.660000000002478, 0.5874180139005892 
4.670000000002455, 0.5852050108850804 
4.6800000000024315, 0.5825097327105648 
4.690000000002408, 0.5797510511657453 
4.700000000002385, 0.5773799121484495 
4.710000000002362, 0.5756855106376227 
4.720000000002338, 0.5747144915178152 
4.730000000002315, 0.574327656287086 
4.740000000002292, 0.5742950129141486 
4.750000000002268, 0.57436070251235 
4.760000000002245, 0.5742646802374111 
4.770000000002222, 0.5737111785262988 
4.7800000000021985, 0.5722348267636349 
4.790000000002175, 0.5687834217437768 
4.800000000002152, 0.5602238969509428 
4.810000000002129, 0.534240990085875 
4.820000000002105, 0.418673204093954 
4.830000000002082, -0.38919447438462484 
4.840000000002059, -1.900596426441671 
4.850000000002035, -2.1797025198784628 
4.860000000002012, -2.2208905680384445 
4.870000000001989, -2.2296436569813256 
4.880000000001965, -2.2315187692069545 
4.890000000001942, -2.2313879400604844 
4.900000000001919, -2.230840305875354 
4.9100000000018955, -2.230343495712126 
4.920000000001872, -2.2293997582168883 
4.930000000001849, -2.2281408134967924 
