t, s[1].omega / s[0].omega 
0, -0.819991895859725 
0.009999999999999995, -0.8192521975804266 
0.019999999999999934, -0.8186257280256916 
0.029999999999999874, -0.8180356265820731 
0.04000000000000012, -0.8173923364835616 
0.050000000000000405, -0.8166417169049245 
0.06000000000000069, -0.8157986307996834 
0.07000000000000098, -0.8149554618799882 
0.08000000000000126, -0.8142682411499415 
0.09000000000000155, -0.8139231831789038 
0.10000000000000184, -0.8140868421853978 
0.11000000000000212, -0.8148576115166145 
0.12000000000000241, -0.8162461830885611 
0.130000000000002, -0.818194766828799 
0.1400000000000009, -0.820615817162157 
0.1499999999999998, -0.8234248600103156 
0.1599999999999987, -0.8265594824501292 
0.1699999999999976, -0.8299913017084997 
0.1799999999999965, -0.833735621811495 
0.1899999999999954, -0.8378526372359358 
0.1999999999999943, -0.8424270309397881 
0.2099999999999932, -0.8475122751535222 
0.2199999999999921, -0.8530334049925121 
0.229999999999991, -0.8586803423686235 
0.2399999999999899, -0.8639043335415437 
0.2499999999999888, -0.8681270761089118 
0.2599999999999877, -0.8710361993694098 
0.2699999999999866, -0.8726765222826727 
0.2799999999999855, -0.8733031795243728 
0.2899999999999844, -0.873221106871328 
0.2999999999999833, -0.8727610461649222 
0.3099999999999822, -0.8724012282895413 
0.3199999999999811, -0.8729813759819962 
0.32999999999998, -0.8758479291434675 
0.3399999999999789, -0.8826088345144989 
0.3499999999999778, -0.8943452167287209 
0.35999999999997667, -0.9108538678693406 
0.36999999999997557, -0.9307772732785164 
0.37999999999997447, -0.9525005550463741 
0.38999999999997337, -0.9748995519584478 
0.39999999999997227, -0.9974825053859503 
0.40999999999997117, -1.020108929145431 
0.41999999999997006, -1.0425397696408407 
0.42999999999996896, -1.0639688208545899 
0.43999999999996786, -1.0828553728957226 
0.44999999999996676, -1.0975491873598986 
0.45999999999996566, -1.1074097714837696 
0.46999999999996456, -1.1131241599097579 
0.47999999999996346, -1.1159570315022234 
0.48999999999996235, -1.1170039691825822 
0.49999999999996125, -1.1170043726250216 
0.5099999999999602, -1.1165268036004425 
0.519999999999959, -1.1162834075756574 
0.529999999999958, -1.1173144804673616 
0.5399999999999568, -1.120612678034112 
0.5499999999999557, -1.1262791976882123 
0.5599999999999546, -1.1333533258778201 
0.5699999999999535, -1.1406519148459306 
0.5799999999999524, -1.1474680667203219 
0.5899999999999513, -1.1535930465602555 
0.5999999999999502, -1.1590666879773732 
0.6099999999999491, -1.1639927728204973 
0.619999999999948, -1.1684549090115595 
0.6299999999999469, -1.1724723300815976 
0.6399999999999458, -1.1759712673230491 
0.6499999999999447, -1.178798042329705 
0.6599999999999436, -1.1807978438258637 
0.6699999999999425, -1.181916310151352 
0.6799999999999414, -1.182241388513458 
0.6899999999999403, -1.1819756087241304 
0.6999999999999392, -1.1814004084714438 
0.7099999999999381, -1.1808418969541004 
0.719999999999937, -1.1805749358433393 
0.7299999999999359, -1.1806902540976598 
0.7399999999999348, -1.1810901506522011 
0.7499999999999337, -1.1816409963514356 
0.7599999999999326, -1.1822849974537306 
0.7699999999999315, -1.182998071414801 
0.7799999999999304, -1.1836958935659516 
0.7899999999999293, -1.1842230324311587 
0.7999999999999282, -1.1844206622618074 
0.8099999999999271, -1.18418983287969 
0.819999999999926, -1.183513498534347 
0.8299999999999249, -1.182439767280081 
0.8399999999999238, -1.1810372392807253 
0.8499999999999227, -1.1793495640423728 
0.8599999999999216, -1.1773787977282735 
0.8699999999999205, -1.175102506164035 
0.8799999999999194, -1.1725037832936513 
0.8899999999999183, -1.1695864033029835 
0.8999999999999172, -1.1663680965135779 
0.9099999999999161, -1.1628897443899413 
0.919999999999915, -1.159294522111726 
0.9299999999999139, -1.155940888329702 
0.9399999999999128, -1.1533556192099659 
0.9499999999999117, -1.1518866804249241 
0.9599999999999106, -1.1513700979657078 
0.9699999999999095, -1.1512524727234061 
0.9799999999999084, -1.1509452184813576 
0.9899999999999073, -1.149955036531241 
0.9999999999999062, -1.147798790601541 
1.0099999999999052, -1.1439442962883597 
1.019999999999904, -1.1379408569974472 
1.029999999999903, -1.1296956078717681 
1.039999999999902, -1.1195865840565795 
1.0499999999999008, -1.108204873881196 
1.0599999999998997, -1.0959880087273874 
1.0699999999998986, -1.0830751040776785 
1.0799999999998975, -1.069390788257792 
1.0899999999998964, -1.0548450729632048 
1.0999999999998953, -1.039626660061952 
1.1099999999998942, -1.0245674145392338 
1.119999999999893, -1.0112902724102693 
1.129999999999892, -1.001586763851386 
1.1399999999998909, -0.9961489915575065 
1.1499999999998898, -0.9940642043058793 
1.1599999999998887, -0.9937154381898516 
1.1699999999998876, -0.993807797233606 
1.1799999999998865, -0.9935890789851236 
1.1899999999998854, -0.9925807867027918 
1.1999999999998843, -0.9902809323117123 
1.2099999999998832, -0.9860136952098921 
1.219999999999882, -0.9790429900727838 
1.229999999999881, -0.969037597808945 
1.2399999999998799, -0.9565567570219068 
1.2499999999998788, -0.9428702592335447 
1.2599999999998777, -0.9291896109577078 
1.2699999999998766, -0.9161691141329376 
1.2799999999998755, -0.9039643063798204 
1.2899999999998744, -0.8924992497606274 
1.2999999999998733, -0.8816810700260795 
1.3099999999998722, -0.8715264595742898 
1.319999999999871, -0.8622267284713212 
1.32999999999987, -0.8541446089481566 
1.3399999999998689, -0.8477036607933011 
1.3499999999998678, -0.8431750291780089 
1.3599999999998666, -0.8404870581339766 
1.3699999999998655, -0.8392228980450491 
1.3799999999998644, -0.8388079862605627 
1.3899999999998633, -0.8387150479086365 
1.3999999999998622, -0.8385540592158996 
1.4099999999998611, -0.8380625450998945 
1.41999999999986, -0.8370782198228387 
1.429999999999859, -0.8355464669941302 
1.4399999999998578, -0.8335479898449034 
1.4499999999998567, -0.8312833340802899 
1.4599999999998556, -0.828986375247075 
1.4699999999998545, -0.8268262973470891 
1.4799999999998534, -0.8248669055784147 
1.4899999999998523, -0.8230855864138993 
1.4999999999998512, -0.8214188944063038 
1.5099999999998501, -0.8198104485092307 
1.519999999999849, -0.8182466732993504 
1.529999999999848, -0.816770121927212 
1.5399999999998468, -0.8154681665730917 
1.5499999999998457, -0.8144442257851644 
1.5599999999998446, -0.8137854719634248 
1.5699999999998435, -0.8135424807872864 
1.5799999999998424, -0.8137273856995784 
1.5899999999998413, -0.8143226029628187 
1.5999999999998402, -0.8152877961587819 
1.6099999999998391, -0.8165629547426395 
1.619999999999838, -0.8180760701237032 
1.629999999999837, -0.8197616014030246 
1.6399999999998358, -0.821584362761576 
1.6499999999998347, -0.8235552647853644 
1.6599999999998336, -0.8257266015374001 
1.6699999999998325, -0.8281623673532963 
1.6799999999998314, -0.8308868052782099 
1.6899999999998303, -0.833821989701639 
1.6999999999998292, -0.8367465776788585 
1.709999999999828, -0.8393340349704171 
1.719999999999827, -0.8412876404595118 
1.729999999999826, -0.8424738600590551 
1.7399999999998248, -0.8429429193350199 
1.7499999999998237, -0.8428657020374686 
1.7599999999998226, -0.8424949409469678 
1.7699999999998215, -0.8422042981906914 
1.7799999999998204, -0.8425756000022281 
1.7899999999998193, -0.8444294962377115 
1.7999999999998182, -0.8486586256222453 
1.809999999999817, -0.8558539307871584 
1.819999999999816, -0.8659955238914581 
1.8299999999998149, -0.8785168809868342 
1.8399999999998138, -0.8926801223705771 
1.8499999999998127, -0.9079278531883499 
1.8599999999998116, -0.9240129331763262 
1.8699999999998105, -0.9409307429869408 
1.8799999999998094, -0.9587209447787146 
1.8899999999998083, -0.9771459313410574 
1.8999999999998072, -0.9953039504755857 
1.909999999999806, -1.0115452506365954 
1.919999999999805, -1.0241946949816119 
1.9299999999998039, -1.032636290085458 
1.9399999999998028, -1.0374885355181596 
1.9499999999998017, -1.0398466719564898 
1.9599999999998006, -1.0406368020260088 
1.9699999999997995, -1.0404842495249027 
1.9799999999997984, -1.0399018233538926 
1.9899999999997973, -1.0396258444915254 
1.9999999999997962, -1.040918333206743 
2.0099999999998173, -1.0453403923979667 
2.0199999999998384, -1.0536706395460047 
2.0299999999998595, -1.0650571516287928 
2.0399999999998806, -1.0776998884610438 
2.0499999999999017, -1.0901362711838398 
2.059999999999923, -1.1017158129560662 
2.069999999999944, -1.112357679114349 
2.079999999999965, -1.1221961645814331 
2.089999999999986, -1.1313441107387077 
2.100000000000007, -1.139752851177531 
2.1100000000000283, -1.1471539742316719 
2.1200000000000494, -1.1531467373616946 
2.1300000000000705, -1.157440836983464 
2.1400000000000916, -1.1600585483692467 
2.1500000000001127, -1.1612998565676378 
2.160000000000134, -1.161569374852158 
2.170000000000155, -1.1612821158295765 
2.180000000000176, -1.160893615357261 
2.190000000000197, -1.1609117885480522 
2.2000000000002182, -1.1617210263846476 
2.2100000000002393, -1.1633321424636025 
2.2200000000002604, -1.16541805205683 
2.2300000000002815, -1.1676162110403197 
2.2400000000003026, -1.1697212950810023 
2.2500000000003237, -1.1716523906753673 
2.260000000000345, -1.1733576785334758 
2.270000000000366, -1.1747836308900859 
2.280000000000387, -1.175898275279815 
2.290000000000408, -1.1767077186773935 
2.3000000000004293, -1.177240101645188 
2.3100000000004504, -1.1775115011210382 
2.3200000000004715, -1.1775022614140043 
2.3300000000004926, -1.177164019346867 
2.3400000000005137, -1.176455722255026 
2.3500000000005348, -1.1753850875690202 
2.360000000000556, -1.1740273062834121 
2.370000000000577, -1.1725039447284893 
2.380000000000598, -1.1709273640386955 
2.390000000000619, -1.1693619057930291 
2.4000000000006403, -1.1678657145971085 
2.4100000000006614, -1.16657568265267 
2.4200000000006825, -1.1656926651747437 
2.4300000000007036, -1.165311632301289 
2.4400000000007247, -1.1652778984400718 
2.450000000000746, -1.1652523261309213 
2.460000000000767, -1.1648718006006737 
2.470000000000788, -1.1638277291795074 
2.480000000000809, -1.1618852691021142 
2.49000000000083, -1.1589292568003409 
2.5000000000008513, -1.1550157361814164 
2.5100000000008724, -1.1503375777358866 
2.5200000000008935, -1.1451019601240802 
2.5300000000009146, -1.139425250624335 
2.5400000000009357, -1.1333101981103717 
2.550000000000957, -1.1266806243531762 
2.560000000000978, -1.1194383352456039 
2.570000000000999, -1.1115576167408572 
2.58000000000102, -1.1032659448484963 
2.5900000000010412, -1.0952694739314495 
2.6000000000010624, -1.0887185315615135 
2.6100000000010835, -1.0845612574465358 
2.6200000000011046, -1.0827531688555985 
2.6300000000011257, -1.0823615457227107 
2.6400000000011468, -1.0823483643831426 
2.650000000001168, -1.081988913326342 
2.660000000001189, -1.0807532807397797 
2.67000000000121, -1.0780391468659727 
2.680000000001231, -1.0730189382979525 
2.6900000000012523, -1.064788900839937 
2.7000000000012734, -1.05291982048514 
2.7100000000012945, -1.0379781001992545 
2.7200000000013156, -1.0212677403268102 
2.7300000000013367, -1.0039975228461961 
2.740000000001358, -0.986800513971138 
2.750000000001379, -0.9698311512563572 
2.7600000000014, -0.9530797611127948 
2.770000000001421, -0.9366714874308455 
2.780000000001442, -0.9210975166679922 
2.7900000000014633, -0.9072906568297515 
2.8000000000014844, -0.896364862926298 
2.8100000000015055, -0.8890107409760623 
2.8200000000015266, -0.8850099755828345 
2.8300000000015477, -0.8833837376699695 
2.840000000001569, -0.8829870598665265 
2.85000000000159, -0.8829447920124783 
2.860000000001611, -0.8827099159666695 
2.870000000001632, -0.8819287240715508 
2.8800000000016532, -0.8803175218137197 
2.8900000000016743, -0.8776473627415398 
2.9000000000016954, -0.8738492624091879 
2.9100000000017165, -0.8691369990154312 
2.9200000000017377, -0.8639653324092261 
2.9300000000017588, -0.8588064067925252 
2.94000000000178, -0.8539563665884213 
2.950000000001801, -0.8495087296700851 
2.960000000001822, -0.8454325879703241 
2.970000000001843, -0.8416588144323136 
2.9800000000018643, -0.8381357171084464 
2.9900000000018854, -0.8348522069334254 
3.0000000000019065, -0.8318376523558356 
3.0100000000019276, -0.8291514653936634 
3.0200000000019487, -0.8268721763331529 
3.03000000000197, -0.8250845667595292 
3.040000000001991, -0.8238556337409628 
3.050000000002012, -0.8231990991292808 
3.060000000002033, -0.8230482935500716 
3.070000000002054, -0.8232620563513912 
3.0800000000020753, -0.823664983456464 
3.0900000000020964, -0.8240983036736551 
3.1000000000021175, -0.824458730297329 
3.1100000000021386, -0.82471751951834 
3.1200000000021597, -0.8249167617245121 
3.130000000002181, -0.8251401242445034 
3.140000000002202, -0.8254663456368332 
3.150000000002223, -0.825924924614409 
3.160000000002244, -0.826470446096967 
3.1700000000022652, -0.8269870002623636 
3.1800000000022863, -0.8273302888221021 
3.1900000000023074, -0.8273929209023025 
3.2000000000023285, -0.8271543852479134 
3.2100000000023496, -0.8266948689098734 
3.2200000000023707, -0.8261896440196896 
3.230000000002392, -0.8259005769961364 
3.240000000002413, -0.8261495363027471 
3.250000000002434, -0.8272475294715006 
3.260000000002455, -0.8293932961453493 
3.2700000000024763, -0.8326079093765328 
3.2800000000024974, -0.8367590336791348 
3.2900000000025185, -0.8416516906852337 
3.3000000000025396, -0.8471179001600488 
3.3100000000025607, -0.8530653661259248 
3.3200000000025818, -0.8594889072528064 
3.330000000002603, -0.866459408812805 
3.340000000002624, -0.8740890377239697 
3.350000000002645, -0.8824513010886685 
3.360000000002666, -0.891431863870676 
3.3700000000026873, -0.900546769522849 
3.3800000000027084, -0.9089196305690294 
3.3900000000027295, -0.9156356201814194 
3.4000000000027506, -0.9202554402725281 
3.4100000000027717, -0.9229422076409273 
3.420000000002793, -0.9241597478190192 
3.430000000002814, -0.9243712495358464 
3.440000000002835, -0.9239684797945668 
3.450000000002856, -0.9234058003153258 
3.460000000002877, -0.9234760957349429 
3.4700000000028983, -0.9255871827157012 
3.4800000000029194, -0.9316252354504053 
3.4900000000029405, -0.9430037583390215 
3.5000000000029616, -0.9595162866478241 
3.5100000000029827, -0.9793911993239348 
3.520000000003004, -1.0005476951942858 
3.530000000003025, -1.021620115597249 
3.540000000003046, -1.0420813329170533 
3.550000000003067, -1.0618592251776895 
3.5600000000030882, -1.0808735967664842 
3.5700000000031094, -1.0986490811138645 
3.5800000000031305, -1.1141787578481048 
3.5900000000031516, -1.126326417798761 
3.6000000000031727, -1.134602799647033 
3.6100000000031938, -1.1394714276082527 
3.620000000003215, -1.1418857706905126 
3.630000000003236, -1.1427331007097181 
3.640000000003257, -1.1426640732124718 
3.650000000003278, -1.1422343736552563 
3.6600000000032993, -1.1421373747776176 
3.6700000000033204, -1.1432291619754407 
3.6800000000033415, -1.146075659625575 
3.6900000000033626, -1.150435267949859 
3.7000000000033837, -1.1554777187693026 
3.710000000003405, -1.1604551803563536 
3.720000000003426, -1.1650090214936344 
3.730000000003447, -1.1690638026769977 
3.740000000003468, -1.172652684876517 
3.750000000003489, -1.175830185096466 
3.7600000000035103, -1.1786444976256927 
3.7700000000035314, -1.1811151974160627 
3.7800000000035525, -1.1832075374609268 
3.7900000000035736, -1.1848296312241249 
3.8000000000035947, -1.1858746452110762 
3.810000000003616, -1.1862894587910067 
3.820000000003637, -1.1861203461586871 
3.830000000003658, -1.1855152151690533 
3.840000000003679, -1.1846988609313693 
3.8500000000037002, -1.1839149408286578 
3.8600000000037213, -1.1833253437697377 
3.8700000000037424, -1.1829498171710573 
3.8800000000037635, -1.1827374236775168 
3.8900000000037847, -1.1826833230940959 
3.9000000000038058, -1.1828293753261019 
3.910000000003827, -1.183150664282032 
3.920000000003848, -1.1834877651584295 
3.930000000003869, -1.1836060400332094 
3.94000000000389, -1.1832929984183242 
3.9500000000039113, -1.1824148227505726 
3.9600000000039324, -1.1809386029538764 
3.9700000000039535, -1.178924602220897 
3.9800000000039746, -1.176477361273441 
3.9900000000039957, -1.1736807484022571 
4.000000000004016, -1.1705628934734755 
4.010000000003993, -1.1671040135797808 
4.02000000000397, -1.1632635214923142 
4.030000000003946, -1.1590005655480835 
4.040000000003923, -1.1542956669027515 
4.0500000000039, -1.149224132796583 
4.0600000000038765, -1.144108300115 
4.070000000003853, -1.1396126980907257 
4.08000000000383, -1.1364826089162807 
4.090000000003807, -1.1349552932017635 
4.100000000003783, -1.1345396311909826 
4.11000000000376, -1.1344510402580976 
4.120000000003737, -1.1340304043717846 
4.130000000003713, -1.1327478766227197 
4.14000000000369, -1.1300136807355854 
4.150000000003667, -1.125079813013666 
4.1600000000036434, -1.1172222254549904 
4.17000000000362, -1.1061994955726888 
4.180000000003597, -1.0925375252298362 
4.1900000000035735, -1.07719064535134 
4.20000000000355, -1.0609329834676535 
4.210000000003527, -1.0440943408918242 
4.220000000003504, -1.0266904082101767 
4.23000000000348, -1.0087209043431635 
4.240000000003457, -0.9905293526942105 
4.250000000003434, -0.973141170298233 
4.26000000000341, -0.958264988136728 
4.270000000003387, -0.9475494955553954 
4.280000000003364, -0.9414469149324585 
4.2900000000033405, -0.9389233052565876 
4.300000000003317, -0.9383428662153335 
4.310000000003294, -0.9383893062706526 
4.320000000003271, -0.9382846301691574 
4.330000000003247, -0.9375691737369636 
4.340000000003224, -0.93584529520202 
4.350000000003201, -0.9326510188948876 
4.360000000003177, -0.9275380519103275 
4.370000000003154, -0.9203713616880955 
4.380000000003131, -0.9116061368367419 
4.390000000003107, -0.9021360165587431 
4.400000000003084, -0.8927932000239773 
4.410000000003061, -0.8840272113783689 
4.4200000000030375, -0.8759398225922187 
4.430000000003014, -0.8684604606690798 
4.440000000002991, -0.8614872834862999 
4.450000000002968, -0.8549635367785484 
4.460000000002944, -0.8489125275292603 
4.470000000002921, -0.8434496106255761 
4.480000000002898, -0.8387678061854492 
4.490000000002874, -0.835079030030043 
4.500000000002851, -0.8325118979326345 
4.510000000002828, -0.8310187178296402 
4.520000000002804, -0.830365480820617 
4.530000000002781, -0.8302157327354187 
4.540000000002758, -0.8302386417059855 
4.5500000000027345, -0.8301745713438182 
4.560000000002711, -0.8298550120954975 
4.570000000002688, -0.8292090955594711 
4.580000000002665, -0.8282694304258506 
4.590000000002641, -0.8271557781997319 
4.600000000002618, -0.826020211486537 
4.610000000002595, -0.824979705181186 
4.620000000002571, -0.8240765846625129 
4.630000000002548, -0.8232785291105522 
4.640000000002525, -0.8225076432536218 
4.6500000000025015, -0.8216856226050957 
4.660000000002478, -0.820778346108115 
4.670000000002455, -0.8198219406882586 
4.6800000000024315, -0.818923489074899 
4.690000000002408, -0.8182393121888747 
4.700000000002385, -0.8179348119533556 
4.710000000002362, -0.8181363020709916 
4.720000000002338, -0.8188975643502525 
4.730000000002315, -0.820199804577517 
4.740000000002292, -0.82197889060203 
4.750000000002268, -0.8241565559185746 
4.760000000002245, -0.8266607025978796 
4.770000000002222, -0.8294376995156856 
4.7800000000021985, -0.8324645822293274 
4.790000000002175, -0.835760077907554 
4.800000000002152, -0.8393836257743921 
4.810000000002129, -0.8434097164538871 
4.820000000002105, -0.847868676953011 
4.830000000002082, -0.8526562613672451 
4.840000000002059, -0.8574545669296523 
4.850000000002035, -0.861768000140839 
4.860000000002012, -0.8651322759136464 
4.870000000001989, -0.8673415252927701 
4.880000000001965, -0.8684778564365615 
4.890000000001942, -0.8687776806846512 
4.900000000001919, -0.8685250553207501 
4.9100000000018955, -0.86807140975877 
4.920000000001872, -0.867971419579144 
4.930000000001849, -0.8691510757549488 
