t, s[1].omega / s[0].omega 
0, -1.4099972808442314 
0.009999999999999995, -1.4094785304635622 
0.019999999999999934, -1.40844941374311 
0.029999999999999874, -1.4068620219596062 
0.04000000000000012, -1.4046716748502228 
0.050000000000000405, -1.401829429856845 
0.06000000000000069, -1.3982108882219197 
0.07000000000000098, -1.3935902869429158 
0.08000000000000126, -1.3879131486192995 
0.09000000000000155, -1.3819466923200519 
0.10000000000000184, -1.3774607413010078 
0.11000000000000212, -1.3755806079127004 
0.12000000000000241, -1.375377933858053 
0.130000000000002, -1.3752041912403008 
0.1400000000000009, -1.3737921721255728 
0.1499999999999998, -1.3695609459582516 
0.1599999999999987, -1.358836281947449 
0.1699999999999976, -1.332619246440476 
0.1799999999999965, -1.2733292120012443 
0.1899999999999954, -1.163887788858244 
0.1999999999999943, -1.0164713446592182 
0.2099999999999932, -0.870139469650133 
0.2199999999999921, -0.7502908104894216 
0.229999999999991, -0.6603044707324127 
0.2399999999999899, -0.595062704609206 
0.2499999999999888, -0.5486093161296115 
0.2599999999999877, -0.5160314095571945 
0.2699999999999866, -0.4935682455115368 
0.2799999999999855, -0.47839727648117847 
0.2899999999999844, -0.4684176192198316 
0.2999999999999833, -0.4620776890901001 
0.3099999999999822, -0.458243693429144 
0.3199999999999811, -0.4560994134114925 
0.32999999999998, -0.4550691825042831 
0.3399999999999789, -0.454759013906724 
0.3499999999999778, -0.45491375548912805 
0.35999999999997667, -0.4553897386935713 
0.36999999999997557, -0.4561414918754669 
0.37999999999997447, -0.457217770683281 
0.38999999999997337, -0.45876028837043964 
0.39999999999997227, -0.46100394046418075 
0.40999999999997117, -0.46428607546476447 
0.41999999999997006, -0.46906443569188816 
0.42999999999996896, -0.475895530296229 
0.43999999999996786, -0.4852330895561264 
0.44999999999996676, -0.49688734245220995 
0.45999999999996566, -0.5094342174962867 
0.46999999999996456, -0.5206119765492553 
0.47999999999996346, -0.5288226555564648 
0.48999999999996235, -0.5339060720872103 
0.49999999999996125, -0.5365169589373846 
0.5099999999999602, -0.5373133250970803 
0.519999999999959, -0.536590322234751 
0.529999999999958, -0.5341232127855547 
0.5399999999999568, -0.5288109603940316 
0.5499999999999557, -0.5174021171272973 
0.5599999999999546, -0.48956501889123916 
0.5699999999999535, -0.40575074624380225 
0.5799999999999524, -0.11482777709744066 
0.5899999999999513, 0.41479290013411907 
0.5999999999999502, 0.6410178634204747 
0.6099999999999491, 0.6928178276849634 
0.619999999999948, 0.7070075477644037 
0.6299999999999469, 0.7115882644580067 
0.6399999999999458, 0.7127106355285473 
0.6499999999999447, 0.7117870830276091 
0.6599999999999436, 0.7085670160233323 
0.6699999999999425, 0.7014909913186782 
0.6799999999999414, 0.6876757114833036 
0.6899999999999403, 0.6652833511469951 
0.6999999999999392, 0.63990242679603 
0.7099999999999381, 0.6220517270085016 
0.719999999999937, 0.6140121611366708 
0.7299999999999359, 0.6114981874203379 
0.7399999999999348, 0.6110213129856532 
0.7499999999999337, 0.6110131987844817 
0.7599999999999326, 0.6108282755028551 
0.7699999999999315, 0.6100490477464798 
0.7799999999999304, 0.6080443890653819 
0.7899999999999293, 0.6032443881644538 
0.7999999999999282, 0.5905429623817284 
0.8099999999999271, 0.5472562508128126 
0.819999999999926, 0.31379070982663454 
0.8299999999999249, -1.14889350506094 
0.8399999999999238, -2.367562224561805 
0.8499999999999227, -2.55708796015153 
0.8599999999999216, -2.593624461779686 
0.8699999999999205, -2.602859015923767 
0.8799999999999194, -2.604989285033146 
0.8899999999999183, -2.604598413351567 
0.8999999999999172, -2.602822898756009 
0.9099999999999161, -2.5987437477713713 
0.919999999999915, -2.590057951734899 
0.9299999999999139, -2.582915963309858 
0.9399999999999128, -2.58432771601817 
0.9499999999999117, -2.5849527510102157 
0.9599999999999106, -2.5810897625592264 
0.9699999999999095, -2.5703392936451843 
0.9799999999999084, -2.5904380086692376 
0.9899999999999073, -2.626547641103978 
0.9999999999999062, -2.6393023432604927 
1.0099999999999052, -2.6433079290834818 
1.019999999999904, -2.644359634432695 
1.029999999999903, -2.643407090033662 
1.039999999999902, -2.6396620861891953 
1.0499999999999008, -2.6297761237477895 
1.0599999999998997, -2.5996478009252724 
1.0699999999998986, -2.450462092021844 
1.0799999999998975, -1.1285138640530867 
1.0899999999998964, 0.34454275287596603 
1.0999999999998953, 0.5443999451677879 
1.1099999999998942, 0.5832966578147516 
1.119999999999893, 0.594940362327824 
1.129999999999892, 0.5990861853565367 
1.1399999999998909, 0.6002736093307175 
1.1499999999998898, 0.5996948359502379 
1.1599999999998887, 0.5972802765040922 
1.1699999999998876, 0.5917212545021872 
1.1799999999998865, 0.5788881562009605 
1.1899999999998854, 0.5468702493885915 
1.1999999999998843, 0.48936307399578405 
1.2099999999998832, 0.853279934014021 
1.219999999999882, 1.4566962978893856 
1.229999999999881, 1.5294388991843397 
1.2399999999998799, 1.5401972051262691 
1.2499999999998788, 1.5420798263178315 
1.2599999999998777, 1.540516425157288 
1.2699999999998766, 1.532096332166488 
1.2799999999998755, 1.4741728455627503 
1.2899999999998744, 0.15483214590751732 
1.2999999999998733, -2.1474781982293516 
1.3099999999998722, -2.299708385998552 
1.319999999999871, -2.317069276789178 
1.32999999999987, -2.3199540436789676 
1.3399999999998689, -2.3198484425265073 
1.3499999999998678, -2.3197192415363883 
1.3599999999998666, -2.320424975582163 
1.3699999999998655, -2.320651673680264 
1.3799999999998644, -2.320132107103389 
1.3899999999998633, -2.319762179238272 
1.3999999999998622, -2.319083373090966 
1.4099999999998611, -2.315725576482618 
1.41999999999986, -2.3010217767281542 
1.429999999999859, -2.210107299335788 
1.4399999999998578, -1.2572280610855495 
1.4499999999998567, 0.44647745269441674 
1.4599999999998556, 0.6718515638509889 
1.4699999999998545, 0.7077832049933143 
1.4799999999998534, 0.7173530867916158 
1.4899999999998523, 0.7204070939750773 
1.4999999999998512, 0.7210161373549969 
1.5099999999998501, 0.7202173487852123 
1.519999999999849, 0.7182204363169082 
1.529999999999848, 0.7150492851972035 
1.5399999999998468, 0.7109303080927759 
1.5499999999998457, 0.706513648523371 
1.5599999999998446, 0.7026701656073074 
1.5699999999998435, 0.6999759290571872 
1.5799999999998424, 0.6984603112545567 
1.5899999999998413, 0.6977881467789212 
1.5999999999998402, 0.6975302679657326 
1.6099999999998391, 0.6972870952956618 
1.619999999999838, 0.6966591860239592 
1.629999999999837, 0.6950615110661212 
1.6399999999998358, 0.6911469789434759 
1.6499999999998347, 0.6805465548062287 
1.6599999999998336, 0.6431418978994687 
1.6699999999998325, 0.4225476197816415 
1.6799999999998314, -1.3112881798387024 
1.6899999999998303, -2.6258568602342547 
1.6999999999998292, -2.7579457366298863 
1.709999999999828, -2.7776818135151813 
1.719999999999827, -2.7815414468626223 
1.729999999999826, -2.7815975438790495 
1.7399999999998248, -2.780190825089505 
1.7499999999998237, -2.7767693680440106 
1.7599999999998226, -2.7690730856947625 
1.7699999999998215, -2.7634107559525587 
1.7799999999998204, -2.765051919444579 
1.7899999999998193, -2.764852438759946 
1.7999999999998182, -2.7591218173592673 
1.809999999999817, -2.7534208563858504 
1.819999999999816, -2.7834502456405876 
1.8299999999998149, -2.801783973079526 
1.8399999999998138, -2.8070637413985486 
1.8499999999998127, -2.8084409746935166 
1.8599999999998116, -2.8076954193837578 
1.8699999999998105, -2.8038014733156884 
1.8799999999998094, -2.791598410507935 
1.8899999999998083, -2.7447509044867164 
1.8999999999998072, -2.403087853997111 
1.909999999999806, 0.11827481341065453 
1.919999999999805, 0.8282878985422031 
1.9299999999998039, 0.893076918858427 
1.9399999999998028, 0.9063084265358956 
1.9499999999998017, 0.9100900230898945 
1.9599999999998006, 0.9110603929197865 
1.9699999999997995, 0.9109337034433397 
1.9799999999997984, 0.910479085051616 
1.9899999999997973, 0.9105885220368999 
1.9999999999997962, 0.9128825290528892 
2.0099999999998173, 0.9193372381466304 
2.0199999999998384, 0.9296528432456741 
2.0299999999998595, 0.9400093679994036 
2.0399999999998806, 0.9472424526961609 
2.0499999999999017, 0.9511587066131156 
2.059999999999923, 0.952708640997624 
2.069999999999944, 0.9524660018991415 
2.079999999999965, 0.9499541636827911 
2.089999999999986, 0.9417128039799362 
2.100000000000007, 0.907481908984279 
2.1100000000000283, 0.6154727485028155 
2.1200000000000494, -1.9588336399404316 
2.1300000000000705, -2.6081251943453223 
2.1400000000000916, -2.6531857958306992 
2.1500000000001127, -2.659797692547079 
2.160000000000134, -2.6604950994310768 
2.170000000000155, -2.6598922521631843 
2.180000000000176, -2.658829972207282 
2.190000000000197, -2.656286175506612 
2.2000000000002182, -2.6532381736884045 
2.2100000000002393, -2.652822001751443 
2.2200000000002604, -2.652267530631135 
2.2300000000002815, -2.6462318697138305 
2.2400000000003026, -2.6100743511458684 
2.2500000000003237, -2.6279055100377944 
2.260000000000345, -2.8727242822746506 
2.270000000000366, -2.9185631496991165 
2.280000000000387, -2.9278734067252494 
2.290000000000408, -2.930327999731298 
2.3000000000004293, -2.9300334389840637 
2.3100000000004504, -2.927038724703256 
2.3200000000004715, -2.9181026434634427 
2.3300000000004926, -2.882775254681212 
2.3400000000005137, -2.562846638470239 
2.3500000000005348, -0.8998973265928425 
2.360000000000556, -0.41524476031088015 
2.370000000000577, -0.3289101986367412 
2.380000000000598, -0.30705804701919265 
2.390000000000619, -0.3006802326875186 
2.4000000000006403, -0.2988326134752747 
2.4100000000006614, -0.29840257046201124 
2.4200000000006825, -0.29836033920720995 
2.4300000000007036, -0.29832556854017267 
2.4400000000007247, -0.2981488159749049 
2.450000000000746, -0.2977864978649436 
2.460000000000767, -0.29727508166806893 
2.470000000000788, -0.2967326153610618 
2.480000000000809, -0.2963479394505621 
2.49000000000083, -0.2963488271655435 
2.5000000000008513, -0.29697665645206484 
2.5100000000008724, -0.29849729482221105 
2.5200000000008935, -0.30123824109573166 
2.5300000000009146, -0.3055910856664319 
2.5400000000009357, -0.3118673315748875 
2.550000000000957, -0.3199172985368576 
2.560000000000978, -0.3287482893017607 
2.570000000000999, -0.3368011094691184 
2.58000000000102, -0.3429020772609425 
2.5900000000010412, -0.3467844104503118 
2.6000000000010624, -0.3487490119327879 
2.6100000000010835, -0.3491292637840743 
2.6200000000011046, -0.3479653755525719 
2.6300000000011257, -0.34475413130999716 
2.6400000000011468, -0.3379453953950083 
2.650000000001168, -0.32370311611506253 
2.660000000001189, -0.293645941594742 
2.67000000000121, -0.23558131484440442 
2.680000000001231, -0.15172612882506414 
2.6900000000012523, -0.07479632061528523 
2.7000000000012734, -0.027076485196090832 
2.7100000000012945, -0.002367209395895034 
2.7200000000013156, 0.009769673645986096 
2.7300000000013367, 0.015883055110218113 
2.740000000001358, 0.01896061128795882 
2.750000000001379, 0.02034989630207664 
2.7600000000014, 0.020718233980821187 
2.770000000001421, 0.020458072934874248 
2.780000000001442, 0.019863435396357498 
2.7900000000014633, 0.01918950276129723 
2.8000000000014844, 0.018659774928098515 
2.8100000000015055, 0.01847787111559634 
2.8200000000015266, 0.018888182367591478 
2.8300000000015477, 0.020330436304605508 
2.840000000001569, 0.02380428796465829 
2.85000000000159, 0.03175437635365692 
2.860000000001611, 0.049899722074717434 
2.870000000001632, 0.08812662808185961 
2.8800000000016532, 0.14937958664636702 
2.8900000000016743, 0.21105626774471836 
2.9000000000016954, 0.2507044975321184 
2.9100000000017165, 0.2706072363593295 
2.9200000000017377, 0.2798811507080139 
2.9300000000017588, 0.2840647446088653 
2.94000000000178, 0.2856377311681128 
2.950000000001801, 0.2855704186829522 
2.960000000001822, 0.28411957517332637 
2.970000000001843, 0.281202288259809 
2.9800000000018643, 0.27669456314410085 
2.9900000000018854, 0.27080785047000583 
3.0000000000019065, 0.2643480788391871 
3.0100000000019276, 0.258447261385926 
3.0200000000019487, 0.2539248556800456 
3.03000000000197, 0.25099640899627707 
3.040000000001991, 0.2494836726431001 
3.050000000002012, 0.24910208961631838 
3.060000000002033, 0.24957891324082268 
3.070000000002054, 0.2506382455916133 
3.0800000000020753, 0.25196106673707325 
3.0900000000020964, 0.25319516685767257 
3.1000000000021175, 0.2540120521603705 
3.1100000000021386, 0.25413550623760217 
3.1200000000021597, 0.25326908922579017 
3.130000000002181, 0.2508784845312336 
3.140000000002202, 0.24568728146735203 
3.150000000002223, 0.23429490889856042 
3.160000000002244, 0.20676764488117955 
3.1700000000022652, 0.13307524762330442 
3.1800000000022863, -0.048987783817506216 
3.1900000000023074, -0.3031571034582719 
3.2000000000023285, -0.4578442435966779 
3.2100000000023496, -0.5183993538410651 
3.2200000000023707, -0.5414494825711826 
3.230000000002392, -0.5509778920376229 
3.240000000002413, -0.5550282673348987 
3.250000000002434, -0.5563571297974376 
3.260000000002455, -0.5558108915074637 
3.2700000000024763, -0.5532818741390606 
3.2800000000024974, -0.5478539822283266 
3.2900000000025185, -0.5377367746806929 
3.3000000000025396, -0.5207873821518347 
3.3100000000025607, -0.4967539876950723 
3.3200000000025818, -0.4697135586052122 
3.330000000002603, -0.44567936680495357 
3.340000000002624, -0.42767071349340025 
3.350000000002645, -0.4152693390555807 
3.360000000002666, -0.40690529742317727 
3.3700000000026873, -0.401198967787128 
3.3800000000027084, -0.3972127413105229 
3.3900000000027295, -0.3943509590749026 
3.4000000000027506, -0.39224124293348933 
3.4100000000027717, -0.39066356675125624 
3.420000000002793, -0.38951604105849846 
3.430000000002814, -0.3887996085907972 
3.440000000002835, -0.3886151261872444 
3.450000000002856, -0.38917555564792716 
3.460000000002877, -0.39083957988998 
3.4700000000028983, -0.3941753308379944 
3.4800000000029194, -0.4000681005797094 
3.4900000000029405, -0.40989513549233453 
3.5000000000029616, -0.42580228571299383 
3.5100000000029827, -0.4511221838364617 
3.520000000003004, -0.4909381450096393 
3.530000000003025, -0.5526288206348731 
3.540000000003046, -0.6457424762469859 
3.550000000003067, -0.77955910528052 
3.5600000000030882, -0.9553715079640985 
3.5700000000031094, -1.1518275167479683 
3.5800000000031305, -1.3202054036627338 
3.5900000000031516, -1.423921653838901 
3.6000000000031727, -1.4723579261217015 
3.6100000000031938, -1.491803704152383 
3.620000000003215, -1.4990850217177691 
3.630000000003236, -1.5014567002771186 
3.640000000003257, -1.5017433757777154 
3.650000000003278, -1.5013648161553077 
3.6600000000032993, -1.5016440643013709 
3.6700000000033204, -1.50346989694505 
3.6800000000033415, -1.5062835469555353 
3.6900000000033626, -1.5089110358340379 
3.7000000000033837, -1.510861938103825 
3.710000000003405, -1.5122386145355553 
3.720000000003426, -1.5131617661259886 
3.730000000003447, -1.5135415010992082 
3.740000000003468, -1.5131921618661237 
3.750000000003489, -1.5119683841198626 
3.7600000000035103, -1.5098008501683804 
3.7700000000035314, -1.5066613753436189 
3.7800000000035525, -1.5024818852775628 
3.7900000000035736, -1.497056090427543 
3.8000000000035947, -1.4899205564836295 
3.810000000003616, -1.480160997077546 
3.820000000003637, -1.466206880393681 
3.830000000003658, -1.4463177000100196 
3.840000000003679, -1.421826876578041 
3.8500000000037002, -1.4017958372404178 
3.8600000000037213, -1.394364170575219 
3.8700000000037424, -1.3948466548121476 
3.8800000000037635, -1.3963643676884812 
3.8900000000037847, -1.396464429937614 
3.9000000000038058, -1.3940698557346032 
3.910000000003827, -1.3860443750988123 
3.920000000003848, -1.3594793859240648 
3.930000000003869, -1.2505952126236628 
3.94000000000389, -0.7264273631775842 
3.9500000000039113, 0.2589102921288662 
3.9600000000039324, 0.5485767990013656 
3.9700000000039535, 0.6032042150946799 
3.9800000000039746, 0.6178355239664756 
3.9900000000039957, 0.6226976715394021 
4.000000000004016, 0.6241241562264015 
4.010000000003993, 0.6237432301342729 
4.02000000000397, 0.6218479264731627 
4.030000000003946, 0.6182392157450513 
4.040000000003923, 0.612710964256965 
4.0500000000039, 0.605655934170307 
4.0600000000038765, 0.5983913436567064 
4.070000000003853, 0.5924620736507686 
4.08000000000383, 0.5885671307446679 
4.090000000003807, 0.5864487842149767 
4.100000000003783, 0.5854820932792103 
4.11000000000376, 0.5850908989862595 
4.120000000003737, 0.5848332529199193 
4.130000000003713, 0.5843328410168109 
4.14000000000369, 0.58313395717123 
4.150000000003667, 0.5803772238111081 
4.1600000000036434, 0.573778866582113 
4.17000000000362, 0.5552709765397076 
4.180000000003597, 0.4839605170313425 
4.1900000000035735, 0.02097474405495279 
4.20000000000355, -1.9294292561121433 
4.210000000003527, -2.564691548321667 
4.220000000003504, -2.636069318615222 
4.23000000000348, -2.648586277791327 
4.240000000003457, -2.6509782000096895 
4.250000000003434, -2.650680916520685 
4.26000000000341, -2.6493573609935503 
4.270000000003387, -2.6463923828068707 
4.280000000003364, -2.6407152797037954 
4.2900000000033405, -2.6373527139561608 
4.300000000003317, -2.638199217429916 
4.310000000003294, -2.63718188945081 
4.320000000003271, -2.6289520408409435 
4.330000000003247, -2.6092642991775477 
4.340000000003224, -2.6735682682004347 
4.350000000003201, -2.7238173464888056 
4.360000000003177, -2.7367018854438663 
4.370000000003154, -2.740479187630021 
4.380000000003131, -2.741238243085008 
4.390000000003107, -2.7398207527021508 
4.400000000003084, -2.735169333801374 
4.410000000003061, -2.72235146045933 
4.4200000000030375, -2.6743168879588373 
4.430000000003014, -2.295896181619051 
4.440000000002991, -0.3313753805461483 
4.450000000002968, 0.3182007728195148 
4.460000000002944, 0.425177273803527 
4.470000000002921, 0.4531935339639035 
4.480000000002898, 0.463057280738565 
4.490000000002874, 0.4669454094176178 
4.500000000002851, 0.46817242499343503 
4.510000000002828, 0.4676594706885009 
4.520000000002804, 0.46522926492172123 
4.530000000002781, 0.4593769825068212 
4.540000000002758, 0.4449451008165187 
4.5500000000027345, 0.40122368262644087 
4.560000000002711, 0.20723701880977002 
4.570000000002688, -1.028398224537121 
4.580000000002665, -2.468591876001805 
4.590000000002641, -2.636464425362188 
4.600000000002618, -2.6663625354884486 
4.610000000002595, -2.6752990535484376 
4.620000000002571, -2.6781941869943 
4.630000000002548, -2.678333585038546 
4.640000000002525, -2.6763937184610205 
4.6500000000025015, -2.671240864850616 
4.660000000002478, -2.6560707518222233 
4.670000000002455, -2.607490140527364 
4.6800000000024315, -2.570168999772557 
4.690000000002408, -2.5847849869503987 
4.700000000002385, -2.5896265747066662 
4.710000000002362, -2.589038430283529 
4.720000000002338, -2.587122990716585 
4.730000000002315, -2.5911732595086034 
4.740000000002292, -2.597448400800949 
4.750000000002268, -2.600232761501017 
4.760000000002245, -2.601036793922876 
4.770000000002222, -2.6006511950704305 
4.7800000000021985, -2.5978104966698568 
4.790000000002175, -2.5873417982538003 
4.800000000002152, -2.5438994989566375 
4.810000000002129, -2.289316123972069 
4.820000000002105, -0.8419003296416534 
4.830000000002082, 0.30755606289032944 
4.840000000002059, 0.4899968651494734 
4.850000000002035, 0.5280478790841269 
4.860000000002012, 0.539716814771053 
4.870000000001989, 0.5440597752946781 
4.880000000001965, 0.5457104503488621 
4.890000000001942, 0.5461709396626511 
4.900000000001919, 0.5460684696776797 
4.9100000000018955, 0.545796050326796 
4.920000000001872, 0.5458446300164674 
4.930000000001849, 0.5472363404181886 
4.940000000001826, 0.5522399847941739 
4.950000000001802, 0.5645515833434007 
4.960000000001779, 0.5856585044738851 
