t, s[1].omega / s[0].omega 
0, -1.439997256938764 
0.009999999999999995, -1.4394583123008677 
0.019999999999999934, -1.4383733805365906 
0.029999999999999874, -1.4366921953837974 
0.04000000000000012, -1.4343608011045355 
0.050000000000000405, -1.4313029932922667 
0.06000000000000069, -1.427337770567892 
0.07000000000000098, -1.4221728337105657 
0.08000000000000126, -1.4157790769448242 
0.09000000000000155, -1.409212570819808 
0.10000000000000184, -1.4046457124921852 
0.11000000000000212, -1.403067600625133 
0.12000000000000241, -1.4030620063827912 
0.130000000000002, -1.402809719246028 
0.1400000000000009, -1.4009850212018544 
0.1499999999999998, -1.3955629062533323 
0.1599999999999987, -1.381078765897533 
0.1699999999999976, -1.3422867208092186 
0.1799999999999965, -1.2451863146810331 
0.1899999999999954, -1.0591082060320802 
0.1999999999999943, -0.8341472953217188 
0.2099999999999932, -0.6564077093966175 
0.2199999999999921, -0.5428888022476968 
0.229999999999991, -0.4737944116940522 
0.2399999999999899, -0.43101928751298413 
0.2499999999999888, -0.4036853769436163 
0.2599999999999877, -0.3857061795986737 
0.2699999999999866, -0.3736340331987945 
0.2799999999999855, -0.365448548239693 
0.2899999999999844, -0.3599216404474105 
0.2999999999999833, -0.3562823888887074 
0.3099999999999822, -0.35403554767809897 
0.3199999999999811, -0.352861161849849 
0.32999999999998, -0.3525592685068034 
0.3399999999999789, -0.35302187074833935 
0.3499999999999778, -0.35422408149046236 
0.35999999999997667, -0.3562322617244752 
0.36999999999997557, -0.35923183067838477 
0.37999999999997447, -0.36358429438385603 
0.38999999999997337, -0.36993770961654004 
0.39999999999997227, -0.3794472180242462 
0.40999999999997117, -0.39422397717379554 
0.41999999999997006, -0.4182002764763843 
0.42999999999996896, -0.45836043257573855 
0.43999999999996786, -0.5240464419805904 
0.44999999999996676, -0.6158707137234648 
0.45999999999996566, -0.7078514959234009 
0.46999999999996456, -0.7696421189486727 
0.47999999999996346, -0.8008996444055446 
0.48999999999996235, -0.8149008324561201 
0.49999999999996125, -0.820851670353191 
0.5099999999999602, -0.822961268129556 
0.519999999999959, -0.8228026939259012 
0.529999999999958, -0.8205742782070455 
0.5399999999999568, -0.8153047964350852 
0.5499999999999557, -0.8040658891550615 
0.5599999999999546, -0.7792943018874532 
0.5699999999999535, -0.7203252113532297 
0.5799999999999524, -0.5327858842064027 
0.5899999999999513, 1.6934748207328698 
0.5999999999999502, 2.5199751301176736 
0.6099999999999491, 2.538281520627451 
0.619999999999948, 2.5394463441153765 
0.6299999999999469, 2.53474530379052 
0.6399999999999458, 2.462869609707067 
0.6499999999999447, -4.183231902359039 
0.6599999999999436, -4.482905101181282 
0.6699999999999425, -4.488617433572912 
0.6799999999999414, -4.487255740783757 
0.6899999999999403, -4.47809424058987 
0.6999999999999392, -4.446210092330334 
0.7099999999999381, -4.46046821851675 
0.719999999999937, -4.46091878285881 
0.7299999999999359, -4.460784531750469 
0.7399999999999348, -4.460328867870631 
0.7499999999999337, -4.459177738978193 
0.7599999999999326, -4.456887615468739 
0.7699999999999315, -4.4338412357205375 
0.7799999999999304, -4.479646044283895 
0.7899999999999293, -4.490747491701173 
0.7999999999999282, -4.491011372126912 
0.8099999999999271, -4.485079820333833 
0.819999999999926, -4.334792867925869 
0.8299999999999249, 2.189669634702962 
0.8399999999999238, 2.358008049944577 
0.8499999999999227, 2.3653447035070236 
0.8599999999999216, 2.365040332960258 
0.8699999999999205, 2.3581008802209618 
0.8799999999999194, 2.28737481322403 
0.8899999999999183, 1.8341311546315187 
0.8999999999999172, 1.976039615307577 
0.9099999999999161, 1.9988495303222493 
0.919999999999915, 2.0020017424354744 
0.9299999999999139, 2.00165663273921 
0.9399999999999128, 2.0008776781212596 
0.9499999999999117, 2.0025939822910934 
0.9599999999999106, 2.0064867181989268 
0.9699999999999095, 2.009134362362857 
0.9799999999999084, 2.0099823552342118 
0.9899999999999073, 2.009677444365157 
0.9999999999999062, 2.007552704243436 
1.0099999999999052, 1.9955760171330084 
1.019999999999904, 1.7643660291349506 
1.029999999999903, -3.645879290535518 
1.039999999999902, -3.858091717108139 
1.0499999999999008, -3.870646587751421 
1.0599999999998997, -3.871911198407273 
1.0699999999998986, -3.8691917603880293 
1.0799999999998975, -3.854021879145832 
1.0899999999998964, -3.570455276148131 
1.0999999999998953, -3.2354518759684843 
1.1099999999998942, -3.3286250908991 
1.119999999999893, -3.334568811950407 
1.129999999999892, -3.3343914298082793 
1.1399999999998909, -3.3341634029324787 
1.1499999999998898, -3.333149885601082 
1.1599999999998887, -3.3312119880507707 
1.1699999999998876, -3.3308751409030686 
1.1799999999998865, -3.3278865742471107 
1.1899999999998854, -3.3033772513177837 
1.1999999999998843, -3.335188929997682 
1.2099999999998832, -3.4227391429250473 
1.219999999999882, -3.434939740659776 
1.229999999999881, -3.4369703423385998 
1.2399999999998799, -3.4357810951864503 
1.2499999999998788, -3.4291867319717015 
1.2599999999998777, -3.394182475429673 
1.2699999999998766, -2.767980455549141 
1.2799999999998755, 1.352732579154782 
1.2899999999998744, 1.5368905181003254 
1.2999999999998733, 1.5518139818119283 
1.3099999999998722, 1.5545266009865704 
1.319999999999871, 1.554816618321381 
1.32999999999987, 1.5542735008011141 
1.3399999999998689, 1.5531370267934583 
1.3499999999998678, 1.5513264129503066 
1.3599999999998666, 1.5491309481557782 
1.3699999999998655, 1.5474342239277776 
1.3799999999998644, 1.5467105671264283 
1.3899999999998633, 1.546357420438961 
1.3999999999998622, 1.5451475732310662 
1.4099999999998611, 1.5401442015349043 
1.41999999999986, 1.5123841118460193 
1.429999999999859, 0.9986521254201401 
1.4399999999998578, -3.4254194792068033 
1.4499999999998567, -3.6082919283098986 
1.4599999999998556, -3.621840072174043 
1.4699999999998545, -3.623859528539839 
1.4799999999998534, -3.6222110610753537 
1.4899999999998523, -3.6142135343172654 
1.4999999999998512, -3.55121478207437 
1.5099999999998501, -2.234433278076052 
1.519999999999849, -2.2471886620398296 
1.529999999999848, -2.358755276285791 
1.5399999999998468, -2.3732844986366657 
1.5499999999998457, -2.375321098103929 
1.5599999999998446, -2.3747196695890684 
1.5699999999998435, -2.37501122061343 
1.5799999999998424, -2.3772169713391618 
1.5899999999998413, -2.3787328564798433 
1.5999999999998402, -2.3790655083836048 
1.6099999999998391, -2.3790003131496245 
1.619999999999838, -2.3780524945446304 
1.629999999999837, -2.373868775616602 
1.6399999999998358, -2.3574258638057826 
1.6499999999998347, -2.2751768890234514 
1.6599999999998336, -1.7188718538924057 
1.6699999999998325, -0.2582907256575302 
1.6799999999998314, 0.23259033129111914 
1.6899999999998303, 0.32950266447774385 
1.6999999999998292, 0.35676960373745525 
1.709999999999828, 0.3667627352662481 
1.719999999999827, 0.37096181124771144 
1.729999999999826, 0.3727646935833058 
1.7399999999998248, 0.3734299884465705 
1.7499999999998237, 0.3735271292078425 
1.7599999999998226, 0.3733871497493836 
1.7699999999998215, 0.3733027490160409 
1.7799999999998204, 0.37372401863534 
1.7899999999998193, 0.375645362379625 
1.7999999999998182, 0.38143379725169535 
1.809999999999817, 0.39578366372938156 
1.819999999999816, 0.42315947112495167 
1.8299999999998149, 0.4580419413145038 
1.8399999999998138, 0.4863562223869324 
1.8499999999998127, 0.5028402853738355 
1.8599999999998116, 0.5109425069776277 
1.8699999999998105, 0.5144992077239954 
1.8799999999998094, 0.5155367982626177 
1.8899999999998083, 0.5147159693884299 
1.8999999999998072, 0.5116324225364366 
1.909999999999806, 0.5043756053637225 
1.919999999999805, 0.4879291858977055 
1.9299999999998039, 0.45229190210208803 
1.9399999999998028, 0.3913867748931506 
1.9499999999998017, 0.3290729038423284 
1.9599999999998006, 0.29364365460359354 
1.9699999999997995, 0.27987199742927826 
1.9799999999997984, 0.2752297693356852 
1.9899999999997973, 0.2736988892068307 
1.9999999999997962, 0.2731661578032666 
2.0099999999998173, 0.2729037002337244 
2.0199999999998384, 0.27260494188250584 
2.0299999999998595, 0.272053771150761 
2.0399999999998806, 0.2709796708275142 
2.0499999999999017, 0.2689172634941678 
2.059999999999923, 0.2649066990516978 
2.069999999999944, 0.2566189550675365 
2.079999999999965, 0.237271272075711 
2.089999999999986, 0.18195419987430272 
2.100000000000007, -0.030565202183258915 
2.1100000000000283, -0.9107719009468358 
2.1200000000000494, -1.8830352980956622 
2.1300000000000705, -2.0915915336728377 
2.1400000000000916, -2.129138773789072 
2.1500000000001127, -2.137682799039706 
2.160000000000134, -2.1394999220683166 
2.170000000000155, -2.139358100413933 
2.180000000000176, -2.1390203921775828 
2.190000000000197, -2.138864332691634 
2.2000000000002182, -2.1381414171238333 
2.2100000000002393, -2.13689197555047 
2.2200000000002604, -2.1361911486232237 
2.2300000000002815, -2.1358143420115465 
2.2400000000003026, -2.1338489620802075 
2.2500000000003237, -2.1257174755768733 
2.260000000000345, -2.0871067224426256 
2.270000000000366, -1.7928854132759717 
2.280000000000387, -0.1107465965872183 
2.290000000000408, 0.5801866947790097 
2.3000000000004293, 0.666742263537983 
2.3100000000004504, 0.6856659857146241 
2.3200000000004715, 0.691463320636189 
2.3300000000004926, 0.6932372584755746 
2.3400000000005137, 0.6931633559008792 
2.3500000000005348, 0.6917714535863385 
2.360000000000556, 0.6890987170152566 
2.370000000000577, 0.6851712248444254 
2.380000000000598, 0.6803836884965762 
2.390000000000619, 0.6756051215994148 
2.4000000000006403, 0.671753602812142 
2.4100000000006614, 0.6692450453981988 
2.4200000000006825, 0.667925848279516 
2.4300000000007036, 0.6673740516610291 
2.4400000000007247, 0.6671488898798604 
2.450000000000746, 0.666859688121927 
2.460000000000767, 0.6660993901241495 
2.470000000000788, 0.6642222163337241 
2.480000000000809, 0.6596618184601468 
2.49000000000083, 0.6471832968095483 
2.5000000000008513, 0.6018771065725452 
2.5100000000008724, 0.3228437978863014 
2.5200000000008935, -1.5606059980562434 
2.5300000000009146, -2.622210680778474 
2.5400000000009357, -2.7289917911408725 
2.550000000000957, -2.7457746219221977 
2.560000000000978, -2.7490287519203895 
2.570000000000999, -2.7489205488801813 
2.58000000000102, -2.7474950938489484 
2.5900000000010412, -2.7441044899566935 
2.6000000000010624, -2.736928483546569 
2.6100000000010835, -2.732330269427516 
2.6200000000011046, -2.733765021983207 
2.6300000000011257, -2.733178261651471 
2.6400000000011468, -2.726456240522569 
2.650000000001168, -2.7192511873100305 
2.660000000001189, -2.7570665839720396 
2.67000000000121, -2.7794841293767116 
2.680000000001231, -2.7858044511421776 
2.6900000000012523, -2.7875558140197425 
2.7000000000012734, -2.7871035453536215 
2.7100000000012945, -2.7838774480512103 
2.7200000000013156, -2.774217424308284 
2.7300000000013367, -2.7409762608275905 
2.740000000001358, -2.5406551165914593 
2.750000000001379, -0.46890118437570233 
2.7600000000014, 0.7446945524488864 
2.770000000001421, 0.8470942580281504 
2.780000000001442, 0.8659816799381991 
2.7900000000014633, 0.8712692259842478 
2.8000000000014844, 0.8727423716405461 
2.8100000000015055, 0.8726711332080882 
2.8200000000015266, 0.8718185895977311 
2.8300000000015477, 0.870859725112213 
2.840000000001569, 0.871575573326895 
2.85000000000159, 0.8783089238929692 
2.860000000001611, 0.8951037518608427 
2.870000000001632, 0.9161336891027789 
2.8800000000016532, 0.9313970244630594 
2.8900000000016743, 0.939372812598361 
2.9000000000016954, 0.9427923131671762 
2.9100000000017165, 0.9436286018235652 
2.9200000000017377, 0.9423749480322823 
2.9300000000017588, 0.9375248580297388 
2.94000000000178, 0.9204699671743357 
2.950000000001801, 0.8265792119564008 
2.960000000001822, -0.2454762608515635 
2.970000000001843, -2.011139035131199 
2.9800000000018643, -2.1913408022636847 
2.9900000000018854, -2.2144103756712177 
3.0000000000019065, -2.218788958120782 
3.0100000000019276, -2.2191711993579095 
3.0200000000019487, -2.218836907737212 
3.03000000000197, -2.2191785960656873 
3.040000000001991, -2.219505817007905 
3.050000000002012, -2.2190448800080134 
3.060000000002033, -2.218475589377116 
3.070000000002054, -2.2181481617885357 
3.0800000000020753, -2.21668981052351 
3.0900000000020964, -2.2106058713971652 
3.1000000000021175, -2.1839655456408034 
3.1100000000021386, -2.0127090320907794 
3.1200000000021597, -0.7899769337432602 
3.130000000002181, 0.30330904422839017 
3.140000000002202, 0.4720625137571884 
3.150000000002223, 0.507316294082218 
3.160000000002244, 0.5181667784287749 
3.1700000000022652, 0.5221586663159692 
3.1800000000022863, 0.5235403526247863 
3.1900000000023074, 0.5236587420648939 
3.2000000000023285, 0.5230573413125565 
3.2100000000023496, 0.522058798034325 
3.2200000000023707, 0.5209609939890296 
3.230000000002392, 0.5200850378575972 
3.240000000002413, 0.5197484700745678 
3.250000000002434, 0.5202062085793352 
3.260000000002455, 0.5215735427264302 
3.2700000000024763, 0.5237376935682921 
3.2800000000024974, 0.5263219168217077 
3.2900000000025185, 0.5287978597422975 
3.3000000000025396, 0.5307028875689745 
3.3100000000025607, 0.5317628971701918 
3.3200000000025818, 0.5318086370603323 
3.330000000002603, 0.5305202077460264 
3.340000000002624, 0.5269070426380387 
3.350000000002645, 0.5177122708959361 
3.360000000002666, 0.4902147847930688 
3.3700000000026873, 0.37614510739697704 
3.3800000000027084, -0.2490171079883988 
3.3900000000027295, -1.312384532652529 
3.4000000000027506, -1.587056728876458 
3.4100000000027717, -1.6378133344827603 
3.420000000002793, -1.6499808320124356 
3.430000000002814, -1.6530781588275478 
3.440000000002835, -1.6531927177636638 
3.450000000002856, -1.6523838614959359 
3.460000000002877, -1.6529600256816033 
3.4700000000028983, -1.656839975565995 
3.4800000000029194, -1.6623636452191863 
3.4900000000029405, -1.6669191305102544 
3.5000000000029616, -1.669926725487977 
3.5100000000029827, -1.6718161889222962 
3.520000000003004, -1.6728938454398006 
3.530000000003025, -1.6731596687971269 
3.540000000003046, -1.6725010902789816 
3.550000000003067, -1.6708086609840702 
3.5600000000030882, -1.6679679232697862 
3.5700000000031094, -1.663781223839494 
3.5800000000031305, -1.657822918673493 
3.5900000000031516, -1.6491576928870715 
3.6000000000031727, -1.635745581927679 
3.6100000000031938, -1.613558414348892 
3.620000000003215, -1.577825038865045 
3.630000000003236, -1.535725997036623 
3.640000000003257, -1.513745011523266 
3.650000000003278, -1.51341632042395 
3.6600000000032993, -1.5170343697824493 
3.6700000000033204, -1.5185914974779253 
3.6800000000033415, -1.517520518704394 
3.6900000000033626, -1.5121041882552497 
3.7000000000033837, -1.4940503527549729 
3.710000000003405, -1.4276608385694987 
3.720000000003426, -1.2098362899232915 
3.730000000003447, -2.1135834237774622 
3.740000000003468, -4.332184532989859 
3.750000000003489, -4.360822372515292 
3.7600000000035103, -4.3627868426154235 
3.7700000000035314, -4.3597323813377855 
3.7800000000035525, -4.334893950756212 
3.7900000000035736, -1.4685386413036177 
3.8000000000035947, 2.4892660837479856 
3.810000000003616, 2.5133425504236184 
3.820000000003637, 2.5152350933870276 
3.830000000003658, 2.5143553499821967 
3.840000000003679, 2.5102458222502095 
3.8500000000037002, 2.4991551050649012 
3.8600000000037213, 2.491986875924582 
3.8700000000037424, 2.494911820427556 
3.8800000000037635, 2.495704292210785 
3.8900000000037847, 2.4924195307368078 
3.9000000000038058, 2.483812023996036 
3.910000000003827, 2.501533664051149 
3.920000000003848, 2.5211534861126927 
3.930000000003869, 2.525584998373062 
3.94000000000389, 2.525568791978037 
3.9500000000039113, 2.521276187603339 
3.9600000000039324, 2.4631407673793118 
3.9700000000039535, -3.76109762450612 
3.9800000000039746, -4.39193349572469 
3.9900000000039957, -4.405297946365605 
4.000000000004016, -4.405567481890298 
4.010000000003993, -4.40014392801651 
4.02000000000397, -4.323219264703435 
4.030000000003946, -3.9051779693939785 
4.040000000003923, -4.0248589630015905 
4.0500000000039, -4.028874474262965 
4.0600000000038765, -4.028276915401252 
4.070000000003853, -4.026743664825597 
4.08000000000383, -4.022879713239361 
4.090000000003807, -4.022945178244488 
4.100000000003783, -4.020432340116936 
4.11000000000376, -4.0150863254912865 
4.120000000003737, -4.030955916101759 
4.130000000003713, -4.034846613521635 
4.14000000000369, -4.034641422627902 
4.150000000003667, -4.029350631575413 
4.1600000000036434, -3.932666342273536 
4.17000000000362, 1.9928949016718183 
4.180000000003597, 2.290277061071633 
4.1900000000035735, 2.3005064456446376 
4.20000000000355, 2.300797904712892 
4.210000000003527, 2.29510134005813 
4.220000000003504, 2.23214062413975 
4.23000000000348, 0.05481371378121822 
4.240000000003457, -1.2889483448273331 
4.250000000003434, -1.4977747993181871 
4.26000000000341, -1.5406671914020869 
4.270000000003387, -1.5514953489732455 
4.280000000003364, -1.5541524653801218 
4.2900000000033405, -1.5536182321089194 
4.300000000003317, -1.5510842350442178 
4.310000000003294, -1.5491611232414035 
4.320000000003271, -1.5570700099666934 
4.330000000003247, -1.5796099574516453 
4.340000000003224, -1.6035348263812814 
4.350000000003201, -1.6200816894217174 
4.360000000003177, -1.6303293771359595 
4.370000000003154, -1.636834113062451 
4.380000000003131, -1.6411455196954639 
4.390000000003107, -1.644014155860938 
4.400000000003084, -1.645792935323454 
4.410000000003061, -1.6466416101876362 
4.4200000000030375, -1.6466184700292086 
4.430000000003014, -1.6457415881436106 
4.440000000002991, -1.6440227890036059 
4.450000000002968, -1.6414185943355182 
4.460000000002944, -1.6376559628278708 
4.470000000002921, -1.6321693707586349 
4.480000000002898, -1.624811442612356 
4.490000000002874, -1.617613028444492 
4.500000000002851, -1.6140724913084217 
4.510000000002828, -1.6139387436492143 
4.520000000002804, -1.614204692753527 
4.530000000002781, -1.6128496131009704 
4.540000000002758, -1.6073231773350642 
4.5500000000027345, -1.5879026885240253 
4.560000000002711, -1.502801762541598 
4.570000000002688, -1.018802899461469 
4.580000000002665, 0.16468399038319192 
4.590000000002641, 0.5306144395566852 
4.600000000002618, 0.5939324244517183 
4.610000000002595, 0.610199518363374 
4.620000000002571, 0.6155577078849254 
4.630000000002548, 0.6172281946506731 
4.640000000002525, 0.6170751140836185 
4.6500000000025015, 0.6155357230024594 
4.660000000002478, 0.6125795008877805 
4.670000000002455, 0.6081694305053961 
4.6800000000024315, 0.6026877751698321 
4.690000000002408, 0.5970954699025449 
4.700000000002385, 0.5924694850343516 
4.710000000002362, 0.5893457965756612 
4.720000000002338, 0.5876112538362364 
4.730000000002315, 0.5868385541558031 
4.740000000002292, 0.5865726677664566 
4.750000000002268, 0.5864236401850331 
4.760000000002245, 0.5860397579210704 
4.770000000002222, 0.5849993717822123 
4.7800000000021985, 0.5825333892988152 
4.790000000002175, 0.5766495068595532 
4.800000000002152, 0.5605033594965031 
4.810000000002129, 0.5008300648450841 
4.820000000002105, 0.13106637204798727 
4.830000000002082, -1.7638775106159705 
4.840000000002059, -2.5320622409189344 
4.850000000002035, -2.613012253743494 
4.860000000002012, -2.626435344293818 
4.870000000001989, -2.628968522787364 
4.880000000001965, -2.6287382233498633 
4.890000000001942, -2.6275726399695203 
4.900000000001919, -2.625033379150936 
4.9100000000018955, -2.6201357547767126 
4.920000000001872, -2.616955246297472 
4.930000000001849, -2.6175292928463336 
4.940000000001826, -2.616485254747937 
4.950000000001802, -2.6080997262361967 
4.960000000001779, -2.5803961485096956 
4.970000000001756, -2.655759011129334 
4.980000000001732, -2.7310977838239103 
4.990000000001709, -2.748917461418832 
