t, s[1].omega / s[0].omega 
0, -1.5378964250122618 
0.009999999999999995, -1.2422205022809232 
0.019999999999999934, -0.8281709724035954 
0.029999999999999874, -0.5034954795304059 
0.04000000000000012, -0.33814385748925474 
0.050000000000000405, -0.2634077050750324 
0.06000000000000069, -0.2283521741245162 
0.07000000000000098, -0.21073407722184467 
0.08000000000000126, -0.20133606793038372 
0.09000000000000155, -0.1961326630029303 
0.10000000000000184, -0.19324504243026658 
0.11000000000000212, -0.1917500066348896 
0.12000000000000241, -0.1911886567314127 
0.130000000000002, -0.191355563876093 
0.1400000000000009, -0.1922126027089506 
0.1499999999999998, -0.19386988635932798 
0.1599999999999987, -0.19661966237979672 
0.1699999999999976, -0.20104069859427712 
0.1799999999999965, -0.20823953050876978 
0.1899999999999954, -0.22040609445198375 
0.1999999999999943, -0.24213326110256683 
0.2099999999999932, -0.28350083444950724 
0.2199999999999921, -0.3656271596588654 
0.229999999999991, -0.517266785488133 
0.2399999999999899, -0.7182856858322079 
0.2499999999999888, -0.8719033988865428 
0.2599999999999877, -0.9466146181178031 
0.2699999999999866, -0.9769133562820482 
0.2799999999999855, -0.9889879945511109 
0.2899999999999844, -0.9937970726985347 
0.2999999999999833, -0.9953838851507285 
0.3099999999999822, -0.9951410103261775 
0.3199999999999811, -0.9933298478647179 
0.32999999999998, -0.9895911707164059 
0.3399999999999789, -0.9835275827353523 
0.3499999999999778, -0.9778916527223854 
0.35999999999997667, -0.9939934261653176 
0.36999999999997557, -1.1174513908908352 
0.37999999999997447, -1.4528943545768915 
0.38999999999997337, -1.757352693662904 
0.39999999999997227, -1.885616908538276 
0.40999999999997117, -1.9355703611996629 
0.41999999999997006, -1.9578728184091232 
0.42999999999996896, -1.9687567349477413 
0.43999999999996786, -1.9740379271708843 
0.44999999999996676, -1.9762392711924843 
0.45999999999996566, -1.9766200638560882 
0.46999999999996456, -1.9758510856795986 
0.47999999999996346, -1.974261639120461 
0.48999999999996235, -1.9717526520808129 
0.49999999999996125, -1.967863100331258 
0.5099999999999602, -1.9631107731099966 
0.519999999999959, -1.9602549446588715 
0.529999999999958, -1.960168741026831 
0.5399999999999568, -1.9603229018282395 
0.5499999999999557, -1.958698475438295 
0.5599999999999546, -1.951960388220218 
0.5699999999999535, -1.9241479306572242 
0.5799999999999524, -1.7908354929956158 
0.5899999999999513, -1.7327811509159399 
0.5999999999999502, -3.2903202503998985 
0.6099999999999491, -3.4367835829728826 
0.619999999999948, -3.450444504292355 
0.6299999999999469, -3.4527629026806026 
0.6399999999999458, -3.451695732675616 
0.6499999999999447, -3.446230267268374 
0.6599999999999436, -3.4176503273655605 
0.6699999999999425, -3.1064103186402434 
0.6799999999999414, -3.0496826704300415 
0.6899999999999403, -3.104584121160012 
0.6999999999999392, -3.10998793078227 
0.7099999999999381, -3.109973131929338 
0.719999999999937, -3.109540144299514 
0.7299999999999359, -3.109172405452445 
0.7399999999999348, -3.1078918674511784 
0.7499999999999337, -3.1072822185887956 
0.7599999999999326, -3.1064745516683288 
0.7699999999999315, -3.100296488806661 
0.7799999999999304, -3.060359764153865 
0.7899999999999293, -3.1359260323494955 
0.7999999999999282, -3.2342586582330553 
0.8099999999999271, -3.249165557631348 
0.819999999999926, -3.2521892661868046 
0.8299999999999249, -3.2519030175699504 
0.8399999999999238, -3.2483761467604717 
0.8499999999999227, -3.2346787709968376 
0.8599999999999216, -3.1355294913457628 
0.8699999999999205, -1.4327298988280353 
0.8799999999999194, 0.1745495859464847 
0.8899999999999183, 0.43428453992881855 
0.8999999999999172, 0.48942416548386414 
0.9099999999999161, 0.5061127630088413 
0.919999999999915, 0.5123502191901624 
0.9299999999999139, 0.5147439172623405 
0.9399999999999128, 0.5152216412283589 
0.9499999999999117, 0.5142384854768046 
0.9599999999999106, 0.5113785490054974 
0.9699999999999095, 0.5048626382665946 
0.9799999999999084, 0.4889288081539232 
0.9899999999999073, 0.44238675802816657 
0.9999999999999062, 0.2835624863976878 
1.0099999999999052, 0.11699251522970151 
1.019999999999904, 2.2361494636024526 
1.029999999999903, 2.37273844650437 
1.039999999999902, 2.3801995357116743 
1.0499999999999008, 2.38001044990942 
1.0599999999998997, 2.3730831554553387 
1.0699999999998986, 2.264807100463822 
1.0799999999998975, -1.4039437846663472 
1.0899999999998964, -2.5767717138160195 
1.0999999999998953, -2.643615231704445 
1.1099999999998942, -2.651685431776291 
1.119999999999893, -2.6526202987361334 
1.129999999999892, -2.652140027159361 
1.1399999999998909, -2.6517971677446655 
1.1499999999998898, -2.651074294723042 
1.1599999999998887, -2.6497734652327307 
1.1699999999998876, -2.649250705146259 
1.1799999999998865, -2.6486947280798665 
1.1899999999998854, -2.644945669383097 
1.1999999999998843, -2.623162309900262 
1.2099999999998832, -2.4677324211249174 
1.219999999999882, -2.935718696976369 
1.229999999999881, -3.231721017345836 
1.2399999999998799, -3.2584415171988383 
1.2499999999998788, -3.2634544124985077 
1.2599999999998777, -3.263926384764214 
1.2699999999998766, -3.261565393082968 
1.2799999999998755, -3.252832318158332 
1.2899999999998744, -3.203653029700731 
1.2999999999998733, -2.7994885607405577 
1.3099999999998722, -2.82594697331175 
1.319999999999871, -2.8722384198105546 
1.32999999999987, -2.8777723977160705 
1.3399999999998689, -2.8779035878421197 
1.3499999999998678, -2.877464660784212 
1.3599999999998666, -2.8776616720659107 
1.3699999999998655, -2.8771821251881704 
1.3799999999998644, -2.876490009604066 
1.3899999999998633, -2.876091810133386 
1.3999999999998622, -2.873548395067102 
1.4099999999998611, -2.857617576548649 
1.41999999999986, -2.7060350139220093 
1.429999999999859, -3.1381903417645196 
1.4399999999998578, -3.4560607513714823 
1.4499999999998567, -3.478636190261041 
1.4599999999998556, -3.482312435212113 
1.4699999999998545, -3.48194464981173 
1.4799999999998534, -3.4778766424471073 
1.4899999999998523, -3.4588280382691527 
1.4999999999998512, -3.2267590619199504 
1.5099999999998501, -2.5524947175696306 
1.519999999999849, -2.7659171268692697 
1.529999999999848, -2.7895954808868137 
1.5399999999998468, -2.7925698258393012 
1.5499999999998457, -2.792318543570148 
1.5599999999998446, -2.7920229614346073 
1.5699999999998435, -2.7920170751304765 
1.5799999999998424, -2.7912398716231834 
1.5899999999998413, -2.7906022887771926 
1.5999999999998402, -2.7901446795697717 
1.6099999999998391, -2.7871036722857863 
1.619999999999838, -2.768470909283777 
1.629999999999837, -2.5989995911497887 
1.6399999999998358, -3.096934946771892 
1.6499999999998347, -3.4427081437874514 
1.6599999999998336, -3.4665664678397206 
1.6699999999998325, -3.4704588551598894 
1.6799999999998314, -3.470196609284655 
1.6899999999998303, -3.46636223836707 
1.6999999999998292, -3.448910256447269 
1.709999999999828, -3.254004320253361 
1.719999999999827, -2.6554793087100195 
1.729999999999826, -2.850532005373317 
1.7399999999998248, -2.8716251976733846 
1.7499999999998237, -2.8741020381379103 
1.7599999999998226, -2.8737417003991927 
1.7699999999998215, -2.8734905313011794 
1.7799999999998204, -2.873256441876435 
1.7899999999998193, -2.8722379646748566 
1.7999999999998182, -2.871701110051994 
1.809999999999817, -2.8709923405632645 
1.819999999999816, -2.8662182976979174 
1.8299999999998149, -2.8330246642704395 
1.8399999999998138, -2.7159524933466637 
1.8499999999998127, -3.184903664552586 
1.8599999999998116, -3.2601542142158153 
1.8699999999998105, -3.2706327172800065 
1.8799999999998094, -3.2726846170458757 
1.8899999999998083, -3.2717233901911156 
1.8999999999998072, -3.266932882249079 
1.909999999999806, -3.2466814992631035 
1.919999999999805, -3.0575608211711343 
1.9299999999998039, -2.4669031007828908 
1.9399999999998028, -2.6443856781984776 
1.9499999999998017, -2.6720069410863307 
1.9599999999998006, -2.675818756438969 
1.9699999999997995, -2.675742401518053 
1.9799999999997984, -2.6753692346204874 
1.9899999999997973, -2.6758007332540226 
1.9999999999997962, -2.6757307257700966 
2.0099999999998173, -2.675218469418348 
2.0199999999998384, -2.674909381070975 
2.0299999999998595, -2.673351770491712 
2.0399999999998806, -2.6652373691240028 
2.0499999999999017, -2.6042096551871934 
2.059999999999923, -1.6287943616391 
2.069999999999944, 2.5744737885947075 
2.079999999999965, 2.718270734229427 
2.089999999999986, 2.723808051464695 
2.100000000000007, 2.722506240319624 
2.1100000000000283, 2.706369253702016 
2.1200000000000494, 1.3619156832365955 
2.1300000000000705, -3.2584045723572665 
2.1400000000000916, -3.359716922914714 
2.1500000000001127, -3.3662721960127704 
2.160000000000134, -3.366362702058809 
2.170000000000155, -3.3652049222834792 
2.180000000000176, -3.362309108477721 
2.190000000000197, -3.3581231020906444 
2.2000000000002182, -3.3584326577004275 
2.2100000000002393, -3.3579686657711916 
2.2200000000002604, -3.3530120655800255 
2.2300000000002815, -3.355623794177832 
2.2400000000003026, -3.368660319123201 
2.2500000000003237, -3.372543646220001 
2.260000000000345, -3.373033299089434 
2.270000000000366, -3.3710636696630645 
2.280000000000387, -3.3599510480798145 
2.290000000000408, -3.2433871286924685 
2.3000000000004293, 0.3387696676682345 
2.3100000000004504, 1.3990041267059503 
2.3200000000004715, 1.4390473535061084 
2.3300000000004926, 1.4451941063647786 
2.3400000000005137, 1.4462413384929462 
2.3500000000005348, 1.4453472077867977 
2.360000000000556, 1.4424316633680911 
2.370000000000577, 1.4362568777591702 
2.380000000000598, 1.4264798817567566 
2.390000000000619, 1.417934537973804 
2.4000000000006403, 1.4154009916788288 
2.4100000000006614, 1.4160357114614437 
2.4200000000006825, 1.4165639160644974 
2.4300000000007036, 1.4157314344888374 
2.4400000000007247, 1.411757738572207 
2.450000000000746, 1.3963505035375987 
2.460000000000767, 1.3255759442799984 
2.470000000000788, 1.4224201217846288 
2.480000000000809, 1.74922827464306 
2.49000000000083, 1.7880721941977828 
2.5000000000008513, 1.7938880981881031 
2.5100000000008724, 1.7942051830081513 
2.5200000000008935, 1.790607220471697 
2.5300000000009146, 1.7690277651484643 
2.5400000000009357, 1.391620088865569 
2.550000000000957, -1.3152293516737208 
2.560000000000978, -1.9364431878980888 
2.570000000000999, -2.012333306089416 
2.58000000000102, -2.0259954601486396 
2.5900000000010412, -2.028926493543799 
2.6000000000010624, -2.028976388838353 
2.6100000000010835, -2.0283791932750326 
2.6200000000011046, -2.028953592927538 
2.6300000000011257, -2.030847159409771 
2.6400000000011468, -2.0324723773807984 
2.650000000001168, -2.033316563262855 
2.660000000001189, -2.0337004104583363 
2.67000000000121, -2.0335386377046865 
2.680000000001231, -2.0321458752144714 
2.6900000000012523, -2.0280850633800696 
2.7000000000012734, -2.017836139222455 
2.7100000000012945, -1.9919368254249725 
2.7200000000013156, -1.922546765545895 
2.7300000000013367, -1.7186174003561348 
2.740000000001358, -1.164828033783191 
2.750000000001379, -0.47153142527910025 
2.7600000000014, -0.15727594631636393 
2.770000000001421, -0.05242414903447991 
2.780000000001442, -0.01297536770774499 
2.7900000000014633, 0.004226955270740327 
2.8000000000014844, 0.012353234757988052 
2.8100000000015055, 0.01643429409358137 
2.8200000000015266, 0.0183700615665736 
2.8300000000015477, 0.018961961618839222 
2.840000000001569, 0.01849739731456186 
2.85000000000159, 0.016933445685677163 
2.860000000001611, 0.013879572681762046 
2.870000000001632, 0.008367054373927322 
2.8800000000016532, -0.001773283861237732 
2.8900000000016743, -0.021709377650669878 
2.9000000000016954, -0.06700848621681102 
2.9100000000017165, -0.1853775130138018 
2.9200000000017377, -0.5197310148781901 
2.9300000000017588, -1.1824096702015756 
2.94000000000178, -1.6890400064953546 
2.950000000001801, -1.873319987802899 
2.960000000001822, -1.9302811829209312 
2.970000000001843, -1.9485585989072287 
2.9800000000018643, -1.9545600159386272 
2.9900000000018854, -1.9562298327133611 
3.0000000000019065, -1.9561961940282457 
3.0100000000019276, -1.9556145048970979 
3.0200000000019487, -1.955043238743213 
3.03000000000197, -1.954311996536043 
3.040000000001991, -1.9531912767748068 
3.050000000002012, -1.9522263605489585 
3.060000000002033, -1.951909264268486 
3.070000000002054, -1.9515331266456528 
3.0800000000020753, -1.9497086901205793 
3.0900000000020964, -1.9434938780274025 
3.1000000000021175, -1.9212468084888599 
3.1100000000021386, -1.8200000479639207 
3.1200000000021597, -1.2637210137542614 
3.130000000002181, -0.1062060088643462 
3.140000000002202, 0.27095649415095224 
3.150000000002223, 0.3490810244248874 
3.160000000002244, 0.37160311267079404 
3.1700000000022652, 0.37993089241672673 
3.1800000000022863, 0.3834176835744061 
3.1900000000023074, 0.38487869642740913 
3.2000000000023285, 0.38537496607168226 
3.2100000000023496, 0.38540547391081836 
3.2200000000023707, 0.3852775828851319 
3.230000000002392, 0.38525247098611826 
3.240000000002413, 0.3856362577364009 
3.250000000002434, 0.3868795004433391 
3.260000000002455, 0.3896796725845999 
3.2700000000024763, 0.3949319123900502 
3.2800000000024974, 0.40316001258045925 
3.2900000000025185, 0.41345299482951675 
3.3000000000025396, 0.4234165089506952 
3.3100000000025607, 0.43100207692304304 
3.3200000000025818, 0.43575800077556465 
3.330000000002603, 0.4382203755503327 
3.340000000002624, 0.4389795686393084 
3.350000000002645, 0.43825052541161613 
3.360000000002666, 0.43566232560806395 
3.3700000000026873, 0.42983787132871987 
3.3800000000027084, 0.4173950358977823 
3.3900000000027295, 0.3918046298877863 
3.4000000000027506, 0.3476584712725729 
3.4100000000027717, 0.29681957313851776 
3.420000000002793, 0.26217832064412583 
3.430000000002814, 0.24642894435887622 
3.440000000002835, 0.24048033328813795 
3.450000000002856, 0.2382972892942799 
3.460000000002877, 0.23743410397217382 
3.4700000000028983, 0.23700234076075524 
3.4800000000029194, 0.23665010402363335 
3.4900000000029405, 0.23618042964273483 
3.5000000000029616, 0.23539877217577238 
3.5100000000029827, 0.23401326036219078 
3.520000000003004, 0.2314841782898403 
3.530000000003025, 0.226652943063282 
3.540000000003046, 0.21662130715823666 
3.550000000003067, 0.1927178954153385 
3.5600000000030882, 0.12260182159671776 
3.5700000000031094, -0.13953347392864646 
3.5800000000031305, -0.9339747154662457 
3.5900000000031516, -1.5617800412424045 
3.6000000000031727, -1.7208887709165268 
3.6100000000031938, -1.757768816720492 
3.620000000003215, -1.7678091936566793 
3.630000000003236, -1.7706008377669082 
3.640000000003257, -1.770925909682487 
3.650000000003278, -1.7704642012894438 
3.6600000000032993, -1.7704877356026087 
3.6700000000033204, -1.7716370275542137 
3.6800000000033415, -1.7731856648101918 
3.6900000000033626, -1.7743255397627649 
3.7000000000033837, -1.7750221249459095 
3.710000000003405, -1.7754211388159065 
3.720000000003426, -1.7753209115156543 
3.730000000003447, -1.7742273863894114 
3.740000000003468, -1.7713948638601966 
3.750000000003489, -1.7656103178566842 
3.7600000000035103, -1.754863677469384 
3.7700000000035314, -1.7356874731274832 
3.7800000000035525, -1.701177805689743 
3.7900000000035736, -1.635503561864913 
3.8000000000035947, -1.5043774842733266 
3.810000000003616, -1.2791844458389268 
3.820000000003637, -1.0570343378902851 
3.830000000003658, -0.9520189852248799 
3.840000000003679, -0.9256307166202229 
3.8500000000037002, -0.924320117897388 
3.8600000000037213, -0.9274699922476207 
3.8700000000037424, -0.9300444952535925 
3.8800000000037635, -0.931329859297547 
3.8900000000037847, -0.9313465279076187 
3.9000000000038058, -0.9299024928188965 
3.910000000003827, -0.926174032689636 
3.920000000003848, -0.9180839854533505 
3.930000000003869, -0.9012534390672867 
3.94000000000389, -0.8685793382295468 
3.9500000000039113, -0.8147105620365217 
3.9600000000039324, -0.7462780561888722 
3.9700000000039535, -0.6804380051156637 
3.9800000000039746, -0.6284653061163693 
3.9900000000039957, -0.5910176664887578 
4.000000000004016, -0.5645461931787807 
4.010000000003993, -0.5455958805895553 
4.02000000000397, -0.5317549300938224 
4.030000000003946, -0.5214819381156024 
4.040000000003923, -0.5138040604328394 
4.0500000000039, -0.5080953546213725 
4.0600000000038765, -0.5039367901910767 
4.070000000003853, -0.501031471870507 
4.08000000000383, -0.4991549471921523 
4.090000000003807, -0.4981280849144823 
4.100000000003783, -0.49780471621187417 
4.11000000000376, -0.4980689812578614 
4.120000000003737, -0.4988392400561808 
4.130000000003713, -0.5000769575004592 
4.14000000000369, -0.5017999541368978 
4.150000000003667, -0.5040995316331035 
4.1600000000036434, -0.507160930943131 
4.17000000000362, -0.5112874026793448 
4.180000000003597, -0.5169255959909702 
4.1900000000035735, -0.524666423973131 
4.20000000000355, -0.5351239103618106 
4.210000000003527, -0.5485023100531363 
4.220000000003504, -0.5638385808603177 
4.23000000000348, -0.5787456959652861 
4.240000000003457, -0.5907148045829957 
4.250000000003434, -0.5987786764301767 
4.26000000000341, -0.60348690889544 
4.270000000003387, -0.6058354219308664 
4.280000000003364, -0.6065760318306885 
4.2900000000033405, -0.6060499452712484 
4.300000000003317, -0.6041657158020101 
4.310000000003294, -0.600236550537901 
4.320000000003271, -0.592332683836098 
4.330000000003247, -0.5750167689564668 
4.340000000003224, -0.530410976711345 
4.350000000003201, -0.389513829227322 
4.360000000003177, 0.028326948689819203 
4.370000000003154, 0.46500395914723713 
4.380000000003131, 0.59632808681539 
4.390000000003107, 0.6286531172700479 
4.400000000003084, 0.6385516126566626 
4.410000000003061, 0.6419514473786163 
4.4200000000030375, 0.6427723205836205 
4.430000000003014, 0.6420629051111633 
4.440000000002991, 0.6399506184117025 
4.450000000002968, 0.6362329639761704 
4.460000000002944, 0.6308345186496125 
4.470000000002921, 0.6243435546768713 
4.480000000002898, 0.6180896002842603 
4.490000000002874, 0.6133030076542763 
4.500000000002851, 0.6103160500530913 
4.510000000002828, 0.6087296967915232 
4.520000000002804, 0.6079648998338195 
4.530000000002781, 0.607541456464345 
4.540000000002758, 0.6070871789499364 
4.5500000000027345, 0.6062322412366103 
4.560000000002711, 0.6043997373864095 
4.570000000002688, 0.6002480540114092 
4.580000000002665, 0.5895765390623835 
4.590000000002641, 0.5542173928306146 
4.600000000002618, 0.36711805020726107 
4.610000000002595, -1.0340617530366099 
4.620000000002571, -2.351237715164433 
4.630000000002548, -2.511728493326193 
4.640000000002525, -2.5377787428511818 
4.6500000000025015, -2.5436016807396142 
4.660000000002478, -2.5445703060398737 
4.670000000002455, -2.543892168093371 
4.6800000000024315, -2.5423477355475734 
4.690000000002408, -2.539330185727525 
4.700000000002385, -2.534783672341988 
4.710000000002362, -2.5328022600838493 
4.720000000002338, -2.5333983082512623 
4.730000000002315, -2.532533763981246 
4.740000000002292, -2.52677684384978 
4.750000000002268, -2.5094873972914127 
4.760000000002245, -2.5385645974538087 
4.770000000002222, -2.602007685239622 
4.7800000000021985, -2.6234093867950863 
4.790000000002175, -2.6300018431000183 
4.800000000002152, -2.632146073670432 
4.810000000002129, -2.63211908976118 
4.820000000002105, -2.630067178627727 
4.830000000002082, -2.624588895496155 
4.840000000002059, -2.60961069341045 
4.850000000002035, -2.552367129916071 
4.860000000002012, -2.278514857643695 
4.870000000001989, -2.0699730015748803 
4.880000000001965, -2.134358545223199 
4.890000000001942, -2.1547346834055063 
4.900000000001919, -2.1591129156754563 
4.9100000000018955, -2.1593370856612735 
4.920000000001872, -2.1582526950107512 
4.930000000001849, -2.158677956635857 
4.940000000001826, -2.1620916525488143 
4.950000000001802, -2.165455352862758 
4.960000000001779, -2.1672924042083563 
