t, s[1].omega / s[0].omega 
0, -1.3220858711648897 
0.009999999999999995, -1.4845794350638613 
0.019999999999999934, -1.5704151579741912 
0.029999999999999874, -1.609985935101486 
0.04000000000000012, -1.6267760687790667 
0.050000000000000405, -1.633482372768718 
0.06000000000000069, -1.635838902747243 
0.07000000000000098, -1.6362569785984178 
0.08000000000000126, -1.6358977099874845 
0.09000000000000155, -1.6356058126649544 
0.10000000000000184, -1.635865282165313 
0.11000000000000212, -1.6364417979117376 
0.12000000000000241, -1.6368847317328648 
0.130000000000002, -1.6371453535620553 
0.1400000000000009, -1.6373723971395582 
0.1499999999999998, -1.637436971478336 
0.1599999999999987, -1.636899248223728 
0.1699999999999976, -1.6351554641286872 
0.1799999999999965, -1.6313532510529103 
0.1899999999999954, -1.6242221949120381 
0.1999999999999943, -1.6119772330640127 
0.2099999999999932, -1.5920764106883134 
0.2199999999999921, -1.5602363068074623 
0.229999999999991, -1.508107561064843 
0.2399999999999899, -1.4207555306537893 
0.2499999999999888, -1.2863812082943784 
0.2599999999999877, -1.13925108735374 
0.2699999999999866, -1.0485420008116642 
0.2799999999999855, -1.0191838610767698 
0.2899999999999844, -1.0162852856958415 
0.2999999999999833, -1.0191445244702206 
0.3099999999999822, -1.0216693100170342 
0.3199999999999811, -1.022869843371136 
0.32999999999998, -1.022703259184465 
0.3399999999999789, -1.0208523748141336 
0.3499999999999778, -1.0160780123810313 
0.35999999999997667, -1.004961620625356 
0.36999999999997557, -0.9789072573666626 
0.37999999999997447, -0.9197326779546152 
0.38999999999997337, -0.806930833421983 
0.39999999999997227, -0.6581101641445353 
0.40999999999997117, -0.5305667303268085 
0.41999999999997006, -0.44843331583226986 
0.42999999999996896, -0.4003576915849206 
0.43999999999996786, -0.37194662391937033 
0.44999999999996676, -0.3544189986838413 
0.45999999999996566, -0.3431047884516417 
0.46999999999996456, -0.3355277206617555 
0.47999999999996346, -0.3303319302450062 
0.48999999999996235, -0.3267508502325554 
0.49999999999996125, -0.32434504252732455 
0.5099999999999602, -0.32286936037175235 
0.519999999999959, -0.3222051255863013 
0.529999999999958, -0.322328330448472 
0.5399999999999568, -0.32330153618332885 
0.5499999999999557, -0.32528638794447573 
0.5599999999999546, -0.3285811941630473 
0.5699999999999535, -0.3336979699786146 
0.5799999999999524, -0.3415116056491305 
0.5899999999999513, -0.35355248981429155 
0.5999999999999502, -0.37259837080227626 
0.6099999999999491, -0.40388892059357717 
0.619999999999948, -0.4574586978041412 
0.6299999999999469, -0.5510254395666876 
0.6399999999999458, -0.7041649856194542 
0.6499999999999447, -0.8990023846136488 
0.6599999999999436, -1.0580244694666665 
0.6699999999999425, -1.142438700709041 
0.6799999999999414, -1.1779246557366736 
0.6899999999999403, -1.191904664584295 
0.6999999999999392, -1.1973135168507818 
0.7099999999999381, -1.1991123255547769 
0.719999999999937, -1.1991210987366467 
0.7299999999999359, -1.1980782989867476 
0.7399999999999348, -1.1967832535244516 
0.7499999999999337, -1.1973849105814796 
0.7599999999999326, -1.204013437575664 
0.7699999999999315, -1.2194894894714736 
0.7799999999999304, -1.2407675731357177 
0.7899999999999293, -1.2620034681673058 
0.7999999999999282, -1.2800077726059529 
0.8099999999999271, -1.2944686849923426 
0.819999999999926, -1.3060967097549678 
0.8299999999999249, -1.3155880969394629 
0.8399999999999238, -1.3233508009632202 
0.8499999999999227, -1.3295205032479642 
0.8599999999999216, -1.334089003178969 
0.8699999999999205, -1.3370819646489394 
0.8799999999999194, -1.3386742348056453 
0.8899999999999183, -1.3391694166877928 
0.8999999999999172, -1.3389240263954574 
0.9099999999999161, -1.3383172627380506 
0.919999999999915, -1.3377175810462754 
0.9299999999999139, -1.3373454346588582 
0.9399999999999128, -1.3371703692706052 
0.9499999999999117, -1.3370626521995324 
0.9599999999999106, -1.33701534480501 
0.9699999999999095, -1.3371176781328538 
0.9799999999999084, -1.3373370655215377 
0.9899999999999073, -1.3374322315394094 
0.9999999999999062, -1.337069794266473 
1.0099999999999052, -1.3359322835620877 
1.019999999999904, -1.3337538319506825 
1.029999999999903, -1.3303604708012238 
1.039999999999902, -1.3257050251961489 
1.0499999999999008, -1.3198201658420277 
1.0599999999998997, -1.312695660128708 
1.0699999999998986, -1.3041633574967437 
1.0799999999998975, -1.2938376735605923 
1.0899999999998964, -1.2811485296829814 
1.0999999999998953, -1.2656575689073803 
1.1099999999998942, -1.2480389070804685 
1.119999999999893, -1.23141790324867 
1.129999999999892, -1.2203083075270533 
1.1399999999998909, -1.2160428927951075 
1.1499999999998898, -1.215776714285433 
1.1599999999998887, -1.2164413503365787 
1.1699999999998876, -1.2165601659612342 
1.1799999999998865, -1.2154327527307704 
1.1899999999998854, -1.2120235385389648 
1.1999999999998843, -1.203657193597717 
1.2099999999998832, -1.183289407098822 
1.219999999999882, -1.134173700481344 
1.229999999999881, -1.0289268772952638 
1.2399999999998799, -0.8621869729523526 
1.2499999999998788, -0.6894803430943142 
1.2599999999998777, -0.5632114542413589 
1.2699999999998766, -0.48475000914971755 
1.2799999999998755, -0.4374555508810231 
1.2899999999998744, -0.4082930249125164 
1.2999999999998733, -0.38968108590676176 
1.3099999999998722, -0.3774349419899929 
1.319999999999871, -0.36920791496625405 
1.32999999999987, -0.3636389869009054 
1.3399999999998689, -0.3599114902113941 
1.3499999999998678, -0.35752242386890576 
1.3599999999998666, -0.3561591072640191 
1.3699999999998655, -0.35563265129826804 
1.3799999999998644, -0.35584367130577477 
1.3899999999998633, -0.3567687236025956 
1.3999999999998622, -0.35846328493368224 
1.4099999999998611, -0.36108234708412695 
1.41999999999986, -0.3649254399207075 
1.429999999999859, -0.37052256296125297 
1.4399999999998578, -0.3787968644552287 
1.4499999999998567, -0.39137516854481 
1.4599999999998556, -0.41115352917506953 
1.4699999999998545, -0.4430978971774196 
1.4799999999998534, -0.4941696933232292 
1.4899999999998523, -0.5678522584418573 
1.4999999999998512, -0.6509401034312154 
1.5099999999998501, -0.7170586785329038 
1.519999999999849, -0.7557091073037736 
1.529999999999848, -0.7747158888792678 
1.5399999999998468, -0.7834747174061497 
1.5499999999998457, -0.7873052994318115 
1.5599999999998446, -0.7885954063411272 
1.5699999999998435, -0.7882273166110506 
1.5799999999998424, -0.7862101116540391 
1.5899999999998413, -0.7816688622914765 
1.5999999999998402, -0.7720222109777201 
1.6099999999998391, -0.7499426859752244 
1.619999999999838, -0.6909377166385977 
1.629999999999837, -0.4862163301829686 
1.6399999999998358, 0.26634455947229685 
1.6499999999998347, 0.8666679643918581 
1.6599999999998336, 0.9630748084899233 
1.6699999999998325, 0.9813394897500258 
1.6799999999998314, 0.9861588845320549 
1.6899999999998303, 0.9871317414601043 
1.6999999999998292, 0.9859925091005499 
1.709999999999828, 0.9822152446070458 
1.719999999999827, 0.9732306357821268 
1.729999999999826, 0.9541942349833479 
1.7399999999998248, 0.925133853880199 
1.7499999999998237, 0.9028055552679728 
1.7599999999998226, 0.89642812731702 
1.7699999999998215, 0.8971131893366225 
1.7799999999998204, 0.89860692747845 
1.7899999999998193, 0.8993512617041771 
1.7999999999998182, 0.8990143910866504 
1.809999999999817, 0.8970004322838638 
1.819999999999816, 0.8910852912505947 
1.8299999999998149, 0.8715639941679623 
1.8399999999998138, 0.7745603560321433 
1.8499999999998127, -0.10704888088350836 
1.8599999999998116, -3.352350184929791 
1.8699999999998105, -3.5941885341748145 
1.8799999999998094, -3.6099012361699785 
1.8899999999998083, -3.6121978083770627 
1.8999999999998072, -3.6108799897703845 
1.909999999999806, -3.6041988066041926 
1.919999999999805, -3.5588330638617136 
1.9299999999998039, -3.175678296941217 
1.9399999999998028, -3.2992298233107213 
1.9499999999998017, -3.3201301154213168 
1.9599999999998006, -3.3217917586404484 
1.9699999999997995, -3.3212350597609195 
1.9799999999997984, -3.320748517358716 
1.9899999999997973, -3.319244444699657 
1.9999999999997962, -3.318109352968785 
2.0099999999998173, -3.317744971673405 
2.0199999999998384, -3.3134913796657655 
2.0299999999998595, -3.291935155374258 
2.0399999999998806, -3.3332934276766464 
2.0499999999999017, -3.370181397776387 
2.059999999999923, -3.376834761762189 
2.069999999999944, -3.3778391814711966 
2.079999999999965, -3.375990033751775 
2.089999999999986, -3.3674648857386487 
2.100000000000007, -3.3134897886673755 
2.1100000000000283, -1.8385953417113203 
2.1200000000000494, 1.2140534032286663 
2.1300000000000705, 1.326088946400165 
2.1400000000000916, 1.3392469374829323 
2.1500000000001127, 1.342104991381248 
2.160000000000134, 1.3426607109474262 
2.170000000000155, 1.3425233006753676 
2.180000000000176, 1.3422016877700007 
2.190000000000197, 1.3418599373144655 
2.2000000000002182, 1.3415059922320014 
2.2100000000002393, 1.3411479305341074 
2.2200000000002604, 1.3408396746468647 
2.2300000000002815, 1.3405489587122599 
2.2400000000003026, 1.3400091003987529 
2.2500000000003237, 1.3384952749271224 
2.260000000000345, 1.333532841697737 
2.270000000000366, 1.310429313319894 
2.280000000000387, 1.0297328810613977 
2.290000000000408, -2.88460273746224 
2.3000000000004293, -3.3467383363232215 
2.3100000000004504, -3.3743181568894363 
2.3200000000004715, -3.3788364579504977 
2.3300000000004926, -3.3787577614673423 
2.3400000000005137, -3.37572319635136 
2.3500000000005348, -3.3637393859513893 
2.360000000000556, -3.3054713909809417 
2.370000000000577, -3.2913073647748177 
2.380000000000598, -3.306830454172861 
2.390000000000619, -3.3084307998115228 
2.4000000000006403, -3.3076791927026035 
2.4100000000006614, -3.308141967802851 
2.4200000000006825, -3.308274998575196 
2.4300000000007036, -3.3077059929449724 
2.4400000000007247, -3.307110162432288 
2.450000000000746, -3.3029037956379996 
2.460000000000767, -3.2647051448939832 
2.470000000000788, -3.2529163793461238 
2.480000000000809, -3.553282815095352 
2.49000000000083, -3.579090010195208 
2.5000000000008513, -3.58285235257731 
2.5100000000008724, -3.5824299866955363 
2.5200000000008935, -3.577909516362003 
2.5300000000009146, -3.553998103514149 
2.5400000000009357, -3.097227935714726 
2.550000000000957, 0.0756019233163535 
2.560000000000978, 0.7023162091431909 
2.570000000000999, 0.784896198668622 
2.58000000000102, 0.8032201283296845 
2.5900000000010412, 0.8088189161406836 
2.6000000000010624, 0.8105170763228715 
2.6100000000010835, 0.8104423102425209 
2.6200000000011046, 0.8090753340208879 
2.6300000000011257, 0.8063149329532132 
2.6400000000011468, 0.8023735958710743 
2.650000000001168, 0.8021060181824555 
2.660000000001189, 0.8258828666012821 
2.67000000000121, 0.8818987402364303 
2.680000000001231, 0.9250359660115006 
2.6900000000012523, 0.9434860602586272 
2.7000000000012734, 0.9502579708946548 
2.7100000000012945, 0.9524195431524175 
2.7200000000013156, 0.9522080553933774 
2.7300000000013367, 0.9494997268656089 
2.740000000001358, 0.9410199053855222 
2.750000000001379, 0.9112345719155186 
2.7600000000014, 0.784214497002724 
2.770000000001421, 0.47064709419967754 
2.780000000001442, 0.3367977170234184 
2.7900000000014633, 0.3382804177753005 
2.8000000000014844, 0.3495104114748337 
2.8100000000015055, 0.35615359005984915 
2.8200000000015266, 0.359577529578922 
2.8300000000015477, 0.36119698075651085 
2.840000000001569, 0.3616872947664144 
2.85000000000159, 0.36124923128518827 
2.860000000001611, 0.3597033651640177 
2.870000000001632, 0.35631111501283613 
2.8800000000016532, 0.3489856158969834 
2.8900000000016743, 0.3312469699761012 
2.9000000000016954, 0.2776416892550673 
2.9100000000017165, 0.049207156771514986 
2.9200000000017377, -0.9999049214288318 
2.9300000000017588, -2.0498495989826617 
2.94000000000178, -2.2764116122629883 
2.950000000001801, -2.326464966752922 
2.960000000001822, -2.34061731534043 
2.970000000001843, -2.3448700583518747 
2.9800000000018643, -2.3456683473815927 
2.9900000000018854, -2.344970073749665 
3.0000000000019065, -2.343375639894373 
3.0100000000019276, -2.3404698495993776 
3.0200000000019487, -2.3357464433847 
3.03000000000197, -2.3320849756733866 
3.040000000001991, -2.3321091822320272 
3.050000000002012, -2.3323491907214815 
3.060000000002033, -2.330040935722116 
3.070000000002054, -2.320011673113247 
3.0800000000020753, -2.293709199137404 
3.0900000000020964, -2.3597246265356704 
3.1000000000021175, -2.464539807563317 
3.1100000000021386, -2.4972251938168366 
3.1200000000021597, -2.507366079989535 
3.130000000002181, -2.51106671410317 
3.140000000002202, -2.512073059629941 
3.150000000002223, -2.511267441323558 
3.160000000002244, -2.5084145984300177 
3.1700000000022652, -2.501709924274488 
3.1800000000022863, -2.4837129492953745 
3.1900000000023074, -2.424775628352255 
3.2000000000023285, -2.324306909801061 
3.2100000000023496, -2.33218765121425 
3.2200000000023707, -2.34703898557865 
3.230000000002392, -2.3504567801397895 
3.240000000002413, -2.3501405991381374 
3.250000000002434, -2.348782014456632 
3.260000000002455, -2.350319131718718 
3.2700000000024763, -2.354737344758733 
3.2800000000024974, -2.357759056453916 
3.2900000000025185, -2.3590636176916235 
3.3000000000025396, -2.3593982395899946 
3.3100000000025607, -2.3585380461981846 
3.3200000000025818, -2.35515427269914 
3.330000000002603, -2.345089929091132 
3.340000000002624, -2.3127806339816894 
3.350000000002645, -2.1820119028352805 
3.360000000002666, -1.500617235899937 
3.3700000000026873, -0.15308717240448622 
3.3800000000027084, 0.24649600926521403 
3.3900000000027295, 0.3286527999020749 
3.4000000000027506, 0.35277270594828347 
3.4100000000027717, 0.361848434171271 
3.420000000002793, 0.36568682183976536 
3.430000000002814, 0.36723630250738953 
3.440000000002835, 0.36752598600848957 
3.450000000002856, 0.36687313911262975 
3.460000000002877, 0.36519322193239917 
3.4700000000028983, 0.3619819666113555 
3.4800000000029194, 0.35609476290215725 
3.4900000000029405, 0.34592323596005614 
3.5000000000029616, 0.3373037562764334 
3.5100000000029827, 0.40852598263022744 
3.520000000003004, 0.7016207590374506 
3.530000000003025, 0.8811930598686434 
3.540000000003046, 0.9248777485808957 
3.550000000003067, 0.9362901156206714 
3.5600000000030882, 0.9396375753341418 
3.5700000000031094, 0.9400113726885408 
3.5800000000031305, 0.9382090968074296 
3.5900000000031516, 0.9328790939213987 
3.6000000000031727, 0.9190877363876059 
3.6100000000031938, 0.8855521750484459 
3.620000000003215, 0.8305291692253867 
3.630000000003236, 0.794415996943344 
3.640000000003257, 0.7888240354610444 
3.650000000003278, 0.7917002011956684 
3.6600000000032993, 0.7943214964411186 
3.6700000000033204, 0.7956213799767319 
3.6800000000033415, 0.7956912496118834 
3.6900000000033626, 0.794313056874348 
3.7000000000033837, 0.7902274899236023 
3.710000000003405, 0.7785378134710946 
3.720000000003426, 0.73503031607992 
3.730000000003447, 0.46372204094422453 
3.740000000003468, -1.8217022144566275 
3.750000000003489, -3.314416106762779 
3.7600000000035103, -3.3771545681977493 
3.7700000000035314, -3.3856981272656532 
3.7800000000035525, -3.3869754001831183 
3.7900000000035736, -3.3852447054508303 
3.8000000000035947, -3.3782193302688497 
3.810000000003616, -3.338924655108432 
3.820000000003637, -3.132813792903782 
3.830000000003658, -3.188521783139632 
3.840000000003679, -3.2053076898722304 
3.8500000000037002, -3.206763782103905 
3.8600000000037213, -3.206187953419325 
3.8700000000037424, -3.2061754963040214 
3.8800000000037635, -3.2055310912400046 
3.8900000000037847, -3.2046110363261837 
3.9000000000038058, -3.2041714160754062 
3.910000000003827, -3.2007501921475865 
3.920000000003848, -3.175519565498127 
3.930000000003869, -3.1692367372885917 
3.94000000000389, -3.3311438035493617 
3.9500000000039113, -3.355255117913374 
3.9600000000039324, -3.3594971082717704 
3.9700000000039535, -3.3596247923579163 
3.9800000000039746, -3.3565762871643736 
3.9900000000039957, -3.34405731649521 
4.000000000004016, -3.2469855616699292 
4.010000000003993, -1.150285795064873 
4.02000000000397, 0.624692462846381 
4.030000000003946, 0.8030780355022318 
4.040000000003923, 0.8332055357146217 
4.0500000000039, 0.8413525089263306 
4.0600000000038765, 0.8438919686464468 
4.070000000003853, 0.8442987213418309 
4.08000000000383, 0.843491691496055 
4.090000000003807, 0.8417240072211658 
4.100000000003783, 0.839537466928034 
4.11000000000376, 0.8402060743881916 
4.120000000003737, 0.8539943313244491 
4.130000000003713, 0.8863709666773939 
4.14000000000369, 0.9168356723866712 
4.150000000003667, 0.9329638205183951 
4.1600000000036434, 0.939724923112669 
4.17000000000362, 0.9421263091970655 
4.180000000003597, 0.9421928707579937 
4.1900000000035735, 0.9399729441745308 
4.20000000000355, 0.9328149560159789 
4.210000000003527, 0.9074353187192707 
4.220000000003504, 0.7842566630741301 
4.23000000000348, 0.3060152029469378 
4.240000000003457, -0.040024877714463884 
4.250000000003434, -0.09760254515234992 
4.26000000000341, -0.10334598834015356 
4.270000000003387, -0.10308466918980856 
4.280000000003364, -0.10252445213248762 
4.2900000000033405, -0.10219267889600944 
4.300000000003317, -0.10201941470260076 
4.310000000003294, -0.1019208910580132 
4.320000000003271, -0.10185923598407172 
4.330000000003247, -0.10184312977815306 
4.340000000003224, -0.10193111404119248 
4.350000000003201, -0.1022416710195421 
4.360000000003177, -0.10296936509429937 
4.370000000003154, -0.10441682219307873 
4.380000000003131, -0.10707282085019032 
4.390000000003107, -0.11179519608547957 
4.400000000003084, -0.12019648388707065 
4.410000000003061, -0.13533263773673232 
4.4200000000030375, -0.16233906229391873 
4.430000000003014, -0.20638727733159928 
4.440000000002991, -0.26347067970265114 
4.450000000002968, -0.31560048764273785 
4.460000000002944, -0.3496781320455239 
4.470000000002921, -0.3679136065587026 
4.480000000002898, -0.37698808109341636 
4.490000000002874, -0.3813865993949473 
4.500000000002851, -0.383316268522041 
4.510000000002828, -0.38372305405422713 
4.520000000002804, -0.382898141545521 
4.530000000002781, -0.3807361033187591 
4.540000000002758, -0.37685816249500637 
4.5500000000027345, -0.37080928789393786 
4.560000000002711, -0.3625077520650798 
4.570000000002688, -0.35276308577889315 
4.580000000002665, -0.34313445114228164 
4.590000000002641, -0.33498474077558804 
4.600000000002618, -0.3288208061585263 
4.610000000002595, -0.32447027118885263 
4.620000000002571, -0.3215242436573354 
4.630000000002548, -0.3195894559948201 
4.640000000002525, -0.31834939784237015 
4.6500000000025015, -0.3175531108707898 
4.660000000002478, -0.3170026782863112 
4.670000000002455, -0.316556477036053 
4.6800000000024315, -0.3161378693750931 
4.690000000002408, -0.31574048706415275 
4.700000000002385, -0.31543835832957007 
4.710000000002362, -0.3154261503937534 
4.720000000002338, -0.31613930635205273 
4.730000000002315, -0.31857857519504174 
4.740000000002292, -0.3252184800452378 
4.750000000002268, -0.342821396817796 
4.760000000002245, -0.3924262450227119 
4.770000000002222, -0.5492861581003844 
4.7800000000021985, -1.0513298992417512 
4.790000000002175, -1.7918887922706035 
4.800000000002152, -2.0777916848507694 
4.810000000002129, -2.1548695933806563 
4.820000000002105, -2.1812162077063313 
4.830000000002082, -2.1918571840460723 
4.840000000002059, -2.196216321498529 
4.850000000002035, -2.1975674671401957 
4.860000000002012, -2.197231506494318 
4.870000000001989, -2.1957262203748997 
4.880000000001965, -2.1929316069971967 
4.890000000001942, -2.1878826290710887 
4.900000000001919, -2.180392957841496 
4.9100000000018955, -2.1755252532353877 
4.920000000001872, -2.1759527059274495 
4.930000000001849, -2.176699942944791 
4.940000000001826, -2.175207967906669 
4.950000000001802, -2.1684885679489643 
