t, s[1].omega / s[0].omega 
0, -0.8786560015020228 
0.009999999999999995, -0.756553491356897 
0.019999999999999934, -0.663508215677977 
0.029999999999999874, -0.5974730289850021 
0.04000000000000012, -0.552143253043193 
0.050000000000000405, -0.5215760448321292 
0.06000000000000069, -0.5012476375288923 
0.07000000000000098, -0.4879422946114813 
0.08000000000000126, -0.4794223626008375 
0.09000000000000155, -0.4741384302993329 
0.10000000000000184, -0.47101938169418134 
0.11000000000000212, -0.4693281634763956 
0.12000000000000241, -0.46856314876599175 
0.130000000000002, -0.4683903566812668 
0.1400000000000009, -0.4685979209514194 
0.1499999999999998, -0.4690682722886672 
0.1599999999999987, -0.46976467497588725 
0.1699999999999976, -0.4707271633623951 
0.1799999999999965, -0.47207109571301836 
0.1899999999999954, -0.473983860268061 
0.1999999999999943, -0.4767201172316809 
0.2099999999999932, -0.4805896612139275 
0.2199999999999921, -0.48590129218451866 
0.229999999999991, -0.49278887279138417 
0.2399999999999899, -0.5009016963432876 
0.2499999999999888, -0.5092213343466324 
0.2599999999999877, -0.5164478027774053 
0.2699999999999866, -0.5217565391049316 
0.2799999999999855, -0.5250835809193894 
0.2899999999999844, -0.526786782973576 
0.2999999999999833, -0.5272327323956612 
0.3099999999999822, -0.5265853932421575 
0.3199999999999811, -0.5246982648719528 
0.32999999999998, -0.5209128208574807 
0.3399999999999789, -0.5134282032901303 
0.3499999999999778, -0.4971523024387392 
0.35999999999997667, -0.4554266117035338 
0.36999999999997557, -0.32789799091391936 
0.37999999999997447, 0.01511619307204554 
0.38999999999997337, 0.3700405632609034 
0.39999999999997227, 0.49423785793997377 
0.40999999999997117, 0.5286201361796654 
0.41999999999997006, 0.5398239214944011 
0.42999999999996896, 0.543925632668069 
0.43999999999996786, 0.5452144029036832 
0.44999999999996676, 0.5449759079963701 
0.45999999999996566, 0.5435570386854666 
0.46999999999996456, 0.5410023888387032 
0.47999999999996346, 0.5374005878115139 
0.48999999999996235, 0.533144057471552 
0.49999999999996125, 0.5289402462386009 
0.5099999999999602, 0.5254771866143146 
0.519999999999959, 0.523075570161992 
0.529999999999958, 0.521666893416429 
0.5399999999999568, 0.5209853291854035 
0.5499999999999557, 0.5207268582120518 
0.5599999999999546, 0.5206075577389702 
0.5699999999999535, 0.5203574792587097 
0.5799999999999524, 0.5196691560129406 
0.5899999999999513, 0.5180583061420789 
0.5999999999999502, 0.5144579570819172 
0.6099999999999491, 0.5058051480330932 
0.619999999999948, 0.480630537942743 
0.6299999999999469, 0.37694231194824523 
0.6399999999999458, -0.2806730382353327 
0.6499999999999447, -1.7669008529205665 
0.6599999999999436, -2.1162177028563556 
0.6699999999999425, -2.1685783210374185 
0.6799999999999414, -2.179676162867037 
0.6899999999999403, -2.182237467835179 
0.6999999999999392, -2.182341990707435 
0.7099999999999381, -2.181825963901928 
0.719999999999937, -2.1814355770844176 
0.7299999999999359, -2.180815866016064 
0.7399999999999348, -2.179737927393581 
0.7499999999999337, -2.1790101199018936 
0.7599999999999326, -2.178783004569272 
0.7699999999999315, -2.1777213752609037 
0.7799999999999304, -2.1731950026381703 
0.7899999999999293, -2.1539857788583356 
0.7999999999999282, -2.0316108209235124 
0.8099999999999271, -0.7787402751264001 
0.819999999999926, 0.9674431731580204 
0.8299999999999249, 1.1150302921478512 
0.8399999999999238, 1.134505225195196 
0.8499999999999227, 1.138951960377455 
0.8599999999999216, 1.1396276220409758 
0.8699999999999205, 1.1382056408224759 
0.8799999999999194, 1.1339567973840363 
0.8899999999999183, 1.1241478024176954 
0.8999999999999172, 1.105363812086401 
0.9099999999999161, 1.0833235795173817 
0.919999999999915, 1.0726791716966735 
0.9299999999999139, 1.0721229954432299 
0.9399999999999128, 1.073744988590295 
0.9499999999999117, 1.0747007586672177 
0.9599999999999106, 1.074430349115999 
0.9699999999999095, 1.0722209170365313 
0.9799999999999084, 1.0651532984214838 
0.9899999999999073, 1.0389604289930263 
0.9999999999999062, 0.8995766874358369 
1.0099999999999052, 0.7667517665690999 
1.019999999999904, 2.128438371354882 
1.029999999999903, 2.196729025110236 
1.039999999999902, 2.2024653444625644 
1.0499999999999008, 2.2020872411812022 
1.0599999999998997, 2.1953364661644064 
1.0699999999998986, 2.11377478640678 
1.0799999999998975, -0.5755185810013208 
1.0899999999998964, -2.083036359027226 
1.0999999999998953, -2.2312779493251527 
1.1099999999998942, -2.250988533008486 
1.119999999999893, -2.254665460275131 
1.129999999999892, -2.254853538567873 
1.1399999999998909, -2.2543644771456717 
1.1499999999998898, -2.25476170821823 
1.1599999999998887, -2.255611146143706 
1.1699999999998876, -2.2558683076345862 
1.1799999999998865, -2.2557986792545273 
1.1899999999998854, -2.2556237127775978 
1.1999999999998843, -2.25444559893599 
1.2099999999998832, -2.249916635779817 
1.219999999999882, -2.2327994213820492 
1.229999999999881, -2.1472213712130075 
1.2399999999998799, -1.5310150539807963 
1.2499999999998788, 0.02158162687100318 
1.2599999999998777, 0.41486305954691316 
1.2699999999998766, 0.4820182899072093 
1.2799999999998755, 0.5000533520106536 
1.2899999999998744, 0.5064224874073268 
1.2999999999998733, 0.5089274521602248 
1.3099999999998722, 0.5098369457435417 
1.319999999999871, 0.5100036034380241 
1.32999999999987, 0.5098508347822939 
1.3399999999998689, 0.5096766241164754 
1.3499999999998678, 0.5097718043840319 
1.3599999999998666, 0.510478759035448 
1.3699999999998655, 0.5122012869037471 
1.3799999999998644, 0.515296811929437 
1.3899999999998633, 0.5197803990417232 
1.3999999999998622, 0.5250294179494646 
1.4099999999998611, 0.5299740439325409 
1.41999999999986, 0.5337557893188867 
1.429999999999859, 0.5360932299125862 
1.4399999999998578, 0.5370679580303916 
1.4499999999998567, 0.5367274270280534 
1.4599999999998556, 0.5347047807828328 
1.4699999999998545, 0.5295334221649556 
1.4799999999998534, 0.5163924837188627 
1.4899999999998523, 0.478340900046312 
1.4999999999998512, 0.3589434490112426 
1.5099999999998501, 0.10439329520571147 
1.519999999999849, -0.092172748481543 
1.529999999999848, -0.16003493480357134 
1.5399999999998468, -0.18032344150445528 
1.5499999999998457, -0.1874277980634876 
1.5599999999998446, -0.19044030073620177 
1.5699999999998435, -0.19187897497881842 
1.5799999999998424, -0.1925495985123618 
1.5899999999998413, -0.19274855016587572 
1.5999999999998402, -0.19260236087533805 
1.6099999999998391, -0.1921892056930888 
1.619999999999838, -0.1915996396507501 
1.629999999999837, -0.19096979958113863 
1.6399999999998358, -0.19048577634618985 
1.6499999999998347, -0.19036451403454532 
1.6599999999998336, -0.19083926652320354 
1.6699999999998325, -0.1921778981980214 
1.6799999999998314, -0.19473090088191555 
1.6899999999998303, -0.19896122558915175 
1.6999999999998292, -0.20534568314737647 
1.709999999999828, -0.21399697955179336 
1.719999999999827, -0.22410472456177194 
1.729999999999826, -0.2339309247782015 
1.7399999999998248, -0.24184126909027923 
1.7499999999998237, -0.24724780422284867 
1.7599999999998226, -0.2504440936668368 
1.7699999999998215, -0.251958869132799 
1.7799999999998204, -0.2521598998824015 
1.7899999999998193, -0.2511297290391966 
1.7999999999998182, -0.24862383926786932 
1.809999999999817, -0.24403308074221913 
1.819999999999816, -0.23645870531484783 
1.8299999999998149, -0.22523444929803976 
1.8399999999998138, -0.21102772283213747 
1.8499999999998127, -0.19631635208886636 
1.8599999999998116, -0.18382572852366258 
1.8699999999998105, -0.17470608249779768 
1.8799999999998094, -0.16862691962463017 
1.8899999999998083, -0.16477672354538436 
1.8999999999998072, -0.16244656871849583 
1.909999999999806, -0.16114340865183702 
1.919999999999805, -0.16052819192574738 
1.9299999999998039, -0.16033954378202014 
1.9399999999998028, -0.16035423429995938 
1.9499999999998017, -0.16038563391040417 
1.9599999999998006, -0.16029431355413648 
1.9699999999997995, -0.1599833451669447 
1.9799999999997984, -0.15936856595044874 
1.9899999999997973, -0.158320225927145 
1.9999999999997962, -0.15653983268842875 
2.0099999999998173, -0.15321000517133426 
2.0199999999998384, -0.14576153984656773 
2.0299999999998595, -0.12504255287303706 
2.0399999999998806, -0.05833196514433266 
2.0499999999999017, 0.12038372567828956 
2.059999999999923, 0.33899728142959157 
2.069999999999944, 0.44457741318264815 
2.079999999999965, 0.48003701584332853 
2.089999999999986, 0.4925070391942777 
2.100000000000007, 0.497274581658122 
2.1100000000000283, 0.4989233866088486 
2.1200000000000494, 0.49890474062885887 
2.1300000000000705, 0.4976198419062275 
2.1400000000000916, 0.4950831517078818 
2.1500000000001127, 0.4912811869824287 
2.160000000000134, 0.48650162285497967 
2.170000000000155, 0.4814783026195794 
2.180000000000176, 0.4770923954306431 
2.190000000000197, 0.4738766285116479 
2.2000000000002182, 0.47186309350860534 
2.2100000000002393, 0.47079000422402784 
2.2200000000002604, 0.4703274253739208 
2.2300000000002815, 0.4701725713021811 
2.2400000000003026, 0.47005609711390495 
2.2500000000003237, 0.469711770025872 
2.260000000000345, 0.4688083847673693 
2.270000000000366, 0.46677544292659673 
2.280000000000387, 0.46228680709292735 
2.290000000000408, 0.4514233181452928 
2.3000000000004293, 0.41916667853899847 
2.3100000000004504, 0.28370532434851387 
2.3200000000004715, -0.4739807056847667 
2.3300000000004926, -1.674616796492422 
2.3400000000005137, -1.9474991715757703 
2.3500000000005348, -1.9946064749687014 
2.360000000000556, -2.005414153830941 
2.370000000000577, -2.0080690931254233 
2.380000000000598, -2.008257263418835 
2.390000000000619, -2.007819128606682 
2.4000000000006403, -2.0078095908139812 
2.4100000000006614, -2.008149051097348 
2.4200000000006825, -2.008164506696812 
2.4300000000007036, -2.007930520290431 
2.4400000000007247, -2.007817285380306 
2.450000000000746, -2.007423754925816 
2.460000000000767, -2.0056243025269693 
2.470000000000788, -1.9999357891530258 
2.480000000000809, -1.982056921182202 
2.49000000000083, -1.918295224185978 
2.5000000000008513, -1.6619001274311551 
2.5100000000008724, -0.9008920741213314 
2.5200000000008935, -0.21822420927138234 
2.5300000000009146, 0.0075361532962924405 
2.5400000000009357, 0.07692301102330537 
2.550000000000957, 0.10293391343824279 
2.560000000000978, 0.1143991133242864 
2.570000000000999, 0.1199859207544343 
2.58000000000102, 0.1228048095271094 
2.5900000000010412, 0.12412070804080813 
2.6000000000010624, 0.12446397167907368 
2.6100000000010835, 0.1239943557797073 
2.6200000000011046, 0.12258676178800125 
2.6300000000011257, 0.11972797135640974 
2.6400000000011468, 0.11409281037728047 
2.650000000001168, 0.10219581491044297 
2.660000000001189, 0.07368601635114978 
2.67000000000121, -0.007584916590703974 
2.680000000001231, -0.28971510871914996 
2.6900000000012523, -1.8742948242290922 
2.7000000000012734, -3.597894483010964 
2.7100000000012945, -3.6562816370447484 
2.7200000000013156, -3.6628068530791813 
2.7300000000013367, -3.663133125542381 
2.740000000001358, -3.6598836892172093 
2.750000000001379, -3.6436650704618865 
2.7600000000014, -3.432308213824078 
2.770000000001421, -3.1426961683556134 
2.780000000001442, -3.248064523127995 
2.7900000000014633, -3.2563212601188845 
2.8000000000014844, -3.256635756608476 
2.8100000000015055, -3.2560600389423278 
2.8200000000015266, -3.255271738467074 
2.8300000000015477, -3.2534353227988375 
2.840000000001569, -3.252805935430467 
2.85000000000159, -3.2520183729929877 
2.860000000001611, -3.2452417169546615 
2.870000000001632, -3.223199203757524 
2.8800000000016532, -3.2828100999694256 
2.8900000000016743, -3.309641275843029 
2.9000000000016954, -3.314713001718107 
2.9100000000017165, -3.3153174895795052 
2.9200000000017377, -3.3130549705684844 
2.9300000000017588, -3.3033772689974237 
2.94000000000178, -3.2423449274155267 
2.950000000001801, -1.6899688840102542 
2.960000000001822, 1.1218176055588862 
2.970000000001843, 1.2409126281699296 
2.9800000000018643, 1.2556360404763809 
2.9900000000018854, 1.2589609913137996 
3.0000000000019065, 1.2597006043252392 
3.0100000000019276, 1.2596903894667784 
3.0200000000019487, 1.2596058405892658 
3.03000000000197, 1.2597816063860094 
3.040000000001991, 1.2602659460412442 
3.050000000002012, 1.2608651278157739 
3.060000000002033, 1.2613476322845614 
3.070000000002054, 1.261576311739868 
3.0800000000020753, 1.2614293876393294 
3.0900000000020964, 1.260580898986006 
3.1000000000021175, 1.2579122292599432 
3.1100000000021386, 1.2483714444236438 
3.1200000000021597, 1.19086400680707 
3.130000000002181, -0.09458705804483418 
3.140000000002202, -3.1107147571697693 
3.150000000002223, -3.2399276971473014 
3.160000000002244, -3.254296444589417 
3.1700000000022652, -3.2566755244379557 
3.1800000000022863, -3.255828021922828 
3.1900000000023074, -3.25210027335795 
3.2000000000023285, -3.2386107808914324 
3.2100000000023496, -3.2078507551147353 
3.2200000000023707, -3.2139112019234792 
3.230000000002392, -3.218642047196105 
3.240000000002413, -3.2181922742985782 
3.250000000002434, -3.217566725727525 
3.260000000002455, -3.2195823052835606 
3.2700000000024763, -3.2204614552814554 
3.2800000000024974, -3.2203454564659686 
3.2900000000025185, -3.2193175514796395 
3.3000000000025396, -3.21263528847417 
3.3100000000025607, -3.1381925783554094 
3.3200000000025818, -1.1871933174764324 
3.330000000002603, 3.7564655667179316 
3.340000000002624, 3.7862307632541445 
3.350000000002645, 3.7858596405456977 
3.360000000002666, 3.7611581767384776 
3.3700000000026873, -5.190284072403492 
3.3800000000027084, -5.3895790392224425 
3.3900000000027295, -5.391125727970258 
3.4000000000027506, -5.3862874508481955 
3.4100000000027717, -5.338333210163318 
3.420000000002793, -5.360934188273235 
3.430000000002814, -5.3618512743668605 
3.440000000002835, -5.360611078946551 
3.450000000002856, -5.357406138023283 
3.460000000002877, -5.357325267016271 
3.4700000000028983, -5.354100670601624 
3.4800000000029194, -5.357297856131526 
3.4900000000029405, -5.35777010754083 
3.5000000000029616, -5.355656591054524 
3.5100000000029827, -5.3033862288778595 
3.520000000003004, -5.415960884361811 
3.530000000003025, -5.429281240478288 
3.540000000003046, -5.428111193305126 
3.550000000003067, -5.401405399791061 
3.5600000000030882, 3.229560848853525 
3.5700000000031094, 3.4594872494481144 
3.5800000000031305, 3.462556090943443 
3.5900000000031516, 3.45875045200088 
3.6000000000031727, 3.378611285372089 
3.6100000000031938, 3.265733589492317 
3.620000000003215, 3.3055639910816175 
3.630000000003236, 3.307352326384631 
3.640000000003257, 3.306959535004322 
3.650000000003278, 3.30534716980434 
3.6600000000032993, 3.302146347566495 
3.6700000000033204, 3.301662095010387 
3.6800000000033415, 3.3011188245846284 
3.6900000000033626, 3.295288557226713 
3.7000000000033837, 3.2981748391421677 
3.710000000003405, 3.3131807821664294 
3.720000000003426, 3.315594942049632 
3.730000000003447, 3.3142676070378903 
3.740000000003468, 3.297177240514096 
3.750000000003489, -3.8957657485328716 
3.7600000000035103, -5.54881406447541 
3.7700000000035314, -5.554147170505524 
3.7800000000035525, -5.550508389846094 
3.7900000000035736, -5.407281741945475 
3.8000000000035947, 2.9721877977379654 
3.810000000003616, 3.0575954534120866 
3.820000000003637, 3.060526278240926 
3.830000000003658, 3.0597705317621506 
3.840000000003679, 3.0554266761300815 
3.8500000000037002, 3.044709876156501 
3.8600000000037213, 3.0446691495802076 
3.8700000000037424, 3.046730918196124 
3.8800000000037635, 3.045303772708894 
3.8900000000037847, 3.0437973833991827 
3.9000000000038058, 3.049247949749634 
3.910000000003827, 3.052286419717502 
3.920000000003848, 3.0523488945514328 
3.930000000003869, 3.050236335514695 
3.94000000000389, 3.0261397688790534 
3.9500000000039113, 1.3471445258749981 
3.9600000000039324, 4.35258046950855 
3.9700000000039535, 4.360024304779768 
3.9800000000039746, 4.3550170368290315 
3.9900000000039957, -0.9446159719900733 
4.000000000004016, -6.170929249766448 
4.010000000003993, -6.17376676841591 
4.02000000000397, -6.166186515145248 
4.030000000003946, -6.0722458319121575 
4.040000000003923, -6.118689007151216 
4.0500000000039, -6.117983610079597 
4.0600000000038765, -6.1130445875860016 
4.070000000003853, -6.111633278666536 
4.08000000000383, -6.110914578056219 
4.090000000003807, -6.110662189864903 
4.100000000003783, -6.109400916523288 
4.11000000000376, -6.106758533131029 
4.120000000003737, -6.1038945242667335 
4.130000000003713, -6.112992180105762 
4.14000000000369, -6.11179648382579 
4.150000000003667, -6.060850188682539 
4.1600000000036434, -6.36998389147527 
4.17000000000362, -6.390811948820991 
4.180000000003597, -6.3879122438082465 
4.1900000000035735, -5.958287659073951 
4.20000000000355, 4.382260416514289 
4.210000000003527, 4.38969034593447 
4.220000000003504, 4.385571057750406 
4.23000000000348, 4.164207123022551 
4.240000000003457, 4.260152610679179 
4.250000000003434, 4.2661137704633685 
4.26000000000341, 4.265418168114922 
4.270000000003387, 4.261030559552767 
4.280000000003364, 4.257133665574743 
4.2900000000033405, 4.258661933716285 
4.300000000003317, 4.256687401644876 
4.310000000003294, 4.2585417311104745 
4.320000000003271, 4.259722605720316 
4.330000000003247, 4.2588303095490625 
4.340000000003224, 4.251870829946347 
4.350000000003201, 4.2183989694282005 
4.360000000003177, 4.312901519353487 
4.370000000003154, 4.315087549726027 
4.380000000003131, 4.30736395241102 
4.390000000003107, -5.438545262758315 
4.400000000003084, -6.326658942930017 
4.410000000003061, -6.327883630074997 
4.4200000000030375, -6.312054945939325 
4.430000000003014, -5.0138750066753675 
4.440000000002991, -5.46879778438276 
4.450000000002968, -5.470881111309527 
4.460000000002944, -5.467648456361692 
4.470000000002921, -5.450846861949588 
4.480000000002898, -5.4578766284941125 
4.490000000002874, -5.4574192113871005 
4.500000000002851, -5.456773943313669 
4.510000000002828, -5.454994819206694 
4.520000000002804, -5.453874019805232 
4.530000000002781, -5.44787738850355 
4.540000000002758, -5.457060087244623 
4.5500000000027345, -5.45770682864729 
4.560000000002711, -5.453567548022922 
4.570000000002688, -5.137663302389583 
4.580000000002665, -5.731156155506658 
4.590000000002641, -5.740993026215898 
4.600000000002618, -5.738377175195733 
4.610000000002595, -5.641355627052515 
4.620000000002571, 3.7011601431726384 
4.630000000002548, 3.733713643990528 
4.640000000002525, 3.733792545353933 
4.6500000000025015, 3.723630949553434 
4.660000000002478, 3.609303223503705 
4.670000000002455, 3.6648110911562157 
4.6800000000024315, 3.668935829415214 
4.690000000002408, 3.668670928666729 
4.700000000002385, 3.667710470102537 
4.710000000002362, 3.665136355706341 
4.720000000002338, 3.6645311800399716 
4.730000000002315, 3.663391947887626 
4.740000000002292, 3.6559090788277686 
4.750000000002268, 3.667199545996728 
4.760000000002245, 3.674955889159308 
4.770000000002222, 3.6750628075682776 
4.7800000000021985, 3.6697494684480993 
4.790000000002175, 3.0571309338785104 
4.800000000002152, -6.3704620307291915 
4.810000000002129, -6.383648807153628 
4.820000000002105, -6.379657576810273 
4.830000000002082, -5.036183458979371 
4.840000000002059, 4.309011893129847 
4.850000000002035, 4.314792838722361 
4.860000000002012, 4.311549725386211 
4.870000000001989, 4.251930468533772 
4.880000000001965, 4.26930840866674 
4.890000000001942, 4.274098557201731 
4.900000000001919, 4.273650115696411 
4.9100000000018955, 4.271859350407732 
4.920000000001872, 4.269235325431812 
4.930000000001849, 4.269307120878502 
4.940000000001826, 4.265517895113285 
4.950000000001802, 4.2689400203419945 
4.960000000001779, 4.27337362753441 
4.970000000001756, 4.272784384044289 
4.980000000001732, 4.264129306242187 
4.990000000001709, 4.133290131829316 
5.000000000001686, 4.475040465535452 
