t, s[1].omega / s[0].omega 
0, -1.4820835121043348 
0.009999999999999995, -1.6308691531436168 
0.019999999999999934, -1.6991057748114677 
0.029999999999999874, -1.7282732643889887 
0.04000000000000012, -1.740173880387422 
0.050000000000000405, -1.7447218836538603 
0.06000000000000069, -1.7460901743101236 
0.07000000000000098, -1.7460462067004894 
0.08000000000000126, -1.7455491356666908 
0.09000000000000155, -1.7452163632482551 
0.10000000000000184, -1.7450691962295743 
0.11000000000000212, -1.7447622868542692 
0.12000000000000241, -1.7443166417983496 
0.130000000000002, -1.7440777056496457 
0.1400000000000009, -1.7439736228108818 
0.1499999999999998, -1.7433564804073338 
0.1599999999999987, -1.7412398419060051 
0.1699999999999976, -1.7357629667669663 
0.1799999999999965, -1.7225317974920906 
0.1899999999999954, -1.6912417054696216 
0.1999999999999943, -1.6196782818452617 
0.2099999999999932, -1.4667597142431983 
0.2199999999999921, -1.1867927958744056 
0.229999999999991, -0.8247957994822702 
0.2399999999999899, -0.5409235633700195 
0.2499999999999888, -0.38750891939300497 
0.2599999999999877, -0.31411191010605444 
0.2699999999999866, -0.2784480518148609 
0.2799999999999855, -0.26020920319941376 
0.2899999999999844, -0.2504291234246855 
0.2999999999999833, -0.24502648021289303 
0.3099999999999822, -0.24204055546899372 
0.3199999999999811, -0.2404832222504949 
0.32999999999998, -0.2398448157607153 
0.3399999999999789, -0.23987329216433223 
0.3499999999999778, -0.24047645290986425 
0.35999999999997667, -0.2416870685089203 
0.36999999999997557, -0.24366895181362863 
0.37999999999997447, -0.2467636814308772 
0.38999999999997337, -0.2516011636143372 
0.39999999999997227, -0.25933885963588343 
0.40999999999997117, -0.2721732150550384 
0.41999999999997006, -0.2943695378884928 
0.42999999999996896, -0.3338130565348691 
0.43999999999996786, -0.40134409951681055 
0.44999999999996676, -0.4975858810480057 
0.45999999999996566, -0.5932077269369156 
0.46999999999996456, -0.6566150655622996 
0.47999999999996346, -0.6888288348541047 
0.48999999999996235, -0.7036441482223859 
0.49999999999996125, -0.7103144340465832 
0.5099999999999602, -0.7131295969986622 
0.519999999999959, -0.7138319300151803 
0.529999999999958, -0.7129301083999156 
0.5399999999999568, -0.7100835324886848 
0.5499999999999557, -0.7037615561553667 
0.5599999999999546, -0.6896369622946327 
0.5699999999999535, -0.655427217811734 
0.5799999999999524, -0.5673246963136845 
0.5899999999999513, -0.3687577600844786 
0.5999999999999502, -0.11419578368736871 
0.6099999999999491, 0.03809452369773615 
0.619999999999948, 0.09949646408717938 
0.6299999999999469, 0.12397763871614172 
0.6399999999999458, 0.13469780771686585 
0.6499999999999447, 0.13976923806433642 
0.6599999999999436, 0.142215145882098 
0.6699999999999425, 0.1433011410187396 
0.6799999999999414, 0.14363876609987108 
0.6899999999999403, 0.1435806886413886 
0.6999999999999392, 0.14337012141409766 
0.7099999999999381, 0.1432029463456998 
0.719999999999937, 0.14327321347998495 
0.7299999999999359, 0.14384652489154875 
0.7399999999999348, 0.14541054168654222 
0.7499999999999337, 0.1489833689979285 
0.7599999999999326, 0.15663128209313218 
0.7699999999999315, 0.1716701480831207 
0.7799999999999304, 0.19625370697113836 
0.7899999999999293, 0.22576330877788245 
0.7999999999999282, 0.2505881052969347 
0.8099999999999271, 0.2663860434569187 
0.819999999999926, 0.27498448456766356 
0.8299999999999249, 0.27926685601117 
0.8399999999999238, 0.2810846524999616 
0.8499999999999227, 0.2813258797681991 
0.8599999999999216, 0.28028810508282354 
0.8699999999999205, 0.2779363221729433 
0.8799999999999194, 0.27412512385510457 
0.8899999999999183, 0.26890628981010745 
0.8999999999999172, 0.26283921542782673 
0.9099999999999161, 0.2569291556466135 
0.919999999999915, 0.25208261848487123 
0.9299999999999139, 0.24866549520998923 
0.9399999999999128, 0.24657351732062036 
0.9499999999999117, 0.24552547252119178 
0.9599999999999106, 0.24524581714061983 
0.9699999999999095, 0.24549957330500588 
0.9799999999999084, 0.2460625964795867 
0.9899999999999073, 0.24669486590385553 
0.9999999999999062, 0.2471425773421291 
1.0099999999999052, 0.24714954677157755 
1.019999999999904, 0.2464280189470145 
1.029999999999903, 0.24453100267270694 
1.039999999999902, 0.24052352484380446 
1.0499999999999008, 0.23212343528952167 
1.0599999999998997, 0.21321718984795837 
1.0699999999998986, 0.16684538902182625 
1.0799999999998975, 0.05580887921951906 
1.0899999999998964, -0.12699802027559143 
1.0999999999998953, -0.2744436965170973 
1.1099999999998942, -0.3424518911160527 
1.119999999999893, -0.36938871490771213 
1.129999999999892, -0.3807107650572129 
1.1399999999998909, -0.38590007639229806 
1.1499999999998898, -0.38832922545725973 
1.1599999999998887, -0.38926246552264837 
1.1699999999998876, -0.389163785382433 
1.1799999999998865, -0.38814087229393324 
1.1899999999998854, -0.38613304151785316 
1.1999999999998843, -0.3830637089522567 
1.2099999999998832, -0.3790297234212765 
1.219999999999882, -0.374441461851376 
1.229999999999881, -0.36993033180285984 
1.2399999999998799, -0.36604993375984785 
1.2499999999998788, -0.36306755549820713 
1.2599999999998777, -0.3609919519638817 
1.2699999999998766, -0.3597017571452333 
1.2799999999998755, -0.359032792665105 
1.2899999999998744, -0.3588038646798954 
1.2999999999998733, -0.35882173029240205 
1.3099999999998722, -0.35890062433300485 
1.319999999999871, -0.3588964036199724 
1.32999999999987, -0.3587305004040383 
1.3399999999998689, -0.35839145823720353 
1.3499999999998678, -0.357930510340878 
1.3599999999998666, -0.35748353908011743 
1.3699999999998655, -0.3573688354141537 
1.3799999999998644, -0.3583835039165069 
1.3899999999998633, -0.36270324588795444 
1.3999999999998622, -0.3769307299123667 
1.4099999999998611, -0.42437064779607825 
1.41999999999986, -0.6076499609871298 
1.429999999999859, -1.4034070707071227 
1.4399999999998578, -2.3746927714172505 
1.4499999999998567, -2.548580849549862 
1.4599999999998556, -2.5818797725708134 
1.4699999999998545, -2.5917315541259174 
1.4799999999998534, -2.5949661780549556 
1.4899999999998523, -2.595395417402156 
1.4999999999998512, -2.593975853058647 
1.5099999999998501, -2.590260870493525 
1.519999999999849, -2.5810317172727215 
1.529999999999848, -2.5580638272610776 
1.5399999999998468, -2.53710755592211 
1.5499999999998457, -2.542521261822032 
1.5599999999998446, -2.546305572742678 
1.5699999999998435, -2.546093583926857 
1.5799999999998424, -2.5437432494202072 
1.5899999999998413, -2.5447934095782356 
1.5999999999998402, -2.5520207627384415 
1.6099999999998391, -2.5569148216289914 
1.619999999999838, -2.5588290693094224 
1.629999999999837, -2.559270334389079 
1.6399999999998358, -2.5582095090665637 
1.6499999999998347, -2.554022943434065 
1.6599999999998336, -2.5405139956759655 
1.6699999999998325, -2.487786182910724 
1.6799999999998314, -2.167844471851992 
1.6899999999998303, -0.44380567572853813 
1.6999999999998292, 0.4070726452701107 
1.709999999999828, 0.5243053287572831 
1.719999999999827, 0.550699425181757 
1.729999999999826, 0.5592211807906863 
1.7399999999998248, 0.5624348588737103 
1.7499999999998237, 0.5635759737106372 
1.7599999999998226, 0.5637191552605522 
1.7699999999998215, 0.5633034849892485 
1.7799999999998204, 0.5626226038864923 
1.7899999999998193, 0.5622300939919673 
1.7999999999998182, 0.5638202116525187 
1.809999999999817, 0.571954971123357 
1.819999999999816, 0.593333870252738 
1.8299999999998149, 0.6251812414265666 
1.8399999999998138, 0.6520445517287312 
1.8499999999998127, 0.6672638565414118 
1.8599999999998116, 0.6744008689666485 
1.8699999999998105, 0.6773353156442226 
1.8799999999998094, 0.6779618628668731 
1.8899999999998083, 0.6767472738458131 
1.8999999999998072, 0.6728942513087305 
1.909999999999806, 0.6632579734440205 
1.919999999999805, 0.6386203108913622 
1.9299999999998039, 0.5797481828592712 
1.9399999999998028, 0.48990145654287376 
1.9499999999998017, 0.4318383638552425 
1.9599999999998006, 0.41623978936262496 
1.9699999999997995, 0.4151292979445289 
1.9799999999997984, 0.41645581949595745 
1.9899999999997973, 0.4175939663665136 
1.9999999999997962, 0.4181671936781116 
2.0099999999998173, 0.4181427735897529 
2.0199999999998384, 0.41741121169830125 
2.0299999999998595, 0.4156034538184132 
2.0399999999998806, 0.4117343168493169 
2.0499999999999017, 0.4030340438851329 
2.059999999999923, 0.3801488893494155 
2.069999999999944, 0.3005114750225684 
2.079999999999965, -0.11361887305051448 
2.089999999999986, -1.5740867280657436 
2.100000000000007, -2.2435680534073104 
2.1100000000000283, -2.359370742824764 
2.1200000000000494, -2.3857704102785884 
2.1300000000000705, -2.393090810201546 
2.1400000000000916, -2.394885879941855 
2.1500000000001127, -2.394616385022035 
2.160000000000134, -2.39335431528404 
2.170000000000155, -2.391034214913353 
2.180000000000176, -2.3868835166178526 
2.190000000000197, -2.3825649164284863 
2.2000000000002182, -2.381894983984853 
2.2100000000002393, -2.382380824472481 
2.2200000000002604, -2.3808014358475735 
2.2300000000002815, -2.3730835622220083 
2.2400000000003026, -2.349851523942924 
2.2500000000003237, -2.391198152788012 
2.260000000000345, -2.489713421911664 
2.270000000000366, -2.522862986094585 
2.280000000000387, -2.5329790586112617 
2.290000000000408, -2.5365960136449712 
2.3000000000004293, -2.537533172714965 
2.3100000000004504, -2.536640418648248 
2.3200000000004715, -2.5335958625125876 
2.3300000000004926, -2.5263213445591886 
2.3400000000005137, -2.5060422824411446 
2.3500000000005348, -2.4343522296082076 
2.360000000000556, -2.3033283997273934 
2.370000000000577, -2.3150791239733257 
2.380000000000598, -2.3329969957182084 
2.390000000000619, -2.3370425021735812 
2.4000000000006403, -2.3369784729208614 
2.4100000000006614, -2.3357311696132554 
2.4200000000006825, -2.3368428618850468 
2.4300000000007036, -2.340728943433055 
2.4400000000007247, -2.3435479199658493 
2.450000000000746, -2.3447814039745394 
2.460000000000767, -2.345120178539051 
2.470000000000788, -2.344353795702808 
2.480000000000809, -2.3411927712745584 
2.49000000000083, -2.331634423812333 
2.5000000000008513, -2.300622080036981 
2.5100000000008724, -2.174972172816013 
2.5200000000008935, -1.5276917000878174 
2.5300000000009146, -0.19089400952426222 
2.5400000000009357, 0.23014955550596441 
2.550000000000957, 0.3171063860578773 
2.560000000000978, 0.34249971351980857 
2.570000000000999, 0.35203106490531544 
2.58000000000102, 0.356079874553255 
2.5900000000010412, 0.3577592428702071 
2.6000000000010624, 0.3581660068607287 
2.6100000000010835, 0.3576663128451444 
2.6200000000011046, 0.3562430093701005 
2.6300000000011257, 0.35352695279925994 
2.6400000000011468, 0.3486766795589126 
2.650000000001168, 0.3406275617946487 
2.660000000001189, 0.33391230465712457 
2.67000000000121, 0.3836615506625681 
2.680000000001231, 0.6229114496364845 
2.6900000000012523, 0.8162700574671604 
2.7000000000012734, 0.870515681416286 
2.7100000000012945, 0.8849923404894506 
2.7200000000013156, 0.8894030347711401 
2.7300000000013367, 0.8903463866139767 
2.740000000001358, 0.8891903326517507 
2.750000000001379, 0.8852739858421371 
2.7600000000014, 0.8754944922219059 
2.770000000001421, 0.852374978659927 
2.780000000001442, 0.8096745083333768 
2.7900000000014633, 0.7690025696382468 
2.8000000000014844, 0.7545732060056493 
2.8100000000015055, 0.7543270338629042 
2.8200000000015266, 0.7564310168448336 
2.8300000000015477, 0.7578962290541514 
2.840000000001569, 0.7583689176606838 
2.85000000000159, 0.757721621800255 
2.860000000001611, 0.7553135633849365 
2.870000000001632, 0.7488077634648252 
2.8800000000016532, 0.7286212563458127 
2.8900000000016743, 0.6363533117023817 
2.9000000000016954, -0.1693854830291758 
2.9100000000017165, -2.7147804512250757 
2.9200000000017377, -3.0100098363550485 
2.9300000000017588, -3.040031944654414 
2.94000000000178, -3.046499955174024 
2.950000000001801, -3.0476552707334195 
2.960000000001822, -3.046289513619646 
2.970000000001843, -3.0415454261955803 
2.9800000000018643, -3.0245979430055643 
2.9900000000018854, -2.9630722359381507 
3.0000000000019065, -2.951365610345405 
3.0100000000019276, -2.966130350267557 
3.0200000000019487, -2.968400288220803 
3.03000000000197, -2.967589013890738 
3.040000000001991, -2.9677615037042466 
3.050000000002012, -2.969377363678258 
3.060000000002033, -2.9698049757044895 
3.070000000002054, -2.9696458351332273 
3.0800000000020753, -2.968679930667251 
3.0900000000020964, -2.9630695083529828 
3.1000000000021175, -2.918236097233506 
3.1100000000021386, -1.7612929690300434 
3.1200000000021597, 2.384297427201772 
3.130000000002181, 2.472450342813033 
3.140000000002202, 2.4774826647375727 
3.150000000002223, 2.476411386639554 
3.160000000002244, 2.4648585500548323 
3.1700000000022652, 2.149397182845708 
3.1800000000022863, -0.10814610784530165 
3.1900000000023074, 0.07289867655495329 
3.2000000000023285, 0.1943578538328253 
3.2100000000023496, 0.2366560444686971 
3.2200000000023707, 0.25285631022263544 
3.230000000002392, 0.25986708335501224 
3.240000000002413, 0.2630767821800334 
3.250000000002434, 0.26440262780170487 
3.260000000002455, 0.264541431506105 
3.2700000000024763, 0.26362661381309427 
3.2800000000024974, 0.2613440579181358 
3.2900000000025185, 0.25666751093632045 
3.3000000000025396, 0.2467956054082067 
3.3100000000025607, 0.22315608519202187 
3.3200000000025818, 0.1530068858134619 
3.330000000002603, -0.12459786759248107 
3.340000000002624, -1.1123756355233803 
3.350000000002645, -1.9587101042404202 
3.360000000002666, -2.170399172179026 
3.3700000000026873, -2.222939895335503 
3.3800000000027084, -2.238626074621724 
3.3900000000027295, -2.243566211213836 
3.4000000000027506, -2.2447121914616273 
3.4100000000027717, -2.2442674101579017 
3.420000000002793, -2.2430486641774476 
3.430000000002814, -2.2410089149181793 
3.440000000002835, -2.2376379356769056 
3.450000000002856, -2.2341747483982775 
3.460000000002877, -2.2332841792148597 
3.4700000000028983, -2.2335338590410467 
3.4800000000029194, -2.2322241876209152 
3.4900000000029405, -2.2256982193072594 
3.5000000000029616, -2.19686279745435 
3.5100000000029827, -2.1325272170665714 
3.520000000003004, -2.4471163720347384 
3.530000000003025, -2.63554696655066 
3.540000000003046, -2.671111451131367 
3.550000000003067, -2.6806901648918218 
3.5600000000030882, -2.6837698956914053 
3.5700000000031094, -2.684144021337818 
3.5800000000031305, -2.6825237047902952 
3.5900000000031516, -2.678008429079152 
3.6000000000031727, -2.6655464717534256 
3.6100000000031938, -2.62212639288411 
3.620000000003215, -2.5377919559995292 
3.630000000003236, -2.547651600779576 
3.640000000003257, -2.5602303320051645 
3.650000000003278, -2.56252570622775 
3.6600000000032993, -2.561743234789039 
3.6700000000033204, -2.5611520823693112 
3.6800000000033415, -2.5636994182749673 
3.6900000000033626, -2.566329036605322 
3.7000000000033837, -2.5673610841021035 
3.710000000003405, -2.567557456204541 
3.720000000003426, -2.56670026883292 
3.730000000003447, -2.5627756879469783 
3.740000000003468, -2.54685592041754 
3.750000000003489, -2.4553276343091324 
3.7600000000035103, -1.5381671453655699 
3.7700000000035314, 0.36542305193088 
3.7800000000035525, 0.6326364765042232 
3.7900000000035736, 0.6735672013447248 
3.8000000000035947, 0.6843751643669255 
3.810000000003616, 0.6880284310472865 
3.820000000003637, 0.6892639987117458 
3.830000000003658, 0.6894787707527337 
3.840000000003679, 0.6892311556417521 
3.8500000000037002, 0.6888473971372934 
3.8600000000037213, 0.6886006604492269 
3.8700000000037424, 0.6887460127478104 
3.8800000000037635, 0.6894755917636156 
3.8900000000037847, 0.6908263949579159 
3.9000000000038058, 0.6926096455952402 
3.910000000003827, 0.6944566893223925 
3.920000000003848, 0.6959809099339306 
3.930000000003869, 0.6969095037826791 
3.94000000000389, 0.6970593570706247 
3.9500000000039113, 0.6961470834552032 
3.9600000000039324, 0.6933432809094744 
3.9700000000039535, 0.6858118351055879 
3.9800000000039746, 0.6614444210231785 
3.9900000000039957, 0.5418917006675533 
4.000000000004016, -0.3624126953897919 
4.010000000003993, -1.7585639738418728 
4.02000000000397, -1.9963208515058792 
4.030000000003946, -2.0334804072096313 
4.040000000003923, -2.041681614714483 
4.0500000000039, -2.0434769611203625 
4.0600000000038765, -2.043346351113126 
4.070000000003853, -2.0429703843874227 
4.08000000000383, -2.0432493039803723 
4.090000000003807, -2.043718669940928 
4.100000000003783, -2.043752660486572 
4.11000000000376, -2.043618698001229 
4.120000000003737, -2.043514400163592 
4.130000000003713, -2.0427745162902755 
4.14000000000369, -2.039961213430686 
4.150000000003667, -2.0312184158315456 
4.1600000000036434, -2.00213590860901 
4.17000000000362, -1.8889559732914738 
4.180000000003597, -1.425090754354915 
4.1900000000035735, -0.5039767820084763 
4.20000000000355, -0.046047031435639256 
4.210000000003527, 0.08230670756979981 
4.220000000003504, 0.12406707135094248 
4.23000000000348, 0.14074102676314054 
4.240000000003457, 0.1483866865811116 
4.250000000003434, 0.15215185097439352 
4.26000000000341, 0.15398221192614953 
4.270000000003387, 0.15468616943211164 
4.280000000003364, 0.15457848927834927 
4.2900000000033405, 0.15368051593951804 
4.300000000003317, 0.15171869533677745 
4.310000000003294, 0.14791596492067366 
4.320000000003271, 0.1403259284525725 
4.330000000003247, 0.12382847693379584 
4.340000000003224, 0.08439339256289036 
4.350000000003201, -0.002771605156429086 
4.360000000003177, 0.19022503212169153 
4.370000000003154, 1.7614823283630279 
4.380000000003131, 1.900516325375699 
4.390000000003107, 1.9117169425689293 
4.400000000003084, 1.9130232112528929 
4.410000000003061, 1.9105793608452797 
4.4200000000030375, 1.896103415075188 
4.430000000003014, 1.7191682031025395 
4.440000000002991, 0.7118342674864924 
4.450000000002968, 0.9042564260589906 
4.460000000002944, 0.9806062107493692 
4.470000000002921, 0.9982079232335682 
4.480000000002898, 1.0032852708411983 
4.490000000002874, 1.004567634992241 
4.500000000002851, 1.0040386875917522 
4.510000000002828, 1.0020139660945186 
4.520000000002804, 0.9984776396317029 
4.530000000002781, 0.995994413321009 
4.540000000002758, 1.0083146258132618 
4.5500000000027345, 1.0458523146773444 
4.560000000002711, 1.0785557904380776 
4.570000000002688, 1.0934634030544033 
4.580000000002665, 1.0989901796184176 
4.590000000002641, 1.1005817479557531 
4.600000000002618, 1.099890376008093 
4.610000000002595, 1.096057852660138 
4.620000000002571, 1.0821247002764627 
4.630000000002548, 1.007553383416734 
4.640000000002525, 0.37865306545540867 
4.6500000000025015, -0.7360860047013204 
4.660000000002478, -1.0415720606241332 
4.670000000002455, -1.1196697431880978 
4.6800000000024315, -1.143961343935385 
4.690000000002408, -1.1525291337944035 
4.700000000002385, -1.1555145767190544 
4.710000000002362, -1.1559148323416255 
4.720000000002338, -1.1543832268407597 
4.730000000002315, -1.1503055236239803 
4.740000000002292, -1.1418839157556981 
4.750000000002268, -1.1280779434820656 
4.760000000002245, -1.1283060405778105 
4.770000000002222, -1.2702434192209715 
4.7800000000021985, -1.7057491572232195 
4.790000000002175, -1.998930386468104 
4.800000000002152, -2.090829347134042 
4.810000000002129, -2.122490814931682 
4.820000000002105, -2.135731433378964 
4.830000000002082, -2.141722086542647 
4.840000000002059, -2.1441872381006633 
4.850000000002035, -2.1446377700343753 
4.860000000002012, -2.143732971803643 
4.870000000001989, -2.1416487657585703 
4.880000000001965, -2.1379078393022204 
4.890000000001942, -2.1312839447432363 
4.900000000001919, -2.122530526303877 
4.9100000000018955, -2.1183236177063844 
4.920000000001872, -2.119323480933823 
4.930000000001849, -2.120006875632352 
4.940000000001826, -2.1182884510309212 
4.950000000001802, -2.1111735416711923 
4.960000000001779, -2.0929029670441164 
