t, s[1].omega / s[0].omega 
0, -0.5799592324401701 
0.009999999999999995, -0.5763408505952307 
0.019999999999999934, -0.5735159590393409 
0.029999999999999874, -0.5712929755260607 
0.04000000000000012, -0.5694954654440767 
0.050000000000000405, -0.5679928320587206 
0.06000000000000069, -0.5667170419382256 
0.07000000000000098, -0.5656687732470073 
0.08000000000000126, -0.564914767122167 
0.09000000000000155, -0.564580635465554 
0.10000000000000184, -0.5648419490721294 
0.11000000000000212, -0.565913768974853 
0.12000000000000241, -0.5680391563687799 
0.130000000000002, -0.5714804995450231 
0.1400000000000009, -0.5765208951251478 
0.1499999999999998, -0.5834841086340383 
0.1599999999999987, -0.5927810492148491 
0.1699999999999976, -0.6049902246648424 
0.1799999999999965, -0.6209797734007346 
0.1899999999999954, -0.642070439723347 
0.1999999999999943, -0.6701803495326561 
0.2099999999999932, -0.7076540335657313 
0.2199999999999921, -0.7558856174638626 
0.229999999999991, -0.8117308722295794 
0.2399999999999899, -0.864858242500679 
0.2499999999999888, -0.9041671373374935 
0.2599999999999877, -0.9273866144465639 
0.2699999999999866, -0.9392290087014823 
0.2799999999999855, -0.944750769272836 
0.2899999999999844, -0.9469966065791379 
0.2999999999999833, -0.9474167180771591 
0.3099999999999822, -0.9465866712715151 
0.3199999999999811, -0.944703755284932 
0.32999999999998, -0.9421781352971055 
0.3399999999999789, -0.9412261819394715 
0.3499999999999778, -0.9501764645917106 
0.35999999999997667, -0.9899857844891804 
0.36999999999997557, -1.0866611145515304 
0.37999999999997447, -1.2272328392179612 
0.38999999999997337, -1.3550648628155915 
0.39999999999997227, -1.4428263320930326 
0.40999999999997117, -1.498347483180354 
0.41999999999997006, -1.533624659852065 
0.42999999999996896, -1.556044837319868 
0.43999999999996786, -1.5697503905409464 
0.44999999999996676, -1.577484422289439 
0.45999999999996566, -1.5813420011054267 
0.46999999999996456, -1.5828517458883637 
0.47999999999996346, -1.5830191757058896 
0.48999999999996235, -1.582530283361889 
0.49999999999996125, -1.5819185928689097 
0.5099999999999602, -1.5814463315437688 
0.519999999999959, -1.5809930965095975 
0.529999999999958, -1.5804172684839097 
0.5399999999999568, -1.5799075554145872 
0.5499999999999557, -1.5797095411405797 
0.5599999999999546, -1.5796274568968003 
0.5699999999999535, -1.5790791579667056 
0.5799999999999524, -1.577310943363449 
0.5899999999999513, -1.573176392904215 
0.5999999999999502, -1.5646506318699094 
0.6099999999999491, -1.54843485181408 
0.619999999999948, -1.5198697028602766 
0.6299999999999469, -1.472723254440584 
0.6399999999999458, -1.3979308714046799 
0.6499999999999447, -1.2830381784842642 
0.6599999999999436, -1.1228316139361054 
0.6699999999999425, -0.9482257159732128 
0.6799999999999414, -0.8161489586189731 
0.6899999999999403, -0.7447785562796192 
0.6999999999999392, -0.7143300737228557 
0.7099999999999381, -0.7036284880267853 
0.719999999999937, -0.7008375472258099 
0.7299999999999359, -0.7007050388223098 
0.7399999999999348, -0.7011608300822922 
0.7499999999999337, -0.7014352753172608 
0.7599999999999326, -0.7012121438712852 
0.7699999999999315, -0.7002822026006428 
0.7799999999999304, -0.6984284117032153 
0.7899999999999293, -0.6954567786865862 
0.7999999999999282, -0.6913463722812662 
0.8099999999999271, -0.6864031870070232 
0.819999999999926, -0.6812055035951531 
0.8299999999999249, -0.6763223828844594 
0.8399999999999238, -0.6720792240302826 
0.8499999999999227, -0.6685415484497979 
0.8599999999999216, -0.6656215017608786 
0.8699999999999205, -0.6631796049138146 
0.8799999999999194, -0.6610872411558555 
0.8899999999999183, -0.6592606397337818 
0.8999999999999172, -0.6576753017348216 
0.9099999999999161, -0.656363782037716 
0.919999999999915, -0.6554008271683912 
0.9299999999999139, -0.6548816492068903 
0.9399999999999128, -0.6548992677062693 
0.9499999999999117, -0.6555267635984428 
0.9599999999999106, -0.6568091498187911 
0.9699999999999095, -0.6587664214777786 
0.9799999999999084, -0.6614060445069396 
0.9899999999999073, -0.6647420852418902 
0.9999999999999062, -0.6688191224832905 
1.0099999999999052, -0.6737396526784479 
1.019999999999904, -0.6796921241814089 
1.029999999999903, -0.6869718640017062 
1.039999999999902, -0.6959733410106843 
1.0499999999999008, -0.7070957671382283 
1.0599999999998997, -0.7204524516904446 
1.0699999999998986, -0.7353483480104327 
1.0799999999998975, -0.7499654848814781 
1.0899999999998964, -0.7620966151420829 
1.0999999999998953, -0.7705667964035007 
1.1099999999998942, -0.7756422993147261 
1.119999999999893, -0.7782439921932783 
1.129999999999892, -0.7791979102318758 
1.1399999999998909, -0.7790007595983155 
1.1499999999998898, -0.7778712668704265 
1.1599999999998887, -0.7759171780576513 
1.1699999999998876, -0.7735525221013904 
1.1799999999998865, -0.7728691780547068 
1.1899999999998854, -0.7822219685615207 
1.1999999999998843, -0.8298765543798776 
1.2099999999998832, -0.9879171122338486 
1.219999999999882, -1.304146406624103 
1.229999999999881, -1.5898824724159042 
1.2399999999998799, -1.7320029046400447 
1.2499999999998788, -1.7953869976976347 
1.2599999999998777, -1.8259766879184398 
1.2699999999998766, -1.8416113435503145 
1.2799999999998755, -1.8495261299413592 
1.2899999999998744, -1.8531783707368028 
1.2999999999998733, -1.854421542136667 
1.3099999999998722, -1.8542860027606227 
1.319999999999871, -1.853385289956348 
1.32999999999987, -1.8520378784003053 
1.3399999999998689, -1.8501531344030382 
1.3499999999998678, -1.8475843080042669 
1.3599999999998666, -1.845078636267338 
1.3699999999998655, -1.843939127468325 
1.3799999999998644, -1.8438575599979354 
1.3899999999998633, -1.8433103520499081 
1.3999999999998622, -1.8406110132883058 
1.4099999999998611, -1.8313027466870362 
1.41999999999986, -1.7941902867700896 
1.429999999999859, -1.587821464163142 
1.4399999999998578, -0.42187025743881373 
1.4499999999998567, 0.5814879156363901 
1.4599999999998556, 0.7225099835755983 
1.4699999999998545, 0.7486931559291198 
1.4799999999998534, 0.7560285482610499 
1.4899999999998523, 0.7583189285766458 
1.4999999999998512, 0.7585804611428903 
1.5099999999998501, 0.7575672285309197 
1.519999999999849, 0.7553862388258564 
1.529999999999848, 0.7520330179073746 
1.5399999999998468, 0.747776762686448 
1.5499999999998457, 0.743356102181824 
1.5599999999998446, 0.7396688974071685 
1.5699999999998435, 0.7371925435483697 
1.5799999999998424, 0.735820705971636 
1.5899999999998413, 0.7351483527954381 
1.5999999999998402, 0.7347441674142859 
1.6099999999998391, 0.7342158296872461 
1.619999999999838, 0.7331018632908421 
1.629999999999837, 0.7305225119075925 
1.6399999999998358, 0.7239592315041244 
1.6499999999998347, 0.703209191210632 
1.6599999999998336, 0.6014618721102929 
1.6699999999998325, -0.3922586071550064 
1.6799999999998314, -2.4184613832906865 
1.6899999999998303, -2.6678392594607296 
1.6999999999998292, -2.701626160808824 
1.709999999999828, -2.70882384201285 
1.719999999999827, -2.710123811870332 
1.729999999999826, -2.70938404163678 
1.7399999999998248, -2.7072969843300667 
1.7499999999998237, -2.702629960584628 
1.7599999999998226, -2.694860251326735 
1.7699999999998215, -2.692397884303808 
1.7799999999998204, -2.6940347667067854 
1.7899999999998193, -2.693468192397529 
1.7999999999998182, -2.6889284227019656 
1.809999999999817, -2.685872772901537 
1.819999999999816, -2.7045955599338978 
1.8299999999998149, -2.7183041368821637 
1.8399999999998138, -2.723001023399669 
1.8499999999998127, -2.7243790522611833 
1.8599999999998116, -2.723876174210699 
1.8699999999998105, -2.720796373276187 
1.8799999999998094, -2.7113957428657067 
1.8899999999998083, -2.6778550894388014 
1.8999999999998072, -2.474940446237497 
1.909999999999806, -0.7702574763615078 
1.919999999999805, 0.43065504014170014 
1.9299999999998039, 0.5798316119387621 
1.9399999999998028, 0.6101598994892748 
1.9499999999998017, 0.6194161768611869 
1.9599999999998006, 0.6227320629987695 
1.9699999999997995, 0.6237256908243732 
1.9799999999997984, 0.6234652533656811 
1.9899999999997973, 0.6222140524910301 
1.9999999999997962, 0.6199101997779846 
2.0099999999998173, 0.616698220647765 
2.0199999999998384, 0.6155302393064984 
2.0299999999998595, 0.631844222495928 
2.0399999999998806, 0.6911191647837475 
2.0499999999999017, 0.7602937378731902 
2.059999999999923, 0.7962235839100071 
2.069999999999944, 0.8100007470420779 
2.079999999999965, 0.8150386876869617 
2.089999999999986, 0.8165058439472132 
2.100000000000007, 0.8158712133367867 
2.1100000000000283, 0.8127669857938434 
2.1200000000000494, 0.8043942593140571 
2.1300000000000705, 0.7814232464247303 
2.1400000000000916, 0.720848672977649 
2.1500000000001127, 0.6232402708781927 
2.160000000000134, 0.5689082323475487 
2.170000000000155, 0.5617174347069531 
2.180000000000176, 0.5650444456317929 
2.190000000000197, 0.5681480551732526 
2.2000000000002182, 0.5699119002392671 
2.2100000000002393, 0.5705637917204184 
2.2200000000002604, 0.5702087875513902 
2.2300000000002815, 0.5685528913500997 
2.2400000000003026, 0.5644529534547328 
2.2500000000003237, 0.5541319798079662 
2.260000000000345, 0.5222204619294277 
2.270000000000366, 0.3742888078930181 
2.280000000000387, -0.7097050723128886 
2.290000000000408, -2.3420946171747463 
2.3000000000004293, -2.5756612605069966 
2.3100000000004504, -2.615342829937851 
2.3200000000004715, -2.62595695002466 
2.3300000000004926, -2.6289997168125323 
2.3400000000005137, -2.629152032049686 
2.3500000000005348, -2.6275813373922294 
2.360000000000556, -2.6238082798992184 
2.370000000000577, -2.6147774736503817 
2.380000000000598, -2.599589790879476 
2.390000000000619, -2.596406505585784 
2.4000000000006403, -2.5998891456261304 
2.4100000000006614, -2.600290201253982 
2.4200000000006825, -2.5976443986976543 
2.4300000000007036, -2.595488123359753 
2.4400000000007247, -2.6048470221248285 
2.450000000000746, -2.6142276723448656 
2.460000000000767, -2.6180677348492685 
2.470000000000788, -2.619312762293222 
2.480000000000809, -2.6189823665482037 
2.49000000000083, -2.6163664213231175 
2.5000000000008513, -2.6082165600308387 
2.5100000000008724, -2.580798480436993 
2.5200000000008935, -2.446942927598284 
2.5300000000009146, -1.3632974133950344 
2.5400000000009357, 0.2861302612592496 
2.550000000000957, 0.5339611116257887 
2.560000000000978, 0.5778585605568152 
2.570000000000999, 0.5903388587105232 
2.58000000000102, 0.5947851111189479 
2.5900000000010412, 0.5963638009134993 
2.6000000000010624, 0.5966047022963694 
2.6100000000010835, 0.5960278629353616 
2.6200000000011046, 0.5948359111365292 
2.6300000000011257, 0.5933447414894344 
2.6400000000011468, 0.593072881426039 
2.650000000001168, 0.6000360157390012 
2.660000000001189, 0.6271892908973684 
2.67000000000121, 0.6736715601035608 
2.680000000001231, 0.7113615664871292 
2.6900000000012523, 0.7303475032254471 
2.7000000000012734, 0.738373279834523 
2.7100000000012945, 0.7414472171889528 
2.7200000000013156, 0.7420339031579621 
2.7300000000013367, 0.7406813555396468 
2.740000000001358, 0.7364380741268064 
2.750000000001379, 0.7255046977050024 
2.7600000000014, 0.6964537815671197 
2.770000000001421, 0.6272695087089103 
2.780000000001442, 0.5348713063531415 
2.7900000000014633, 0.4894091911681743 
2.8000000000014844, 0.48206235877600057 
2.8100000000015055, 0.483783589331916 
2.8200000000015266, 0.48595261830365155 
2.8300000000015477, 0.4872943098442074 
2.840000000001569, 0.4878107443850676 
2.85000000000159, 0.48752853585610456 
2.860000000001611, 0.48622686321999364 
2.870000000001632, 0.48314670380997143 
2.8800000000016532, 0.47604900868121647 
2.8900000000016743, 0.4573023298066716 
2.9000000000016954, 0.3918115763310583 
2.9100000000017165, 0.031835300383583495 
2.9200000000017377, -1.5580679523148198 
2.9300000000017588, -2.3277213436498143 
2.94000000000178, -2.4469005090206197 
2.950000000001801, -2.4739000225667196 
2.960000000001822, -2.4816821009091115 
2.970000000001843, -2.483728484938926 
2.9800000000018643, -2.4834969668681364 
2.9900000000018854, -2.481971197144071 
3.0000000000019065, -2.478847568731807 
3.0100000000019276, -2.472659869224406 
3.0200000000019487, -2.465490374701724 
3.03000000000197, -2.464686942912982 
3.040000000001991, -2.465982524755589 
3.050000000002012, -2.4650287787405154 
3.060000000002033, -2.459620972711134 
3.070000000002054, -2.451583549593625 
3.0800000000020753, -2.4770431164755307 
3.0900000000020964, -2.507356011328905 
3.1000000000021175, -2.5190176095731927 
3.1100000000021386, -2.5231858997570957 
3.1200000000021597, -2.5245053992585995 
3.130000000002181, -2.5240165622147543 
3.140000000002202, -2.5214503554955816 
3.150000000002223, -2.5150769985663954 
3.160000000002244, -2.498391534486333 
3.1700000000022652, -2.4392471774877484 
3.1800000000022863, -2.1503818699640473 
3.1900000000023074, -1.7050830675184134 
3.2000000000023285, -1.7272589172294222 
3.2100000000023496, -1.768484005748172 
3.2200000000023707, -1.7809619692415026 
3.230000000002392, -1.7842517332472974 
3.240000000002413, -1.7842965136210818 
3.250000000002434, -1.7826157401898453 
3.260000000002455, -1.7811522275284173 
3.2700000000024763, -1.7852807624570517 
3.2800000000024974, -1.7961249908467916 
3.2900000000025185, -1.8065468413008106 
3.3000000000025396, -1.8133483256635639 
3.3100000000025607, -1.8173833590827673 
3.3200000000025818, -1.819723194422115 
3.330000000002603, -1.8208757493877055 
3.340000000002624, -1.8210170284353122 
3.350000000002645, -1.8201741066759438 
3.360000000002666, -1.8182589925199966 
3.3700000000026873, -1.8150206193184697 
3.3800000000027084, -1.809894346074445 
3.3900000000027295, -1.8016103365235274 
3.4000000000027506, -1.787499560372845 
3.4100000000027717, -1.7640693666841742 
3.420000000002793, -1.7360060306548508 
3.430000000002814, -1.7227924096623752 
3.440000000002835, -1.7244289812924998 
3.450000000002856, -1.7274459758262826 
3.460000000002877, -1.728295833051836 
3.4700000000028983, -1.7267670844111727 
3.4800000000029194, -1.7212164518983606 
3.4900000000029405, -1.7071248577503464 
3.5000000000029616, -1.6961487786013396 
3.5100000000029827, -1.789101004413827 
3.520000000003004, -1.9410367111215212 
3.530000000003025, -2.014352497796377 
3.540000000003046, -2.0430337367259828 
3.550000000003067, -2.0557845421709224 
3.5600000000030882, -2.062079025158725 
3.5700000000031094, -2.0651361327467277 
3.5800000000031305, -2.066224401513595 
3.5900000000031516, -2.0658972539023983 
3.6000000000031727, -2.064351661004092 
3.6100000000031938, -2.0614256151025407 
3.620000000003215, -2.0562420611460137 
3.630000000003236, -2.0471845078066577 
3.640000000003257, -2.035630467488434 
3.650000000003278, -2.0304071677349924 
3.6600000000032993, -2.0317545392711382 
3.6700000000033204, -2.032881312650849 
3.6800000000033415, -2.031758749587471 
3.6900000000033626, -2.026422872874097 
3.7000000000033837, -2.0119269557916586 
3.710000000003405, -2.0140560097244227 
3.720000000003426, -2.104468850227733 
3.730000000003447, -2.1733284998826696 
3.740000000003468, -2.199449289859902 
3.750000000003489, -2.209877321850442 
3.7600000000035103, -2.214559625977421 
3.7700000000035314, -2.216537374789186 
3.7800000000035525, -2.216818497931871 
3.7900000000035736, -2.215674632703509 
3.8000000000035947, -2.212886427198862 
3.810000000003616, -2.2073833100180256 
3.820000000003637, -2.1958036973477193 
3.830000000003658, -2.1711652368975045 
3.840000000003679, -2.141087552115088 
3.8500000000037002, -2.137800067677648 
3.8600000000037213, -2.14348572170528 
3.8700000000037424, -2.1454646839360025 
3.8800000000037635, -2.1444922010700607 
3.8900000000037847, -2.14088488891735 
3.9000000000038058, -2.1395132125676093 
3.910000000003827, -2.153104659566632 
3.920000000003848, -2.169790000081252 
3.930000000003869, -2.1788596373714797 
3.94000000000389, -2.1830701878018774 
3.9500000000039113, -2.184938089658163 
3.9600000000039324, -2.1853141230049045 
3.9700000000039535, -2.184287704425934 
3.9800000000039746, -2.181493084945965 
3.9900000000039957, -2.1758612588924775 
4.000000000004016, -2.1644416126888117 
4.010000000003993, -2.1377952558676707 
4.02000000000397, -2.0635063559853832 
4.030000000003946, -1.89859198007519 
4.040000000003923, -1.8197135073560464 
4.0500000000039, -1.8404398105882755 
4.0600000000038765, -1.8531599822660183 
4.070000000003853, -1.8569634338253778 
4.08000000000383, -1.8571760780084205 
4.090000000003807, -1.8552752600181779 
4.100000000003783, -1.852824653796715 
4.11000000000376, -1.8566578368392221 
4.120000000003737, -1.8703041808008685 
4.130000000003713, -1.883627985591837 
4.14000000000369, -1.8918564363560921 
4.150000000003667, -1.8964561606907981 
4.1600000000036434, -1.8989963905882565 
4.17000000000362, -1.9001865231865676 
4.180000000003597, -1.9002714330408188 
4.1900000000035735, -1.899284739197198 
4.20000000000355, -1.8970937798351304 
4.210000000003527, -1.8933215873124412 
4.220000000003504, -1.8870755326430753 
4.23000000000348, -1.8762226263435384 
4.240000000003457, -1.8562535486657084 
4.250000000003434, -1.8234048557857268 
4.26000000000341, -1.7942720377562769 
4.270000000003387, -1.7902030350516853 
4.280000000003364, -1.7947745887767002 
4.2900000000033405, -1.797166481896387 
4.300000000003317, -1.7969850095287623 
4.310000000003294, -1.7939703825528341 
4.320000000003271, -1.7861969606578074 
4.330000000003247, -1.7787663342380533 
4.340000000003224, -1.8148432473025369 
4.350000000003201, -1.8889041339973336 
4.360000000003177, -1.9352533649135715 
4.370000000003154, -1.9567370601145746 
4.380000000003131, -1.9672236643355312 
4.390000000003107, -1.9727736953120867 
4.400000000003084, -1.975687557237292 
4.410000000003061, -1.9768997525602814 
4.4200000000030375, -1.9768145654286902 
4.430000000003014, -1.975574581787225 
4.440000000002991, -1.973097676118376 
4.450000000002968, -1.9688719894951887 
4.460000000002944, -1.9615768689073778 
4.470000000002921, -1.9499908189535666 
4.480000000002898, -1.9385879649433886 
4.490000000002874, -1.9357582443023396 
4.500000000002851, -1.9375087878310637 
4.510000000002828, -1.9382661199979747 
4.520000000002804, -1.9366689875563747 
4.530000000002781, -1.9303121318875025 
4.540000000002758, -1.9126495817007787 
4.5500000000027345, -1.9103391183548506 
4.560000000002711, -2.0350551192917323 
4.570000000002688, -2.1407258021170765 
4.580000000002665, -2.1792139676261266 
4.590000000002641, -2.1938296442594227 
4.600000000002618, -2.2002836552371194 
4.610000000002595, -2.2031846854091546 
4.620000000002571, -2.2040697392436366 
4.630000000002548, -2.2034731480826264 
4.640000000002525, -2.2014265581240986 
4.6500000000025015, -2.197351993967957 
4.660000000002478, -2.189209592879595 
4.670000000002455, -2.17260169683592 
4.6800000000024315, -2.1501550185402407 
4.690000000002408, -2.1442405133197204 
4.700000000002385, -2.148411369808267 
4.710000000002362, -2.1502684148260274 
4.720000000002338, -2.149282954122028 
4.730000000002315, -2.145132693209448 
4.740000000002292, -2.141494135285096 
4.750000000002268, -2.15720866631375 
4.760000000002245, -2.1808657934043896 
4.770000000002222, -2.193754537403084 
4.7800000000021985, -2.199542531709014 
4.790000000002175, -2.2021529920808978 
4.800000000002152, -2.2030066177427954 
4.810000000002129, -2.2024472569509523 
4.820000000002105, -2.200314055354819 
4.830000000002082, -2.195866399410768 
4.840000000002059, -2.1869786565748557 
4.850000000002035, -2.1669734459520855 
4.860000000002012, -2.1137852334645126 
4.870000000001989, -1.996420286607932 
4.880000000001965, -1.9359145556071522 
4.890000000001942, -1.9530767913652873 
4.900000000001919, -1.9633633555379082 
4.9100000000018955, -1.9661520706671953 
4.920000000001872, -1.9657806099684083 
4.930000000001849, -1.9635272329700837 
4.940000000001826, -1.9624738725139246 
4.950000000001802, -1.969736887708437 
4.960000000001779, -1.9816953594793731 
