t, s[1].omega / s[0].omega 
0, -1.4199972744865692 
0.009999999999999995, -1.4194896298637116 
0.019999999999999934, -1.418515204880358 
0.029999999999999874, -1.4170725462956433 
0.04000000000000012, -1.4151662303984092 
0.050000000000000405, -1.4128153319178043 
0.06000000000000069, -1.410072117555607 
0.07000000000000098, -1.407084011855021 
0.08000000000000126, -1.4042069855445936 
0.09000000000000155, -1.401997327783439 
0.10000000000000184, -1.4008407224724457 
0.11000000000000212, -1.40055769771891 
0.12000000000000241, -1.4005978954278056 
0.130000000000002, -1.4004705967127218 
0.1400000000000009, -1.3998185364835516 
0.1499999999999998, -1.3981966231906608 
0.1599999999999987, -1.3946986699205763 
0.1699999999999976, -1.3872898851608721 
0.1799999999999965, -1.3715010505599028 
0.1899999999999954, -1.3383279019929852 
0.1999999999999943, -1.273137326494808 
0.2099999999999932, -1.1630911521038303 
0.2199999999999921, -1.0191302913013396 
0.229999999999991, -0.8822626752719934 
0.2399999999999899, -0.785227849315247 
0.2499999999999888, -0.7294300216228907 
0.2599999999999877, -0.7014475097018098 
0.2699999999999866, -0.6888343859874058 
0.2799999999999855, -0.6838115610249658 
0.2899999999999844, -0.6822194968264785 
0.2999999999999833, -0.6820167422416107 
0.3099999999999822, -0.6822621588407313 
0.3199999999999811, -0.6825428872339447 
0.32999999999998, -0.6826792721444823 
0.3399999999999789, -0.6825801439965508 
0.3499999999999778, -0.6821750220957628 
0.35999999999997667, -0.6813880137532851 
0.36999999999997557, -0.6801421816435913 
0.37999999999997447, -0.6783924618183618 
0.38999999999997337, -0.676173688907164 
0.39999999999997227, -0.6736251493472859 
0.40999999999997117, -0.6709554021386309 
0.41999999999997006, -0.6683642430292829 
0.42999999999996896, -0.6659808579796191 
0.43999999999996786, -0.6638519568694764 
0.44999999999996676, -0.6619666261634806 
0.45999999999996566, -0.6602906601517099 
0.46999999999996456, -0.6587939406552729 
0.47999999999996346, -0.6574661119208082 
0.48999999999996235, -0.6563219303287664 
0.49999999999996125, -0.6553997677749914 
0.5099999999999602, -0.654756285020258 
0.519999999999959, -0.6544590479954603 
0.529999999999958, -0.6545784060404257 
0.5399999999999568, -0.6551804044554432 
0.5499999999999557, -0.6563229018432969 
0.5599999999999546, -0.6580565953844858 
0.5699999999999535, -0.6604313083761957 
0.5799999999999524, -0.6635060840199982 
0.5899999999999513, -0.6673594446288023 
0.5999999999999502, -0.6720929836625888 
0.6099999999999491, -0.6778163010915654 
0.619999999999948, -0.6845949430206186 
0.6299999999999469, -0.6923447694450975 
0.6399999999999458, -0.7006937724672812 
0.6499999999999447, -0.7089264245314078 
0.6599999999999436, -0.7161744979376572 
0.6699999999999425, -0.7218105946797762 
0.6799999999999414, -0.7256992410183803 
0.6899999999999403, -0.7280960734978817 
0.6999999999999392, -0.729383634974458 
0.7099999999999381, -0.7298865192207493 
0.719999999999937, -0.729811160342869 
0.7299999999999359, -0.729249838186297 
0.7399999999999348, -0.7281985737974359 
0.7499999999999337, -0.7265729453246206 
0.7599999999999326, -0.7242340605544689 
0.7699999999999315, -0.7210747233328858 
0.7799999999999304, -0.7172969799217987 
0.7899999999999293, -0.7141686169971931 
0.7999999999999282, -0.7156769540801089 
0.8099999999999271, -0.7308572064149426 
0.819999999999926, -0.7736455587153535 
0.8299999999999249, -0.8569355677353439 
0.8399999999999238, -0.9928026307337874 
0.8499999999999227, -1.1826187920752949 
0.8599999999999216, -1.3613967810271894 
0.8699999999999205, -1.463456002731229 
0.8799999999999194, -1.5059168556627383 
0.8899999999999183, -1.522011508363097 
0.8999999999999172, -1.528128327938067 
0.9099999999999161, -1.5303824170815596 
0.919999999999915, -1.5309665271468105 
0.9299999999999139, -1.5306954672680537 
0.9399999999999128, -1.5299787639401987 
0.9499999999999117, -1.5293601194577353 
0.9599999999999106, -1.5297611441113048 
0.9699999999999095, -1.5318633141798967 
0.9799999999999084, -1.5352049154452119 
0.9899999999999073, -1.5387091949507445 
0.9999999999999062, -1.5417000039162423 
1.0099999999999052, -1.5439991138615357 
1.019999999999904, -1.545624680586619 
1.029999999999903, -1.546624666144049 
1.039999999999902, -1.5470369423537642 
1.0499999999999008, -1.5468835365856293 
1.0599999999998997, -1.5461690771490684 
1.0699999999998986, -1.5448806517643727 
1.0799999999998975, -1.542989186547977 
1.0899999999998964, -1.54045265447257 
1.0999999999998953, -1.537233584601011 
1.1099999999998942, -1.533393955875321 
1.119999999999893, -1.5293532152369855 
1.129999999999892, -1.5260666991217078 
1.1399999999998909, -1.5243964654994053 
1.1499999999998898, -1.5241256155679543 
1.1599999999998887, -1.5243232837239238 
1.1699999999998876, -1.5242798877311239 
1.1799999999998865, -1.523584717595712 
1.1899999999998854, -1.5216890209857123 
1.1999999999998843, -1.5172194785908202 
1.2099999999998832, -1.5063961858208499 
1.219999999999882, -1.4787587982577137 
1.229999999999881, -1.4084827715817199 
1.2399999999998799, -1.2573816078961195 
1.2499999999998788, -1.0342470489984437 
1.2599999999998777, -0.8043501777895232 
1.2699999999998766, -0.5978985573419117 
1.2799999999998755, -0.4407422926863528 
1.2899999999998744, -0.3477571245417636 
1.2999999999998733, -0.3008427156580499 
1.3099999999998722, -0.27811523599688226 
1.319999999999871, -0.2668949679337042 
1.32999999999987, -0.2611620283881477 
1.3399999999998689, -0.258147655964417 
1.3499999999998678, -0.2565469028597446 
1.3599999999998666, -0.2557211854849288 
1.3699999999998655, -0.25534854997692824 
1.3799999999998644, -0.25526698698374467 
1.3899999999998633, -0.2554031637256865 
1.3999999999998622, -0.25574142362972646 
1.4099999999998611, -0.2563137541787695 
1.41999999999986, -0.25720229427208907 
1.429999999999859, -0.25855089615497706 
1.4399999999998578, -0.2605849256562391 
1.4499999999998567, -0.2636382071079604 
1.4599999999998556, -0.26817514004167264 
1.4699999999998545, -0.27475819749103253 
1.4799999999998534, -0.2838412574357015 
1.4899999999998523, -0.29527385092411046 
1.4999999999998512, -0.3077850110001667 
1.5099999999998501, -0.319299269667567 
1.519999999999849, -0.32822619251991036 
1.529999999999848, -0.3342642253758622 
1.5399999999998468, -0.3379873046715832 
1.5499999999998457, -0.3401295979856188 
1.5599999999998446, -0.34124427627735426 
1.5699999999998435, -0.3416628805890324 
1.5799999999998424, -0.3415463117400614 
1.5899999999998413, -0.3409337431015188 
1.5999999999998402, -0.3397744900310662 
1.6099999999998391, -0.33795825058536655 
1.619999999999838, -0.33537171784799813 
1.629999999999837, -0.3320010360719151 
1.6399999999998358, -0.32804163114599977 
1.6499999999998347, -0.323902091321262 
1.6599999999998336, -0.3200437803479734 
1.6699999999998325, -0.3167842532841863 
1.6799999999998314, -0.31422805312017865 
1.6899999999998303, -0.3123232041132683 
1.6999999999998292, -0.31094540819960986 
1.709999999999828, -0.30995368970979764 
1.719999999999827, -0.309217362358971 
1.729999999999826, -0.3086290497181313 
1.7399999999998248, -0.308111206673937 
1.7499999999998237, -0.30761719078982735 
1.7599999999998226, -0.3071283465529234 
1.7699999999998215, -0.30665125826299516 
1.7799999999998204, -0.3062205289248408 
1.7899999999998193, -0.3059132210367089 
1.7999999999998182, -0.30588443788942254 
1.809999999999817, -0.3064411154571375 
1.819999999999816, -0.30817633830691904 
1.8299999999998149, -0.31212751644661296 
1.8399999999998138, -0.319414958683574 
1.8499999999998127, -0.32704738699993496 
1.8599999999998116, -0.30785566554512317 
1.8699999999998105, -0.1784019318676176 
1.8799999999998094, 0.06717313805162314 
1.8899999999998083, 0.2310886792634667 
1.8999999999998072, 0.2932103503218173 
1.909999999999806, 0.31570858020722675 
1.919999999999805, 0.3248357334705614 
1.9299999999998039, 0.3289413189325835 
1.9399999999998028, 0.3308932002982072 
1.9499999999998017, 0.33181411250552306 
1.9599999999998006, 0.33220490141351333 
1.9699999999997995, 0.3323234006700001 
1.9799999999997984, 0.33233569489550474 
1.9899999999997973, 0.3324013469146843 
1.9999999999997962, 0.3327604596594532 
2.0099999999998173, 0.3338644230971124 
2.0199999999998384, 0.3365375314229947 
2.0299999999998595, 0.34191971792087683 
2.0399999999998806, 0.35058761870872146 
2.0499999999999017, 0.3611347058620222 
2.059999999999923, 0.37071163850874245 
2.069999999999944, 0.3775451383641205 
2.079999999999965, 0.38166905996135597 
2.089999999999986, 0.3838314938392483 
2.100000000000007, 0.38468175177273356 
2.1100000000000283, 0.3845884754798161 
2.1200000000000494, 0.3836992345069702 
2.1300000000000705, 0.38204660790710776 
2.1400000000000916, 0.3796743538322447 
2.1500000000001127, 0.3767680239699656 
2.160000000000134, 0.3737005414728084 
2.170000000000155, 0.3709057299968743 
2.180000000000176, 0.3686741970499543 
2.190000000000197, 0.3670699638302884 
2.2000000000002182, 0.3659997584693892 
2.2100000000002393, 0.3653161720985214 
2.2200000000002604, 0.3648749203846856 
2.2300000000002815, 0.3645460412004769 
2.2400000000003026, 0.36420234454090333 
2.2500000000003237, 0.36369756733805303 
2.260000000000345, 0.3628288164465699 
2.270000000000366, 0.36125456170554804 
2.280000000000387, 0.35828965764970755 
2.290000000000408, 0.3523526725319387 
2.3000000000004293, 0.3393939561998895 
2.3100000000004504, 0.3087113637942989 
2.3200000000004715, 0.23836347829365376 
2.3300000000004926, 0.12805861123215273 
2.3400000000005137, 0.051943840912556674 
2.3500000000005348, 0.03356024704759039 
2.360000000000556, 0.03563393287844503 
2.370000000000577, 0.03982305638768337 
2.380000000000598, 0.04271572808386224 
2.390000000000619, 0.04436477836355962 
2.4000000000006403, 0.045183954026451804 
2.4100000000006614, 0.04546098877914932 
2.4200000000006825, 0.045347428841075295 
2.4300000000007036, 0.04489452136242703 
2.4400000000007247, 0.04406932925256202 
2.450000000000746, 0.042742370048101684 
2.460000000000767, 0.04063499258326588 
2.470000000000788, 0.037189414172051925 
2.480000000000809, 0.03126017965612969 
2.49000000000083, 0.020359814700318304 
2.5000000000008513, -0.0011778125461647069 
2.5100000000008724, -0.04575137309659599 
2.5200000000008935, -0.13579671794043452 
2.5300000000009146, -0.2756401566038577 
2.5400000000009357, -0.4073289625175895 
2.550000000000957, -0.4835877914507005 
2.560000000000978, -0.5183647614721631 
2.570000000000999, -0.5340126913806518 
2.58000000000102, -0.5416599604718162 
2.5900000000010412, -0.5457353108968019 
2.6000000000010624, -0.5480229300043653 
2.6100000000010835, -0.5493033026048497 
2.6200000000011046, -0.5499417328687533 
2.6300000000011257, -0.5501055596486479 
2.6400000000011468, -0.5498490159383691 
2.650000000001168, -0.5491485429055519 
2.660000000001189, -0.5479242903393983 
2.67000000000121, -0.5460731907874348 
2.680000000001231, -0.543533236669787 
2.6900000000012523, -0.5403693408945062 
2.7000000000012734, -0.5368174466971928 
2.7100000000012945, -0.533219843213791 
2.7200000000013156, -0.5298859362516303 
2.7300000000013367, -0.5269927841980568 
2.740000000001358, -0.5245794272979667 
2.750000000001379, -0.5225965125313092 
2.7600000000014, -0.520959732018939 
2.770000000001421, -0.5195866031200624 
2.780000000001442, -0.518416692021277 
2.7900000000014633, -0.5174202714974979 
2.8000000000014844, -0.5166005873583116 
2.8100000000015055, -0.5159945023077002 
2.8200000000015266, -0.5156750720693297 
2.8300000000015477, -0.5157580550570581 
2.840000000001569, -0.516413518764409 
2.85000000000159, -0.5178840494509601 
2.860000000001611, -0.520512494581821 
2.870000000001632, -0.5247843099543213 
2.8800000000016532, -0.5313914590674527 
2.8900000000016743, -0.5413229405507654 
2.9000000000016954, -0.5559698100802952 
2.9100000000017165, -0.5771671820739909 
2.9200000000017377, -0.6069179283931138 
2.9300000000017588, -0.6462620208796043 
2.94000000000178, -0.692987818005528 
2.950000000001801, -0.7400872500429224 
2.960000000001822, -0.7789431189149514 
2.970000000001843, -0.8054299608003461 
2.9800000000018643, -0.8211157565616654 
2.9900000000018854, -0.8296743194830292 
3.0000000000019065, -0.8341392879449463 
3.0100000000019276, -0.8363518679963734 
3.0200000000019487, -0.8372843304871698 
3.03000000000197, -0.8373982674018441 
3.040000000001991, -0.836854496560882 
3.050000000002012, -0.8355957271656305 
3.060000000002033, -0.8333317215205428 
3.070000000002054, -0.8294215712955237 
3.0800000000020753, -0.8225975202940393 
3.0900000000020964, -0.810380934930269 
3.1000000000021175, -0.7877577933939013 
3.1100000000021386, -0.7436251580023987 
3.1200000000021597, -0.6512037699455854 
3.130000000002181, -0.4607853611185188 
3.140000000002202, -0.1844275782397214 
3.150000000002223, 0.019284587695792298 
3.160000000002244, 0.10860728620919144 
3.1700000000022652, 0.14362440199007612 
3.1800000000022863, 0.15843582666758266 
3.1900000000023074, 0.16534686071975327 
3.2000000000023285, 0.16880487556387483 
3.2100000000023496, 0.17057425073491067 
3.2200000000023707, 0.17142118287432984 
3.230000000002392, 0.17169477371339165 
3.240000000002413, 0.1715428759750017 
3.250000000002434, 0.17099326952829236 
3.260000000002455, 0.1699784390845709 
3.2700000000024763, 0.1683442373020825 
3.2800000000024974, 0.165932768092205 
3.2900000000025185, 0.16314930106889342 
3.3000000000025396, 0.16362254616584565 
3.3100000000025607, 0.18140300187367092 
3.3200000000025818, 0.23624145684664044 
3.330000000002603, 0.3060898487035416 
3.340000000002624, 0.3508739421382264 
3.350000000002645, 0.3716859651684221 
3.360000000002666, 0.38083798116308265 
3.3700000000026873, 0.38496715903485534 
3.3800000000027084, 0.38682157843354237 
3.3900000000027295, 0.38754249349470754 
3.4000000000027506, 0.3876477279003385 
3.4100000000027717, 0.38741150023683546 
3.420000000002793, 0.387012823165246 
3.430000000002814, 0.3865912400469123 
3.440000000002835, 0.3862642463736918 
3.450000000002856, 0.3861313642149443 
3.460000000002877, 0.3862739903069571 
3.4700000000028983, 0.386748344439627 
3.4800000000029194, 0.3875651769295025 
3.4900000000029405, 0.38866033460178007 
3.5000000000029616, 0.38988090666939956 
3.5100000000029827, 0.3910151782670512 
3.520000000003004, 0.3918556371033781 
3.530000000003025, 0.3922404644295284 
3.540000000003046, 0.39203127186657427 
3.550000000003067, 0.39102663106034974 
3.5600000000030882, 0.38881368394703425 
3.5700000000031094, 0.3845275637216875 
3.5800000000031305, 0.3765344950233546 
3.5900000000031516, 0.36256650163675536 
3.6000000000031727, 0.3421246553066094 
3.6100000000031938, 0.3206946072792451 
3.620000000003215, 0.3060291786185612 
3.630000000003236, 0.29920177053609853 
3.640000000003257, 0.2967898358162636 
3.650000000003278, 0.29608713473316395 
3.6600000000032993, 0.2958789942355803 
3.6700000000033204, 0.29571729472754865 
3.6800000000033415, 0.2954291042008544 
3.6900000000033626, 0.29490566814014507 
3.7000000000033837, 0.29400379061434956 
3.710000000003405, 0.29245648861706897 
3.720000000003426, 0.28970368200703345 
3.730000000003447, 0.2844540046284748 
3.740000000003468, 0.27337212575818726 
3.750000000003489, 0.24669153891295545 
3.7600000000035103, 0.1736804959547761 
3.7700000000035314, -0.017171577415100336 
3.7800000000035525, -0.3018644578559676 
3.7900000000035736, -0.46651206112327753 
3.8000000000035947, -0.5088714831003778 
3.810000000003616, -0.5139081384602102 
3.820000000003637, -0.5137651333709758 
3.830000000003658, -0.5141502469296467 
3.840000000003679, -0.5150941521054743 
3.8500000000037002, -0.5161339060337287 
3.8600000000037213, -0.5170229103616382 
3.8700000000037424, -0.5176770887898553 
3.8800000000037635, -0.5180809551027161 
3.8900000000037847, -0.5182351781740745 
3.9000000000038058, -0.5181333517026426 
3.910000000003827, -0.5177552641444237 
3.920000000003848, -0.5170727653039198 
3.930000000003869, -0.5160690455284362 
3.94000000000389, -0.5147680693893206 
3.9500000000039113, -0.5132574092422022 
3.9600000000039324, -0.5116799469786094 
3.9700000000039535, -0.510189776432746 
3.9800000000039746, -0.508901035583612 
3.9900000000039957, -0.5078617370809686 
4.000000000004016, -0.5070574835926107 
4.010000000003993, -0.506431598529662 
4.02000000000397, -0.5059101468518129 
4.030000000003946, -0.5054254726101199 
4.040000000003923, -0.5049328268323803 
4.0500000000039, -0.5044174160801143 
4.0600000000038765, -0.5038953574279943 
4.070000000003853, -0.5034161798784706 
4.08000000000383, -0.5030746817154725 
4.090000000003807, -0.5030397174545064 
4.100000000003783, -0.503610730984496 
4.11000000000376, -0.5053220440920382 
4.120000000003737, -0.5091333021315758 
4.130000000003713, -0.5167772827334994 
4.14000000000369, -0.5313827464364796 
4.150000000003667, -0.5584926787750685 
4.1600000000036434, -0.6072297219600893 
4.17000000000362, -0.6895398125829104 
4.180000000003597, -0.8115553913860968 
4.1900000000035735, -0.9557955631634591 
4.20000000000355, -1.0824307796577282 
4.210000000003527, -1.1659213214980624 
4.220000000003504, -1.210821183171021 
4.23000000000348, -1.2324613880460342 
4.240000000003457, -1.2424311618655288 
4.250000000003434, -1.2469166935585312 
4.26000000000341, -1.24880419646507 
4.270000000003387, -1.2493738771558924 
4.280000000003364, -1.249185524480542 
4.2900000000033405, -1.2485176521039434 
4.300000000003317, -1.2476676014820254 
4.310000000003294, -1.247269896765685 
4.320000000003271, -1.248469374376634 
4.330000000003247, -1.2523957187884405 
4.340000000003224, -1.2590734629493934 
4.350000000003201, -1.267263364288461 
4.360000000003177, -1.2755199948278058 
4.370000000003154, -1.2829707232367833 
4.380000000003131, -1.2892974730901856 
4.390000000003107, -1.2944560405626562 
4.400000000003084, -1.2984877002423385 
4.410000000003061, -1.3014544277702824 
4.4200000000030375, -1.3034405293375593 
4.430000000003014, -1.3045669502705026 
4.440000000002991, -1.3049867587812343 
4.450000000002968, -1.304864555612725 
4.460000000002944, -1.3043639876966115 
4.470000000002921, -1.3036546167603995 
4.480000000002898, -1.3029162060412232 
4.490000000002874, -1.3023072515786835 
4.500000000002851, -1.3019157020980865 
4.510000000002828, -1.3017574784450154 
4.520000000002804, -1.3018168179417482 
4.530000000002781, -1.3020507098230345 
4.540000000002758, -1.3023588508982302 
4.5500000000027345, -1.3025893070950958 
4.560000000002711, -1.3025797684729619 
4.570000000002688, -1.3021816860934916 
4.580000000002665, -1.301259010436574 
4.590000000002641, -1.2996880671459754 
4.600000000002618, -1.2973688679051674 
4.610000000002595, -1.294233682306056 
4.620000000002571, -1.2902395007359586 
4.630000000002548, -1.2853534280006023 
4.640000000002525, -1.2795587665127133 
4.6500000000025015, -1.2729178254683318 
4.660000000002478, -1.2657272138931508 
4.670000000002455, -1.2587245931202322 
4.6800000000024315, -1.2530548455851993 
4.690000000002408, -1.2496263007259585 
4.700000000002385, -1.24833854042449 
4.710000000002362, -1.2482696617920743 
4.720000000002338, -1.2485089939960679 
4.730000000002315, -1.2485338382347135 
4.740000000002292, -1.2480596514917526 
4.750000000002268, -1.246767714118014 
4.760000000002245, -1.2440168031680563 
4.770000000002222, -1.2384021940326464 
4.7800000000021985, -1.2269429854119278 
4.790000000002175, -1.2038292924096172 
4.800000000002152, -1.1597093246786407 
4.810000000002129, -1.0851125027484296 
4.820000000002105, -0.9814168441916575 
4.830000000002082, -0.8689917040752666 
4.840000000002059, -0.7738577536971737 
4.850000000002035, -0.7077178504052939 
4.860000000002012, -0.6674278256311601 
4.870000000001989, -0.6449105510122123 
4.880000000001965, -0.6331237177897429 
4.890000000001942, -0.6273493897498602 
4.900000000001919, -0.6247619286731597 
4.9100000000018955, -0.6237686421507735 
4.920000000001872, -0.6235079637523573 
4.930000000001849, -0.6235273371157924 
