t, s[1].omega / s[0].omega 
0, -0.4797822186424111 
0.009999999999999995, -0.4618002968784663 
0.019999999999999934, -0.4495427752489699 
0.029999999999999874, -0.44097732257071415 
0.04000000000000012, -0.43481863292179046 
0.050000000000000405, -0.43028540798242726 
0.06000000000000069, -0.42690936032629406 
0.07000000000000098, -0.42441750077942747 
0.08000000000000126, -0.42266250208565886 
0.09000000000000155, -0.42158126184745626 
0.10000000000000184, -0.42117097721044494 
0.11000000000000212, -0.4214775033791958 
0.12000000000000241, -0.4225938140615445 
0.130000000000002, -0.4246687526401778 
0.1400000000000009, -0.4279289327553751 
0.1499999999999998, -0.43272047326523877 
0.1599999999999987, -0.4395837580104166 
0.1699999999999976, -0.44938664770622017 
0.1799999999999965, -0.4635645985369866 
0.1899999999999954, -0.484551607990098 
0.1999999999999943, -0.5164901217746676 
0.2099999999999932, -0.5659808653863975 
0.2199999999999921, -0.6408066707923665 
0.229999999999991, -0.7405953309539663 
0.2399999999999899, -0.8422021329208164 
0.2499999999999888, -0.914912606396974 
0.2599999999999877, -0.9538734695326765 
0.2699999999999866, -0.9718277749062298 
0.2799999999999855, -0.9796472757970408 
0.2899999999999844, -0.9828189283812805 
0.2999999999999833, -0.9836586185854447 
0.3099999999999822, -0.9830133621644608 
0.3199999999999811, -0.9810652154813846 
0.32999999999998, -0.977889124678763 
0.3399999999999789, -0.9748462694832256 
0.3499999999999778, -0.9793696867404911 
0.35999999999997667, -1.0159909734408332 
0.36999999999997557, -1.126582683613979 
0.37999999999997447, -1.3032385883885673 
0.38999999999997337, -1.457198198119967 
0.39999999999997227, -1.5512172554886205 
0.40999999999997117, -1.6043512881022373 
0.41999999999997006, -1.6353036893179447 
0.42999999999996896, -1.653718768389945 
0.43999999999996786, -1.6643972261374809 
0.44999999999996676, -1.6701283645416385 
0.45999999999996566, -1.672769895347919 
0.46999999999996456, -1.673557493102173 
0.47999999999996346, -1.6732900152389838 
0.48999999999996235, -1.6725336964430948 
0.49999999999996125, -1.6716462595351516 
0.5099999999999602, -1.6706280570829697 
0.519999999999959, -1.6693420264777283 
0.529999999999958, -1.6680489984207252 
0.5399999999999568, -1.6673125681694558 
0.5499999999999557, -1.6671175575410804 
0.5599999999999546, -1.6667067742962005 
0.5699999999999535, -1.6650677253415875 
0.5799999999999524, -1.6604911585545523 
0.5899999999999513, -1.648649845830112 
0.5999999999999502, -1.6178498823322751 
0.6099999999999491, -1.5391655740967054 
0.619999999999948, -1.3597607542741441 
0.6299999999999469, -1.0520480637749636 
0.6399999999999458, -0.7190948969565606 
0.6499999999999447, -0.4900894153508542 
0.6599999999999436, -0.3670158310745759 
0.6699999999999425, -0.30437556242071595 
0.6799999999999414, -0.27151811121143127 
0.6899999999999403, -0.2534111614390847 
0.6999999999999392, -0.242986935129397 
0.7099999999999381, -0.23681409018013752 
0.719999999999937, -0.23314707722738454 
0.7299999999999359, -0.2310631369390778 
0.7399999999999348, -0.2300690488448857 
0.7499999999999337, -0.2299172714428815 
0.7599999999999326, -0.23052292370172292 
0.7699999999999315, -0.23193734178792166 
0.7799999999999304, -0.2343646794587039 
0.7899999999999293, -0.23822947456885282 
0.7999999999999282, -0.2443319776858484 
0.8099999999999271, -0.2541888216146062 
0.819999999999926, -0.270801980249498 
0.8299999999999249, -0.30042883519471647 
0.8399999999999238, -0.3563459341357732 
0.8499999999999227, -0.4631179438649803 
0.8599999999999216, -0.6394761298159892 
0.8699999999999205, -0.8326213716011962 
0.8799999999999194, -0.9564646771872057 
0.8899999999999183, -1.0119510035494244 
0.8999999999999172, -1.0340845505584877 
0.9099999999999161, -1.042879987428937 
0.919999999999915, -1.0462528416125898 
0.9299999999999139, -1.0470870806654407 
0.9399999999999128, -1.0463348789639695 
0.9499999999999117, -1.0441545450641987 
0.9599999999999106, -1.040622984692393 
0.9699999999999095, -1.0376270172394624 
0.9799999999999084, -1.0451374745115443 
0.9899999999999073, -1.0917517704910271 
0.9999999999999062, -1.2079873376601569 
1.0099999999999052, -1.3575966428028918 
1.019999999999904, -1.4721588886936932 
1.029999999999903, -1.5416144608551718 
1.039999999999902, -1.5827101487033262 
1.0499999999999008, -1.607819212466552 
1.0599999999998997, -1.6232787110216331 
1.0699999999998986, -1.6324205524953865 
1.0799999999998975, -1.63735204736264 
1.0899999999998964, -1.63958206920002 
1.0999999999998953, -1.6401618435316803 
1.1099999999998942, -1.63980397829583 
1.119999999999893, -1.6390389074450435 
1.129999999999892, -1.6381935766270483 
1.1399999999998909, -1.637247385900491 
1.1499999999998898, -1.6360763330724013 
1.1599999999998887, -1.6349338659797201 
1.1699999999998876, -1.6343060725652663 
1.1799999999998865, -1.6341350628311182 
1.1899999999998854, -1.633717054861388 
1.1999999999998843, -1.6321183027741868 
1.2099999999998832, -1.6278230048498006 
1.219999999999882, -1.6173362413224712 
1.229999999999881, -1.5923634504114883 
1.2399999999998799, -1.5354044640958013 
1.2499999999998788, -1.4176374259969207 
1.2599999999998777, -1.2128748105908866 
1.2699999999998766, -0.9417177445618148 
1.2799999999998755, -0.6900002565632748 
1.2899999999998744, -0.5206216709378191 
1.2999999999998733, -0.4254709640350619 
1.3099999999998722, -0.37481337956564 
1.319999999999871, -0.34765145482339516 
1.32999999999987, -0.33273917032411465 
1.3399999999998689, -0.32438720787628267 
1.3499999999998678, -0.3196833587959741 
1.3599999999998666, -0.317090367581557 
1.3699999999998655, -0.31577222088993145 
1.3799999999998644, -0.31526748557491646 
1.3899999999998633, -0.31532846164135453 
1.3999999999998622, -0.31584350208642403 
1.4099999999998611, -0.31680476689184467 
1.41999999999986, -0.3183042352267996 
1.429999999999859, -0.3205519457611457 
1.4399999999998578, -0.32392113216141105 
1.4499999999998567, -0.32903937409699113 
1.4599999999998556, -0.33695646586899364 
1.4699999999998545, -0.34938946880126365 
1.4799999999998534, -0.3688263355669642 
1.4899999999998523, -0.3975676221735378 
1.4999999999998512, -0.43433711356775345 
1.5099999999998501, -0.47131079673025067 
1.519999999999849, -0.4995390606199834 
1.529999999999848, -0.5168393602177004 
1.5399999999998468, -0.5261671048921828 
1.5499999999998457, -0.5308244516198404 
1.5599999999998446, -0.5328410998154705 
1.5699999999998435, -0.5331676040789871 
1.5799999999998424, -0.5320307825317714 
1.5899999999998413, -0.5290171624516992 
1.5999999999998402, -0.522781039736681 
1.6099999999998391, -0.5102171322436194 
1.619999999999838, -0.4852613855406812 
1.629999999999837, -0.4401867352744057 
1.6399999999998358, -0.3761544035249703 
1.6499999999998347, -0.3121878988120367 
1.6599999999998336, -0.2657510011326055 
1.6699999999998325, -0.2374924147990129 
1.6799999999998314, -0.22109234970022137 
1.6899999999998303, -0.211401374916945 
1.6999999999998292, -0.205451610785388 
1.709999999999828, -0.2016548468431302 
1.719999999999827, -0.19914817842276156 
1.729999999999826, -0.19744471489169277 
1.7399999999998248, -0.19626785659138518 
1.7499999999998237, -0.195477184463759 
1.7599999999998226, -0.19504023878122032 
1.7699999999998215, -0.1950367898709971 
1.7799999999998204, -0.19570708052697572 
1.7899999999998193, -0.1975894737751902 
1.7999999999998182, -0.20187753656076182 
1.809999999999817, -0.21139422493968635 
1.819999999999816, -0.2335466694387683 
1.8299999999998149, -0.2905548970303701 
1.8399999999998138, -0.4581991418048534 
1.8499999999998127, -0.9525820787247159 
1.8599999999998116, -1.6627290453457817 
1.8699999999998105, -1.9699211720736869 
1.8799999999998094, -2.0616578960109853 
1.8899999999998083, -2.094374766437261 
1.8999999999998072, -2.1078257795581443 
1.909999999999806, -2.1134759655207978 
1.919999999999805, -2.115480836829934 
1.9299999999998039, -2.1155785941471206 
1.9399999999998028, -2.1145467289582203 
1.9499999999998017, -2.112620245667808 
1.9599999999998006, -2.109378268902504 
1.9699999999997995, -2.104396315560743 
1.9799999999997984, -2.0998626583208355 
1.9899999999997973, -2.098955433998076 
1.9999999999997962, -2.099499454550015 
2.0099999999998173, -2.098658512799624 
2.0199999999998384, -2.093852685041151 
2.0299999999998595, -2.074782041625903 
2.0399999999998806, -2.0170837520939595 
2.0499999999999017, -2.179620832238751 
2.059999999999923, -2.4704421237081347 
2.069999999999944, -2.539070920409762 
2.079999999999965, -2.5564245523740805 
2.089999999999986, -2.562287286578921 
2.100000000000007, -2.56418392915047 
2.1100000000000283, -2.5639598227992733 
2.1200000000000494, -2.561849589741515 
2.1300000000000705, -2.556690533167706 
2.1400000000000916, -2.5431488460211233 
2.1500000000001127, -2.5036207082945348 
2.160000000000134, -2.4559608808783815 
2.170000000000155, -2.4652390575618215 
2.180000000000176, -2.472848771347466 
2.190000000000197, -2.4740404684235213 
2.2000000000002182, -2.4726825168671973 
2.2100000000002393, -2.472065173411804 
2.2200000000002604, -2.476223010626634 
2.2300000000002815, -2.480568230154978 
2.2400000000003026, -2.482557321611611 
2.2500000000003237, -2.483204408263139 
2.260000000000345, -2.482737739235081 
2.270000000000366, -2.48006641400946 
2.280000000000387, -2.4713053267028022 
2.290000000000408, -2.4398495610639896 
2.3000000000004293, -2.2855231299193663 
2.3100000000004504, -1.274126632465504 
2.3200000000004715, 0.16031475003133427 
2.3300000000004926, 0.4234509491835796 
2.3400000000005137, 0.4740090132574261 
2.3500000000005348, 0.4888845251250643 
2.360000000000556, 0.49440818260645736 
2.370000000000577, 0.4966158277909237 
2.380000000000598, 0.4973651785018632 
2.390000000000619, 0.4973531472079933 
2.4000000000006403, 0.49690029325994134 
2.4100000000006614, 0.4962716872435255 
2.4200000000006825, 0.49605494108211323 
2.4300000000007036, 0.4981128370698271 
2.4400000000007247, 0.5076032338035087 
2.450000000000746, 0.5325508444991629 
2.460000000000767, 0.5702076589410241 
2.470000000000788, 0.6019241450753926 
2.480000000000809, 0.6196273436466281 
2.49000000000083, 0.6278349040065594 
2.5000000000008513, 0.6312630078060818 
2.5100000000008724, 0.6321943555234222 
2.5200000000008935, 0.6313236481510817 
2.5300000000009146, 0.6282082070062153 
2.5400000000009357, 0.6208161522421487 
2.550000000000957, 0.6039297181700078 
2.560000000000978, 0.568481474964958 
2.570000000000999, 0.5151201892057345 
2.58000000000102, 0.4720165740863158 
2.5900000000010412, 0.4541462059065317 
2.6000000000010624, 0.44985056379059934 
2.6100000000010835, 0.44956337199889057 
2.6200000000011046, 0.44999435546914396 
2.6300000000011257, 0.4502764394540595 
2.6400000000011468, 0.45015995255290225 
2.650000000001168, 0.44945060104689405 
2.660000000001189, 0.4477594705705217 
2.67000000000121, 0.44413162193062705 
2.680000000001231, 0.4359035856593957 
2.6900000000012523, 0.4139804636561202 
2.7000000000012734, 0.33590370563516503 
2.7100000000012945, -0.09091264850082009 
2.7200000000013156, -1.6342856908232182 
2.7300000000013367, -2.2872760045925897 
2.740000000001358, -2.393425519727836 
2.750000000001379, -2.416978473370546 
2.7600000000014, -2.423326895838531 
2.770000000001421, -2.4247301090723736 
2.780000000001442, -2.4242727993525985 
2.7900000000014633, -2.4228725953844963 
2.8000000000014844, -2.4202625784233285 
2.8100000000015055, -2.4157452113754116 
2.8200000000015266, -2.4119033325641066 
2.8300000000015477, -2.411864899593481 
2.840000000001569, -2.4121291976576336 
2.85000000000159, -2.4097424966016594 
2.860000000001611, -2.399430078740734 
2.870000000001632, -2.3796740626582134 
2.8800000000016532, -2.448978124095229 
2.8900000000016743, -2.5174356785885017 
2.9000000000016954, -2.5382190104859865 
2.9100000000017165, -2.5449999798404286 
2.9200000000017377, -2.5473704896866334 
2.9300000000017588, -2.547568659378889 
2.94000000000178, -2.545921980803075 
2.950000000001801, -2.5415721105397737 
2.960000000001822, -2.5307834269133562 
2.970000000001843, -2.496725070758969 
2.9800000000018643, -2.372167809856726 
2.9900000000018854, -2.260126093056539 
3.0000000000019065, -2.293437664574772 
3.0100000000019276, -2.3066118469041372 
3.0200000000019487, -2.3091972241124443 
3.03000000000197, -2.3086658169508154 
3.040000000001991, -2.3076667276963545 
3.050000000002012, -2.309601323809386 
3.060000000002033, -2.3133478530354754 
3.070000000002054, -2.3156847186011764 
3.0800000000020753, -2.316673016951295 
3.0900000000020964, -2.3168431948162476 
3.1000000000021175, -2.3157837450922765 
3.1100000000021386, -2.3119742716900116 
3.1200000000021597, -2.3006984436098237 
3.130000000002181, -2.2642833405957163 
3.140000000002202, -2.1176328493365664 
3.150000000002223, -1.4070277644365405 
3.160000000002244, -0.16640320787688093 
3.1700000000022652, 0.20638303542715963 
3.1800000000022863, 0.28811504107023805 
3.1900000000023074, 0.3129560422588634 
3.2000000000023285, 0.3225080346318908 
3.2100000000023496, 0.3266339562516355 
3.2200000000023707, 0.3283668658166471 
3.230000000002392, 0.32878427595261 
3.240000000002413, 0.32822924983245516 
3.250000000002434, 0.32662656027768777 
3.260000000002455, 0.323444026576187 
3.2700000000024763, 0.3173208796483766 
3.2800000000024974, 0.3052565238479887 
3.2900000000025185, 0.2839402114403134 
3.3000000000025396, 0.293986081376158 
3.3100000000025607, 0.640848549897209 
3.3200000000025818, 1.0145025657310953 
3.330000000002603, 1.088713901757754 
3.340000000002624, 1.103686688102136 
3.350000000002645, 1.107533168533242 
3.360000000002666, 1.1079315702753567 
3.3700000000026873, 1.1058915671849763 
3.3800000000027084, 1.099306149161984 
3.3900000000027295, 1.0790583367490267 
3.4000000000027506, 1.0187821780746922 
3.4100000000027717, 0.9284649401905238 
3.420000000002793, 0.9044720557939658 
3.430000000002814, 0.9126939887580405 
3.440000000002835, 0.9192454476769907 
3.450000000002856, 0.9222561532258566 
3.460000000002877, 0.9231034885092267 
3.4700000000028983, 0.9222477125028803 
3.4800000000029194, 0.91893841229401 
3.4900000000029405, 0.909621211960655 
3.5000000000029616, 0.8796765909140829 
3.5100000000029827, 0.7796217025051011 
3.520000000003004, 0.9916507757681396 
3.530000000003025, 1.5486045014410201 
3.540000000003046, 1.610490887776851 
3.550000000003067, 1.61930197563367 
3.5600000000030882, 1.6206341371716029 
3.5700000000031094, 1.6187386035184281 
3.5800000000031305, 1.60934994881442 
3.5900000000031516, 1.5458982207620653 
3.6000000000031727, 0.9417969002677221 
3.6100000000031938, 0.6789905976113084 
3.620000000003215, 0.7848686391800305 
3.630000000003236, 0.8185488924999668 
3.640000000003257, 0.8290190366920376 
3.650000000003278, 0.8326028787855296 
3.6600000000032993, 0.8334535006330295 
3.6700000000033204, 0.8325794347061983 
3.6800000000033415, 0.8296742906013627 
3.6900000000033626, 0.8229891196681848 
3.7000000000033837, 0.808689544380542 
3.710000000003405, 0.7944953412568178 
3.720000000003426, 0.8888220641446581 
3.730000000003447, 1.0565478277040035 
3.740000000003468, 1.1139356095329602 
3.750000000003489, 1.1283658312425902 
3.7600000000035103, 1.1323486303636938 
3.7700000000035314, 1.1328416746221428 
3.7800000000035525, 1.130803571285519 
3.7900000000035736, 1.1235851190234203 
3.8000000000035947, 1.0965991785388267 
3.810000000003616, 0.9735892048334625 
3.820000000003637, 0.7027622472642412 
3.830000000003658, 0.6503399804309569 
3.840000000003679, 0.6748065252814548 
3.8500000000037002, 0.6886638157910951 
3.8600000000037213, 0.6946734576780684 
3.8700000000037424, 0.6971082009374896 
3.8800000000037635, 0.6976296305874408 
3.8900000000037847, 0.6965874103975528 
3.9000000000038058, 0.6932762711515615 
3.910000000003827, 0.684744127151066 
3.920000000003848, 0.6593468615352271 
3.930000000003869, 0.5576240040569188 
3.94000000000389, 0.06705102213826061 
3.9500000000039113, -1.8956453075232507 
3.9600000000039324, -5.307150547103466 
3.9700000000039535, -5.321599112759172 
3.9800000000039746, -5.32048236322211 
3.9900000000039957, -5.300119477182954 
4.000000000004016, 2.2849029891856945 
4.010000000003993, 3.1627362962194425 
4.02000000000397, 3.1696510471951536 
4.030000000003946, 3.1692565064540883 
4.040000000003923, 3.1643875636740533 
4.0500000000039, 3.145556441759909 
4.0600000000038765, 3.1452733503524293 
4.070000000003853, 3.149517953491393 
4.08000000000383, 3.14893955396146 
4.090000000003807, 3.148358925849288 
4.100000000003783, 3.1508846206087795 
4.11000000000376, 3.151949564501946 
4.120000000003737, 3.15152236762594 
4.130000000003713, 3.149442877466966 
4.14000000000369, 3.1262949933702204 
4.150000000003667, 3.0752378119881696 
4.1600000000036434, 3.382311342543435 
4.17000000000362, 3.3894752833659063 
4.180000000003597, 3.3877493919379615 
4.1900000000035735, 3.348643261830783 
4.20000000000355, -5.1423319675445525 
4.210000000003527, -5.287400335904374 
4.220000000003504, -5.289156362552342 
4.23000000000348, -5.284263534619584 
4.240000000003457, -5.202323002489871 
4.250000000003434, -5.233404694131027 
4.26000000000341, -5.236943176549617 
4.270000000003387, -5.23573972596032 
4.280000000003364, -5.231910993942153 
4.2900000000033405, -5.23132657269072 
4.300000000003317, -5.229823819896103 
4.310000000003294, -5.230136475995295 
4.320000000003271, -5.231379919349433 
4.330000000003247, -5.23043746301601 
4.340000000003224, -5.219281219490755 
4.350000000003201, -5.232234038380634 
4.360000000003177, -5.279048483736856 
4.370000000003154, -5.280248758670785 
4.380000000003131, -5.273918715833245 
4.390000000003107, -4.520467104803312 
4.400000000003084, 3.3355414211465977 
4.410000000003061, 3.352809751191438 
4.4200000000030375, 3.3524729353160936 
4.430000000003014, 3.3397358902943326 
4.440000000002991, 2.9701790138766713 
4.450000000002968, 3.1361526895613077 
4.460000000002944, 3.1488663648085193 
4.470000000002921, 3.1494502778551916 
4.480000000002898, 3.148858103378154 
4.490000000002874, 3.146775142069372 
4.500000000002851, 3.1438159588375156 
4.510000000002828, 3.143691839030707 
4.520000000002804, 3.142790079385287 
4.530000000002781, 3.135843785911457 
4.540000000002758, 3.1399127783589202 
4.5500000000027345, 3.1582180197012937 
4.560000000002711, 3.161342257635527 
4.570000000002688, 3.160345450676069 
4.580000000002665, 3.1482731449106875 
4.590000000002641, -0.502236754566803 
4.600000000002618, -5.250061657511985 
4.610000000002595, -5.260867294020122 
4.620000000002571, -5.259327199579759 
4.630000000002548, -5.235244107497213 
4.640000000002525, -2.9704659376142266 
4.6500000000025015, -4.082652353409936 
4.660000000002478, -4.1022037623127785 
4.670000000002455, -4.102726861588231 
4.6800000000024315, -4.101143632824884 
4.690000000002408, -4.095888542578939 
4.700000000002385, -4.092594861613075 
4.710000000002362, -4.094112903562556 
4.720000000002338, -4.091977548108605 
4.730000000002315, -4.09333752548725 
4.740000000002292, -4.096005864732453 
4.750000000002268, -4.096003344084926 
4.760000000002245, -4.094161470713102 
4.770000000002222, -4.072693313896464 
4.7800000000021985, -3.760818969962853 
4.790000000002175, -4.52365021043351 
4.800000000002152, -4.5412942404139764 
4.810000000002129, -4.541973659470392 
4.820000000002105, -4.536990816689938 
4.830000000002082, -4.463742709269959 
4.840000000002059, 2.0409401792089468 
4.850000000002035, 2.4070901419363486 
4.860000000002012, 2.4168390197389007 
4.870000000001989, 2.41767871922002 
4.880000000001965, 2.416558294280022 
4.890000000001942, 2.4126946630500163 
4.900000000001919, 2.4048745713906885 
4.9100000000018955, 2.401164600749425 
4.920000000001872, 2.402744541203617 
4.930000000001849, 2.402855351452046 
4.940000000001826, 2.399589896575404 
4.950000000001802, 2.392857475342603 
4.960000000001779, 2.4076343560554365 
4.970000000001756, 2.423793467646232 
4.980000000001732, 2.427877810973926 
