t, s[1].omega / s[0].omega 
0, 0.09999775301218422 
0.009999999999999995, 0.09911020589551076 
0.019999999999999934, 0.0967682947435669 
0.029999999999999874, 0.09259544098560255 
0.04000000000000012, 0.08620051625186818 
0.050000000000000405, 0.07769405723584494 
0.06000000000000069, 0.06819211211240427 
0.07000000000000098, 0.059457731243154996 
0.08000000000000126, 0.05276212202041708 
0.09000000000000155, 0.04835408785625127 
0.10000000000000184, 0.045882194197122264 
0.11000000000000212, 0.044929439979655636 
0.12000000000000241, 0.04523120387664218 
0.130000000000002, 0.046655899859638236 
0.1400000000000009, 0.049071506579971336 
0.1499999999999998, 0.05218343503692076 
0.1599999999999987, 0.05547600692395007 
0.1699999999999976, 0.05836206154710718 
0.1799999999999965, 0.06041661859108205 
0.1899999999999954, 0.06145190028048799 
0.1999999999999943, 0.06139478498426019 
0.2099999999999932, 0.06009756968436314 
0.2199999999999921, 0.05715783209837453 
0.229999999999991, 0.05174975867803131 
0.2399999999999899, 0.042571593479170076 
0.2499999999999888, 0.028387728992456195 
0.2599999999999877, 0.009746171171272858 
0.2699999999999866, -0.00943994657048899 
0.2799999999999855, -0.024746785870608336 
0.2899999999999844, -0.034791225947922576 
0.2999999999999833, -0.040517911459823606 
0.3099999999999822, -0.04338003250066533 
0.3199999999999811, -0.04439265359668286 
0.32999999999998, -0.04408743760069113 
0.3399999999999789, -0.04270054149869348 
0.3499999999999778, -0.040373524479591215 
0.35999999999997667, -0.037335917053982384 
0.36999999999997557, -0.034004465684914366 
0.37999999999997447, -0.030905563209048182 
0.38999999999997337, -0.028476574881239863 
0.39999999999997227, -0.026953373321520785 
0.40999999999997117, -0.02643558139853309 
0.41999999999997006, -0.027036470725711165 
0.42999999999996896, -0.029017837873983286 
0.43999999999996786, -0.03286441986156968 
0.44999999999996676, -0.03920409915925364 
0.45999999999996566, -0.04836290740980763 
0.46999999999996456, -0.05956715508905046 
0.47999999999996346, -0.07074226743806497 
0.48999999999996235, -0.07979150288980622 
0.49999999999996125, -0.08591681614247967 
0.5099999999999602, -0.08944489700340288 
0.519999999999959, -0.09099224997138547 
0.529999999999958, -0.09098143657850907 
0.5399999999999568, -0.08953732230729813 
0.5499999999999557, -0.08655241423326462 
0.5599999999999546, -0.08187530117303424 
0.5699999999999535, -0.07565082143003075 
0.5799999999999524, -0.06862481751660894 
0.5899999999999513, -0.061964104121325504 
0.5999999999999502, -0.05660604932094686 
0.6099999999999491, -0.05286776119901763 
0.619999999999948, -0.05062235542358941 
0.6299999999999469, -0.049640402840481164 
0.6399999999999458, -0.049785150161063545 
0.6499999999999447, -0.051048674407533357 
0.6599999999999436, -0.0534761115700092 
0.6699999999999425, -0.05699308307249453 
0.6799999999999414, -0.061214240049354704 
0.6899999999999403, -0.06544562307596016 
0.6999999999999392, -0.06897983761556509 
0.7099999999999381, -0.0713982440475993 
0.719999999999937, -0.07257982723696485 
0.7299999999999359, -0.0724939361777588 
0.7399999999999348, -0.07097770638240866 
0.7499999999999337, -0.06756432997375884 
0.7599999999999326, -0.06139272764446561 
0.7699999999999315, -0.05143053326252842 
0.7799999999999304, -0.03746126712976688 
0.7899999999999293, -0.02141654903437607 
0.7999999999999282, -0.00676920835249688 
0.8099999999999271, 0.003976111751610256 
0.819999999999926, 0.010640334054632336 
0.8299999999999249, 0.01442038640658084 
0.8399999999999238, 0.01623319150348077 
0.8499999999999227, 0.01665003433805354 
0.8599999999999216, 0.01594530520161502 
0.8699999999999205, 0.014235012687937915 
0.8799999999999194, 0.01164075022137164 
0.8899999999999183, 0.008441999235236303 
0.8999999999999172, 0.005112697392313979 
0.9099999999999161, 0.0021772790452638724 
0.919999999999915, 0.00002123224115515172 
0.9299999999999139, -0.0007210154415739251 
0.9399999999999128, -0.0003214303738415624 
0.9499999999999117, 0.00115689645372474 
0.9599999999999106, 0.004448224897927984 
0.9699999999999095, 0.010509484232621583 
0.9799999999999084, 0.02013467357607191 
0.9899999999999073, 0.03302947950819816 
0.9999999999999062, 0.04693940357250733 
1.0099999999999052, 0.058857925867748295 
1.019999999999904, 0.06726142453277335 
1.029999999999903, 0.07239093538974267 
1.039999999999902, 0.07511403934180319 
1.0499999999999008, 0.07614429548230296 
1.0599999999998997, 0.07585606018749853 
1.0699999999998986, 0.07433918728501562 
1.0799999999998975, 0.07152575682351099 
1.0899999999998964, 0.06739501346742507 
1.0999999999998953, 0.06224101028843374 
1.1099999999998942, 0.05678851347293142 
1.119999999999893, 0.05191986812356607 
1.129999999999892, 0.0482374400156938 
1.1399999999998909, 0.045928924389321626 
1.1499999999998898, 0.04495917270384267 
1.1599999999998887, 0.04529997277556353 
1.1699999999998876, 0.04703543912430968 
1.1799999999998865, 0.05031135816631399 
1.1899999999998854, 0.055110862896461346 
1.1999999999998843, 0.06094876335970325 
1.2099999999998832, 0.06684071678107101 
1.219999999999882, 0.07177770485158727 
1.229999999999881, 0.07523672658519996 
1.2399999999998799, 0.07719484458621259 
1.2499999999998788, 0.07781517150884777 
1.2599999999998777, 0.07717329961167033 
1.2699999999998766, 0.07511365823225911 
1.2799999999998755, 0.07119058331451383 
1.2899999999998744, 0.06474327437641196 
1.2999999999998733, 0.05533075669209122 
1.3099999999998722, 0.04359787132001519 
1.319999999999871, 0.03163984054738676 
1.32999999999987, 0.02173943066805236 
1.3399999999998689, 0.014845526155727762 
1.3499999999998678, 0.010648217359780662 
1.3599999999998666, 0.0084680901513805 
1.3699999999998655, 0.007782748961228378 
1.3799999999998644, 0.008315756613585483 
1.3899999999998633, 0.00993622790476983 
1.3999999999998622, 0.012491110590596302 
1.4099999999998611, 0.0156451720300954 
1.41999999999986, 0.0188587738334462 
1.429999999999859, 0.02156940557143739 
1.4399999999998578, 0.02340631568602399 
1.4499999999998567, 0.02422076979535497 
1.4599999999998556, 0.023945618893766094 
1.4699999999998545, 0.022419773564355344 
1.4799999999998534, 0.019242445175033766 
1.4899999999998523, 0.013684471494881703 
1.4999999999998512, 0.0048151804199729606 
1.5099999999998501, -0.007529432114945884 
1.519999999999849, -0.02209901357259956 
1.529999999999848, -0.03599590210638212 
1.5399999999998468, -0.04661814987405656 
1.5499999999998457, -0.053431304032686956 
1.5599999999998446, -0.05721470767189818 
1.5699999999998435, -0.058878655004176016 
1.5799999999998424, -0.05900319939654382 
1.5899999999998413, -0.057839300692501504 
1.5999999999998402, -0.055450926539522494 
1.6099999999998391, -0.05191578454395925 
1.619999999999838, -0.04754482146219598 
1.629999999999837, -0.04295904581782392 
1.6399999999998358, -0.03887343809971194 
1.6499999999998347, -0.035772018710342156 
1.6599999999998336, -0.03381269351504402 
1.6699999999998325, -0.03297943742005613 
1.6799999999998314, -0.033274005131505524 
1.6899999999998303, -0.03482992476239487 
1.6999999999998292, -0.037926732124246375 
1.709999999999828, -0.04285265838138203 
1.719999999999827, -0.04954592999909782 
1.729999999999826, -0.057204937938577574 
1.7399999999998248, -0.06445083350766198 
1.7499999999998237, -0.07013486542159601 
1.7599999999998226, -0.0738694790602178 
1.7699999999998215, -0.07581326262716942 
1.7799999999998204, -0.07622233702228695 
1.7899999999998193, -0.07518188994358393 
1.7999999999998182, -0.07252496264078147 
1.809999999999817, -0.0678945557472623 
1.819999999999816, -0.06103128214822636 
1.8299999999998149, -0.05231537621741193 
1.8399999999998138, -0.04307187390674526 
1.8499999999998127, -0.03493970491174524 
1.8599999999998116, -0.0288558549784582 
1.8699999999998105, -0.024854051918885945 
1.8799999999998094, -0.02255470369444814 
1.8899999999998083, -0.021595426383821486 
1.8999999999998072, -0.021783648928873245 
1.909999999999806, -0.023078592770179956 
1.919999999999805, -0.025478757917140566 
1.9299999999998039, -0.02884013275342253 
1.9399999999998028, -0.03272423831064952 
1.9499999999998017, -0.03646394801228588 
1.9599999999998006, -0.03945285012679066 
1.9699999999997995, -0.04136130211987803 
1.9799999999997984, -0.04208536255632246 
1.9899999999997973, -0.04154586167874569 
1.9999999999997962, -0.03949423721977417 
2.0099999999998173, -0.035377649459907415 
2.0199999999998384, -0.028352555970749732 
2.0299999999998595, -0.017745858375840928 
2.0399999999998806, -0.004154241242853738 
2.0499999999999017, 0.009634453345358172 
2.059999999999923, 0.02097784304192763 
2.069999999999944, 0.02882181879643709 
2.079999999999965, 0.03356315186797179 
2.089999999999986, 0.03605460612152464 
2.100000000000007, 0.03695583904673853 
2.1100000000000283, 0.036613399635543054 
2.1200000000000494, 0.035139340605170495 
2.1300000000000705, 0.03255342922947737 
2.1400000000000916, 0.028974522990741925 
2.1500000000001127, 0.024792583537706782 
2.160000000000134, 0.020646522263819907 
2.170000000000155, 0.01716254525702295 
2.180000000000176, 0.014715310546033178 
2.190000000000197, 0.013439016556953332 
2.2000000000002182, 0.01340570800228004 
2.2100000000002393, 0.014798890058173994 
2.2200000000002604, 0.017997006474494755 
2.2300000000002815, 0.023478699793841665 
2.2400000000003026, 0.031396145393933136 
2.2500000000003237, 0.04093267020236962 
2.260000000000345, 0.050294171698410196 
2.270000000000366, 0.057821264972794405 
2.280000000000387, 0.06292951337833871 
2.290000000000408, 0.06589118419078363 
2.3000000000004293, 0.06718878368871453 
2.3100000000004504, 0.06714543697543271 
2.3200000000004715, 0.06583318268315018 
2.3300000000004926, 0.06310701955679207 
2.3400000000005137, 0.058743653909663664 
2.3500000000005348, 0.05274559737332285 
2.360000000000556, 0.04570462871287917 
2.370000000000577, 0.038773725902110236 
2.380000000000598, 0.03304864589654853 
2.390000000000619, 0.029023550698350144 
2.4000000000006403, 0.026659990041010474 
2.4100000000006614, 0.025752130876114998 
2.4200000000006825, 0.02617520263098217 
2.4300000000007036, 0.02793956383616117 
2.4400000000007247, 0.031088569185747972 
2.450000000000746, 0.03546974805868864 
2.460000000000767, 0.04052111932632193 
2.470000000000788, 0.04536455029348034 
2.480000000000809, 0.049235130111556565 
2.49000000000083, 0.051794222099054224 
2.5000000000008513, 0.05304685918760632 
2.5100000000008724, 0.05307762252508269 
2.5200000000008935, 0.051843884419602373 
2.5300000000009146, 0.049062438695286856 
2.5400000000009357, 0.04418277775529646 
2.550000000000957, 0.03657087215059723 
2.560000000000978, 0.02613420052497195 
2.570000000000999, 0.014134270100761997 
2.58000000000102, 0.002920940275387003 
2.5900000000010412, -0.005392618436912884 
2.6000000000010624, -0.010634485544218395 
2.6100000000010835, -0.013473600908061772 
2.6200000000011046, -0.014533979702116843 
2.6300000000011257, -0.014206956766989678 
2.6400000000011468, -0.012655209717578362 
2.650000000001168, -0.009946732438934677 
2.660000000001189, -0.006250940184598279 
2.67000000000121, -0.0020033613886334296 
2.680000000001231, 0.001907436873566623 
2.6900000000012523, 0.004900817395165268 
2.7000000000012734, 0.006857382303439394 
2.7100000000012945, 0.007700974438291144 
2.7200000000013156, 0.007419495411753354 
2.7300000000013367, 0.005893510658957575 
2.740000000001358, 0.0027914840701272533 
2.750000000001379, -0.0022585500805734422 
2.7600000000014, -0.009709093612505345 
2.770000000001421, -0.019683781993412565 
2.780000000001442, -0.030739568220156405 
2.7900000000014633, -0.04066246583400438 
2.8000000000014844, -0.04798718437492469 
2.8100000000015055, -0.05257016637346547 
2.8200000000015266, -0.05494153182659285 
2.8300000000015477, -0.05562863319866418 
2.840000000001569, -0.05490832681365328 
2.85000000000159, -0.05281957066851001 
2.860000000001611, -0.04930212031477656 
2.870000000001632, -0.044445580968341974 
2.8800000000016532, -0.03875115417657349 
2.8900000000016743, -0.0331075417714806 
2.9000000000016954, -0.02836502349764499 
2.9100000000017165, -0.024945267818655047 
2.9200000000017377, -0.02286629817742912 
2.9300000000017588, -0.02200316876535632 
2.94000000000178, -0.02229629319634306 
2.950000000001801, -0.023834174428232043 
2.960000000001822, -0.026822969893495224 
2.970000000001843, -0.03141017379031255 
2.9800000000018643, -0.03735633841295602 
2.9900000000018854, -0.043814541608512184 
3.0000000000019065, -0.04963505574867956 
3.0100000000019276, -0.054006698824366664 
3.0200000000019487, -0.056712916403286316 
3.03000000000197, -0.057877095125144815 
3.040000000001991, -0.057623468598804836 
3.050000000002012, -0.055886379632101066 
3.060000000002033, -0.05236351445822303 
3.070000000002054, -0.04664082749268722 
3.0800000000020753, -0.038611865639355966 
3.0900000000020964, -0.02906693726986583 
3.1000000000021175, -0.019681303926154053 
3.1100000000021386, -0.011999615592809263 
3.1200000000021597, -0.0065857184307444566 
3.130000000002181, -0.0032097715667188387 
3.140000000002202, -0.0014284320798949874 
3.150000000002223, -0.0009209803120416655 
3.160000000002244, -0.0015629794709905824 
3.1700000000022652, -0.0033682344324702128 
3.1800000000022863, -0.006342035093066106 
3.1900000000023074, -0.010269382960626041 
3.2000000000023285, -0.014586630946572024 
3.2100000000023496, -0.018541868639088348 
3.2200000000023707, -0.02154587369071046 
3.230000000002392, -0.023342000311275434 
3.240000000002413, -0.023882236921432504 
3.250000000002434, -0.02310490233208515 
3.260000000002455, -0.020766927198469433 
3.2700000000024763, -0.016379726401447595 
3.2800000000024974, -0.009360101892488142 
3.2900000000025185, 0.00038717062813490856 
3.3000000000025396, 0.011325979388951747 
3.3100000000025607, 0.02170575658012939 
3.3200000000025818, 0.0297737853167048 
3.330000000002603, 0.0351102741334585 
3.340000000002624, 0.0381648289049514 
3.350000000002645, 0.03951815563936083 
3.360000000002666, 0.03954520018500252 
3.3700000000026873, 0.038373684331765426 
3.3800000000027084, 0.0359616598189252 
3.3900000000027295, 0.03226040942362346 
3.4000000000027506, 0.02746001638640732 
3.4100000000027717, 0.022162350358603377 
3.420000000002793, 0.01721896005059468 
3.430000000002814, 0.013310963599062225 
3.440000000002835, 0.010722168124982005 
3.450000000002856, 0.009466909949769392 
3.460000000002877, 0.00953270106720955 
3.4700000000028983, 0.011038836819594609 
3.4800000000029194, 0.014258369733545804 
3.4900000000029405, 0.019446924740616267 
3.5000000000029616, 0.026431087672212316 
3.5100000000029827, 0.03424210880653922 
3.520000000003004, 0.041425869763560066 
3.530000000003025, 0.046922742385957936 
3.540000000003046, 0.050485009271321435 
3.550000000003067, 0.05236050510949254 
3.5600000000030882, 0.052851480683236064 
3.5700000000031094, 0.05208950212076411 
3.5800000000031305, 0.04998074479380972 
3.5900000000031516, 0.04625596624228402 
3.6000000000031727, 0.040675259918417514 
3.6100000000031938, 0.03343705267289183 
3.620000000003215, 0.02550251059875707 
3.630000000003236, 0.018258504966745713 
3.640000000003257, 0.012690163529094809 
3.650000000003278, 0.00902720266052848 
3.6600000000032993, 0.007056921876800945 
3.6700000000033204, 0.006527549557632189 
3.6800000000033415, 0.007333353056140124 
3.6900000000033626, 0.009507320171973869 
3.7000000000033837, 0.013069674960739333 
3.710000000003405, 0.017772166200834903 
3.720000000003426, 0.02293326327719735 
3.730000000003447, 0.02764628069731125 
3.740000000003468, 0.03123937958695865 
3.750000000003489, 0.03348890965242819 
3.7600000000035103, 0.034454094217208825 
3.7700000000035314, 0.034214271588494674 
3.7800000000035525, 0.032696715720324766 
3.7900000000035736, 0.02960199565801234 
3.8000000000035947, 0.024441799548254973 
3.810000000003616, 0.016825598781050624 
3.820000000003637, 0.007085836947088403 
3.830000000003658, -0.0031510238337027568 
3.840000000003679, -0.011791630387886996 
3.8500000000037002, -0.0180165665544725 
3.8600000000037213, -0.02181053613859541 
3.8700000000037424, -0.023642346969226298 
3.8800000000037635, -0.02393313683787384 
3.8900000000037847, -0.022884365678816 
3.9000000000038058, -0.020519493682839857 
3.910000000003827, -0.016845943687007682 
3.920000000003848, -0.01209733481723154 
3.930000000003869, -0.006892107505235531 
3.94000000000389, -0.002063003716048873 
3.9500000000039113, 0.001533094657024319 
3.9600000000039324, 0.0036561449382038536 
3.9700000000039535, 0.004553241202001771 
3.9800000000039746, 0.004282420180185475 
3.9900000000039957, 0.0027715711176888483 
4.000000000004016, -0.00021606978363401228 
4.010000000003993, -0.004694064642489731 
4.02000000000397, -0.01131173157735073 
4.030000000003946, -0.019628057627646436 
4.040000000003923, -0.028278805006244006 
4.0500000000039, -0.03566246998146201 
4.0600000000038765, -0.040917691288203197 
4.070000000003853, -0.04405027195636797 
4.08000000000383, -0.04541845593218684 
4.090000000003807, -0.04531018233933175 
4.100000000003783, -0.043797304977410946 
4.11000000000376, -0.04076854603481221 
4.120000000003737, -0.03610874256706696 
4.130000000003713, -0.03002446123702727 
4.14000000000369, -0.02329594746082568 
4.150000000003667, -0.017043228919881533 
4.1600000000036434, -0.012107589429703358 
4.17000000000362, -0.008741637299774807 
4.180000000003597, -0.006814163784988524 
4.1900000000035735, -0.006134096746590419 
4.20000000000355, -0.006632833704742489 
4.210000000003527, -0.008405571744188059 
4.220000000003504, -0.011638452315729924 
4.23000000000348, -0.016389341251350664 
4.240000000003457, -0.02226770480712175 
4.250000000003434, -0.02833806630123194 
4.26000000000341, -0.03354445757230666 
4.270000000003387, -0.03726594603974599 
4.280000000003364, -0.03940308314566917 
4.2900000000033405, -0.040081825843918804 
4.300000000003317, -0.03936608197634625 
4.310000000003294, -0.03712020191244105 
4.320000000003271, -0.03301617703689046 
4.330000000003247, -0.02674806939416995 
4.340000000003224, -0.018519533126691783 
4.350000000003201, -0.009453477885722802 
4.360000000003177, -0.0011796031068367564 
4.370000000003154, 0.004824388752861624 
4.380000000003131, 0.008659795730552314 
4.390000000003107, 0.01072461154138915 
4.400000000003084, 0.011385178303807659 
4.410000000003061, 0.010838771410312021 
4.4200000000030375, 0.009094033573351588 
4.430000000003014, 0.006057864370570895 
4.440000000002991, 0.0017295824694962207 
4.450000000002968, -0.003257687692021586 
4.460000000002944, -0.008277999777740522 
4.470000000002921, -0.01261477706036935 
4.480000000002898, -0.01572087377240699 
4.490000000002874, -0.017450074121017983 
4.500000000002851, -0.017837189386313707 
4.510000000002828, -0.016859056278807717 
4.520000000002804, -0.014305752598701357 
4.530000000002781, -0.009792708572383822 
4.540000000002758, -0.003009362599904691 
4.5500000000027345, 0.005465369720020268 
4.560000000002711, 0.014453594070714688 
4.570000000002688, 0.022404068301090665 
4.580000000002665, 0.028272089728199133 
4.590000000002641, 0.03197544705278629 
4.600000000002618, 0.03389962387244 
4.610000000002595, 0.0344196155351934 
4.620000000002571, 0.03371203240810916 
4.630000000002548, 0.03174645057547094 
4.640000000002525, 0.028378880531637736 
4.6500000000025015, 0.023568238138915044 
4.660000000002478, 0.01767736746335503 
4.670000000002455, 0.0115705479533717 
4.6800000000024315, 0.0062380115628169145 
4.690000000002408, 0.0022863062769824475 
4.700000000002385, -0.00012018676261070988 
4.710000000002362, -0.0007173284757247091 
4.720000000002338, 0.00003061869456819907 
4.730000000002315, 0.0018217947057010818 
4.740000000002292, 0.005306854350469644 
4.750000000002268, 0.010603820406334728 
4.760000000002245, 0.017323434701642763 
4.770000000002222, 0.024391862683173043 
4.7800000000021985, 0.03053824672618478 
4.790000000002175, 0.03501977506889217 
