t, s[1].omega / s[0].omega 
0, -0.27999782745620105 
0.009999999999999995, -0.280058746060864 
0.019999999999999934, -0.28064224907928687 
0.029999999999999874, -0.2816529432921026 
0.04000000000000012, -0.2829146810915834 
0.050000000000000405, -0.28419346328346784 
0.06000000000000069, -0.28526484576762723 
0.07000000000000098, -0.2859772345407919 
0.08000000000000126, -0.28626055045041643 
0.09000000000000155, -0.2860833480722743 
0.10000000000000184, -0.285389071691455 
0.11000000000000212, -0.2840185049251773 
0.12000000000000241, -0.2815791065567454 
0.130000000000002, -0.2771481512551516 
0.1400000000000009, -0.2685414696018585 
0.1499999999999998, -0.2507037155166622 
0.1599999999999987, -0.21396269445676713 
0.1699999999999976, -0.15018858160064583 
0.1799999999999965, -0.07399605400138662 
0.1899999999999954, -0.015204278541189307 
0.1999999999999943, 0.018350625563624594 
0.2099999999999932, 0.03549719375229429 
0.2199999999999921, 0.04427698451883618 
0.229999999999991, 0.0488799530406452 
0.2399999999999899, 0.05130943414601251 
0.2499999999999888, 0.05254409914728715 
0.2599999999999877, 0.053100824033799954 
0.2699999999999866, 0.05328296111743065 
0.2799999999999855, 0.0532876377473267 
0.2899999999999844, 0.053255439595961296 
0.2999999999999833, 0.05330396683582759 
0.3099999999999822, 0.05356963278016265 
0.3199999999999811, 0.054284437880823024 
0.32999999999998, 0.055944661722408064 
0.3399999999999789, 0.05969798194081183 
0.3499999999999778, 0.06810274450691994 
0.35999999999997667, 0.0857003624697199 
0.36999999999997557, 0.11594587078236081 
0.37999999999997447, 0.15275728244188802 
0.38999999999997337, 0.1830771115038223 
0.39999999999997227, 0.20179625782316069 
0.40999999999997117, 0.21183708892739275 
0.41999999999997006, 0.21694366788600927 
0.42999999999996896, 0.2193954026720256 
0.43999999999996786, 0.22033924746515865 
0.44999999999996676, 0.2203303194213316 
0.45999999999996566, 0.2196615885198888 
0.46999999999996456, 0.21854303277104808 
0.47999999999996346, 0.21718757184161763 
0.48999999999996235, 0.21582349025743747 
0.49999999999996125, 0.21466060986790034 
0.5099999999999602, 0.2138580104229439 
0.519999999999959, 0.2135245451256181 
0.529999999999958, 0.21374234002759537 
0.5399999999999568, 0.21458105457337434 
0.5499999999999557, 0.21607427190602918 
0.5599999999999546, 0.21815253927741848 
0.5699999999999535, 0.22057807433540613 
0.5799999999999524, 0.22296943639448225 
0.5899999999999513, 0.2249398026688963 
0.5999999999999502, 0.22623042924958786 
0.6099999999999491, 0.2267169687404139 
0.619999999999948, 0.22630371224842477 
0.6299999999999469, 0.224780831701323 
0.6399999999999458, 0.22167342256299824 
0.6499999999999447, 0.21610026313274955 
0.6599999999999436, 0.20682937945570798 
0.6699999999999425, 0.19310091890468412 
0.6799999999999414, 0.17641791222538705 
0.6899999999999403, 0.16081578818677983 
0.6999999999999392, 0.14950680071113537 
0.7099999999999381, 0.14264854346367023 
0.719999999999937, 0.1388260725427657 
0.7299999999999359, 0.1367302757785201 
0.7399999999999348, 0.1355627555187569 
0.7499999999999337, 0.1348943341873 
0.7599999999999326, 0.13448727129434865 
0.7699999999999315, 0.13418227164659619 
0.7799999999999304, 0.13383455258014168 
0.7899999999999293, 0.13327453192700967 
0.7999999999999282, 0.13227040931405637 
0.8099999999999271, 0.1304596556293292 
0.819999999999926, 0.1271864445104864 
0.8299999999999249, 0.12110371861297739 
0.8399999999999238, 0.10919657663468137 
0.8499999999999227, 0.08456359658278442 
0.8599999999999216, 0.033548494601194426 
0.8699999999999205, -0.05533780465722134 
0.8799999999999194, -0.15626588710885078 
0.8899999999999183, -0.2237312685726156 
0.8999999999999172, -0.25569836434227877 
0.9099999999999161, -0.26953966881172886 
0.919999999999915, -0.2758182694840405 
0.9299999999999139, -0.2788829771169917 
0.9399999999999128, -0.280427139606167 
0.9499999999999117, -0.28113564536221564 
0.9599999999999106, -0.2812951418637318 
0.9699999999999095, -0.28102339479462224 
0.9799999999999084, -0.2803705914131448 
0.9899999999999073, -0.2793820824126595 
0.9999999999999062, -0.2781468041350531 
1.0099999999999052, -0.27682028021033167 
1.019999999999904, -0.27560378122985874 
1.029999999999903, -0.27469182716703905 
1.039999999999902, -0.27423022350737214 
1.0499999999999008, -0.2743078308789423 
1.0599999999998997, -0.274962801389404 
1.0699999999998986, -0.2761717303021208 
1.0799999999998975, -0.27781658463285164 
1.0899999999998964, -0.27966701014096584 
1.0999999999998953, -0.28142840992353474 
1.1099999999998942, -0.2828444521637549 
1.119999999999893, -0.28377003470171464 
1.129999999999892, -0.28416012328110807 
1.1399999999998909, -0.2840021093558749 
1.1499999999998898, -0.28323633228656 
1.1599999999998887, -0.28166631272596127 
1.1699999999998876, -0.2788087559505251 
1.1799999999998865, -0.27357329462541413 
1.1899999999998854, -0.2635985143606996 
1.1999999999998843, -0.24432570823081773 
1.2099999999998832, -0.20985571493923533 
1.219999999999882, -0.16060444680630437 
1.229999999999881, -0.11066630882291255 
1.2399999999998799, -0.0741321892539772 
1.2499999999998788, -0.052149178887535376 
1.2599999999998777, -0.039758994041623995 
1.2699999999998766, -0.03273661550935618 
1.2799999999998755, -0.028641956285935216 
1.2899999999998744, -0.026187442946036015 
1.2999999999998733, -0.024682177001444882 
1.3099999999998722, -0.023730378713712894 
1.319999999999871, -0.023087655550819677 
1.32999999999987, -0.022595070470680136 
1.3399999999998689, -0.022145190354290616 
1.3499999999998678, -0.021655858782965616 
1.3599999999998666, -0.021036318817611983 
1.3699999999998655, -0.02012115721164664 
1.3799999999998644, -0.018499141016052753 
1.3899999999998633, -0.015003005885887447 
1.3999999999998622, -0.0061818771636173225 
1.4099999999998611, 0.016987469199662417 
1.41999999999986, 0.07031249961368 
1.429999999999859, 0.15027676562407988 
1.4399999999998578, 0.21704716788131875 
1.4499999999998567, 0.25323162174559494 
1.4599999999998556, 0.2699292192616379 
1.4699999999998545, 0.2775623447059567 
1.4799999999998534, 0.2810843392388197 
1.4899999999998523, 0.2825833375467718 
1.4999999999998512, 0.2829596130805098 
1.5099999999998501, 0.2826422037516186 
1.519999999999849, 0.28188924992572517 
1.529999999999848, 0.2809138242152905 
1.5399999999998468, 0.27992064346165463 
1.5499999999998457, 0.27909736577186084 
1.5599999999998446, 0.2785996027817298 
1.5699999999998435, 0.2785520694993877 
1.5799999999998424, 0.2790586828119704 
1.5899999999998413, 0.28019524545698715 
1.5999999999998402, 0.2819623247395898 
1.6099999999998391, 0.2842120968306877 
1.619999999999838, 0.2866223498197834 
1.629999999999837, 0.2887893469217174 
1.6399999999998358, 0.2903842288750384 
1.6499999999998347, 0.2912248279609252 
1.6599999999998336, 0.2912082582994876 
1.6699999999998325, 0.29016377226781825 
1.6799999999998314, 0.2876643535057574 
1.6899999999998303, 0.2827621508823392 
1.6999999999998292, 0.2736563330666465 
1.709999999999828, 0.2578221797139923 
1.719999999999827, 0.2343567001075196 
1.729999999999826, 0.20828971617870926 
1.7399999999998248, 0.18797165059061208 
1.7499999999998237, 0.1761694810440548 
1.7599999999998226, 0.17031912018394865 
1.7699999999998215, 0.1675176557159318 
1.7799999999998204, 0.1661096230860863 
1.7899999999998193, 0.16532131848973683 
1.7999999999998182, 0.1647953523849434 
1.809999999999817, 0.16433961737188002 
1.819999999999816, 0.1638082677597759 
1.8299999999998149, 0.16303641341104574 
1.8399999999998138, 0.16178183601251636 
1.8499999999998127, 0.1596279452305764 
1.8599999999998116, 0.15575812742887207 
1.8699999999998105, 0.1483590364814868 
1.8799999999998094, 0.13290329782453994 
1.8899999999998083, 0.09697240674292654 
1.8999999999998072, 0.007283343397467737 
1.909999999999806, -0.18573569672952916 
1.919999999999805, -0.4214686356595651 
1.9299999999998039, -0.5639229605475116 
1.9399999999998028, -0.6243468735948132 
1.9499999999998017, -0.6492037174724531 
1.9599999999998006, -0.6601914152481592 
1.9699999999997995, -0.6653770539634549 
1.9799999999997984, -0.6678360040633453 
1.9899999999997973, -0.6688011052976436 
1.9999999999997962, -0.6687313329680815 
2.0099999999998173, -0.6676619462697361 
2.0199999999998384, -0.6652640903887879 
2.0299999999998595, -0.6607460072341453 
2.0399999999998806, -0.6527050198093141 
2.0499999999999017, -0.639283174604304 
2.059999999999923, -0.6193275935600606 
2.069999999999944, -0.594374633046693 
2.079999999999965, -0.5687308706216181 
2.089999999999986, -0.5464272662366292 
2.100000000000007, -0.5289844757712487 
2.1100000000000283, -0.5159892243646227 
2.1200000000000494, -0.506410564779 
2.1300000000000705, -0.49929508783121435 
2.1400000000000916, -0.493940168729902 
2.1500000000001127, -0.48987170054195756 
2.160000000000134, -0.48678378133612876 
2.170000000000155, -0.4844858021566264 
2.180000000000176, -0.4828638879855359 
2.190000000000197, -0.4818548081446724 
2.2000000000002182, -0.48142962506731674 
2.2100000000002393, -0.48158504527162516 
2.2200000000002604, -0.48234133911955424 
2.2300000000002815, -0.4837466109800328 
2.2400000000003026, -0.4858881370826227 
2.2500000000003237, -0.4889125007079514 
2.260000000000345, -0.49305736391514055 
2.270000000000366, -0.4986986258935503 
2.280000000000387, -0.5064152856872435 
2.290000000000408, -0.5170607222009942 
2.3000000000004293, -0.5317720813170352 
2.3100000000004504, -0.5516928827271822 
2.3200000000004715, -0.5769953372876866 
2.3300000000004926, -0.6052940520255329 
2.3400000000005137, -0.6315487759322809 
2.3500000000005348, -0.6513658558614153 
2.360000000000556, -0.6639524744713954 
2.370000000000577, -0.6710763658619522 
2.380000000000598, -0.674795345745524 
2.390000000000619, -0.6765061734949273 
2.4000000000006403, -0.6769487866760844 
2.4100000000006614, -0.6763986188146084 
2.4200000000006825, -0.6747582832775464 
2.4300000000007036, -0.6714634791244313 
2.4400000000007247, -0.665046183160844 
2.450000000000746, -0.651822980162277 
2.460000000000767, -0.6220548771753214 
2.470000000000788, -0.5500248922993625 
2.480000000000809, -0.3875503839184164 
2.49000000000083, -0.14919367901993938 
2.5000000000008513, 0.021882483734698605 
2.5100000000008724, 0.09699876467488852 
2.5200000000008935, 0.12718966657229552 
2.5300000000009146, 0.14026518779281574 
2.5400000000009357, 0.1464454192950035 
2.550000000000957, 0.14953077523061495 
2.560000000000978, 0.15108224879121285 
2.570000000000999, 0.1518203593132908 
2.58000000000102, 0.15212066810139332 
2.5900000000010412, 0.15220510253668795 
2.6000000000010624, 0.1522274046313386 
2.6100000000010835, 0.15232907081629557 
2.6200000000011046, 0.1527090332299739 
2.6300000000011257, 0.1537603163073653 
2.6400000000011468, 0.156374787876681 
2.650000000001168, 0.16253934530469044 
2.660000000001189, 0.17584069807922584 
2.67000000000121, 0.1993658046907849 
2.680000000001231, 0.2291739121816913 
2.6900000000012523, 0.2548943239175584 
2.7000000000012734, 0.2713565043686431 
2.7100000000012945, 0.28033126248576196 
2.7200000000013156, 0.2848680887197327 
2.7300000000013367, 0.2869478316978181 
2.740000000001358, 0.2875724253671006 
2.750000000001379, 0.2871943154989364 
2.7600000000014, 0.2860114726647013 
2.770000000001421, 0.2841587582001263 
2.780000000001442, 0.2818379308599875 
2.7900000000014633, 0.2793600198434737 
2.8000000000014844, 0.2770725611353877 
2.8100000000015055, 0.275238346158629 
2.8200000000015266, 0.2739773615567358 
2.8300000000015477, 0.27329573208911434 
2.840000000001569, 0.2731405028297536 
2.85000000000159, 0.27342818614743736 
2.860000000001611, 0.27404117762742225 
2.870000000001632, 0.27481553981397155 
2.8800000000016532, 0.2755471357925006 
2.8900000000016743, 0.2760194193460296 
2.9000000000016954, 0.2760215363948602 
2.9100000000017165, 0.2753140079390163 
2.9200000000017377, 0.2735074858444718 
2.9300000000017588, 0.2697927600559503 
2.94000000000178, 0.2623455648193011 
2.950000000001801, 0.24708109923860722 
2.960000000001822, 0.21621905614561293 
2.970000000001843, 0.16302003781481816 
2.9800000000018643, 0.1010455717409581 
2.9900000000018854, 0.058029550987796774 
3.0000000000019065, 0.037873171844005155 
3.0100000000019276, 0.029778948792257814 
3.0200000000019487, 0.026440327206839677 
3.03000000000197, 0.024874534524223276 
3.040000000001991, 0.023999328656598547 
3.050000000002012, 0.023411260793566726 
3.060000000002033, 0.02293782030176035 
3.070000000002054, 0.02247654697195031 
3.0800000000020753, 0.02192900974534706 
3.0900000000020964, 0.021163960355299206 
3.1000000000021175, 0.01998322978089228 
3.1100000000021386, 0.018067294053134265 
3.1200000000021597, 0.014859082881007879 
3.130000000002181, 0.00929901721845795 
3.140000000002202, -0.0007447977966802839 
3.150000000002223, -0.01935176382339384 
3.160000000002244, -0.05517789507753371 
3.1700000000022652, -0.11694704397065733 
3.1800000000022863, -0.19602070369859115 
3.1900000000023074, -0.2616101567836198 
3.2000000000023285, -0.29929673518948874 
3.2100000000023496, -0.3175314279770267 
3.2200000000023707, -0.3261787963873645 
3.230000000002392, -0.33043143066376485 
3.240000000002413, -0.3325602331533657 
3.250000000002434, -0.3335338563298474 
3.260000000002455, -0.3337619849059538 
3.2700000000024763, -0.3333988734922041 
3.2800000000024974, -0.3324768389666086 
3.2900000000025185, -0.33098932088132305 
3.3000000000025396, -0.3289717964102038 
3.3100000000025607, -0.32657390800276126 
3.3200000000025818, -0.32406913849581476 
3.330000000002603, -0.32177053760088237 
3.340000000002624, -0.3199161452447141 
3.350000000002645, -0.3186174400883598 
3.360000000002666, -0.31788020146162677 
3.3700000000026873, -0.3176428530814819 
3.3800000000027084, -0.317795769515438 
3.3900000000027295, -0.3181882041952693 
3.4000000000027506, -0.3186470756995054 
3.4100000000027717, -0.3190140076821533 
3.420000000002793, -0.3191780606682588 
3.430000000002814, -0.31908037525372973 
3.440000000002835, -0.3186920065401183 
3.450000000002856, -0.3179806213500489 
3.460000000002877, -0.31687182569519257 
3.4700000000028983, -0.3151859634960809 
3.4800000000029194, -0.31247566568246915 
3.4900000000029405, -0.3074889167463921 
3.5000000000029616, -0.29612833925675575 
3.5100000000029827, -0.26332615168085366 
3.520000000003004, -0.1588130602802091 
3.530000000003025, 0.07636263453138813 
3.540000000003046, 0.2887793802565819 
3.550000000003067, 0.3748284896535813 
3.5600000000030882, 0.4037098148031858 
3.5700000000031094, 0.4144030456921558 
3.5800000000031305, 0.4187742609610533 
3.5900000000031516, 0.4205483618422913 
3.6000000000031727, 0.42105799558504947 
3.6100000000031938, 0.42085915690731684 
3.620000000003215, 0.420246075214265 
3.630000000003236, 0.4194351926848544 
3.640000000003257, 0.4186238386827954 
3.650000000003278, 0.4179931757616151 
3.6600000000032993, 0.417693937413752 
3.6700000000033204, 0.41783382272474023 
3.6800000000033415, 0.4184627854041052 
3.6900000000033626, 0.4195461673014084 
3.7000000000033837, 0.4209372236394908 
3.710000000003405, 0.42238750914410367 
3.720000000003426, 0.4236147911611717 
3.730000000003447, 0.4243803811520991 
3.740000000003468, 0.42449865834380923 
3.750000000003489, 0.4237451698490463 
3.7600000000035103, 0.42164415201288863 
3.7700000000035314, 0.4169942741616473 
3.7800000000035525, 0.4066084856971563 
3.7900000000035736, 0.3819115946358592 
3.8000000000035947, 0.32378724350328136 
3.810000000003616, 0.22215294395003923 
3.820000000003637, 0.13261009071462568 
3.830000000003658, 0.09486209803962292 
3.840000000003679, 0.08470595802512039 
3.8500000000037002, 0.08257653026745368 
3.8600000000037213, 0.08225944225425642 
3.8700000000037424, 0.08222037197089743 
3.8800000000037635, 0.08211633016651664 
3.8900000000037847, 0.08187291060241979 
3.9000000000038058, 0.0814542754094557 
3.910000000003827, 0.08079745189537482 
3.920000000003848, 0.07977684745443651 
3.930000000003869, 0.07815534884849809 
3.94000000000389, 0.07548261503154684 
3.9500000000039113, 0.07085295655245398 
3.9600000000039324, 0.062277197884702165 
3.9700000000039535, 0.044920385115723646 
3.9800000000039746, 0.005929146164107349 
3.9900000000039957, -0.08813371597240088 
4.000000000004016, -0.29248224359718156 
4.010000000003993, -0.5590073659467009 
4.02000000000397, -0.732995410017766 
4.030000000003946, -0.8091256122456365 
4.040000000003923, -0.8399073094139553 
4.0500000000039, -0.8528789178944528 
4.0600000000038765, -0.8586111840979515 
4.070000000003853, -0.8610959495649249 
4.08000000000383, -0.8618732752418449 
4.090000000003807, -0.8614585297723079 
4.100000000003783, -0.8597720793529993 
4.11000000000376, -0.8560769947903056 
4.120000000003737, -0.8483493165699858 
4.130000000003713, -0.8312966262615685 
4.14000000000369, -0.7904443673248205 
4.150000000003667, -0.686791292569165 
4.1600000000036434, -0.45136418006879236 
4.17000000000362, -0.1376506279961091 
4.180000000003597, 0.050675882479267145 
4.1900000000035735, 0.12342072936159758 
4.20000000000355, 0.15119232680413847 
4.210000000003527, 0.16302430494197145 
4.220000000003504, 0.1685831349199765 
4.23000000000348, 0.17134358539078548 
4.240000000003457, 0.17271954775313555 
4.250000000003434, 0.17336350189684774 
4.26000000000341, 0.17361621058128907 
4.270000000003387, 0.17368076587479492 
4.280000000003364, 0.173704692004608 
4.2900000000033405, 0.1738427443209006 
4.300000000003317, 0.17435061233484134 
4.310000000003294, 0.17578716864804886 
4.320000000003271, 0.17946898932035274 
4.330000000003247, 0.18823565830811256 
4.340000000003224, 0.20634272617217014 
4.350000000003201, 0.23468829636548444 
4.360000000003177, 0.26473191625403236 
4.370000000003154, 0.28669443800299665 
4.380000000003131, 0.29935452143356384 
4.390000000003107, 0.3058944897704311 
4.400000000003084, 0.30904483213318157 
4.410000000003061, 0.3102985126855771 
4.4200000000030375, 0.31034901959042227 
4.430000000003014, 0.30948399338763277 
4.440000000002991, 0.3078301328327012 
4.450000000002968, 0.30552583423520846 
4.460000000002944, 0.3028322642693948 
4.470000000002921, 0.30012621970841435 
4.480000000002898, 0.297771115113005 
4.490000000002874, 0.2959871965659741 
4.500000000002851, 0.29482973700121434 
4.510000000002828, 0.2942490597746936 
4.520000000002804, 0.2941502287934383 
4.530000000002781, 0.29441503972385175 
4.540000000002758, 0.2948976163449793 
4.5500000000027345, 0.2954201556748085 
4.560000000002711, 0.29578332723154915 
4.570000000002688, 0.2957780860929585 
4.580000000002665, 0.29516350440428435 
4.590000000002641, 0.2935676924542548 
4.600000000002618, 0.2902385625543624 
4.610000000002595, 0.283437053868806 
4.620000000002571, 0.2689201978180148 
4.630000000002548, 0.23680631025213095 
4.640000000002525, 0.17169043069361434 
4.6500000000025015, 0.08003600971801252 
4.660000000002478, 0.009528583621305594 
4.670000000002455, -0.022458712846584225 
4.6800000000024315, -0.03394134930187053 
4.690000000002408, -0.037996092209617124 
4.700000000002385, -0.0395295800877792 
4.710000000002362, -0.04015245277342379 
4.720000000002338, -0.04040634888563798 
4.730000000002315, -0.040493913188543805 
4.740000000002292, -0.04051204703373263 
4.750000000002268, -0.040535217918306755 
4.760000000002245, -0.040653624595802226 
4.770000000002222, -0.04099830990007949 
4.7800000000021985, -0.04176702399534234 
4.790000000002175, -0.04326764492725417 
4.800000000002152, -0.04601058028027822 
4.810000000002129, -0.05090402569858513 
4.820000000002105, -0.059623399357982144 
4.830000000002082, -0.07512152690336356 
4.840000000002059, -0.10149420222220204 
4.850000000002035, -0.14052020070486798 
4.860000000002012, -0.184734406868368 
4.870000000001989, -0.22057684155341048 
4.880000000001965, -0.24263564897169831 
4.890000000001942, -0.2543801181672261 
4.900000000001919, -0.26038271682903374 
4.9100000000018955, -0.2634394984899632 
