t, s[1].omega / s[0].omega 
0, -0.38209954444232797 
0.009999999999999995, -0.6916935173194139 
0.019999999999999934, -1.1162179067554845 
0.029999999999999874, -1.380715811294938 
0.04000000000000012, -1.477236601539701 
0.050000000000000405, -1.508306626371819 
0.06000000000000069, -1.5186272872181017 
0.07000000000000098, -1.5220118454272697 
0.08000000000000126, -1.5227195641870437 
0.09000000000000155, -1.5222978488621979 
0.10000000000000184, -1.5218735553691263 
0.11000000000000212, -1.5228144852112995 
0.12000000000000241, -1.5256606526363055 
0.130000000000002, -1.5293087153377667 
0.1400000000000009, -1.5325160508059228 
0.1499999999999998, -1.534926626894189 
0.1599999999999987, -1.5366483564534903 
0.1699999999999976, -1.5377604498372341 
0.1799999999999965, -1.5382271200312512 
0.1899999999999954, -1.5379840938158393 
0.1999999999999943, -1.5369868529707147 
0.2099999999999932, -1.5352010310767765 
0.2199999999999921, -1.5325647828617885 
0.229999999999991, -1.5289416763722161 
0.2399999999999899, -1.5240621758449033 
0.2499999999999888, -1.5174266160336196 
0.2599999999999877, -1.5082142018253333 
0.2699999999999866, -1.495610455530206 
0.2799999999999855, -1.4805532673376012 
0.2899999999999844, -1.468056803240483 
0.2999999999999833, -1.4629852280394122 
0.3099999999999822, -1.4631430526621636 
0.3199999999999811, -1.464180436740588 
0.32999999999998, -1.4642040401675254 
0.3399999999999789, -1.462322413617756 
0.3499999999999778, -1.4562924406413225 
0.35999999999997667, -1.4375884167045299 
0.36999999999997557, -1.368071918899281 
0.37999999999997447, -1.0428976305506203 
0.38999999999997337, 0.09041154195479739 
0.39999999999997227, 0.7021865185789998 
0.40999999999997117, 0.7919970733626072 
0.41999999999997006, 0.8106073171994671 
0.42999999999996896, 0.8159711233978333 
0.43999999999996786, 0.8174284742897546 
0.44999999999996676, 0.8170315986269685 
0.45999999999996566, 0.8150727409719206 
0.46999999999996456, 0.8111761681839347 
0.47999999999996346, 0.8048612649802097 
0.48999999999996235, 0.796527688816151 
0.49999999999996125, 0.7882307155706181 
0.5099999999999602, 0.7822977192255994 
0.519999999999959, 0.7792165220239357 
0.529999999999958, 0.7780032982661332 
0.5399999999999568, 0.7775791178697661 
0.5499999999999557, 0.7772322604003266 
0.5599999999999546, 0.7764411633257845 
0.5699999999999535, 0.7744804570572541 
0.5799999999999524, 0.7694892397780094 
0.5899999999999513, 0.7544700928576573 
0.5999999999999502, 0.6884371678529807 
0.6099999999999491, 0.08866051544815909 
0.619999999999948, -2.303673920599138 
0.6299999999999469, -2.7130677445012426 
0.6399999999999458, -2.7619837990190663 
0.6499999999999447, -2.772659599457893 
0.6599999999999436, -2.775177924055501 
0.6699999999999425, -2.7748996311534735 
0.6799999999999414, -2.772869866016763 
0.6899999999999403, -2.767844385669981 
0.6999999999999392, -2.755793224671612 
0.7099999999999381, -2.7450852314235727 
0.719999999999937, -2.748096392483838 
0.7299999999999359, -2.749808311668752 
0.7399999999999348, -2.7482383127656433 
0.7499999999999337, -2.7453893359807227 
0.7599999999999326, -2.7511790832380285 
0.7699999999999315, -2.759226706541932 
0.7799999999999304, -2.762500850878575 
0.7899999999999293, -2.763414656586616 
0.7999999999999282, -2.7627834027640743 
0.8099999999999271, -2.759233838045632 
0.819999999999926, -2.746018832801614 
0.8299999999999249, -2.68059933484018 
0.8399999999999238, -2.04680152076419 
0.8499999999999227, 0.319290903968055 
0.8599999999999216, 0.7075843006254663 
0.8699999999999205, 0.755969525656749 
0.8799999999999194, 0.767573615039508 
0.8899999999999183, 0.7712993929690664 
0.8999999999999172, 0.772539272320387 
0.9099999999999161, 0.7728218814245502 
0.919999999999915, 0.7727806444014326 
0.9299999999999139, 0.7728500314277414 
0.9399999999999128, 0.7734843866553502 
0.9499999999999117, 0.7751645953058397 
0.9599999999999106, 0.7781577095355395 
0.9699999999999095, 0.7821403543072003 
0.9799999999999084, 0.7862046331403308 
0.9899999999999073, 0.7894604638056687 
0.9999999999999062, 0.7915179062058676 
1.0099999999999052, 0.7923694766074754 
1.019999999999904, 0.7919912255820974 
1.029999999999903, 0.7898544657559494 
1.039999999999902, 0.7836946203710028 
1.0499999999999008, 0.7634166359815329 
1.0599999999998997, 0.6620821529980878 
1.0699999999998986, -0.1735738641865076 
1.0799999999998975, -1.6583054828314303 
1.0899999999998964, -1.924189394045973 
1.0999999999998953, -1.9652186840858985 
1.1099999999998942, -1.9742414912886885 
1.119999999999893, -1.976285704582788 
1.129999999999892, -1.9762137730293332 
1.1399999999998909, -1.9757965569585842 
1.1499999999998898, -1.9762410153982697 
1.1599999999998887, -1.977301047551967 
1.1699999999998876, -1.978009116674842 
1.1799999999998865, -1.9782799054691396 
1.1899999999998854, -1.9783918767908282 
1.1999999999998843, -1.978052743115168 
1.2099999999998832, -1.9763812555684823 
1.219999999999882, -1.9715643094319701 
1.229999999999881, -1.9587990179270662 
1.2399999999998799, -1.9241081921735659 
1.2499999999998788, -1.8247601885922737 
1.2599999999998777, -1.5360380830007014 
1.2699999999998766, -0.9164257123943645 
1.2799999999998755, -0.3661475650564868 
1.2899999999998744, -0.13976650704558596 
1.2999999999998733, -0.05847985831794426 
1.3099999999998722, -0.02541586061724512 
1.319999999999871, -0.010020436367349997 
1.32999999999987, -0.002104495817372777 
1.3399999999998689, 0.0019393157100860796 
1.3499999999998678, 0.0038010226918829826 
1.3599999999998666, 0.004361181152221421 
1.3699999999998655, 0.003860247753155304 
1.3799999999998644, 0.0022219049911788137 
1.3899999999998633, -0.0008798212039683158 
1.3999999999998622, -0.0062794864915973 
1.4099999999998611, -0.016735415145876904 
1.41999999999986, -0.03826475232049154 
1.429999999999859, -0.08762921830227369 
1.4399999999998578, -0.21720604568230506 
1.4499999999998567, -0.575260172687471 
1.4599999999998556, -1.2311423434138717 
1.4699999999998545, -1.7010975217186661 
1.4799999999998534, -1.876671174003501 
1.4899999999998523, -1.9346778400725355 
1.4999999999998512, -1.9544418291411354 
1.5099999999998501, -1.9612669790897175 
1.519999999999849, -1.9633338715207895 
1.529999999999848, -1.9634681905468174 
1.5399999999998468, -1.9628739778590663 
1.5499999999998457, -1.9621555374370616 
1.5599999999998446, -1.9612368140140497 
1.5699999999998435, -1.959868044323431 
1.5799999999998424, -1.958591022417993 
1.5899999999998413, -1.9581236349760835 
1.5999999999998402, -1.9578676854545154 
1.6099999999998391, -1.956419293480972 
1.619999999999838, -1.9511874310046988 
1.629999999999837, -1.9320795430652242 
1.6399999999998358, -1.8411210265044768 
1.6499999999998347, -1.2625119671069152 
1.6599999999998336, 0.10296755981967871 
1.6699999999998325, 0.47373715866616123 
1.6799999999998314, 0.5372384481901441 
1.6899999999998303, 0.5539387534812211 
1.6999999999998292, 0.5596697020306403 
1.709999999999828, 0.5617671900633546 
1.719999999999827, 0.562299646856245 
1.729999999999826, 0.5620043976309053 
1.7399999999998248, 0.5612329168381296 
1.7499999999998237, 0.560243727985351 
1.7599999999998226, 0.5592927969358519 
1.7699999999998215, 0.5586311713131517 
1.7799999999998204, 0.5584600330204595 
1.7899999999998193, 0.5588780050829252 
1.7999999999998182, 0.5598394191824434 
1.809999999999817, 0.5611442888557828 
1.819999999999816, 0.5624877495249044 
1.8299999999998149, 0.5635566712435112 
1.8399999999998138, 0.5640972312654278 
1.8499999999998127, 0.5638779566539435 
1.8599999999998116, 0.5625067832790387 
1.8699999999998105, 0.5589515780634521 
1.8799999999998094, 0.5499461697957768 
1.8899999999998083, 0.5226801706232352 
1.8999999999998072, 0.40798071094360777 
1.909999999999806, -0.19838216961607938 
1.919999999999805, -1.1981670874424304 
1.9299999999998039, -1.4953908313590558 
1.9399999999998028, -1.557548199503505 
1.9499999999998017, -1.5735161029279896 
1.9599999999998006, -1.5781585575040835 
1.9699999999997995, -1.5791398628531925 
1.9799999999997984, -1.578577519861761 
1.9899999999997973, -1.5777311946333534 
1.9999999999997962, -1.5786718085091391 
2.0099999999998173, -1.5829882759757032 
2.0199999999998384, -1.5890794034148437 
2.0299999999998595, -1.5944501563755096 
2.0399999999998806, -1.5983360287062798 
2.0499999999999017, -1.6009943348304616 
2.059999999999923, -1.6027276869037022 
2.069999999999944, -1.603661951446877 
2.079999999999965, -1.6038327423028211 
2.089999999999986, -1.6032499007770702 
2.100000000000007, -1.6018971246597502 
2.1100000000000283, -1.5997065852464698 
2.1200000000000494, -1.5965267504459764 
2.1300000000000705, -1.5920631635804037 
2.1400000000000916, -1.585752883268891 
2.1500000000001127, -1.5766800482078769 
2.160000000000134, -1.5641997286141498 
2.170000000000155, -1.5504287834369972 
2.180000000000176, -1.5414711281281641 
2.190000000000197, -1.539681474341034 
2.2000000000002182, -1.5407594814234113 
2.2100000000002393, -1.5413689886949924 
2.2200000000002604, -1.5403747294697914 
2.2300000000002815, -1.5362605430946883 
2.2400000000003026, -1.5233045534371512 
2.2500000000003237, -1.476157485267963 
2.260000000000345, -1.2577340884231203 
2.270000000000366, -0.09648861153774971 
2.280000000000387, 1.2217950031480973 
2.290000000000408, 1.3380102961513924 
2.3000000000004293, 1.352903572199899 
2.3100000000004504, 1.3559487750722068 
2.3200000000004715, 1.3556672083503336 
2.3300000000004926, 1.3523150180149137 
2.3400000000005137, 1.3408309715324918 
2.3500000000005348, 1.2989684510585127 
2.360000000000556, 1.200624364473759 
2.370000000000577, 1.1684699293421825 
2.380000000000598, 1.1831280338595676 
2.390000000000619, 1.191303522723158 
2.4000000000006403, 1.19417669418164 
2.4100000000006614, 1.1944609159720971 
2.4200000000006825, 1.1926745031740373 
2.4300000000007036, 1.1876444012882146 
2.4400000000007247, 1.176997712066503 
2.450000000000746, 1.175340253415407 
2.460000000000767, 1.2414158782328693 
2.470000000000788, 1.3030019654675653 
2.480000000000809, 1.3230637673909504 
2.49000000000083, 1.3287355944459533 
2.5000000000008513, 1.3298981757999344 
2.5100000000008724, 1.3284459367043193 
2.5200000000008935, 1.3218893620030898 
2.5300000000009146, 1.2890180905132596 
2.5400000000009357, 0.9243239455962395 
2.550000000000957, -0.981734657658331 
2.560000000000978, -1.585999023043412 
2.570000000000999, -1.6833012772934393 
2.58000000000102, -1.7040408585479696 
2.5900000000010412, -1.7094416226767801 
2.6000000000010624, -1.7105032335397787 
2.6100000000010835, -1.7098498283440589 
2.6200000000011046, -1.7089644808896012 
2.6300000000011257, -1.7103010567679107 
2.6400000000011468, -1.715042477037627 
2.650000000001168, -1.720656392329585 
2.660000000001189, -1.724934150944522 
2.67000000000121, -1.727720061434414 
2.680000000001231, -1.7294377347825711 
2.6900000000012523, -1.7302930750657353 
2.7000000000012734, -1.7302803900395607 
2.7100000000012945, -1.7293156726745955 
2.7200000000013156, -1.7272678772819745 
2.7300000000013367, -1.723915970641223 
2.740000000001358, -1.7188371227324049 
2.750000000001379, -1.7111606214137591 
2.7600000000014, -1.6990486550733208 
2.770000000001421, -1.679014451970779 
2.780000000001442, -1.6476080309426664 
2.7900000000014633, -1.6131427412987418 
2.8000000000014844, -1.59772351170349 
2.8100000000015055, -1.599024362432889 
2.8200000000015266, -1.6023477677330025 
2.8300000000015477, -1.603644468749867 
2.840000000001569, -1.6027662851066562 
2.85000000000159, -1.598670180895555 
2.860000000001611, -1.5869917073700877 
2.870000000001632, -1.5596521890344328 
2.8800000000016532, -1.5678601542873827 
2.8900000000016743, -1.844191784790701 
2.9000000000016954, -2.103513881139506 
2.9100000000017165, -2.1849052150903687 
2.9200000000017377, -2.211384548982502 
2.9300000000017588, -2.222065510807021 
2.94000000000178, -2.226771662504639 
2.950000000001801, -2.2285561160448504 
2.960000000001822, -2.228553335990319 
2.970000000001843, -2.227149212570723 
2.9800000000018643, -2.2241648371168066 
2.9900000000018854, -2.2183622915431993 
3.0000000000019065, -2.2071305558903695 
3.0100000000019276, -2.1927893044490383 
3.0200000000019487, -2.1889432466195506 
3.03000000000197, -2.1916181376663904 
3.040000000001991, -2.192580674326474 
3.050000000002012, -2.1907610641352573 
3.060000000002033, -2.18472152452891 
3.070000000002054, -2.1807795418474987 
3.0800000000020753, -2.208075608838655 
3.0900000000020964, -2.23905130908451 
3.1000000000021175, -2.2533359875309324 
3.1100000000021386, -2.2593382807516256 
3.1200000000021597, -2.261929069822874 
3.130000000002181, -2.2626665341274035 
3.140000000002202, -2.2619230642705777 
3.150000000002223, -2.259493693142467 
3.160000000002244, -2.254422161984918 
3.1700000000022652, -2.243724483735569 
3.1800000000022863, -2.2172403969702965 
3.1900000000023074, -2.144330384067532 
3.2000000000023285, -2.040503430689408 
3.2100000000023496, -2.0372937440358303 
3.2200000000023707, -2.0528471301684137 
3.230000000002392, -2.0579032545698985 
3.240000000002413, -2.0584784761887094 
3.250000000002434, -2.0568434783592524 
3.260000000002455, -2.0551784851495816 
3.2700000000024763, -2.0595647637133476 
3.2800000000024974, -2.0689745959072416 
3.2900000000025185, -2.0759787814672856 
3.3000000000025396, -2.0797078072871606 
3.3100000000025607, -2.0815347489157925 
3.3200000000025818, -2.0821110713379825 
3.330000000002603, -2.0814494940359998 
3.340000000002624, -2.0792010765068407 
3.350000000002645, -2.074555062130968 
3.360000000002666, -2.0656694507149194 
3.3700000000026873, -2.0477042178696023 
3.3800000000027084, -2.005555706384672 
3.3900000000027295, -1.891457739665612 
3.4000000000027506, -1.6687795634834217 
3.4100000000027717, -1.562089523788215 
3.420000000002793, -1.5758691976322172 
3.430000000002814, -1.5909782142163127 
3.440000000002835, -1.5968507107511456 
3.450000000002856, -1.5983581017776787 
3.460000000002877, -1.5974355286355573 
3.4700000000028983, -1.5941031256410447 
3.4800000000029194, -1.5888701231995086 
3.4900000000029405, -1.5919550492684442 
3.5000000000029616, -1.6244531413545906 
3.5100000000029827, -1.6716290111357572 
3.520000000003004, -1.7053864880585905 
3.530000000003025, -1.7248170793286761 
3.540000000003046, -1.7360959099583368 
3.550000000003067, -1.7429989748962726 
3.5600000000030882, -1.7473012744190846 
3.5700000000031094, -1.7498302240834303 
3.5800000000031305, -1.7510047410240641 
3.5900000000031516, -1.7510695291066019 
3.6000000000031727, -1.7501914818819144 
3.6100000000031938, -1.7484780341776116 
3.620000000003215, -1.7458936566449648 
3.630000000003236, -1.7421298987672078 
3.640000000003257, -1.7369232021010919 
3.650000000003278, -1.7313536616565863 
3.6600000000032993, -1.7281482021553525 
3.6700000000033204, -1.7278442836725785 
3.6800000000033415, -1.728151090871593 
3.6900000000033626, -1.727290117122473 
3.7000000000033837, -1.723439682937742 
3.710000000003405, -1.7102165921222272 
3.720000000003426, -1.6551283035114093 
3.730000000003447, -1.3375105330205492 
3.740000000003468, 0.3241612146050111 
3.750000000003489, 1.1885930973098826 
3.7600000000035103, 1.2568454134169715 
3.7700000000035314, 1.2677125074530653 
3.7800000000035525, 1.2700460293722216 
3.7900000000035736, 1.2695131673439453 
3.8000000000035947, 1.266047252053482 
3.810000000003616, 1.2554671805430484 
3.820000000003637, 1.2239523891976436 
3.830000000003658, 1.1631099341381597 
3.840000000003679, 1.1351261031715674 
3.8500000000037002, 1.140951119213105 
3.8600000000037213, 1.1469617056455141 
3.8700000000037424, 1.14952944691226 
3.8800000000037635, 1.1498676820159663 
3.8900000000037847, 1.148170433746632 
3.9000000000038058, 1.142817847664109 
3.910000000003827, 1.1278802468328963 
3.920000000003848, 1.0995208436989192 
3.930000000003869, 1.189223439411087 
3.94000000000389, 1.3409499941712304 
3.9500000000039113, 1.380062540420128 
3.9600000000039324, 1.388793684597267 
3.9700000000039535, 1.3906935693314915 
3.9800000000039746, 1.3896975359074348 
3.9900000000039957, 1.384244446177053 
4.000000000004016, 1.3583172972780242 
4.010000000003993, 1.123778932792473 
4.02000000000397, -0.0006931221156670734 
4.030000000003946, -0.3223689824200425 
4.040000000003923, -0.3588243056202969 
4.0500000000039, -0.3669826644084455 
4.0600000000038765, -0.3707415417813791 
4.070000000003853, -0.37305105746819944 
4.08000000000383, -0.3745224247660912 
4.090000000003807, -0.3753830538452812 
4.100000000003783, -0.3757404667805755 
4.11000000000376, -0.3756370665386103 
4.120000000003737, -0.3750806158629442 
4.130000000003713, -0.37408370425846293 
4.14000000000369, -0.37271559103943835 
4.150000000003667, -0.3711411472804465 
4.1600000000036434, -0.36960528466715203 
4.17000000000362, -0.36836030410177795 
4.180000000003597, -0.36759553309602466 
4.1900000000035735, -0.3674186467517433 
4.20000000000355, -0.3678706807988422 
4.210000000003527, -0.36892717830648214 
4.220000000003504, -0.3704678042339541 
4.23000000000348, -0.3722509967623297 
4.240000000003457, -0.37395640309937217 
4.250000000003434, -0.3752964231791831 
4.26000000000341, -0.3761047309039386 
4.270000000003387, -0.37633030134622697 
4.280000000003364, -0.37596487299852005 
4.2900000000033405, -0.3749594913076677 
4.300000000003317, -0.37313556648608237 
4.310000000003294, -0.37002129711672144 
4.320000000003271, -0.3643645945910533 
4.330000000003247, -0.35223330054164514 
4.340000000003224, -0.3177309484844274 
4.350000000003201, -0.18223216584612545 
4.360000000003177, 0.28102799266159717 
4.370000000003154, 0.6852040933202378 
4.380000000003131, 0.7811484624013878 
4.390000000003107, 0.8031277989940475 
4.400000000003084, 0.8095783188313996 
4.410000000003061, 0.811436245782368 
4.4200000000030375, 0.8111641430071799 
4.430000000003014, 0.8090321116828418 
4.440000000002991, 0.8042004569042378 
4.450000000002968, 0.7949792871869381 
4.460000000002944, 0.7803269985114475 
4.470000000002921, 0.7636171818010957 
4.480000000002898, 0.7516311745862528 
4.490000000002874, 0.7463460196771029 
4.500000000002851, 0.7449495198455937 
4.510000000002828, 0.7448675181747827 
4.520000000002804, 0.7448934563353402 
4.530000000002781, 0.744477382910931 
4.540000000002758, 0.7430861744202073 
4.5500000000027345, 0.7395040321062267 
4.560000000002711, 0.7296795888240445 
4.570000000002688, 0.694550466200339 
4.580000000002665, 0.4762219803515525 
4.590000000002641, -1.4480413172769837 
4.600000000002618, -2.634530654014051 
4.610000000002595, -2.7451812075934194 
4.620000000002571, -2.765606660582952 
4.630000000002548, -2.7709017802272777 
4.640000000002525, -2.7718172001575807 
4.6500000000025015, -2.770662375169935 
4.660000000002478, -2.7673467787473403 
4.670000000002455, -2.7586860298499447 
4.6800000000024315, -2.7405366403537625 
4.690000000002408, -2.7350177881809583 
4.700000000002385, -2.739663002938735 
4.710000000002362, -2.7404668319444925 
4.720000000002338, -2.73834456214471 
4.730000000002315, -2.737591123323834 
4.740000000002292, -2.744344088993648 
4.750000000002268, -2.7494847541275087 
4.760000000002245, -2.751298589459023 
4.770000000002222, -2.751566550398928 
4.7800000000021985, -2.7501086270323456 
4.790000000002175, -2.7441224501720773 
4.800000000002152, -2.7190030869712265 
4.810000000002129, -2.5497888999520595 
4.820000000002105, -0.7829192845795758 
4.830000000002082, 0.6092813503575328 
4.840000000002059, 0.7390509614328072 
4.850000000002035, 0.7622636129383037 
4.860000000002012, 0.7688750249793903 
4.870000000001989, 0.7711019232279911 
4.880000000001965, 0.7717679665940719 
4.890000000001942, 0.7718116504415398 
4.900000000001919, 0.7716965268806565 
4.9100000000018955, 0.771781965224819 
4.920000000001872, 0.7724161887631403 
4.930000000001849, 0.7738730802218738 
4.940000000001826, 0.7761700435622418 
4.950000000001802, 0.7789355898462403 
4.960000000001779, 0.7815608174309885 
4.970000000001756, 0.7835439245284633 
