t, s[1].omega / s[0].omega 
0, -1.1999974315188466 
0.009999999999999995, -1.1995833613910905 
0.019999999999999934, -1.1988534558676827 
0.029999999999999874, -1.19780191818342 
0.04000000000000012, -1.1964390947305876 
0.050000000000000405, -1.1948061951517546 
0.06000000000000069, -1.1929769471193814 
0.07000000000000098, -1.191045513148421 
0.08000000000000126, -1.1891191485512804 
0.09000000000000155, -1.1873383636764459 
0.10000000000000184, -1.1858951511872278 
0.11000000000000212, -1.1849678313933367 
0.12000000000000241, -1.1845787594394523 
0.130000000000002, -1.184535097071961 
0.1400000000000009, -1.1845311154512905 
0.1499999999999998, -1.184270457451365 
0.1599999999999987, -1.1834898268668703 
0.1699999999999976, -1.181924279368499 
0.1799999999999965, -1.1793002674978976 
0.1899999999999954, -1.175394789064463 
0.1999999999999943, -1.1701206351545523 
0.2099999999999932, -1.1635469767564026 
0.2199999999999921, -1.1558231627082418 
0.229999999999991, -1.1470826477762586 
0.2399999999999899, -1.1374185957341603 
0.2499999999999888, -1.1269651877266 
0.2599999999999877, -1.1160816137628937 
0.2699999999999866, -1.1055723486116098 
0.2799999999999855, -1.0966900280320613 
0.2899999999999844, -1.0905851329278993 
0.2999999999999833, -1.0874732751429623 
0.3099999999999822, -1.0865082098495975 
0.3199999999999811, -1.0865260409253414 
0.32999999999998, -1.086683342564991 
0.3399999999999789, -1.0865135344882049 
0.3499999999999778, -1.0856987814611536 
0.35999999999997667, -1.083830716339306 
0.36999999999997557, -1.0802091233016202 
0.37999999999997447, -1.0737038196022834 
0.38999999999997337, -1.0628534227587676 
0.39999999999997227, -1.046457538999102 
0.40999999999997117, -1.024468987627229 
0.41999999999997006, -0.9982823021093579 
0.42999999999996896, -0.970013842154011 
0.43999999999996786, -0.9416357984994516 
0.44999999999996676, -0.9147156724443596 
0.45999999999996566, -0.8905746256317302 
0.46999999999996456, -0.8703864025584993 
0.47999999999996346, -0.854993515186871 
0.48999999999996235, -0.8445697637565445 
0.49999999999996125, -0.8384766977191465 
0.5099999999999602, -0.8355224719210981 
0.519999999999959, -0.8344411988918015 
0.529999999999958, -0.8342454127370944 
0.5399999999999568, -0.8343095074770096 
0.5499999999999557, -0.8342783433073278 
0.5599999999999546, -0.8339382848120703 
0.5699999999999535, -0.8331228043681455 
0.5799999999999524, -0.8316742128116239 
0.5899999999999513, -0.8294679596990644 
0.5999999999999502, -0.826486428064644 
0.6099999999999491, -0.8228798989053313 
0.619999999999948, -0.8189337067184548 
0.6299999999999469, -0.8149478511462421 
0.6399999999999458, -0.8111307528806384 
0.6499999999999447, -0.807575036699015 
0.6599999999999436, -0.8042945872393842 
0.6699999999999425, -0.8012749554358585 
0.6799999999999414, -0.7985097816239005 
0.6899999999999403, -0.7960168623177084 
0.6999999999999392, -0.7938373993395322 
0.7099999999999381, -0.7920251546355243 
0.719999999999937, -0.7906316596015381 
0.7299999999999359, -0.7896912036270858 
0.7399999999999348, -0.7892077342838687 
0.7499999999999337, -0.789146809795143 
0.7599999999999326, -0.7894371421540656 
0.7699999999999315, -0.7899837671818822 
0.7799999999999304, -0.7906888942795234 
0.7899999999999293, -0.7914728296432992 
0.7999999999999282, -0.7922888294203305 
0.8099999999999271, -0.7931283802146056 
0.819999999999926, -0.7940139963013164 
0.8299999999999249, -0.7949782021177392 
0.8399999999999238, -0.7960330707730883 
0.8499999999999227, -0.7971418297927431 
0.8599999999999216, -0.7982089607995209 
0.8699999999999205, -0.7991029032555624 
0.8799999999999194, -0.7997061403520304 
0.8899999999999183, -0.7999608761284887 
0.8999999999999172, -0.7998817849433212 
0.9099999999999161, -0.7995430053255214 
0.919999999999915, -0.7990686018709258 
0.9299999999999139, -0.7986446383909314 
0.9399999999999128, -0.7985472793885593 
0.9499999999999117, -0.7991605647890593 
0.9599999999999106, -0.8009477941111308 
0.9699999999999095, -0.8043596262379238 
0.9799999999999084, -0.8097146814473974 
0.9899999999999073, -0.8171284765968696 
0.9999999999999062, -0.8265374580948933 
1.0099999999999052, -0.8377891476387287 
1.019999999999904, -0.8507241205150777 
1.029999999999903, -0.8651845626377632 
1.039999999999902, -0.8809119821615351 
1.0499999999999008, -0.8973368099628078 
1.0599999999998997, -0.913377857984862 
1.0699999999998986, -0.9275538261067291 
1.0799999999998975, -0.9386038842325279 
1.0899999999998964, -0.9461542185134755 
1.0999999999998953, -0.9507191792225989 
1.1099999999998942, -0.9531569834981981 
1.119999999999893, -0.9542116894593576 
1.129999999999892, -0.9543748377281414 
1.1399999999998909, -0.9539407499303589 
1.1499999999998898, -0.9531391055849449 
1.1599999999998887, -0.9523433970980018 
1.1699999999998876, -0.9524060423732132 
1.1799999999998865, -0.9550505707630921 
1.1899999999998854, -0.9628686231003396 
1.1999999999998843, -0.9782662479349314 
1.2099999999998832, -1.0017150136533375 
1.219999999999882, -1.0311120835362753 
1.229999999999881, -1.063063895048104 
1.2399999999998799, -1.0945392090821584 
1.2499999999998788, -1.1234408364597857 
1.2599999999998777, -1.1483352507475781 
1.2699999999998766, -1.168205814572698 
1.2799999999998755, -1.1826251089102626 
1.2899999999998744, -1.1920218914731504 
1.2999999999998733, -1.197512681740172 
1.3099999999998722, -1.200364357575071 
1.319999999999871, -1.2015808814002509 
1.32999999999987, -1.201816529634245 
1.3399999999998689, -1.2014925742636413 
1.3499999999998678, -1.2009809993022638 
1.3599999999998666, -1.2007648844588243 
1.3699999999998655, -1.2014190574901038 
1.3799999999998644, -1.2032968651549054 
1.3899999999998633, -1.2062333416819806 
1.3999999999998622, -1.209701404571009 
1.4099999999998611, -1.2132061141828427 
1.41999999999986, -1.2164655082563398 
1.429999999999859, -1.2193629540933346 
1.4399999999998578, -1.2218599138657056 
1.4499999999998567, -1.2239485874340856 
1.4599999999998556, -1.2256297264608937 
1.4699999999998545, -1.2268969556594511 
1.4799999999998534, -1.2277302916300636 
1.4899999999998523, -1.2281065770750732 
1.4999999999998512, -1.2280221660045287 
1.5099999999998501, -1.2275123411363122 
1.519999999999849, -1.2266583338720398 
1.529999999999848, -1.2255831449950088 
1.5399999999998468, -1.2244316687732444 
1.5499999999998457, -1.2233319155898565 
1.5599999999998446, -1.222369520501347 
1.5699999999998435, -1.2216118714304047 
1.5799999999998424, -1.221136632088824 
1.5899999999998413, -1.2209854621404312 
1.5999999999998402, -1.221080634202653 
1.6099999999998391, -1.2212237642336614 
1.619999999999838, -1.2211763118295293 
1.629999999999837, -1.2207182306911282 
1.6399999999998358, -1.2196547933391317 
1.6499999999998347, -1.2178199030574874 
1.6599999999998336, -1.2151046238776462 
1.6699999999998325, -1.2114840928077637 
1.6799999999998314, -1.2070016933523278 
1.6899999999998303, -1.201715609243759 
1.6999999999998292, -1.195654602914161 
1.709999999999828, -1.188819176658893 
1.719999999999827, -1.181243199912879 
1.729999999999826, -1.1731349290760158 
1.7399999999998248, -1.1650828001969666 
1.7499999999998237, -1.158128148473378 
1.7599999999998226, -1.1533343872479462 
1.7699999999998215, -1.1509816775722832 
1.7799999999998204, -1.1503613985104115 
1.7899999999998193, -1.1504530755093823 
1.7999999999998182, -1.1505199842607323 
1.809999999999817, -1.1501335735866933 
1.819999999999816, -1.1489261033298184 
1.8299999999998149, -1.1463184686156305 
1.8399999999998138, -1.141245773928294 
1.8499999999998127, -1.1319272247724403 
1.8599999999998116, -1.1159876447059833 
1.8699999999998105, -1.091395856693359 
1.8799999999998094, -1.0579426835232013 
1.8899999999998083, -1.0178067690267045 
1.8999999999998072, -0.9745707111879669 
1.909999999999806, -0.9319590248414403 
1.919999999999805, -0.8932680046111112 
1.9299999999998039, -0.8611192604655991 
1.9399999999998028, -0.8370461640778641 
1.9499999999998017, -0.8210936750948898 
1.9599999999998006, -0.811919220163318 
1.9699999999997995, -0.8074697729653995 
1.9799999999997984, -0.8057754227156199 
1.9899999999997973, -0.8053995737242765 
1.9999999999997962, -0.805479152923645 
2.0099999999998173, -0.8055548340991301 
2.0199999999998384, -0.8053801019560197 
2.0299999999998595, -0.8047869944642162 
2.0399999999998806, -0.8036184243458214 
2.0499999999999017, -0.8017250278617005 
2.059999999999923, -0.7990243579626559 
2.069999999999944, -0.795586584581395 
2.079999999999965, -0.7916592317190909 
2.089999999999986, -0.7875757446385683 
2.100000000000007, -0.7836173233620748 
2.1100000000000283, -0.779939347616425 
2.1200000000000494, -0.7765850654261574 
2.1300000000000705, -0.7735383192298123 
2.1400000000000916, -0.770772220176012 
2.1500000000001127, -0.7682779628432086 
2.160000000000134, -0.7660737124128926 
2.170000000000155, -0.7641991513754224 
2.180000000000176, -0.7627024983063533 
2.190000000000197, -0.761625741578108 
2.2000000000002182, -0.7609917181983399 
2.2100000000002393, -0.7607950598730345 
2.2200000000002604, -0.7609988982809422 
2.2300000000002815, -0.7615393835460172 
2.2400000000003026, -0.7623382987119809 
2.2500000000003237, -0.7633206289620187 
2.260000000000345, -0.7644317166246157 
2.270000000000366, -0.7656487537860653 
2.280000000000387, -0.766982107337184 
2.290000000000408, -0.7684628217004292 
2.3000000000004293, -0.7701156490778183 
2.3100000000004504, -0.7719230088783428 
2.3200000000004715, -0.7737941937856535 
2.3300000000004926, -0.7755640579064638 
2.3400000000005137, -0.7770401394558475 
2.3500000000005348, -0.7780784934959235 
2.360000000000556, -0.7786322855664466 
2.370000000000577, -0.7787438825073982 
2.380000000000598, -0.7785097635089983 
2.390000000000619, -0.7780633775968346 
2.4000000000006403, -0.7775978486200666 
2.4100000000006614, -0.7774281781411281 
2.4200000000006825, -0.778075189392968 
2.4300000000007036, -0.7803256156911069 
2.4400000000007247, -0.7851948151275756 
2.450000000000746, -0.7937411693570754 
2.460000000000767, -0.8067856304643056 
2.470000000000788, -0.8246936301009333 
2.480000000000809, -0.8473390292737056 
2.49000000000083, -0.8741960625410845 
2.5000000000008513, -0.9043661127621856 
2.5100000000008724, -0.9363808116214118 
2.5200000000008935, -0.9678896086964095 
2.5300000000009146, -0.9957989674429035 
2.5400000000009357, -1.0174374187151836 
2.550000000000957, -1.0320068656035792 
2.560000000000978, -1.0406671839755246 
2.570000000000999, -1.0453147204748758 
2.58000000000102, -1.0475404791855243 
2.5900000000010412, -1.0483494496219505 
2.6000000000010624, -1.0482928055182978 
2.6100000000010835, -1.0476851305483135 
2.6200000000011046, -1.046840705342668 
2.6300000000011257, -1.0463862759148725 
2.6400000000011468, -1.0476111036208204 
2.650000000001168, -1.0524282128359386 
2.660000000001189, -1.0623694917365682 
2.67000000000121, -1.0772262550802576 
2.680000000001231, -1.0950625773124627 
2.6900000000012523, -1.1136115297651341 
2.7000000000012734, -1.1313302402033019 
2.7100000000012945, -1.1474501245216586 
2.7200000000013156, -1.161586427022343 
2.7300000000013367, -1.1734356786060605 
2.740000000001358, -1.1827309084473665 
2.750000000001379, -1.1893961632410985 
2.7600000000014, -1.1936809048807058 
2.770000000001421, -1.196089402216067 
2.780000000001442, -1.1971752407562164 
2.7900000000014633, -1.1973950669177547 
2.8000000000014844, -1.1970985442010067 
2.8100000000015055, -1.1966106410901671 
2.8200000000015266, -1.1963147640733829 
2.8300000000015477, -1.1966116057819733 
2.840000000001569, -1.1977147549606841 
2.85000000000159, -1.1995061601198391 
2.860000000001611, -1.201663895780832 
2.870000000001632, -1.2038909425500308 
2.8800000000016532, -1.2060037090751494 
2.8900000000016743, -1.2078984216828352 
2.9000000000016954, -1.2095104603014777 
2.9100000000017165, -1.2108028953562273 
2.9200000000017377, -1.2117626946508075 
2.9300000000017588, -1.2123888922499106 
2.94000000000178, -1.2126772943207027 
2.950000000001801, -1.2126141345754207 
2.960000000001822, -1.2121853310613766 
2.970000000001843, -1.2113955764867972 
2.9800000000018643, -1.2102849203636814 
2.9900000000018854, -1.2089338319808838 
3.0000000000019065, -1.2074514431562677 
3.0100000000019276, -1.20594968506493 
3.0200000000019487, -1.2045296705643909 
3.03000000000197, -1.2033040980547016 
3.040000000001991, -1.202411495886551 
3.050000000002012, -1.201947760624178 
3.060000000002033, -1.2018573509659678 
3.070000000002054, -1.201925170415367 
3.0800000000020753, -1.2018775302845444 
3.0900000000020964, -1.201460001624422 
3.1000000000021175, -1.2004401180941753 
3.1100000000021386, -1.1985937117296301 
3.1200000000021597, -1.1957310319901793 
3.130000000002181, -1.1917539569334257 
3.140000000002202, -1.1866818424269916 
3.150000000002223, -1.1806063462198195 
3.160000000002244, -1.1736153903931734 
3.1700000000022652, -1.165756463952133 
3.1800000000022863, -1.1570755111102964 
3.1900000000023074, -1.1477443577815554 
3.2000000000023285, -1.1382698715273694 
3.2100000000023496, -1.1296489244458057 
3.2200000000023707, -1.1231149825057753 
3.230000000002392, -1.1193473891585042 
3.240000000002413, -1.1179246694871483 
3.250000000002434, -1.1177711500848166 
3.260000000002455, -1.11793830278188 
3.2700000000024763, -1.1178650269712196 
3.2800000000024974, -1.1172030447432069 
3.2900000000025185, -1.1155558259889566 
3.3000000000025396, -1.1122383661163242 
3.3100000000025607, -1.1060624813949027 
3.3200000000025818, -1.0952854671171748 
3.330000000002603, -1.0780733433830159 
3.340000000002624, -1.0535939481827001 
3.350000000002645, -1.0228768800780588 
3.360000000002666, -0.9884068337636143 
3.3700000000026873, -0.9529839465648321 
3.3800000000027084, -0.9190663685513899 
3.3900000000027295, -0.8887335556815481 
3.4000000000027506, -0.8636889111972395 
3.4100000000027717, -0.8449753190587839 
3.420000000002793, -0.8326073433224771 
3.430000000002814, -0.8255545510667643 
3.440000000002835, -0.8222099274588247 
3.450000000002856, -0.8210087400352093 
3.460000000002877, -0.8208003599109622 
3.4700000000028983, -0.8208882987436896 
3.4800000000029194, -0.8208934881314269 
3.4900000000029405, -0.820597834811198 
3.5000000000029616, -0.819835706216006 
3.5100000000029827, -0.8184466442906165 
3.520000000003004, -0.8162925031103662 
3.530000000003025, -0.8133310171205059 
3.540000000003046, -0.8096906453679109 
3.550000000003067, -0.8056568351111565 
3.5600000000030882, -0.8015537385948465 
3.5700000000031094, -0.7976208506414156 
3.5800000000031305, -0.793972326804693 
3.5900000000031516, -0.7906293198997552 
3.6000000000031727, -0.7875735365680898 
3.6100000000031938, -0.7847888317739333 
3.620000000003215, -0.7822818593696983 
3.630000000003236, -0.7800844904534728 
3.640000000003257, -0.7782445632220925 
3.650000000003278, -0.7768115751348124 
3.6600000000032993, -0.7758219308126428 
3.6700000000033204, -0.7752862872605963 
3.6800000000033415, -0.7751812856384296 
3.6900000000033626, -0.7754489700665377 
3.7000000000033837, -0.7760062506282268 
3.710000000003405, -0.7767625494601136 
3.720000000003426, -0.777639745269276 
3.730000000003447, -0.7785882003956408 
3.740000000003468, -0.7795944611694642 
3.750000000003489, -0.7806771097563776 
3.7600000000035103, -0.7818685073737114 
3.7700000000035314, -0.7831847803558547 
3.7800000000035525, -0.7845934640112209 
3.7900000000035736, -0.785995489496709 
3.8000000000035947, -0.7872409503234427 
3.810000000003616, -0.7881818351963211 
3.820000000003637, -0.7887302798974176 
3.830000000003658, -0.7888813952230904 
3.840000000003679, -0.7886979434163782 
3.8500000000037002, -0.7882902327812289 
3.8600000000037213, -0.7878205469624489 
3.8700000000037424, -0.7875376936987168 
3.8800000000037635, -0.7878252027770489 
3.8900000000037847, -0.7892259077060632 
3.9000000000038058, -0.7923952550793858 
3.910000000003827, -0.7979659039602472 
3.920000000003848, -0.8063807439871586 
3.930000000003869, -0.8177999012507632 
3.94000000000389, -0.8321361161823837 
3.9500000000039113, -0.8491635167514546 
3.9600000000039324, -0.8685826256344734 
3.9700000000039535, -0.8899401844062685 
3.9800000000039746, -0.9123750093998112 
3.9900000000039957, -0.9343387791419717 
4.000000000004016, -0.9537264305754365 
4.010000000003993, -0.96874873656755 
4.02000000000397, -0.9789078241675192 
4.030000000003946, -0.9849918226771905 
4.040000000003923, -0.9882557131727028 
4.0500000000039, -0.9897555144709298 
4.0600000000038765, -0.9901676723178282 
4.070000000003853, -0.9898742820885277 
4.08000000000383, -0.989123324343921 
4.090000000003807, -0.9882433389180946 
4.100000000003783, -0.9879753117234497 
4.11000000000376, -0.9898828718147238 
4.120000000003737, -0.996398035165783 
4.130000000003713, -1.0097855164634242 
4.14000000000369, -1.0303792013698816 
4.150000000003667, -1.0560416180540562 
4.1600000000036434, -1.0835935968891968 
4.17000000000362, -1.1104313967446244 
4.180000000003597, -1.1349504953952438 
4.1900000000035735, -1.1561693872354561 
4.20000000000355, -1.1733844372431275 
4.210000000003527, -1.1862156978778522 
4.220000000003504, -1.1948539363458746 
4.23000000000348, -1.2000650646747821 
4.240000000003457, -1.2028456427579892 
4.250000000003434, -1.2040611823993583 
4.26000000000341, -1.204314973223972 
4.270000000003387, -1.2040135611809153 
4.280000000003364, -1.2035164650402899 
4.2900000000033405, -1.2032714820896544 
4.300000000003317, -1.2037881795782819 
4.310000000003294, -1.2053649400861688 
4.320000000003271, -1.2078517426899438 
4.330000000003247, -1.2107991453731461 
4.340000000003224, -1.2137896837274067 
4.350000000003201, -1.216581537520146 
4.360000000003177, -1.2190651169476407 
4.370000000003154, -1.221193597451132 
4.380000000003131, -1.2229496776636308 
4.390000000003107, -1.2243305657697063 
4.400000000003084, -1.225333355485293 
4.410000000003061, -1.225944469592339 
4.4200000000030375, -1.226143332225555 
4.430000000003014, -1.22592047275425 
4.440000000002991, -1.2252979645883628 
4.450000000002968, -1.224340741017075 
4.460000000002944, -1.2231554272910237 
4.470000000002921, -1.2218724376130357 
4.480000000002898, -1.220612100183081 
4.490000000002874, -1.2194659960994412 
4.500000000002851, -1.2185224696059558 
4.510000000002828, -1.2178868169838915 
4.520000000002804, -1.2176201250229224 
4.530000000002781, -1.2176451764528458 
4.540000000002758, -1.217749196884557 
4.5500000000027345, -1.2176760835528029 
4.560000000002711, -1.2171891779788344 
4.570000000002688, -1.2160725978981837 
4.580000000002665, -1.2141284865726047 
4.590000000002641, -1.2112091838643277 
4.600000000002618, -1.2072597311650777 
4.610000000002595, -1.202316158010816 
4.620000000002571, -1.196449439189572 
4.630000000002548, -1.1897062644784417 
4.640000000002525, -1.1820989728104283 
4.6500000000025015, -1.1736686272293115 
4.660000000002478, -1.1646398687264885 
4.670000000002455, -1.1556489064143678 
4.6800000000024315, -1.1478332759818504 
4.690000000002408, -1.1423787875326739 
4.700000000002385, -1.139636591534042 
4.710000000002362, -1.1388629602845068 
4.720000000002338, -1.1389430811280241 
4.730000000002315, -1.1390657755825073 
4.740000000002292, -1.1387763831169724 
4.750000000002268, -1.1377230002418268 
4.760000000002245, -1.1353788958073625 
4.770000000002222, -1.1307671460984616 
4.7800000000021985, -1.1222045783736032 
4.790000000002175, -1.1073279503781417 
4.800000000002152, -1.083912185360319 
4.810000000002129, -1.051419487952185 
4.820000000002105, -1.0118528287439343 
4.830000000002082, -0.9688676846698921 
4.840000000002059, -0.9262923866517305 
4.850000000002035, -0.8873838487059487 
4.860000000002012, -0.8546416183920413 
4.870000000001989, -0.8295751316852742 
4.880000000001965, -0.8124008872713698 
4.890000000001942, -0.8020564222466682 
4.900000000001919, -0.7967049856119344 
4.9100000000018955, -0.7944399869030234 
4.920000000001872, -0.7937713417390524 
4.930000000001849, -0.7937466085793602 
