t, s[1].omega / s[0].omega 
0, -0.8999834511972574 
0.009999999999999995, -0.8983690760767992 
0.019999999999999934, -0.8968283615312599 
0.029999999999999874, -0.8953183912102866 
0.04000000000000012, -0.8937893780296623 
0.050000000000000405, -0.8922257814596675 
0.06000000000000069, -0.8906669013095344 
0.07000000000000098, -0.889199345300335 
0.08000000000000126, -0.8879272137585351 
0.09000000000000155, -0.8869379190114307 
0.10000000000000184, -0.8862847354838597 
0.11000000000000212, -0.8859916022809365 
0.12000000000000241, -0.8860625783705354 
0.130000000000002, -0.8864768424361349 
0.1400000000000009, -0.8871743106015382 
0.1499999999999998, -0.8880553924861863 
0.1599999999999987, -0.889006822344772 
0.1699999999999976, -0.8899402943368925 
0.1799999999999965, -0.8908211882584804 
0.1899999999999954, -0.8916722761364799 
0.1999999999999943, -0.8925493155372258 
0.2099999999999932, -0.8934981256727601 
0.2199999999999921, -0.894511313741018 
0.229999999999991, -0.8955045618291981 
0.2399999999999899, -0.8963319528997908 
0.2499999999999888, -0.8968453398012739 
0.2599999999999877, -0.896965550095787 
0.2699999999999866, -0.896719602184259 
0.2799999999999855, -0.8962392275972523 
0.2899999999999844, -0.8957485686695386 
0.2999999999999833, -0.89554451632373 
0.3099999999999822, -0.8959383127193687 
0.3199999999999811, -0.8971499721928236 
0.32999999999998, -0.8992199446917171 
0.3399999999999789, -0.9020177883223841 
0.3499999999999778, -0.9053369597794703 
0.35999999999997667, -0.908990561901339 
0.36999999999997557, -0.9128543374958751 
0.37999999999997447, -0.9168681918723584 
0.38999999999997337, -0.921026023331178 
0.39999999999997227, -0.9253626702234081 
0.40999999999997117, -0.929926181569555 
0.41999999999997006, -0.9347218488465312 
0.42999999999996896, -0.9396313789217171 
0.43999999999996786, -0.9443518473356314 
0.44999999999996676, -0.9484449487882334 
0.45999999999996566, -0.9515301122162544 
0.46999999999996456, -0.9534727320030857 
0.47999999999996346, -0.9543929461455827 
0.48999999999996235, -0.9545459497555584 
0.49999999999996125, -0.9542432277723515 
0.5099999999999602, -0.95388429579494 
0.519999999999959, -0.9540390163230015 
0.529999999999958, -0.9554263594407642 
0.5399999999999568, -0.9586495399856476 
0.5499999999999557, -0.9638260891271349 
0.5599999999999546, -0.9705131269262708 
0.5699999999999535, -0.9780299151237033 
0.5799999999999524, -0.9858233125385238 
0.5899999999999513, -0.9936037414066666 
0.5999999999999502, -1.00129617946786 
0.6099999999999491, -1.0089394923915531 
0.619999999999948, -1.0165895164706495 
0.6299999999999469, -1.0242169978755926 
0.6399999999999458, -1.0315998130685151 
0.6499999999999447, -1.0382810320842413 
0.6599999999999436, -1.0437121911433067 
0.6699999999999425, -1.0475488893400864 
0.6799999999999414, -1.0498236220580937 
0.6899999999999403, -1.0508421493746845 
0.6999999999999392, -1.0509906203939132 
0.7099999999999381, -1.0506653947673867 
0.719999999999937, -1.050340439312889 
0.7299999999999359, -1.0506347332792412 
0.7399999999999348, -1.0521724330213558 
0.7499999999999337, -1.0552150523394261 
0.7599999999999326, -1.059460232933885 
0.7699999999999315, -1.0642991665940569 
0.7799999999999304, -1.069213000696545 
0.7899999999999293, -1.0739294866478788 
0.7999999999999282, -1.0783645644669024 
0.8099999999999271, -1.082524983407805 
0.819999999999926, -1.0864493770080208 
0.8299999999999249, -1.090172118590016 
0.8399999999999238, -1.093682536346423 
0.8499999999999227, -1.0968846579600622 
0.8599999999999216, -1.0995951778674682 
0.8699999999999205, -1.1016130239297437 
0.8799999999999194, -1.1028279724326486 
0.8899999999999183, -1.103279476223678 
0.8999999999999172, -1.1031364086187359 
0.9099999999999161, -1.1026586221161578 
0.919999999999915, -1.1021750778908137 
0.9299999999999139, -1.1020232938445147 
0.9399999999999128, -1.1024104445016107 
0.9499999999999117, -1.1033116660415785 
0.9599999999999106, -1.1045434400539036 
0.9699999999999095, -1.1059255707480333 
0.9799999999999084, -1.1073527572558108 
0.9899999999999073, -1.1087552925367392 
0.9999999999999062, -1.1100506754141792 
1.0099999999999052, -1.1111504243238404 
1.019999999999904, -1.1119978945056328 
1.029999999999903, -1.1125885557661381 
1.039999999999902, -1.1129548753061962 
1.0499999999999008, -1.1131285737011847 
1.0599999999998997, -1.1131068768505012 
1.0699999999998986, -1.1128462287391756 
1.0799999999998975, -1.1122897581447615 
1.0899999999998964, -1.1114122897953123 
1.0999999999998953, -1.1102542851998867 
1.1099999999998942, -1.1089232199965628 
1.119999999999893, -1.107555976698573 
1.129999999999892, -1.1062607769323425 
1.1399999999998909, -1.1050928774875384 
1.1499999999998898, -1.1040984580497861 
1.1599999999998887, -1.1033673772676722 
1.1699999999998876, -1.102998382762219 
1.1799999999998865, -1.1029861739648301 
1.1899999999998854, -1.1031629671727936 
1.1999999999998843, -1.1032656293979526 
1.2099999999998832, -1.103042070205797 
1.219999999999882, -1.1023133778310625 
1.229999999999881, -1.1010024978202615 
1.2399999999998799, -1.0991462188430892 
1.2499999999998788, -1.096866982329718 
1.2599999999998777, -1.0943021230618077 
1.2699999999998766, -1.0915397282543773 
1.2799999999998755, -1.0886026574153087 
1.2899999999998744, -1.085474462667128 
1.2999999999998733, -1.0821357786536163 
1.3099999999998722, -1.078586213622667 
1.319999999999871, -1.0748531297636097 
1.32999999999987, -1.0710176966390579 
1.3399999999998689, -1.067278221937185 
1.3499999999998678, -1.0639932593020593 
1.3599999999998666, -1.0615754781075875 
1.3699999999998655, -1.0602197363271073 
1.3799999999998644, -1.0597225960154857 
1.3899999999998633, -1.0596118965483128 
1.3999999999998622, -1.0593994695720395 
1.4099999999998611, -1.0586899842924478 
1.41999999999986, -1.0571582046502381 
1.429999999999859, -1.0545438744142257 
1.4399999999998578, -1.0507375460013768 
1.4499999999998567, -1.045877783312467 
1.4599999999998556, -1.040306836585918 
1.4699999999998545, -1.0343853620382382 
1.4799999999998534, -1.028339790294106 
1.4899999999998523, -1.0222409843496785 
1.4999999999998512, -1.0160649496698109 
1.5099999999998501, -1.009764582937138 
1.519999999999849, -1.0033312987917828 
1.529999999999848, -0.9968622948745918 
1.5399999999998468, -0.9906391252697112 
1.5499999999998457, -0.9851554509114401 
1.5599999999998446, -0.9809710211539523 
1.5699999999998435, -0.9783847371034937 
1.5799999999998424, -0.9772029193758114 
1.5899999999998413, -0.9768664209042027 
1.5999999999998402, -0.9767693370710221 
1.6099999999998391, -0.9764399539494072 
1.619999999999838, -0.975530303940344 
1.629999999999837, -0.9737600857372068 
1.6399999999998358, -0.97093620183584 
1.6499999999998347, -0.9670557905155315 
1.6599999999998336, -0.9623694234018435 
1.6699999999998325, -0.9572775754048488 
1.6799999999998314, -0.9521319030958363 
1.6899999999998303, -0.947120903870655 
1.6999999999998292, -0.942286518040758 
1.709999999999828, -0.937597522124257 
1.719999999999827, -0.9330149100788893 
1.729999999999826, -0.9285302637539455 
1.7399999999998248, -0.9241853361895785 
1.7499999999998237, -0.9200878817373372 
1.7599999999998226, -0.9164226412391345 
1.7699999999998215, -0.9134269893244212 
1.7799999999998204, -0.9113003543426286 
1.7899999999998193, -0.9100808934993954 
1.7999999999998182, -0.9095922249532945 
1.809999999999817, -0.9095153301939346 
1.819999999999816, -0.9095142817120256 
1.8299999999998149, -0.909318355492186 
1.8399999999998138, -0.9087476763588949 
1.8499999999998127, -0.9077247240464361 
1.8599999999998116, -0.9062878986813999 
1.8699999999998105, -0.9045762310862597 
1.8799999999998094, -0.9027641105061279 
1.8899999999998083, -0.9009832445277537 
1.8999999999998072, -0.8992841586538702 
1.909999999999806, -0.897647294043105 
1.919999999999805, -0.8960227663049467 
1.9299999999998039, -0.894375652091294 
1.9399999999998028, -0.8927176433233738 
1.9499999999998017, -0.8911125791285903 
1.9599999999998006, -0.8896558322512929 
1.9699999999997995, -0.8884411424598619 
1.9799999999997984, -0.8875362374655756 
1.9899999999997973, -0.8869800882520092 
1.9999999999997962, -0.8867916069720708 
2.0099999999998173, -0.886968054125248 
2.0199999999998384, -0.8874688808277218 
2.0299999999998595, -0.888206030716745 
2.0399999999998806, -0.8890609912787685 
2.0499999999999017, -0.8899233268827373 
2.059999999999923, -0.8907278108144844 
2.069999999999944, -0.89147096661363 
2.079999999999965, -0.8921990554216777 
2.089999999999986, -0.8929714822569095 
2.100000000000007, -0.8938151710698999 
2.1100000000000283, -0.8946897377854051 
2.1200000000000494, -0.8954823207067182 
2.1300000000000705, -0.8960453875162674 
2.1400000000000916, -0.8962650455927511 
2.1500000000001127, -0.8961170192451071 
2.160000000000134, -0.8956825621962837 
2.170000000000155, -0.8951396376006574 
2.180000000000176, -0.8947470721801286 
2.190000000000197, -0.894804513523194 
2.2000000000002182, -0.8955661758888646 
2.2100000000002393, -0.897142437058875 
2.2200000000002604, -0.8994691958418469 
2.2300000000002815, -0.9023723429351664 
2.2400000000003026, -0.9056644334717733 
2.2500000000003237, -0.9092040798972787 
2.260000000000345, -0.9129088223755286 
2.270000000000366, -0.9167490286545716 
2.280000000000387, -0.9207400930043013 
2.290000000000408, -0.9249266517266715 
2.3000000000004293, -0.9293438004908146 
2.3100000000004504, -0.9339492426456918 
2.3200000000004715, -0.9385469662208455 
2.3300000000004926, -0.9427701633817781 
2.3400000000005137, -0.9462008172623149 
2.3500000000005348, -0.9485759859156551 
2.360000000000556, -0.9498932434677249 
2.370000000000577, -0.9503433676764679 
2.380000000000598, -0.9502026939130424 
2.390000000000619, -0.949812770396429 
2.4000000000006403, -0.9496471508709924 
2.4100000000006614, -0.9503550650049517 
2.4200000000006825, -0.9526184561484918 
2.4300000000007036, -0.9568046285215314 
2.4400000000007247, -0.9627228481246034 
2.450000000000746, -0.9697784245629736 
2.460000000000767, -0.9773505905479452 
2.470000000000788, -0.9850368715287647 
2.480000000000809, -0.9926756562595725 
2.49000000000083, -1.0002631722396327 
2.5000000000008513, -1.0078581867526486 
2.5100000000008724, -1.015487166864013 
2.5200000000008935, -1.0230358850291579 
2.5300000000009146, -1.0301581014385084 
2.5400000000009357, -1.0363124858291175 
2.550000000000957, -1.041005662332092 
2.560000000000978, -1.0440698551658922 
2.570000000000999, -1.0456958285291034 
2.58000000000102, -1.0462485923206164 
2.5900000000010412, -1.0461177477304815 
2.6000000000010624, -1.0457237352144528 
2.6100000000010835, -1.0456126491688829 
2.6200000000011046, -1.0464539333101641 
2.6300000000011257, -1.0487689821373019 
2.6400000000011468, -1.0525650994060776 
2.650000000001168, -1.0573382008130046 
2.660000000001189, -1.062463219505285 
2.67000000000121, -1.0675153096448997 
2.680000000001231, -1.0723129966961973 
2.6900000000012523, -1.0768231440087792 
2.7000000000012734, -1.08107515350186 
2.7100000000012945, -1.0851125293666664 
2.7200000000013156, -1.0889530425767076 
2.7300000000013367, -1.092542959103266 
2.740000000001358, -1.0957289186349617 
2.750000000001379, -1.0982925129494123 
2.7600000000014, -1.1000552836551896 
2.770000000001421, -1.1009780657781558 
2.780000000001442, -1.1011750675317051 
2.7900000000014633, -1.1008697438689645 
2.8000000000014844, -1.1003648898276615 
2.8100000000015055, -1.1000180786263303 
2.8200000000015266, -1.1001446651515763 
2.8300000000015477, -1.1008638461355056 
2.840000000001569, -1.1020575076738226 
2.85000000000159, -1.103508922175975 
2.860000000001611, -1.1050526954020334 
2.870000000001632, -1.10659816509575 
2.8800000000016532, -1.1080740170545291 
2.8900000000016743, -1.1093979257806368 
2.9000000000016954, -1.1104983851770143 
2.9100000000017165, -1.1113463778479582 
2.9200000000017377, -1.1119585975328343 
2.9300000000017588, -1.1123692137158945 
2.94000000000178, -1.1125913510768721 
2.950000000001801, -1.1125954222666021 
2.960000000001822, -1.1123210707630133 
2.970000000001843, -1.1117179516843168 
2.9800000000018643, -1.1107899547547186 
2.9900000000018854, -1.1096155756044406 
3.0000000000019065, -1.1083307715361366 
3.0100000000019276, -1.1070756990711865 
3.0200000000019487, -1.1059386363804165 
3.03000000000197, -1.1049568217414236 
3.040000000001991, -1.1041773868644393 
3.050000000002012, -1.1036885884140635 
3.060000000002033, -1.1035510150444972 
3.070000000002054, -1.1036944167096223 
3.0800000000020753, -1.1039093305251095 
3.0900000000020964, -1.1039387761015385 
3.1000000000021175, -1.103568156461423 
3.1100000000021386, -1.1026700977549628 
3.1200000000021597, -1.101224815798327 
3.130000000002181, -1.099313367464577 
3.140000000002202, -1.0970661984389214 
3.150000000002223, -1.0945925076720011 
3.160000000002244, -1.091940817474988 
3.1700000000022652, -1.0891075219440265 
3.1800000000022863, -1.0860716527613583 
3.1900000000023074, -1.082825298256013 
3.2000000000023285, -1.0793845310409085 
3.2100000000023496, -1.0757964054728442 
3.2200000000023707, -1.0721767853553683 
3.230000000002392, -1.0687756634101813 
3.240000000002413, -1.0659762270092317 
3.250000000002434, -1.0641171184266436 
3.260000000002455, -1.063229432149823 
3.2700000000024763, -1.0629805875105858 
3.2800000000024974, -1.0628836357277591 
3.2900000000025185, -1.0624991367904657 
3.3000000000025396, -1.0614746890360705 
3.3100000000025607, -1.0595192578489623 
3.3200000000025818, -1.056439643450107 
3.330000000002603, -1.0522428099843528 
3.340000000002624, -1.0471734091669214 
3.350000000002645, -1.0415900655310337 
3.360000000002666, -1.0357831920772087 
3.3700000000026873, -1.0298903935962174 
3.3800000000027084, -1.0239245367443555 
3.3900000000027295, -1.017842696600599 
3.4000000000027506, -1.0116095601745523 
3.4100000000027717, -1.0052570134816752 
3.420000000002793, -0.9989588270451 
3.430000000002814, -0.9931002817846594 
3.440000000002835, -0.9882399663705035 
3.450000000002856, -0.9848604648862859 
3.460000000002877, -0.983035710181926 
3.4700000000028983, -0.982359599882942 
3.4800000000029194, -0.9822129470719572 
3.4900000000029405, -0.9820460969926768 
3.5000000000029616, -0.9814540624799901 
3.5100000000029827, -0.9801220597714219 
3.520000000003004, -0.9777972043072994 
3.530000000003025, -0.9743594115172772 
3.540000000003046, -0.9699304029769886 
3.550000000003067, -0.9648628696488775 
3.5600000000030882, -0.9595642778924629 
3.5700000000031094, -0.9543173679652325 
3.5800000000031305, -0.9492338278635175 
3.5900000000031516, -0.94431066703441 
3.6000000000031727, -0.9395059739350644 
3.6100000000031938, -0.9347923151466035 
3.620000000003215, -0.9301858217464074 
3.630000000003236, -0.9257657425183317 
3.640000000003257, -0.9216926502599978 
3.650000000003278, -0.9182046873772778 
3.6600000000032993, -0.9155508954017121 
3.6700000000033204, -0.9138613257386063 
3.6800000000033415, -0.9130438985064184 
3.6900000000033626, -0.9128089222542478 
3.7000000000033837, -0.912796182225607 
3.710000000003405, -0.9126884563610863 
3.720000000003426, -0.912255839854746 
3.730000000003447, -0.9113655108532871 
3.740000000003468, -0.909997121900013 
3.750000000003489, -0.9082499455889994 
3.7600000000035103, -0.9063010776893925 
3.7700000000035314, -0.9043219726341046 
3.7800000000035525, -0.9024123806951803 
3.7900000000035736, -0.9005882739564498 
3.8000000000035947, -0.8988120670032117 
3.810000000003616, -0.89703862578481 
3.820000000003637, -0.8952552784719513 
3.830000000003658, -0.8934999606027401 
3.840000000003679, -0.8918518736523351 
3.8500000000037002, -0.89040321743985 
3.8600000000037213, -0.889231573935286 
3.8700000000037424, -0.8883901889417418 
3.8800000000037635, -0.8879135717444363 
3.8900000000037847, -0.8878178130858905 
3.9000000000038058, -0.8880838668311158 
3.910000000003827, -0.8886396948833711 
3.920000000003848, -0.8893672760276102 
3.930000000003869, -0.8901383114070835 
3.94000000000389, -0.8908574395247921 
3.9500000000039113, -0.8914901923818462 
3.9600000000039324, -0.8920640234260688 
3.9700000000039535, -0.8926411676960472 
3.9800000000039746, -0.8932742125084043 
3.9900000000039957, -0.8939640455372899 
4.000000000004016, -0.8946392627946602 
4.010000000003993, -0.8951722451337043 
4.02000000000397, -0.8954335478380164 
4.030000000003946, -0.8953561507996641 
4.040000000003923, -0.8949710119977692 
4.0500000000039, -0.8944085783581539 
4.0600000000038765, -0.8938854253322044 
4.070000000003853, -0.8936749207328548 
4.08000000000383, -0.8940403877675032 
4.090000000003807, -0.8951412393694447 
4.100000000003783, -0.8969769077317912 
4.11000000000376, -0.8994181575475476 
4.120000000003737, -0.9022923768482123 
4.130000000003713, -0.9054520983630001 
4.14000000000369, -0.9087989052274106 
4.150000000003667, -0.9122822150246452 
4.1600000000036434, -0.9158953923588422 
4.17000000000362, -0.9196692829103844 
4.180000000003597, -0.923648844474331 
4.1900000000035735, -0.9278419644611597 
4.20000000000355, -0.9321463790688647 
4.210000000003527, -0.9362952064190366 
4.220000000003504, -0.9398989718954258 
4.23000000000348, -0.9426131598322527 
4.240000000003457, -0.9443057421625115 
4.250000000003434, -0.9450734427539957 
4.26000000000341, -0.9451450398636979 
4.270000000003387, -0.9448169668088611 
4.280000000003364, -0.9444828837934838 
4.2900000000033405, -0.9446982280722664 
4.300000000003317, -0.9461360188468539 
4.310000000003294, -0.9493265666874937 
4.320000000003271, -0.9543382486461776 
4.330000000003247, -0.9607459180562978 
4.340000000003224, -0.96793308558518 
4.350000000003201, -0.9754077395189944 
4.360000000003177, -0.982914070146434 
4.370000000003154, -0.9903879472055633 
4.380000000003131, -0.997868760561528 
4.390000000003107, -1.0054110182669034 
4.400000000003084, -1.0129849999884297 
4.410000000003061, -1.0203668741319019 
4.4200000000030375, -1.0270914148297536 
4.430000000003014, -1.032592083593488 
4.440000000002991, -1.0365024427860088 
4.450000000002968, -1.0388396995041491 
4.460000000002944, -1.0399044834668945 
4.470000000002921, -1.0400824319765272 
4.480000000002898, -1.0397673281340423 
4.490000000002874, -1.039428366039555 
4.500000000002851, -1.039692336507874 
4.510000000002828, -1.0412294192926372 
4.520000000002804, -1.044379852210163 
4.530000000002781, -1.0488916202709477 
4.540000000002758, -1.0541346917449297 
4.5500000000027345, -1.059527799140546 
4.560000000002711, -1.0647457495315933 
4.570000000002688, -1.0696803869532039 
4.580000000002665, -1.0743359452323762 
4.590000000002641, -1.0787566120846068 
4.600000000002618, -1.0829806717145012 
4.610000000002595, -1.0869936121141126 
4.620000000002571, -1.090683332487924 
4.630000000002548, -1.0938382210307531 
4.640000000002525, -1.0962272369685644 
4.6500000000025015, -1.0977247165144282 
4.660000000002478, -1.0983745000051728 
4.670000000002455, -1.0983590852760892 
4.6800000000024315, -1.0979501588671863 
4.690000000002408, -1.0974919474655613 
4.700000000002385, -1.0973601577628782 
4.710000000002362, -1.0978242459410397 
4.720000000002338, -1.0989034942570666 
4.730000000002315, -1.1004016513111394 
4.740000000002292, -1.1020871340637897 
4.750000000002268, -1.1038109201306636 
4.760000000002245, -1.1054910504821316 
4.770000000002222, -1.1070562409267435 
4.7800000000021985, -1.108433478858248 
4.790000000002175, -1.1095748278417843 
4.800000000002152, -1.1104766288610108 
4.810000000002129, -1.1111666509626619 
4.820000000002105, -1.1116683943649908 
4.830000000002082, -1.1119685068212342 
4.840000000002059, -1.1120115932441403 
4.850000000002035, -1.1117301473304049 
4.860000000002012, -1.1110928255184527 
4.870000000001989, -1.1101406315016331 
4.880000000001965, -1.1089906003973948 
4.890000000001942, -1.10780060495338 
4.900000000001919, -1.1067044886165582 
4.9100000000018955, -1.1057661132144365 
4.920000000001872, -1.1050066310801496 
4.930000000001849, -1.1044711612878433 
