t, s[1].omega / s[0].omega 
0, -1.3793701062147394 
0.009999999999999995, -1.3033132257162334 
0.019999999999999934, -1.1982834789045254 
0.029999999999999874, -1.066057837902965 
0.04000000000000012, -0.927342913607679 
0.050000000000000405, -0.8157782987724567 
0.06000000000000069, -0.7473000920532258 
0.07000000000000098, -0.7134341943218329 
0.08000000000000126, -0.6993755173761935 
0.09000000000000155, -0.6945958100442741 
0.10000000000000184, -0.6935289743112097 
0.11000000000000212, -0.6936465314411955 
0.12000000000000241, -0.6938935439027228 
0.130000000000002, -0.6938259931126607 
0.1400000000000009, -0.6932058975406518 
0.1499999999999998, -0.691841428884323 
0.1599999999999987, -0.6895740344215263 
0.1699999999999976, -0.6863729845098812 
0.1799999999999965, -0.6824524363599386 
0.1899999999999954, -0.6782535336747448 
0.1999999999999943, -0.6742463008450953 
0.2099999999999932, -0.6707311076786667 
0.2199999999999921, -0.6677952072950257 
0.229999999999991, -0.6653819145191652 
0.2399999999999899, -0.6633732207989971 
0.2499999999999888, -0.6616485251904147 
0.2599999999999877, -0.6601228434854687 
0.2699999999999866, -0.6587685889344418 
0.2799999999999855, -0.6576205330854352 
0.2899999999999844, -0.6567662883622578 
0.2999999999999833, -0.656327136658829 
0.3099999999999822, -0.6564337320951661 
0.3199999999999811, -0.6572020450327237 
0.32999999999998, -0.6587167224195672 
0.3399999999999789, -0.6610278556819846 
0.3499999999999778, -0.6641622991128233 
0.35999999999997667, -0.6681461386768289 
0.36999999999997557, -0.673033957012098 
0.37999999999997447, -0.6789420749547703 
0.38999999999997337, -0.6860834222585945 
0.39999999999997227, -0.6947975316637334 
0.40999999999997117, -0.7055532262748393 
0.41999999999997006, -0.7188571449921347 
0.42999999999996896, -0.7349272511392398 
0.43999999999996786, -0.7530387180204103 
0.44999999999996676, -0.7710184132481804 
0.45999999999996566, -0.7860466590981857 
0.46999999999996456, -0.79654106981796 
0.47999999999996346, -0.8028180409137681 
0.48999999999996235, -0.8060775861705043 
0.49999999999996125, -0.8073963527929866 
0.5099999999999602, -0.8074237020450683 
0.519999999999959, -0.8064530090630233 
0.529999999999958, -0.804605527493319 
0.5399999999999568, -0.8022173011001659 
0.5499999999999557, -0.8010496329030466 
0.5599999999999546, -0.8082298670653074 
0.5699999999999535, -0.8473084456954311 
0.5799999999999524, -0.9756082664673965 
0.5899999999999513, -1.2364583979570323 
0.5999999999999502, -1.49908928508003 
0.6099999999999491, -1.6480023481507289 
0.619999999999948, -1.7199144973269764 
0.6299999999999469, -1.7562746094008488 
0.6399999999999458, -1.7755788702904145 
0.6499999999999447, -1.7857663263436254 
0.6599999999999436, -1.79077710620875 
0.6699999999999425, -1.7928235684604172 
0.6799999999999414, -1.7931800363053287 
0.6899999999999403, -1.792605108989978 
0.6999999999999392, -1.7915856601062774 
0.7099999999999381, -1.7902730877260122 
0.719999999999937, -1.78849144871504 
0.7299999999999359, -1.7863733705699443 
0.7399999999999348, -1.7848252882028373 
0.7499999999999337, -1.7843817870573613 
0.7599999999999326, -1.7841901780982083 
0.7699999999999315, -1.7829405776724365 
0.7799999999999304, -1.7786394989059056 
0.7899999999999293, -1.7648668676516408 
0.7999999999999282, -1.7136107998727457 
0.8099999999999271, -1.4825973972981874 
0.819999999999926, -0.6840688122377392 
0.8299999999999249, -0.003171780866501779 
0.8399999999999238, 0.18042516055012 
0.8499999999999227, 0.2304477091835655 
0.8599999999999216, 0.24799506585525705 
0.8699999999999205, 0.255341342850713 
0.8799999999999194, 0.2587129675826833 
0.8899999999999183, 0.26027420435820137 
0.8999999999999172, 0.2609248657052619 
0.9099999999999161, 0.261106839469784 
0.919999999999915, 0.2610822375691121 
0.9299999999999139, 0.26105914335594377 
0.9399999999999128, 0.26129989728285336 
0.9499999999999117, 0.26231440091976554 
0.9599999999999106, 0.26530622095321854 
0.9699999999999095, 0.27307966912260506 
0.9799999999999084, 0.2906965422456308 
0.9899999999999073, 0.3214313958464669 
0.9999999999999062, 0.35712241772396847 
1.0099999999999052, 0.3841891797276174 
1.019999999999904, 0.3995462640183468 
1.029999999999903, 0.40714840750325426 
1.039999999999902, 0.4105927017964356 
1.0499999999999008, 0.4117465587954309 
1.0599999999998997, 0.4113283251089236 
1.0699999999998986, 0.40936484997389194 
1.0799999999998975, 0.4053795250791161 
1.0899999999998964, 0.39858571821603894 
1.0999999999998953, 0.3885445650797636 
1.1099999999998942, 0.3763642812320938 
1.119999999999893, 0.36483779128251137 
1.129999999999892, 0.35629489684547766 
1.1399999999998909, 0.35104049993702124 
1.1499999999998898, 0.3481642149350403 
1.1599999999998887, 0.3466966025361256 
1.1699999999998876, 0.34598000605121704 
1.1799999999998865, 0.34560922192494226 
1.1899999999998854, 0.3453054221699034 
1.1999999999998843, 0.3448197571465568 
1.2099999999998832, 0.34384937283474526 
1.219999999999882, 0.3419004718444935 
1.229999999999881, 0.3379386526498863 
1.2399999999998799, 0.32929209981902335 
1.2499999999998788, 0.30745529792807563 
1.2599999999998777, 0.2374561986132055 
1.2699999999998766, -0.06307294009964609 
1.2799999999998755, -1.0032992015651048 
1.2899999999998744, -1.598728756808644 
1.2999999999998733, -1.7275146466583213 
1.3099999999998722, -1.7565580304457402 
1.319999999999871, -1.7644126490981418 
1.32999999999987, -1.7664575961715556 
1.3399999999998689, -1.7664734458756919 
1.3499999999998678, -1.7659798650855607 
1.3599999999998666, -1.7663094630673686 
1.3699999999998655, -1.7678980895437917 
1.3799999999998644, -1.7697432559593895 
1.3899999999998633, -1.7710583497560968 
1.3999999999998622, -1.7718745790720913 
1.4099999999998611, -1.7723122434121343 
1.41999999999986, -1.7721522398076979 
1.429999999999859, -1.77092952204949 
1.4399999999998578, -1.7679603618169761 
1.4499999999998567, -1.7621836853023864 
1.4599999999998556, -1.751915164559597 
1.4699999999998545, -1.7342370954705424 
1.4799999999998534, -1.7031449725634098 
1.4899999999998523, -1.6446756743954651 
1.4999999999998512, -1.5294763972912235 
1.5099999999998501, -1.339265816035502 
1.519999999999849, -1.1686873761763725 
1.529999999999848, -1.104482994301407 
1.5399999999998468, -1.0979647906974646 
1.5499999999998457, -1.1031753622200764 
1.5599999999998446, -1.1074957194963226 
1.5699999999998435, -1.1096327969661952 
1.5799999999998424, -1.1099880008991356 
1.5899999999998413, -1.108550190987233 
1.5999999999998402, -1.104205164280677 
1.6099999999998391, -1.0930972339691118 
1.619999999999838, -1.0626038910879942 
1.629999999999837, -0.9688791625544623 
1.6399999999998358, -0.6847969665842365 
1.6499999999998347, -0.19597454278898993 
1.6599999999998336, 0.08943493263989866 
1.6699999999998325, 0.18132671447551552 
1.6799999999998314, 0.2120816677977456 
1.6899999999998303, 0.22419064620939416 
1.6999999999998292, 0.22954618219413586 
1.709999999999828, 0.23200492114688798 
1.719999999999827, 0.2330415959429458 
1.729999999999826, 0.23332422477166453 
1.7399999999998248, 0.23322255091306604 
1.7499999999998237, 0.2329914202893522 
1.7599999999998226, 0.2328477032911885 
1.7699999999998215, 0.23302681937214192 
1.7799999999998204, 0.233867366311993 
1.7899999999998193, 0.23595925448125232 
1.7999999999998182, 0.2403493775883498 
1.809999999999817, 0.24857303757750054 
1.819999999999816, 0.2617493160661458 
1.8299999999998149, 0.27842887054991844 
1.8399999999998138, 0.2942903470085374 
1.8499999999998127, 0.3059004706821638 
1.8599999999998116, 0.31294729272388266 
1.8699999999998105, 0.3166763662308273 
1.8799999999998094, 0.31824768713002893 
1.8899999999998083, 0.31828310869622967 
1.8999999999998072, 0.31689838959464456 
1.909999999999806, 0.31376324679581685 
1.919999999999805, 0.3081652415533023 
1.9299999999998039, 0.2993553073900598 
1.9399999999998028, 0.28753125474660157 
1.9499999999998017, 0.27477159785246996 
1.9599999999998006, 0.2639640132200916 
1.9699999999997995, 0.2565232046581807 
1.9799999999997984, 0.25206790652647043 
1.9899999999997973, 0.24961766153334491 
1.9999999999997962, 0.24836564152323723 
2.0099999999998173, 0.24779830536502648 
2.0199999999998384, 0.2475925983217754 
2.0299999999998595, 0.24750979807399923 
2.0399999999998806, 0.2473280950796469 
2.0499999999999017, 0.2467980261395025 
2.059999999999923, 0.24558046136992795 
2.069999999999944, 0.24309262333080914 
2.079999999999965, 0.2380841211147212 
2.089999999999986, 0.22736051501004773 
2.100000000000007, 0.2013644970961669 
2.1100000000000283, 0.1271410940519952 
2.1200000000000494, -0.09965103632436936 
2.1300000000000705, -0.5319406225746952 
2.1400000000000916, -0.828247504067727 
2.1500000000001127, -0.934670522846661 
2.160000000000134, -0.9702267211498828 
2.170000000000155, -0.9832062292544451 
2.180000000000176, -0.9882016427729956 
2.190000000000197, -0.9898171312503393 
2.2000000000002182, -0.9894799457025515 
2.2100000000002393, -0.987264320222294 
2.2200000000002604, -0.9821178212855621 
2.2300000000002815, -0.9711512133468305 
2.2400000000003026, -0.9481150268752696 
2.2500000000003237, -0.9054411150831184 
2.260000000000345, -0.890148197472444 
2.270000000000366, -1.9065935583776472 
2.280000000000387, -3.560938134065723 
2.290000000000408, -3.6249270184273095 
2.3000000000004293, -3.632020783114025 
2.3100000000004504, -3.6325561133210007 
2.3200000000004715, -3.629645809437366 
2.3300000000004926, -3.615795474368665 
2.3400000000005137, -3.4569538280942305 
2.3500000000005348, -3.061750312498469 
2.360000000000556, -3.200814367194191 
2.370000000000577, -3.2121057377368403 
2.380000000000598, -3.2128517156316065 
2.390000000000619, -3.212278340388063 
2.4000000000006403, -3.2116993280823474 
2.4100000000006614, -3.210060733334352 
2.4200000000006825, -3.209116193091261 
2.4300000000007036, -3.208675712686781 
2.4400000000007247, -3.2040521478811597 
2.450000000000746, -3.179988145081495 
2.460000000000767, -3.2245662390622285 
2.470000000000788, -3.273049452142563 
2.480000000000809, -3.2819725440973486 
2.49000000000083, -3.283683031020464 
2.5000000000008513, -3.2825975952595514 
2.5100000000008724, -3.2770645714017066 
2.5200000000008935, -3.251341542643748 
2.5300000000009146, -2.935457557744736 
2.5400000000009357, 0.6116970264131604 
2.550000000000957, 1.1247699688824342 
2.560000000000978, 1.1634363262541896 
2.570000000000999, 1.1709327359608213 
2.58000000000102, 1.172840831411183 
2.5900000000010412, 1.1731682908624277 
2.6000000000010624, 1.173092392649337 
2.6100000000010835, 1.1733006021884098 
2.6200000000011046, 1.1743095967875208 
2.6300000000011257, 1.1761846751178768 
2.6400000000011468, 1.178379676252255 
2.650000000001168, 1.180201340089933 
2.660000000001189, 1.181298228050601 
2.67000000000121, 1.1815979517252522 
2.680000000001231, 1.1809352555705954 
2.6900000000012523, 1.1784071197821473 
2.7000000000012734, 1.1696938388108822 
2.7100000000012945, 1.1233001665666327 
2.7200000000013156, 0.34864404680728767 
2.7300000000013367, -2.923376578520111 
2.740000000001358, -3.1294952409331485 
2.750000000001379, -3.1484104652173976 
2.7600000000014, -3.1514034444517556 
2.770000000001421, -3.150931913367546 
2.780000000001442, -3.148429930479103 
2.7900000000014633, -3.141047216072873 
2.8000000000014844, -3.1267853538811368 
2.8100000000015055, -3.127485137047918 
2.8200000000015266, -3.1302232738251 
2.8300000000015477, -3.1291267964994476 
2.840000000001569, -3.1275819499740622 
2.85000000000159, -3.131960770591512 
2.860000000001611, -3.1352006111264052 
2.870000000001632, -3.1359396353366344 
2.8800000000016532, -3.135433554539028 
2.8900000000016743, -3.131668923485165 
2.9000000000016954, -3.1074472720175974 
2.9100000000017165, -2.6321414672180685 
2.9200000000017377, 1.3319874208496505 
2.9300000000017588, 1.5539508016764754 
2.94000000000178, 1.5701898916265302 
2.950000000001801, 1.5729144779782587 
2.960000000001822, 1.5723789998494406 
2.970000000001843, 1.5686573775934325 
2.9800000000018643, 1.5564245252138993 
2.9900000000018854, 1.52091094693938 
3.0000000000019065, 1.4813870377350753 
3.0100000000019276, 1.4831537744932024 
3.0200000000019487, 1.4902270911196467 
3.03000000000197, 1.4929116670706368 
3.040000000001991, 1.4929070238316038 
3.050000000002012, 1.4905094993371217 
3.060000000002033, 1.4845182431841517 
3.070000000002054, 1.4796873190149824 
3.0800000000020753, 1.5064770322852046 
3.0900000000020964, 1.5424209094413652 
3.1000000000021175, 1.5566512879077608 
3.1100000000021386, 1.5608189099172958 
3.1200000000021597, 1.5613583911734337 
3.130000000002181, 1.559131381574523 
3.140000000002202, 1.54840818287688 
3.150000000002223, 1.4509563086921582 
3.160000000002244, -1.7900225898589341 
3.1700000000022652, -3.1196401510316485 
3.1800000000022863, -3.1617301022694173 
3.1900000000023074, -3.1664517156988494 
3.2000000000023285, -3.1664276192336755 
3.2100000000023496, -3.164963717074385 
3.2200000000023707, -3.161244501115286 
3.230000000002392, -3.154864222961939 
3.240000000002413, -3.1545062582251244 
3.250000000002434, -3.1553739110742063 
3.260000000002455, -3.1528050606499245 
3.2700000000024763, -3.1495618020245244 
3.2800000000024974, -3.1601293830488646 
3.2900000000025185, -3.16700109101726 
3.3000000000025396, -3.1687423634046823 
3.3100000000025607, -3.1684775008335824 
3.3200000000025818, -3.1651351686909144 
3.330000000002603, -3.147906829193363 
3.340000000002624, -2.9680722283365535 
3.350000000002645, 0.3105590089996609 
3.360000000002666, 1.1625915003194323 
3.3700000000026873, 1.208934518777736 
3.3800000000027084, 1.2169570912020744 
3.3900000000027295, 1.2188400526044822 
3.4000000000027506, 1.2188037680751302 
3.4100000000027717, 1.2176097217288038 
3.420000000002793, 1.2152390558784727 
3.430000000002814, 1.2116498334938262 
3.440000000002835, 1.2074559289488351 
3.450000000002856, 1.2040151994677248 
3.460000000002877, 1.2021955738455004 
3.4700000000028983, 1.2015924788391226 
3.4800000000029194, 1.2012779956416795 
3.4900000000029405, 1.2003541997805365 
3.5000000000029616, 1.1973535066239478 
3.5100000000029827, 1.1866902476602985 
3.520000000003004, 1.1271909973066332 
3.530000000003025, 0.19473174946444413 
3.540000000003046, -3.334682964216391 
3.550000000003067, -3.50640008896283 
3.5600000000030882, -3.5205087966188082 
3.5700000000031094, -3.522693482846072 
3.5800000000031305, -3.52141982967255 
3.5900000000031516, -3.5153023235114937 
3.6000000000031727, -3.479262540513548 
3.6100000000031938, -3.264899590695511 
3.620000000003215, -3.329996823768819 
3.630000000003236, -3.3452228643320923 
3.640000000003257, -3.346281983321469 
3.650000000003278, -3.3457085598839797 
3.6600000000032993, -3.345462409118743 
3.6700000000033204, -3.3442414920469252 
3.6800000000033415, -3.34342958177823 
3.6900000000033626, -3.3427211999724937 
3.7000000000033837, -3.3365575144052833 
3.710000000003405, -3.304822039771073 
3.720000000003426, -3.3781048127333166 
3.730000000003447, -3.4165191896535325 
3.740000000003468, -3.4227369847625964 
3.750000000003489, -3.423516183334688 
3.7600000000035103, -3.421283920862328 
3.7700000000035314, -3.411245585921791 
3.7800000000035525, -3.338894543966338 
3.7900000000035736, -1.0066085836164267 
3.8000000000035947, 1.2534468604451665 
3.810000000003616, 1.33357863021233 
3.820000000003637, 1.3443069533047982 
3.830000000003658, 1.3466930740598138 
3.840000000003679, 1.347118992541018 
3.8500000000037002, 1.3470130760384644 
3.8600000000037213, 1.3469085103253156 
3.8700000000037424, 1.3469869866486224 
3.8800000000037635, 1.3471719514219251 
3.8900000000037847, 1.3473120577230502 
3.9000000000038058, 1.3473349431931836 
3.910000000003827, 1.3471782767122402 
3.920000000003848, 1.3465999160830397 
3.930000000003869, 1.344819363210108 
3.94000000000389, 1.3387547318961623 
3.9500000000039113, 1.3075438903131764 
3.9600000000039324, 0.8006190964286086 
3.9700000000039535, -3.089515465180865 
3.9800000000039746, -3.3383830045277185 
3.9900000000039957, -3.3583234961443273 
4.000000000004016, -3.3616457987134525 
4.010000000003993, -3.3611043042033457 
4.02000000000397, -3.357470669846672 
4.030000000003946, -3.3427971576945135 
4.040000000003923, -3.2887771984786296 
4.0500000000039, -3.2939770337264904 
4.0600000000038765, -3.3030713774740486 
4.070000000003853, -3.303502943539859 
4.08000000000383, -3.30281316631725 
4.090000000003807, -3.30371614507645 
4.100000000003783, -3.3038174056797205 
4.11000000000376, -3.303391841850265 
4.120000000003737, -3.302449759087101 
4.130000000003713, -3.295744128632054 
4.14000000000369, -3.222002412820738 
4.150000000003667, -3.3733956132793788 
4.1600000000036434, -3.6703233456141895 
4.17000000000362, -3.689354375586975 
4.180000000003597, -3.6919720335737063 
4.1900000000035735, -3.690795056073584 
4.20000000000355, -3.683956374328473 
4.210000000003527, -3.6335815453650837 
4.220000000003504, -2.0058291435126723 
4.23000000000348, 0.13053405944603585 
4.240000000003457, 0.48044297941041736 
4.250000000003434, 0.5506209552586819 
4.26000000000341, 0.5702893888978078 
4.270000000003387, 0.5772796937575387 
4.280000000003364, 0.5798990064305547 
4.2900000000033405, 0.5804544080884433 
4.300000000003317, 0.5795019107479339 
4.310000000003294, 0.576647586563548 
4.320000000003271, 0.570094022961388 
4.330000000003247, 0.5541114485483082 
4.340000000003224, 0.509892765494618 
4.350000000003201, 0.4095955200522094 
4.360000000003177, 0.8389352931922487 
4.370000000003154, 1.508917211673763 
4.380000000003131, 1.5723948644193873 
4.390000000003107, 1.5813285593156716 
4.400000000003084, 1.5827209106020796 
4.410000000003061, 1.5809496973705137 
4.4200000000030375, 1.5724327589868172 
4.430000000003014, 1.5223737300547708 
4.440000000002991, 1.141879150522253 
4.450000000002968, 0.9477682044172289 
4.460000000002944, 1.0295370854167818 
4.470000000002921, 1.054019963291109 
4.480000000002898, 1.0610650979564487 
4.490000000002874, 1.063047215002721 
4.500000000002851, 1.0628503951069612 
4.510000000002828, 1.0609613861243214 
4.520000000002804, 1.0570628957858685 
4.530000000002781, 1.05246514667209 
4.540000000002758, 1.0609342614033106 
4.5500000000027345, 1.1012752432316883 
4.560000000002711, 1.13932363808988 
4.570000000002688, 1.155997546450707 
4.580000000002665, 1.161865071120564 
4.590000000002641, 1.163491019163667 
4.600000000002618, 1.1627484878493406 
4.610000000002595, 1.1586519125190398 
4.620000000002571, 1.1428564074148442 
4.630000000002548, 1.045543589644377 
4.640000000002525, 0.11368591103814855 
4.6500000000025015, -1.0917954876596834 
4.660000000002478, -1.3559680295246272 
4.670000000002455, -1.4144150127718524 
4.6800000000024315, -1.4304222915729468 
4.690000000002408, -1.4353294693736058 
4.700000000002385, -1.4364246724197176 
4.710000000002362, -1.435602509930163 
4.720000000002338, -1.4335155802690054 
4.730000000002315, -1.432033850270739 
4.740000000002292, -1.437146084079811 
4.750000000002268, -1.4542343845779917 
4.760000000002245, -1.4770871886261085 
4.770000000002222, -1.4965323346577244 
4.7800000000021985, -1.5103518711777573 
4.790000000002175, -1.5198892753504751 
4.800000000002152, -1.5266211840197028 
4.810000000002129, -1.5314583254457643 
4.820000000002105, -1.534882637936241 
4.830000000002082, -1.5371355370564659 
4.840000000002059, -1.5383479179168398 
4.850000000002035, -1.538628144900485 
4.860000000002012, -1.5381089121346303 
4.870000000001989, -1.53695512041552 
4.880000000001965, -1.5353223848099264 
4.890000000001942, -1.5332545441681524 
4.900000000001919, -1.5306800794634376 
4.9100000000018955, -1.5277432246291165 
4.920000000001872, -1.5251906856255082 
4.930000000001849, -1.5238757637666231 
4.940000000001826, -1.523620536990456 
4.950000000001802, -1.5234164369185401 
4.960000000001779, -1.5222459001597513 
4.970000000001756, -1.518768285529107 
4.980000000001732, -1.50979547403372 
