t, s[1].omega / s[0].omega 
0, -0.7400895190216517 
0.009999999999999995, -0.7497590676865429 
0.019999999999999934, -0.760488937470828 
0.029999999999999874, -0.771199231688297 
0.04000000000000012, -0.7804341107982562 
0.050000000000000405, -0.7872015455972753 
0.06000000000000069, -0.7914360992806893 
0.07000000000000098, -0.7936634345208277 
0.08000000000000126, -0.794475914500538 
0.09000000000000155, -0.7942923755771719 
0.10000000000000184, -0.7933763667013226 
0.11000000000000212, -0.7920278811856937 
0.12000000000000241, -0.7910739010154748 
0.130000000000002, -0.7931130345889785 
0.1400000000000009, -0.8052845241446622 
0.1499999999999998, -0.8433750094784385 
0.1599999999999987, -0.930320073683426 
0.1699999999999976, -1.0712029569606263 
0.1799999999999965, -1.2251544173531168 
0.1899999999999954, -1.3471315680498832 
0.1999999999999943, -1.4297907655241355 
0.2099999999999932, -1.4835166538873463 
0.2199999999999921, -1.5177659346406442 
0.229999999999991, -1.538603101695594 
0.2399999999999899, -1.5503071411853866 
0.2499999999999888, -1.5562270662765045 
0.2599999999999877, -1.5587829843983414 
0.2699999999999866, -1.5594869001384994 
0.2799999999999855, -1.559249867278691 
0.2899999999999844, -1.5587403434038871 
0.2999999999999833, -1.5584436386125529 
0.3099999999999822, -1.5584133032915366 
0.3199999999999811, -1.558379589438724 
0.32999999999998, -1.5582487604235558 
0.3399999999999789, -1.5581977159997469 
0.3499999999999778, -1.558263373521616 
0.35999999999997667, -1.558108614313781 
0.36999999999997557, -1.557191933890483 
0.37999999999997447, -1.5548325693403962 
0.38999999999997337, -1.550057074958049 
0.39999999999997227, -1.5414987660617998 
0.40999999999997117, -1.5274553259964336 
0.41999999999997006, -1.5058159851682347 
0.42999999999996896, -1.473348533676462 
0.43999999999996786, -1.4242362142483718 
0.44999999999996676, -1.3493490743115069 
0.45999999999996566, -1.2435160717858065 
0.46999999999996456, -1.128956502054264 
0.47999999999996346, -1.0510906370523045 
0.48999999999996235, -1.0207954599243256 
0.49999999999996125, -1.0155513566468988 
0.5099999999999602, -1.0173334631843587 
0.519999999999959, -1.0195330579858437 
0.529999999999958, -1.0206902905541066 
0.5399999999999568, -1.0205941767609108 
0.5499999999999557, -1.0189226667327205 
0.5599999999999546, -1.0145799427576003 
0.5699999999999535, -1.0046546629023019 
0.5799999999999524, -0.982223021114011 
0.5899999999999513, -0.9337809837179822 
0.5999999999999502, -0.8453942903763453 
0.6099999999999491, -0.7282076064233436 
0.619999999999948, -0.6203899437329656 
0.6299999999999469, -0.5435293833381943 
0.6399999999999458, -0.4941017469232861 
0.6499999999999447, -0.4626078396628285 
0.6599999999999436, -0.44200697593610255 
0.6699999999999425, -0.4280886887641189 
0.6799999999999414, -0.4184298300561455 
0.6899999999999403, -0.4116153275477431 
0.6999999999999392, -0.4067946365556458 
0.7099999999999381, -0.4034413900133713 
0.719999999999937, -0.40122218443689633 
0.7299999999999359, -0.3999239240362427 
0.7399999999999348, -0.39941398406808803 
0.7499999999999337, -0.3996201995097882 
0.7599999999999326, -0.4005244690981925 
0.7699999999999315, -0.40216789863607955 
0.7799999999999304, -0.4046685958519613 
0.7899999999999293, -0.4082567067912436 
0.7999999999999282, -0.4133368332902842 
0.8099999999999271, -0.42059861840526674 
0.819999999999926, -0.43121413380080503 
0.8299999999999249, -0.44717188835077576 
0.8399999999999238, -0.47170478253722 
0.8499999999999227, -0.5091845152105337 
0.8599999999999216, -0.5621969470842902 
0.8699999999999205, -0.6240890866148339 
0.8799999999999194, -0.6780029522048541 
0.8899999999999183, -0.7130233619201976 
0.8999999999999172, -0.7317150481744389 
0.9099999999999161, -0.7407965813505704 
0.919999999999915, -0.744936727934416 
0.9299999999999139, -0.7464663483713171 
0.9399999999999128, -0.7463260757007812 
0.9499999999999117, -0.7446205285249254 
0.9599999999999106, -0.7406498034625802 
0.9699999999999095, -0.7322375495512674 
0.9799999999999084, -0.7131822249801113 
0.9899999999999073, -0.663198585976499 
0.9999999999999062, -0.5011033490768196 
1.0099999999999052, 0.02991544830544119 
1.019999999999904, 0.583613053365407 
1.029999999999903, 0.7192100962012441 
1.039999999999902, 0.748344930658143 
1.0499999999999008, 0.7566819457013021 
1.0599999999998997, 0.7592948449782357 
1.0699999999998986, 0.7595652008230389 
1.0799999999998975, 0.7582061866424331 
1.0899999999998964, 0.7549633936353817 
1.0999999999998953, 0.7491142521308105 
1.1099999999998942, 0.7402509575085849 
1.119999999999893, 0.7297219320801217 
1.129999999999892, 0.7206649872227878 
1.1399999999998909, 0.7151177188344056 
1.1499999999998898, 0.712590769909793 
1.1599999999998887, 0.711682480511026 
1.1699999999998876, 0.7113444693781305 
1.1799999999998865, 0.7109634479587914 
1.1899999999998854, 0.7100667253014555 
1.1999999999998843, 0.7079266875057543 
1.2099999999998832, 0.7026424641555 
1.219999999999882, 0.6872633632123183 
1.229999999999881, 0.6235080223141386 
1.2399999999998799, 0.11480219822468665 
1.2499999999998788, -2.1161446059586706 
1.2599999999998777, -2.6238143843228525 
1.2699999999998766, -2.685232025408782 
1.2799999999998755, -2.698383982949231 
1.2899999999998744, -2.701625746349661 
1.2999999999998733, -2.701713361752179 
1.3099999999998722, -2.700171588334364 
1.319999999999871, -2.6965436009608883 
1.32999999999987, -2.6882168208208297 
1.3399999999998689, -2.6783129024959718 
1.3499999999998678, -2.6789053953887887 
1.3599999999998666, -2.680746264798822 
1.3699999999998655, -2.67954959816437 
1.3799999999998644, -2.6752305427609833 
1.3899999999998633, -2.6782876760639196 
1.3999999999998622, -2.6920982344390643 
1.4099999999998611, -2.6992348143769638 
1.41999999999986, -2.701657366081021 
1.429999999999859, -2.7020772648798372 
1.4399999999998578, -2.700608657567881 
1.4499999999998567, -2.695311769524483 
1.4599999999998556, -2.6778493080450083 
1.4699999999998545, -2.5992448683180522 
1.4799999999998534, -1.9200269258384748 
1.4899999999998523, 0.21726354293785083 
1.4999999999998512, 0.6053464347832833 
1.5099999999998501, 0.6601027073016678 
1.519999999999849, 0.6739290704490801 
1.529999999999848, 0.6785395616527002 
1.5399999999998468, 0.6801160532080563 
1.5499999999998457, 0.6803885712089558 
1.5599999999998446, 0.6799866538598291 
1.5699999999998435, 0.6792987404253381 
1.5799999999998424, 0.679014722331315 
1.5899999999998413, 0.6810483896209625 
1.5999999999998402, 0.6895846033546909 
1.6099999999998391, 0.7080932842640291 
1.619999999999838, 0.7308042715823359 
1.629999999999837, 0.7477569053448004 
1.6399999999998358, 0.75699734004154 
1.6499999999998347, 0.7612369040373679 
1.6599999999998336, 0.7626950759226881 
1.6699999999998325, 0.7622588448674174 
1.6799999999998314, 0.7595631978290486 
1.6899999999998303, 0.7519920858793819 
1.6999999999998292, 0.729247006895098 
1.709999999999828, 0.6499555004258479 
1.719999999999827, 0.4304398342506805 
1.729999999999826, 0.23308500351208875 
1.7399999999998248, 0.18630335528276118 
1.7499999999998237, 0.18381057151921804 
1.7599999999998226, 0.18650530791045009 
1.7699999999998215, 0.18860911223449167 
1.7799999999998204, 0.18979662148489243 
1.7899999999998193, 0.19030943521805588 
1.7999999999998182, 0.19030917800426186 
1.809999999999817, 0.189822411841515 
1.819999999999816, 0.18872836691338934 
1.8299999999998149, 0.18669156876649912 
1.8399999999998138, 0.18295536504935184 
1.8499999999998127, 0.17574554337596962 
1.8599999999998116, 0.16036107816659625 
1.8699999999998105, 0.12191376695422532 
1.8799999999998094, 0.0015825907801133895 
1.8899999999998083, -0.4493477924297641 
1.8999999999998072, -1.3883338778051475 
1.909999999999806, -1.8335830896300713 
1.919999999999805, -1.9337081168615249 
1.9299999999998039, -1.957954034717116 
1.9399999999998028, -1.9646642756373616 
1.9499999999998017, -1.966329111133622 
1.9599999999998006, -1.9662520580876244 
1.9699999999997995, -1.9658036664984806 
1.9799999999997984, -1.9656911811361517 
1.9899999999997973, -1.965647326144244 
1.9999999999997962, -1.9652513389527306 
2.0099999999998173, -1.9648202923310663 
2.0199999999998384, -1.9646549135382614 
2.0299999999998595, -1.9641583110478347 
2.0399999999998806, -1.9620738649753329 
2.0499999999999017, -1.955538590793602 
2.059999999999923, -1.9345143076785398 
2.069999999999944, -1.8565694974083726 
2.079999999999965, -1.5380750075499647 
2.089999999999986, -0.7227649218551192 
2.100000000000007, -0.1491357237400527 
2.1100000000000283, 0.027741344107662897 
2.1200000000000494, 0.08391989927344382 
2.1300000000000705, 0.10572856414989429 
2.1400000000000916, 0.11557500850983801 
2.1500000000001127, 0.12044021047284267 
2.160000000000134, 0.12290565246486314 
2.170000000000155, 0.1240454131846261 
2.180000000000176, 0.12431641711430083 
2.190000000000197, 0.12385499217946343 
2.2000000000002182, 0.12254455374134751 
2.2100000000002393, 0.11992195272473319 
2.2200000000002604, 0.11481114437000739 
2.2300000000002815, 0.10421061270577592 
2.2400000000003026, 0.07977557093481565 
2.2500000000003237, 0.017128035042361826 
2.260000000000345, -0.12381920692199315 
2.270000000000366, 0.5535507215972775 
2.280000000000387, 2.2992496898448933 
2.290000000000408, 2.345491534482629 
2.3000000000004293, 2.34926254247049 
2.3100000000004504, 2.347881257378229 
2.3200000000004715, 2.335355531202512 
2.3300000000004926, 2.0028035683532552 
2.3400000000005137, -1.6749578259705191 
2.3500000000005348, -2.331620210364849 
2.360000000000556, -2.3881399810024706 
2.370000000000577, -2.3965420430747693 
2.380000000000598, -2.3977758306149637 
2.390000000000619, -2.3973580617594967 
2.4000000000006403, -2.397244934056099 
2.4100000000006614, -2.3976033253224216 
2.4200000000006825, -2.3974241333946713 
2.4300000000007036, -2.3969907732045903 
2.4400000000007247, -2.3967454922748357 
2.450000000000746, -2.3955855274308564 
2.460000000000767, -2.3904284238434874 
2.470000000000788, -2.365237276196659 
2.480000000000809, -2.145218680434435 
2.49000000000083, 0.21014701973421093 
2.5000000000008513, 1.197972737438539 
2.5100000000008724, 1.257399270907297 
2.5200000000008935, 1.2668947552620309 
2.5300000000009146, 1.2688882609801801 
2.5400000000009357, 1.2682578301054193 
2.550000000000957, 1.2649518843683851 
2.560000000000978, 1.2559416867173983 
2.570000000000999, 1.2341207851622404 
2.58000000000102, 1.2009112454286295 
2.5900000000010412, 1.1848969543975747 
2.6000000000010624, 1.1864683397958378 
2.6100000000010835, 1.189804593884599 
2.6200000000011046, 1.1913526543784994 
2.6300000000011257, 1.191144714709702 
2.6400000000011468, 1.1886605691285406 
2.650000000001168, 1.180775389284816 
2.660000000001189, 1.1547628205100864 
2.67000000000121, 1.1043917982086993 
2.680000000001231, 1.3354804697306197 
2.6900000000012523, 1.4913749901393687 
2.7000000000012734, 1.5163574731690341 
2.7100000000012945, 1.5213652708032241 
2.7200000000013156, 1.5217849529116751 
2.7300000000013367, 1.5189558312998925 
2.740000000001358, 1.5058635951437571 
2.750000000001379, 1.404348513515104 
2.7600000000014, 0.3758924062926313 
2.770000000001421, -0.22395646895551766 
2.780000000001442, -0.25571059158459086 
2.7900000000014633, -0.25222759623913643 
2.8000000000014844, -0.2499499197895138 
2.8100000000015055, -0.249276447690313 
2.8200000000015266, -0.24926002920530382 
2.8300000000015477, -0.24942140951432945 
2.840000000001569, -0.24955605670306383 
2.85000000000159, -0.24957888526003363 
2.860000000001611, -0.24946103743270523 
2.870000000001632, -0.2492149630495184 
2.8800000000016532, -0.24890125129269736 
2.8900000000016743, -0.24863777206552715 
2.9000000000016954, -0.24859654014469382 
2.9100000000017165, -0.24898992733809208 
2.9200000000017377, -0.25006656846179415 
2.9300000000017588, -0.25213346261841507 
2.94000000000178, -0.25558815892800535 
2.950000000001801, -0.26089137148831315 
2.960000000001822, -0.2683487941260621 
2.970000000001843, -0.27763638861668966 
2.9800000000018643, -0.28746017107011884 
2.9900000000018854, -0.2960887753073197 
3.0000000000019065, -0.3024476574031384 
3.0100000000019276, -0.3064765210586826 
3.0200000000019487, -0.3086302811494968 
3.03000000000197, -0.3093509340273727 
3.040000000001991, -0.3088318197529959 
3.050000000002012, -0.30692505702183515 
3.060000000002033, -0.3030215804215943 
3.070000000002054, -0.2958534756650547 
3.0800000000020753, -0.2834541081871148 
3.0900000000020964, -0.2641584083057936 
3.1000000000021175, -0.23930186342712637 
3.1100000000021386, -0.21432905140601327 
3.1200000000021597, -0.19446854340090017 
3.130000000002181, -0.1809644338715763 
3.140000000002202, -0.17243440979525282 
3.150000000002223, -0.1671635364981233 
3.160000000002244, -0.1639223371186875 
3.1700000000022652, -0.1619494336775272 
3.1800000000022863, -0.16077315616732266 
3.1900000000023074, -0.16007822419138587 
3.2000000000023285, -0.15963884133312684 
3.2100000000023496, -0.15929562598316158 
3.2200000000023707, -0.15894820925560926 
3.230000000002392, -0.15854644926160916 
3.240000000002413, -0.15807882827171588 
3.250000000002434, -0.15756314791168619 
3.260000000002455, -0.15703500643581597 
3.2700000000024763, -0.15646825463517583 
3.2800000000024974, -0.15516416355734328 
3.2900000000025185, -0.1472043634930819 
3.3000000000025396, -0.08639814997034631 
3.3100000000025607, 0.28278990577511826 
3.3200000000025818, 0.8127822827521939 
3.330000000002603, 0.9417285310417212 
3.340000000002624, 0.9665734610928226 
3.350000000002645, 0.9730652970039081 
3.360000000002666, 0.9746836853495289 
3.3700000000026873, 0.9740116728663111 
3.3800000000027084, 0.9708709445066537 
3.3900000000027295, 0.962866827592808 
3.4000000000027506, 0.9440109394334991 
3.4100000000027717, 0.9088745397777511 
3.420000000002793, 0.8745178225618868 
3.430000000002814, 0.8625091977060985 
3.440000000002835, 0.8629250590324398 
3.450000000002856, 0.8651098700173989 
3.460000000002877, 0.8664481734026335 
3.4700000000028983, 0.8666574738538764 
3.4800000000029194, 0.8654820258399886 
3.4900000000029405, 0.861728750481545 
3.5000000000029616, 0.8506571885406435 
3.5100000000029827, 0.8080450935301602 
3.520000000003004, 0.530658792726949 
3.530000000003025, -1.8782921478111376 
3.540000000003046, -3.594748182192969 
3.550000000003067, -3.6460018149177813 
3.5600000000030882, -3.652042421320915 
3.5700000000031094, -3.6522296180946463 
3.5800000000031305, -3.6488131745844767 
3.5900000000031516, -3.6316372362375113 
3.6000000000031727, -3.417413142015806 
3.6100000000031938, -3.248885990041903 
3.620000000003215, -3.321147871040452 
3.630000000003236, -3.326932125549887 
3.640000000003257, -3.3268591702150054 
3.650000000003278, -3.3263151911623723 
3.6600000000032993, -3.32529004164848 
3.6700000000033204, -3.323486218641714 
3.6800000000033415, -3.32317705672927 
3.6900000000033626, -3.321591081924449 
3.7000000000033837, -3.3105801865930493 
3.710000000003405, -3.306348990131441 
3.720000000003426, -3.3614197799035566 
3.730000000003447, -3.3745453218479704 
3.740000000003468, -3.3770106511175455 
3.750000000003489, -3.376412130475039 
3.7600000000035103, -3.3717481722074694 
3.7700000000035314, -3.348648601002438 
3.7800000000035525, -3.0427667790292534 
3.7900000000035736, 0.9184672197777198 
3.8000000000035947, 1.3206988254296408 
3.810000000003616, 1.3475809584330163 
3.820000000003637, 1.352576061698772 
3.830000000003658, 1.353686893650246 
3.840000000003679, 1.3536897746627 
3.8500000000037002, 1.35330549728374 
3.8600000000037213, 1.352755890754461 
3.8700000000037424, 1.352094839791219 
3.8800000000037635, 1.3513965024395986 
3.8900000000037847, 1.3508115791416595 
3.9000000000038058, 1.3504006999828564 
3.910000000003827, 1.349957144006405 
3.920000000003848, 1.3489050677440926 
3.930000000003869, 1.3456421888961576 
3.94000000000389, 1.3325780492833705 
3.9500000000039113, 1.2292973265658442 
3.9600000000039324, -1.6236079757890984 
3.9700000000039535, -3.3558011847830387 
3.9800000000039746, -3.4118328726191827 
3.9900000000039957, -3.4194732948795385 
4.000000000004016, -3.420322334256583 
4.010000000003993, -3.4182156594192756 
4.02000000000397, -3.4099383142960753 
4.030000000003946, -3.363841199355182 
4.040000000003923, -3.3007408768063016 
4.0500000000039, -3.3294791239256285 
4.0600000000038765, -3.333683455900323 
4.070000000003853, -3.3332423946523817 
4.08000000000383, -3.3331496216551684 
4.090000000003807, -3.3333087503655974 
4.100000000003783, -3.3325429917114677 
4.11000000000376, -3.332106317094482 
4.120000000003737, -3.329736972722139 
4.130000000003713, -3.3110234885318106 
4.14000000000369, -3.248268558643713 
4.150000000003667, -3.4745606844938486 
4.1600000000036434, -3.507700228423656 
4.17000000000362, -3.512557486714035 
4.180000000003597, -3.5126955153220765 
4.1900000000035735, -3.5093635196830326 
4.20000000000355, -3.4939732703271056 
4.210000000003527, -3.319796132159552 
4.220000000003504, 0.04243724695059963 
4.23000000000348, 1.0349241896816415 
4.240000000003457, 1.1048356176864707 
4.250000000003434, 1.1170782908216157 
4.26000000000341, 1.1202050636791954 
4.270000000003387, 1.120822153752655 
4.280000000003364, 1.120553460697153 
4.2900000000033405, 1.120281247267821 
4.300000000003317, 1.1211741010044232 
4.310000000003294, 1.124546188792348 
4.320000000003271, 1.1302085042390009 
4.330000000003247, 1.135925038288065 
4.340000000003224, 1.1399012954357006 
4.350000000003201, 1.1419548037861955 
4.360000000003177, 1.1424814576716664 
4.370000000003154, 1.1414993640118283 
4.380000000003131, 1.1376375915166819 
4.390000000003107, 1.1229926456083594 
4.400000000003084, 1.023760735510488 
4.410000000003061, -0.9294240298830816 
4.4200000000030375, -2.8295548005150732 
4.430000000003014, -2.9197034204737737 
4.440000000002991, -2.9304617956195864 
4.450000000002968, -2.9319801823024796 
4.460000000002944, -2.931275387301599 
4.470000000002921, -2.9293661538871993 
4.480000000002898, -2.924948135827125 
4.490000000002874, -2.9195064432570805 
4.500000000002851, -2.919747422818859 
4.510000000002828, -2.920223784999567 
4.520000000002804, -2.917231654641574 
4.530000000002781, -2.91129155691923 
4.540000000002758, -2.9250605345845138 
4.5500000000027345, -2.93919104881697 
4.560000000002711, -2.943631197553967 
4.570000000002688, -2.9446718077101 
4.580000000002665, -2.943685809113582 
4.590000000002641, -2.9389607909823807 
4.600000000002618, -2.920508988470032 
4.610000000002595, -2.804799197499278 
4.620000000002571, -1.1102711801793546 
4.630000000002548, 0.7805682390794819 
4.640000000002525, 0.913382443271123 
4.6500000000025015, 0.9338516098695647 
4.660000000002478, 0.9392150719998866 
4.670000000002455, 0.940833455686924 
4.6800000000024315, 0.9411923942706958 
4.690000000002408, 0.9411512555892365 
4.700000000002385, 0.9412229282885317 
4.710000000002362, 0.9418620348949093 
4.720000000002338, 0.9433958523772304 
4.730000000002315, 0.9457636634402679 
4.740000000002292, 0.9484271128686166 
4.750000000002268, 0.9507165995131712 
4.760000000002245, 0.9522312718675904 
4.770000000002222, 0.9528516410224318 
4.7800000000021985, 0.9524594338680796 
4.790000000002175, 0.9504684809988563 
4.800000000002152, 0.9444238510744366 
4.810000000002129, 0.9218681639469202 
4.820000000002105, 0.7677878865845525 
4.830000000002082, -1.2673113176859192 
4.840000000002059, -2.629239235174208 
4.850000000002035, -2.718484788864227 
4.860000000002012, -2.7307886500907927 
4.870000000001989, -2.7328921110197677 
4.880000000001965, -2.732528712282954 
4.890000000001942, -2.7312518659271525 
4.900000000001919, -2.728629752943341 
4.9100000000018955, -2.7243124410120823 
4.920000000001872, -2.7225341857164143 
4.930000000001849, -2.7231299882629036 
4.940000000001826, -2.7217662410580217 
4.950000000001802, -2.7143368548004556 
4.960000000001779, -2.704901161502481 
4.970000000001756, -2.746388468137116 
