t, s[1].omega / s[0].omega 
0, -0.7198949443704092 
0.009999999999999995, -0.7103024764704138 
0.019999999999999934, -0.702357895151791 
0.029999999999999874, -0.6957440780389931 
0.04000000000000012, -0.6901669467048702 
0.050000000000000405, -0.6854156155367057 
0.06000000000000069, -0.6813651888886342 
0.07000000000000098, -0.6779585186465915 
0.08000000000000126, -0.6751818490646624 
0.09000000000000155, -0.673040769486162 
0.10000000000000184, -0.6715389409736279 
0.11000000000000212, -0.6706608398769639 
0.12000000000000241, -0.6703609487477936 
0.130000000000002, -0.6705629863777577 
0.1400000000000009, -0.6711710510249278 
0.1499999999999998, -0.6720902995859265 
0.1599999999999987, -0.6732513383384118 
0.1699999999999976, -0.6746316406655348 
0.1799999999999965, -0.6762675370039025 
0.1899999999999954, -0.6782511343060259 
0.1999999999999943, -0.6807091969706073 
0.2099999999999932, -0.6837616295703093 
0.2199999999999921, -0.6874514059413098 
0.229999999999991, -0.6916450768859986 
0.2399999999999899, -0.6959612635845861 
0.2499999999999888, -0.6998507912663879 
0.2599999999999877, -0.7028477112321702 
0.2699999999999866, -0.7047732300883914 
0.2799999999999855, -0.7057115932197623 
0.2899999999999844, -0.7058586782567727 
0.2999999999999833, -0.7054225107186672 
0.3099999999999822, -0.704648058530516 
0.3199999999999811, -0.7040017234457895 
0.32999999999998, -0.7046344326943998 
0.3399999999999789, -0.7093877180818369 
0.3499999999999778, -0.7246516476480077 
0.35999999999997667, -0.7626210668836646 
0.36999999999997557, -0.8399541969237916 
0.37999999999997447, -0.9635139320759825 
0.38999999999997337, -1.110077156268448 
0.39999999999997227, -1.241851578659367 
0.40999999999997117, -1.3414404004428429 
0.41999999999997006, -1.4109449870629311 
0.42999999999996896, -1.4570110529229867 
0.43999999999996786, -1.485466470142126 
0.44999999999996676, -1.5014560001305173 
0.45999999999996566, -1.5095470442334786 
0.46999999999996456, -1.5131575153514842 
0.47999999999996346, -1.5143832074882806 
0.48999999999996235, -1.514393474878432 
0.49999999999996125, -1.5139627384683014 
0.5099999999999602, -1.5137433583291402 
0.519999999999959, -1.5140400523425575 
0.529999999999958, -1.5146110168710993 
0.5399999999999568, -1.5151081679789167 
0.5499999999999557, -1.5154864827742376 
0.5599999999999546, -1.515834630311398 
0.5699999999999535, -1.5160410973489413 
0.5799999999999524, -1.5157733748914548 
0.5899999999999513, -1.514621147779905 
0.5999999999999502, -1.5121338185369093 
0.6099999999999491, -1.5078223001333009 
0.619999999999948, -1.5012014814785186 
0.6299999999999469, -1.4917645605003422 
0.6399999999999458, -1.478754515411938 
0.6499999999999447, -1.4607235423032419 
0.6599999999999436, -1.434998020413762 
0.6699999999999425, -1.397772641833019 
0.6799999999999414, -1.3479606665559603 
0.6899999999999403, -1.2975408001085782 
0.6999999999999392, -1.2679932274468981 
0.7099999999999381, -1.2611585435935229 
0.719999999999937, -1.263018755485262 
0.7299999999999359, -1.2653556376744535 
0.7399999999999348, -1.2663151257254466 
0.7499999999999337, -1.2656346863045314 
0.7599999999999326, -1.2625154875210398 
0.7699999999999315, -1.2538824724238877 
0.7799999999999304, -1.228737857477332 
0.7899999999999293, -1.1427131760064864 
0.7999999999999282, -0.8067397160392842 
0.8099999999999271, 0.00677170926004516 
0.819999999999926, 0.4308965435056612 
0.8299999999999249, 0.5208973003151287 
0.8399999999999238, 0.5439635119174617 
0.8499999999999227, 0.5516081969105943 
0.8599999999999216, 0.5543806670123834 
0.8699999999999205, 0.55509727596276 
0.8799999999999194, 0.5546466903013102 
0.8899999999999183, 0.553344977440963 
0.8999999999999172, 0.5513806613802494 
0.9099999999999161, 0.5490133446409485 
0.919999999999915, 0.5466182980386304 
0.9299999999999139, 0.5445842923938278 
0.9399999999999128, 0.5431659286246624 
0.9499999999999117, 0.5424196449234873 
0.9599999999999106, 0.542238416319219 
0.9699999999999095, 0.5424187276011806 
0.9799999999999084, 0.5427157583585034 
0.9899999999999073, 0.5428765056198837 
0.9999999999999062, 0.5426359688601922 
1.0099999999999052, 0.5416362984969296 
1.019999999999904, 0.5391636719202219 
1.029999999999903, 0.5333000496488187 
1.039999999999902, 0.5174902527108066 
1.0499999999999008, 0.4611887072588631 
1.0599999999998997, 0.1506972453803859 
1.0699999999998986, -1.1795990620022276 
1.0799999999998975, -1.8728068370500164 
1.0899999999998964, -1.9796462477653851 
1.0999999999998953, -2.000591036872716 
1.1099999999998942, -2.0057136050998183 
1.119999999999893, -2.0066811323769627 
1.129999999999892, -2.006346419447344 
1.1399999999998909, -2.0061010771426573 
1.1499999999998898, -2.0064816427509804 
1.1599999999998887, -2.0068371279023656 
1.1699999999998876, -2.0067784725442506 
1.1799999999998865, -2.006667483898816 
1.1899999999998854, -2.0065229223027865 
1.1999999999998843, -2.005557313577902 
1.2099999999998832, -2.002205078127433 
1.219999999999882, -1.992137697069485 
1.229999999999881, -1.9598109389122673 
1.2399999999998799, -1.8422848339293574 
1.2499999999998788, -1.4125448561410967 
1.2599999999998777, -0.5927947385839335 
1.2699999999998766, -0.13290199157131435 
1.2799999999998755, 0.011105432852807426 
1.2899999999998744, 0.06003412175793047 
1.2999999999998733, 0.07999979744366502 
1.3099999999998722, 0.0893078459831634 
1.319999999999871, 0.09398688362588438 
1.32999999999987, 0.09634562478037068 
1.3399999999998689, 0.09735094998673302 
1.3499999999998678, 0.09738535814383012 
1.3599999999998666, 0.09648881756948859 
1.3699999999998655, 0.09436642852236239 
1.3799999999998644, 0.09015897701001226 
1.3899999999998633, 0.08167128207381283 
1.3999999999998622, 0.06278937768495528 
1.4099999999998611, 0.013269466418200034 
1.41999999999986, -0.15158495151420473 
1.429999999999859, -0.8553332190417817 
1.4399999999998578, -2.213623038198131 
1.4499999999998567, -2.5276859014839657 
1.4599999999998556, -2.578531649412189 
1.4699999999998545, -2.5921866376671154 
1.4799999999998534, -2.5966435557949774 
1.4899999999998523, -2.5976353059731148 
1.4999999999998512, -2.596672101163496 
1.5099999999998501, -2.593734073074876 
1.519999999999849, -2.586671641925496 
1.529999999999848, -2.5689929974971717 
1.5399999999998468, -2.547577821139646 
1.5499999999998457, -2.5500445567134116 
1.5599999999998446, -2.5541686248751163 
1.5699999999998435, -2.5542689368494167 
1.5799999999998424, -2.551853048349302 
1.5899999999998413, -2.5518110290737614 
1.5999999999998402, -2.5595242340271884 
1.6099999999998391, -2.5655623825040728 
1.619999999999838, -2.5680037603052557 
1.629999999999837, -2.568704223372746 
1.6399999999998358, -2.567954750176669 
1.6499999999998347, -2.5645194609168875 
1.6599999999998336, -2.5536834357914686 
1.6699999999998325, -2.5142842121264364 
1.6799999999998314, -2.299951235366117 
1.6899999999998303, -0.847416159053709 
1.6999999999998292, 0.3522697436045042 
1.709999999999828, 0.5184780065463084 
1.719999999999827, 0.5523140219538185 
1.729999999999826, 0.5626798057627842 
1.7399999999998248, 0.566514525303466 
1.7499999999998237, 0.5679025353154457 
1.7599999999998226, 0.5681345882993643 
1.7699999999998215, 0.5676975838013809 
1.7799999999998204, 0.5668520121760098 
1.7899999999998193, 0.5660312686666306 
1.7999999999998182, 0.5667303784734362 
1.809999999999817, 0.57368293649756 
1.819999999999816, 0.5957142989725688 
1.8299999999998149, 0.6325042256135587 
1.8399999999998138, 0.6649154676577453 
1.8499999999998127, 0.6830567182996276 
1.8599999999998116, 0.6913386545084637 
1.8699999999998105, 0.6947224958640781 
1.8799999999998094, 0.6955757456849244 
1.8899999999998083, 0.6945624817032092 
1.8999999999998072, 0.6910415481980483 
1.909999999999806, 0.6821822192058831 
1.919999999999805, 0.6596117712960325 
1.9299999999998039, 0.6053779490019371 
1.9399999999998028, 0.5199747260505779 
1.9499999999998017, 0.46236428302910426 
1.9599999999998006, 0.44667932607220706 
1.9699999999997995, 0.44576023492016176 
1.9799999999997984, 0.44725873264145044 
1.9899999999997973, 0.44849517090775404 
1.9999999999997962, 0.44910789738487467 
2.0099999999998173, 0.4490719567001025 
2.0199999999998384, 0.4482621897693907 
2.0299999999998595, 0.4462448148947239 
2.0399999999998806, 0.44182495382958065 
2.0499999999999017, 0.431469011005116 
2.059999999999923, 0.40227359173691973 
2.069999999999944, 0.2879691547323426 
2.079999999999965, -0.37996534869250287 
2.089999999999986, -1.9174059201938793 
2.100000000000007, -2.334295773158191 
2.1100000000000283, -2.407912913901341 
2.1200000000000494, -2.426158477231093 
2.1300000000000705, -2.431359714308039 
2.1400000000000916, -2.432426239426518 
2.1500000000001127, -2.431786187935373 
2.160000000000134, -2.4301181055526 
2.170000000000155, -2.426913478085119 
2.180000000000176, -2.4214411084741867 
2.190000000000197, -2.417293298644147 
2.2000000000002182, -2.417623499269507 
2.2100000000002393, -2.4179663004806997 
2.2200000000002604, -2.4154909915336487 
2.2300000000002815, -2.4056010198637168 
2.2400000000003026, -2.3949773546111053 
2.2500000000003237, -2.453104898777103 
2.260000000000345, -2.4986684958280314 
2.270000000000366, -2.5134890209156646 
2.280000000000387, -2.51864550663622 
2.290000000000408, -2.5203878852161483 
2.3000000000004293, -2.520196860134864 
2.3100000000004504, -2.518110861593393 
2.3200000000004715, -2.512944638324849 
2.3300000000004926, -2.500001086681178 
2.3400000000005137, -2.4577969666246147 
2.3500000000005348, -2.298076947626551 
2.360000000000556, -2.157209812272425 
2.370000000000577, -2.1963537116476113 
2.380000000000598, -2.2122668197155497 
2.390000000000619, -2.215687998158259 
2.4000000000006403, -2.2155109143035476 
2.4100000000006614, -2.214295481105468 
2.4200000000006825, -2.2153675784279514 
2.4300000000007036, -2.219451100706668 
2.4400000000007247, -2.2227959129466104 
2.450000000000746, -2.224462360206849 
2.460000000000767, -2.2251236682237745 
2.470000000000788, -2.224841063198171 
2.480000000000809, -2.222900172250584 
2.49000000000083, -2.217437461594243 
2.5000000000008513, -2.2032318161977775 
2.5100000000008724, -2.163400249244461 
2.5200000000008935, -2.02880316415332 
2.5300000000009146, -1.4843590310311905 
2.5400000000009357, -0.42531265915452054 
2.550000000000957, 0.018527002729694944 
2.560000000000978, 0.1313559683555685 
2.570000000000999, 0.16716087919193784 
2.58000000000102, 0.18127913384847802 
2.5900000000010412, 0.18761299823516167 
2.6000000000010624, 0.19053446761409282 
2.6100000000010835, 0.1916322653153682 
2.6200000000011046, 0.1914648975054351 
2.6300000000011257, 0.19004892099425338 
2.6400000000011468, 0.18686897351703682 
2.650000000001168, 0.180421328911269 
2.660000000001189, 0.16655154597664826 
2.67000000000121, 0.13204154988431716 
2.680000000001231, 0.023935762042333948 
2.6900000000012523, -0.4140431603398196 
2.7000000000012734, -1.5692071926850732 
2.7100000000012945, -2.137545458147202 
2.7200000000013156, -2.2588541569884923 
2.7300000000013367, -2.2926832254649563 
2.740000000001358, -2.3044694499337846 
2.750000000001379, -2.3087100554725244 
2.7600000000014, -2.309754780983929 
2.770000000001421, -2.309138644511613 
2.780000000001442, -2.307343162021323 
2.7900000000014633, -2.3039346004702934 
2.8000000000014844, -2.2976681615410923 
2.8100000000015055, -2.29034756695647 
2.8200000000015266, -2.288634038885342 
2.8300000000015477, -2.289902079206658 
2.840000000001569, -2.2895765561949704 
2.85000000000159, -2.2856159032834165 
2.860000000001611, -2.2735439930745347 
2.870000000001632, -2.2766936988491495 
2.8800000000016532, -2.3396507608643304 
2.8900000000016743, -2.3773304345529698 
2.9000000000016954, -2.3905768844137367 
2.9100000000017165, -2.3956561542007533 
2.9200000000017377, -2.3975616619881466 
2.9300000000017588, -2.3976278754587304 
2.94000000000178, -2.3960287011019656 
2.950000000001801, -2.392108947456982 
2.960000000001822, -2.3833744516553503 
2.970000000001843, -2.3604224785240335 
2.9800000000018643, -2.2894598239952724 
2.9900000000018854, -2.179124334350857 
3.0000000000019065, -2.183830779544645 
3.0100000000019276, -2.2000032372746676 
3.0200000000019487, -2.204315504326183 
3.03000000000197, -2.204436131637615 
3.040000000001991, -2.202847313834287 
3.050000000002012, -2.202948760361566 
3.060000000002033, -2.2080271124031627 
3.070000000002054, -2.213457080513984 
3.0800000000020753, -2.216454282731769 
3.0900000000020964, -2.2178115470886337 
3.1000000000021175, -2.218098317798718 
3.1100000000021386, -2.2170664170223984 
3.1200000000021597, -2.2137651348465712 
3.130000000002181, -2.205816018862253 
3.140000000002202, -2.186723699611237 
3.150000000002223, -2.1347160435102426 
3.160000000002244, -1.953260791306441 
3.1700000000022652, -1.2827677177153063 
3.1800000000022863, -0.44854345298620946 
3.1900000000023074, -0.15106048838152647 
3.2000000000023285, -0.061946494899436724 
3.2100000000023496, -0.02957879924424085 
3.2200000000023707, -0.015623855016860505 
3.230000000002392, -0.008862142611431919 
3.240000000002413, -0.005376710655195844 
3.250000000002434, -0.0036130889319236858 
3.260000000002455, -0.00292113831020097 
3.2700000000024763, -0.0030689255546034614 
3.2800000000024974, -0.004086238928716232 
3.2900000000025185, -0.006263608421929505 
3.3000000000025396, -0.010296361120488004 
3.3100000000025607, -0.017704376934902514 
3.3200000000025818, -0.031991547210044845 
3.330000000002603, -0.062150154148322166 
3.340000000002624, -0.13446449562981136 
3.350000000002645, -0.33137734783122036 
3.360000000002666, -0.8180390746352499 
3.3700000000026873, -1.3907387203734864 
3.3800000000027084, -1.6411651133587568 
3.3900000000027295, -1.7133591962787125 
3.4000000000027506, -1.7343714638983705 
3.4100000000027717, -1.7408922484923732 
3.420000000002793, -1.7427025909490705 
3.430000000002814, -1.7427350858266433 
3.440000000002835, -1.7423105921231508 
3.450000000002856, -1.7424600277094178 
3.460000000002877, -1.7434127808135476 
3.4700000000028983, -1.7444593650679932 
3.4800000000029194, -1.745136693391823 
3.4900000000029405, -1.74555599212376 
3.5000000000029616, -1.7457765161868957 
3.5100000000029827, -1.7454675698860593 
3.520000000003004, -1.7440367449250243 
3.530000000003025, -1.7405847882677083 
3.540000000003046, -1.733600908120739 
3.550000000003067, -1.720566433754686 
3.5600000000030882, -1.6971939606219482 
3.5700000000031094, -1.6551724109979484 
3.5800000000031305, -1.5762939015553497 
3.5900000000031516, -1.4252766985856355 
3.6000000000031727, -1.1863371993477598 
3.6100000000031938, -0.9660749760935252 
3.620000000003215, -0.8577249271128833 
3.630000000003236, -0.8237704211702546 
3.640000000003257, -0.8172973942180499 
3.650000000003278, -0.8181232934943194 
3.6600000000032993, -0.8199508595244394 
3.6700000000033204, -0.8212047248614462 
3.6800000000033415, -0.8215735037103784 
3.6900000000033626, -0.8209114842086842 
3.7000000000033837, -0.8188693239419486 
3.710000000003405, -0.8147025413510262 
3.720000000003426, -0.8072061124041869 
3.730000000003447, -0.7950981085625306 
3.740000000003468, -0.7781829047844935 
3.750000000003489, -0.7583682345385794 
3.7600000000035103, -0.7387204555206573 
3.7700000000035314, -0.7214201919880353 
3.7800000000035525, -0.7070903095232383 
3.7900000000035736, -0.6954293457268654 
3.8000000000035947, -0.6858884660698448 
3.810000000003616, -0.6779827560553555 
3.820000000003637, -0.6713688635772683 
3.830000000003658, -0.6658345408444807 
3.840000000003679, -0.6612643208384685 
3.8500000000037002, -0.6576018195249651 
3.8600000000037213, -0.6548144093547419 
3.8700000000037424, -0.6528629387171618 
3.8800000000037635, -0.6516802774032525 
3.8900000000037847, -0.6511633942297929 
3.9000000000038058, -0.6511811187918811 
3.910000000003827, -0.6515942328767952 
3.920000000003848, -0.6522805315854688 
3.930000000003869, -0.6531580042399445 
3.94000000000389, -0.6542017821991243 
3.9500000000039113, -0.6554508354321524 
3.9600000000039324, -0.6569999337167014 
3.9700000000039535, -0.6589753344376467 
3.9800000000039746, -0.6614946775174252 
3.9900000000039957, -0.6646056633457678 
4.000000000004016, -0.6682011217020324 
4.010000000003993, -0.6719551868237365 
4.02000000000397, -0.6753842754316018 
4.030000000003946, -0.6780585389692387 
4.040000000003923, -0.6797886764018244 
4.0500000000039, -0.6806229882562798 
4.0600000000038765, -0.6807234375900617 
4.070000000003853, -0.6802764899969723 
4.08000000000383, -0.6795136759807238 
4.090000000003807, -0.6788835930299743 
4.100000000003783, -0.6794979016617037 
4.11000000000376, -0.6841462616437637 
4.120000000003737, -0.6993536993675759 
4.130000000003713, -0.7385279442424164 
4.14000000000369, -0.8225210481154299 
4.150000000003667, -0.9640271822540283 
4.1600000000036434, -1.1356404304712853 
4.17000000000362, -1.2858453415366902 
4.180000000003597, -1.3931198309370338 
4.1900000000035735, -1.463678402071362 
4.20000000000355, -1.5081407944053007 
4.210000000003527, -1.5345386500479592 
4.220000000003504, -1.5489380798133532 
4.23000000000348, -1.5560481657487533 
4.240000000003457, -1.5591127325132104 
4.250000000003434, -1.5600405859839024 
4.26000000000341, -1.5599002706548029 
4.270000000003387, -1.5594296533618763 
4.280000000003364, -1.559197853555198 
4.2900000000033405, -1.5593356894479657 
4.300000000003317, -1.5595447846953907 
4.310000000003294, -1.55963047885389 
4.320000000003271, -1.5597094207805247 
4.330000000003247, -1.559852388848832 
4.340000000003224, -1.5597950190366805 
4.350000000003201, -1.5590552127316226 
4.360000000003177, -1.557038232463435 
4.370000000003154, -1.552948090194089 
4.380000000003131, -1.545725365049037 
4.390000000003107, -1.534096994479239 
4.400000000003084, -1.5164938427148078 
4.410000000003061, -1.490456257502263 
4.4200000000030375, -1.4514122290038283 
4.430000000003014, -1.3916435858566991 
4.440000000002991, -1.3044861909095684 
4.450000000002968, -1.2038988104942905 
4.460000000002944, -1.1314821350826034 
4.470000000002921, -1.1039924952795133 
4.480000000002898, -1.1007701423461294 
4.490000000002874, -1.1034583571419398 
4.500000000002851, -1.1058333772899567 
4.510000000002828, -1.106836715630426 
4.520000000002804, -1.1063671299003253 
4.530000000002781, -1.1039026142675366 
4.540000000002758, -1.0975321136016725 
4.5500000000027345, -1.08150886790358 
4.560000000002711, -1.038757935103424 
4.570000000002688, -0.9239644432627179 
4.580000000002665, -0.6802087672512138 
4.590000000002641, -0.3995170237165604 
4.600000000002618, -0.23205308519566556 
4.610000000002595, -0.1566841834910899 
4.620000000002571, -0.12240503557299462 
4.630000000002548, -0.10532112946551038 
4.640000000002525, -0.09600346841093588 
4.6500000000025015, -0.09054683617289713 
4.660000000002478, -0.08718649524396901 
4.670000000002455, -0.08506185006977725 
4.6800000000024315, -0.08373988511993029 
4.690000000002408, -0.08302342284316762 
4.700000000002385, -0.08288138733585972 
4.710000000002362, -0.08345285704367242 
4.720000000002338, -0.08513738758392604 
4.730000000002315, -0.0888630145697859 
4.740000000002292, -0.09683826205879045 
4.750000000002268, -0.1148734185194891 
4.760000000002245, -0.16073320831953367 
4.770000000002222, -0.29993891206623957 
4.7800000000021985, -0.791050103271935 
4.790000000002175, -1.7648236931142567 
4.800000000002152, -2.1667245127307115 
4.810000000002129, -2.2572972726939597 
4.820000000002105, -2.2845924849824777 
4.830000000002082, -2.2947717460762234 
4.840000000002059, -2.2986497760154143 
4.850000000002035, -2.299634019455673 
4.860000000002012, -2.2989739294770786 
4.870000000001989, -2.297026730453173 
4.880000000001965, -2.293257200292459 
4.890000000001942, -2.2860582122482827 
4.900000000001919, -2.2766045170574674 
4.9100000000018955, -2.27356022519377 
4.920000000001872, -2.2752432847936657 
4.930000000001849, -2.2755541373889865 
4.940000000001826, -2.272817203334076 
