t, s[1].omega / s[0].omega 
0, -0.9996140926096453 
0.009999999999999995, -0.961299387939316 
0.019999999999999934, -0.9244421452796023 
0.029999999999999874, -0.8897574129597279 
0.04000000000000012, -0.8578143335579714 
0.050000000000000405, -0.8295272939732774 
0.06000000000000069, -0.8061017508139068 
0.07000000000000098, -0.7885085241747725 
0.08000000000000126, -0.7768612791748213 
0.09000000000000155, -0.7702399935895454 
0.10000000000000184, -0.7671188727380087 
0.11000000000000212, -0.7659926538685645 
0.12000000000000241, -0.7657474482827078 
0.130000000000002, -0.7656939579579997 
0.1400000000000009, -0.7654333133427913 
0.1499999999999998, -0.7647190719328498 
0.1599999999999987, -0.76339020016799 
0.1699999999999976, -0.7613873760230274 
0.1799999999999965, -0.7588097046982444 
0.1899999999999954, -0.7559173899244531 
0.1999999999999943, -0.7530271273264582 
0.2099999999999932, -0.7503768269599463 
0.2199999999999921, -0.7480658833762763 
0.229999999999991, -0.7460781890387012 
0.2399999999999899, -0.7443361929693011 
0.2499999999999888, -0.7427532682665169 
0.2599999999999877, -0.7412748383794032 
0.2699999999999866, -0.7399021904219828 
0.2799999999999855, -0.7386950350954735 
0.2899999999999844, -0.7377552924326622 
0.2999999999999833, -0.7371989206421324 
0.3099999999999822, -0.7371251296954913 
0.3199999999999811, -0.7375941651226394 
0.32999999999998, -0.7386214407340258 
0.3399999999999789, -0.7401866944587561 
0.3499999999999778, -0.7422502573577066 
0.35999999999997667, -0.7447702161557487 
0.36999999999997557, -0.7477197762826402 
0.37999999999997447, -0.7511057642734059 
0.38999999999997337, -0.7549851855915501 
0.39999999999997227, -0.7594711819994687 
0.40999999999997117, -0.7647152688802208 
0.41999999999997006, -0.7708461058018605 
0.42999999999996896, -0.7778402519072525 
0.43999999999996786, -0.7853415901837408 
0.44999999999996676, -0.7925873725658503 
0.45999999999996566, -0.7986737062009385 
0.46999999999996456, -0.8030438834280975 
0.47999999999996346, -0.8056951014604762 
0.48999999999996235, -0.8069604783022102 
0.49999999999996125, -0.8072183439580559 
0.5099999999999602, -0.8067792128926501 
0.519999999999959, -0.8059626413847996 
0.529999999999958, -0.8053666085475548 
0.5399999999999568, -0.8064275434257272 
0.5499999999999557, -0.8123251812645345 
0.5599999999999546, -0.8287233000068704 
0.5699999999999535, -0.8626162863604797 
0.5799999999999524, -0.9175703359449672 
0.5899999999999513, -0.9885838965796628 
0.5999999999999502, -1.0643020176410434 
0.6099999999999491, -1.1350542672248252 
0.619999999999948, -1.1964991856193232 
0.6299999999999469, -1.2474961072341209 
0.6399999999999458, -1.2874952514891456 
0.6499999999999447, -1.3161150253466523 
0.6599999999999436, -1.33422824525283 
0.6699999999999425, -1.3443027377053087 
0.6799999999999414, -1.3492457264010267 
0.6899999999999403, -1.3512763883761285 
0.6999999999999392, -1.3517345981363016 
0.7099999999999381, -1.3514404575575212 
0.719999999999937, -1.351116596587833 
0.7299999999999359, -1.3515025482422662 
0.7399999999999348, -1.3529324109406475 
0.7499999999999337, -1.3550241907538858 
0.7599999999999326, -1.3571598895636128 
0.7699999999999315, -1.3590176191631023 
0.7799999999999304, -1.360549896697854 
0.7899999999999293, -1.3617437442762332 
0.7999999999999282, -1.3625229693212333 
0.8099999999999271, -1.3627970738509332 
0.819999999999926, -1.362518226537657 
0.8299999999999249, -1.3616889282721218 
0.8399999999999238, -1.3603336639628913 
0.8499999999999227, -1.358461412527266 
0.8599999999999216, -1.3560444643039313 
0.8699999999999205, -1.3530195652710204 
0.8799999999999194, -1.3492902910608913 
0.8899999999999183, -1.3447124939268513 
0.8999999999999172, -1.3391197466915645 
0.9099999999999161, -1.332557495481087 
0.919999999999915, -1.3257967530697112 
0.9299999999999139, -1.3204913985064304 
0.9399999999999128, -1.3178805317920295 
0.9499999999999117, -1.317388621997973 
0.9599999999999106, -1.3175125779373462 
0.9699999999999095, -1.3171242601702036 
0.9799999999999084, -1.3153719037204465 
0.9899999999999073, -1.3108243909298773 
0.9999999999999062, -1.300065807624763 
1.0099999999999052, -1.2751944397464818 
1.019999999999904, -1.2214209378661967 
1.029999999999903, -1.1232767012525176 
1.039999999999902, -0.9864612201095435 
1.0499999999999008, -0.8437414060672677 
1.0599999999998997, -0.7242360298862129 
1.0699999999998986, -0.6360176292762824 
1.0799999999998975, -0.5747371315249037 
1.0899999999998964, -0.5333416162970305 
1.0999999999998953, -0.5057915729809828 
1.1099999999998942, -0.48767768103325054 
1.119999999999893, -0.475945906371358 
1.129999999999892, -0.4685126147272637 
1.1399999999998909, -0.4639588993500068 
1.1499999999998898, -0.4613182820829211 
1.1599999999998887, -0.45993463122444184 
1.1699999999998876, -0.45936727597630095 
1.1799999999998865, -0.45932771505220915 
1.1899999999998854, -0.4596389496330614 
1.1999999999998843, -0.4602124362398552 
1.2099999999998832, -0.46103852418012964 
1.219999999999882, -0.4621847674124996 
1.229999999999881, -0.4637959764082943 
1.2399999999998799, -0.4660936614999807 
1.2499999999998788, -0.4693753155427053 
1.2599999999998777, -0.47399964895331614 
1.2699999999998766, -0.480301979915874 
1.2799999999998755, -0.4883491574461926 
1.2899999999998744, -0.49756358945650037 
1.2999999999998733, -0.5066306134026506 
1.3099999999998722, -0.5141365863922919 
1.319999999999871, -0.5193995864441713 
1.32999999999987, -0.5225565537255041 
1.3399999999998689, -0.5240725831578896 
1.3499999999998678, -0.5243281636758007 
1.3599999999998666, -0.5234440906088369 
1.3699999999998655, -0.5211714545811398 
1.3799999999998644, -0.5166136330444406 
1.3899999999998633, -0.5073293999583425 
1.3999999999998622, -0.48627165327724187 
1.4099999999998611, -0.4306273802890649 
1.41999999999986, -0.2702564943012939 
1.429999999999859, 0.05507948018671573 
1.4399999999998578, 0.30179791086401375 
1.4499999999998567, 0.38790333521764975 
1.4599999999998556, 0.415220898355368 
1.4699999999998545, 0.42513309488128276 
1.4799999999998534, 0.4290541464235707 
1.4899999999998523, 0.43042808406373956 
1.4999999999998512, 0.43042101670007027 
1.5099999999998501, 0.42946011482125657 
1.519999999999849, 0.42775344718638475 
1.529999999999848, 0.42552516757104175 
1.5399999999998468, 0.4231071958752537 
1.5499999999998457, 0.420890338582975 
1.5599999999998446, 0.4191962653617273 
1.5699999999998435, 0.41819177647336386 
1.5799999999998424, 0.4178915422572846 
1.5899999999998413, 0.4181974210658351 
1.5999999999998402, 0.41892560667640016 
1.6099999999998391, 0.41982712368403324 
1.619999999999838, 0.4206246875828497 
1.629999999999837, 0.4210537824190978 
1.6399999999998358, 0.42085796240907564 
1.6499999999998347, 0.41968286563346197 
1.6599999999998336, 0.4167749470559978 
1.6699999999998325, 0.4101160377667693 
1.6799999999998314, 0.3933366575148971 
1.6899999999998303, 0.3420424338924548 
1.6999999999998292, 0.15108164439374244 
1.709999999999828, -0.3725190450958008 
1.719999999999827, -0.8070409748254918 
1.729999999999826, -0.9547706445035494 
1.7399999999998248, -1.0004206812397902 
1.7499999999998237, -1.0162877106302843 
1.7599999999998226, -1.0222756017295551 
1.7699999999998215, -1.0243174450945558 
1.7799999999998204, -1.024246091577343 
1.7899999999998193, -1.0223092860115455 
1.7999999999998182, -1.0176056624982235 
1.809999999999817, -1.0075350457019376 
1.819999999999816, -0.9867537444624525 
1.8299999999998149, -0.9518578865786415 
1.8399999999998138, -0.9752514794646802 
1.8499999999998127, -1.9372401150631489 
1.8599999999998116, -3.0393610422881934 
1.8699999999998105, -3.1232376480247117 
1.8799999999998094, -3.1357826613902127 
1.8899999999998083, -3.1385727456432777 
1.8999999999998072, -3.1381685602552123 
1.909999999999806, -3.1348838666927197 
1.919999999999805, -3.1234433498634417 
1.9299999999998039, -3.062324175135976 
1.9399999999998028, -2.9230291206299386 
1.9499999999998017, -2.9694042738958824 
1.9599999999998006, -2.9802973583775825 
1.9699999999997995, -2.981239753153457 
1.9799999999997984, -2.980588918714207 
1.9899999999997973, -2.9810411683168847 
1.9999999999997962, -2.9813310274104983 
2.0099999999998173, -2.980851647542019 
2.0199999999998384, -2.9804831527529307 
2.0299999999998595, -2.9784984302198128 
2.0399999999998806, -2.9659218804254905 
2.0499999999999017, -2.822680871472356 
2.059999999999923, -3.1529965252733634 
2.069999999999944, -3.8158154416437022 
2.079999999999965, -3.840554853475261 
2.089999999999986, -3.8434716009173684 
2.100000000000007, -3.8422110087084733 
2.1100000000000283, -3.8345406388805623 
2.1200000000000494, -3.761023892205916 
2.1300000000000705, -2.0202851985826364 
2.1400000000000916, -2.1967802967330843 
2.1500000000001127, -2.346600158059633 
2.160000000000134, -2.3664259600397783 
2.170000000000155, -2.3698094597523536 
2.180000000000176, -2.3698025125567854 
2.190000000000197, -2.3693426278999903 
2.2000000000002182, -2.369986217061753 
2.2100000000002393, -2.370827556275831 
2.2200000000002604, -2.370950520890594 
2.2300000000002815, -2.370851991564144 
2.2400000000003026, -2.370452786575214 
2.2500000000003237, -2.3683228313129443 
2.260000000000345, -2.3598958001195838 
2.270000000000366, -2.318783476072089 
2.280000000000387, -1.9744029733392334 
2.290000000000408, 0.03828815383509395 
2.3000000000004293, 0.6857018907318982 
2.3100000000004504, 0.7571900566104148 
2.3200000000004715, 0.7724563826922641 
2.3300000000004926, 0.7770526021916737 
2.3400000000005137, 0.7784148538227511 
2.3500000000005348, 0.7783549751457279 
2.360000000000556, 0.7774079583894029 
2.370000000000577, 0.7757780707017395 
2.380000000000598, 0.7736654015410422 
2.390000000000619, 0.77139597283247 
2.4000000000006403, 0.7693725567000038 
2.4100000000006614, 0.7678944801504277 
2.4200000000006825, 0.7670248091387324 
2.4300000000007036, 0.7666138254168005 
2.4400000000007247, 0.7664052050776526 
2.450000000000746, 0.7661068843649742 
2.460000000000767, 0.7653623134599108 
2.470000000000788, 0.76354276756484 
2.480000000000809, 0.7589932128071365 
2.49000000000083, 0.7456193653781642 
2.5000000000008513, 0.6892205093130486 
2.5100000000008724, 0.21054526257139652 
2.5200000000008935, -2.151479020675625 
2.5300000000009146, -2.6508035159420786 
2.5400000000009357, -2.702113191206995 
2.550000000000957, -2.711604428854948 
2.560000000000978, -2.7133935270272014 
2.570000000000999, -2.7128893058273005 
2.58000000000102, -2.711205339887891 
2.5900000000010412, -2.707555600794374 
2.6000000000010624, -2.7012767272799 
2.6100000000010835, -2.6986291417792208 
2.6200000000011046, -2.699845370921329 
2.6300000000011257, -2.699208750966121 
2.6400000000011468, -2.6942165808410654 
2.650000000001168, -2.688559810943107 
2.660000000001189, -2.7116770294008865 
2.67000000000121, -2.7302444307103655 
2.680000000001231, -2.7363972499698286 
2.6900000000012523, -2.7382680034530846 
2.7000000000012734, -2.7380846506299514 
2.7100000000012945, -2.735565099495666 
2.7200000000013156, -2.7279612790311587 
2.7300000000013367, -2.702697450287748 
2.740000000001358, -2.567638934086178 
2.750000000001379, -1.3233870596574464 
2.7600000000014, 0.20332234650126538 
2.770000000001421, 0.4473020739616696 
2.780000000001442, 0.49581692129644656 
2.7900000000014633, 0.5103843216547523 
2.8000000000014844, 0.5157909118252889 
2.8100000000015055, 0.5177923489507819 
2.8200000000015266, 0.5180677450452487 
2.8300000000015477, 0.5170138868901254 
2.840000000001569, 0.5142909515024614 
2.85000000000159, 0.508544437106879 
2.860000000001611, 0.4961437132033583 
2.870000000001632, 0.46945157780013425 
2.8800000000016532, 0.4480603085000176 
2.8900000000016743, 0.730999571695911 
2.9000000000016954, 1.0959715345782457 
2.9100000000017165, 1.168006902256937 
2.9200000000017377, 1.182056262723012 
2.9300000000017588, 1.1855129135883826 
2.94000000000178, 1.1856326426376251 
2.950000000001801, 1.1830603166250964 
2.960000000001822, 1.174414470015847 
2.970000000001843, 1.1433359068516595 
2.9800000000018643, 1.0352318740709427 
2.9900000000018854, 0.9115838653930071 
3.0000000000019065, 0.9108522693361418 
3.0100000000019276, 0.9261266385187181 
3.0200000000019487, 0.9333427899726028 
3.03000000000197, 0.9361223167336851 
3.040000000001991, 0.9366290128272929 
3.050000000002012, 0.9353126482436729 
3.060000000002033, 0.9311679112101483 
3.070000000002054, 0.9200449422999271 
3.0800000000020753, 0.8888762983744825 
3.0900000000020964, 0.8551864484165697 
3.1000000000021175, 1.1371660796721204 
3.1100000000021386, 1.322298293826586 
3.1200000000021597, 1.3538345390441386 
3.130000000002181, 1.360488279020728 
3.140000000002202, 1.3616646518849427 
3.150000000002223, 1.3600280669868228 
3.160000000002244, 1.3529403734175864 
3.1700000000022652, 1.3199323450214493 
3.1800000000022863, 1.0947820312308107 
3.1900000000023074, 0.663150344953805 
3.2000000000023285, 0.6913654228579132 
3.2100000000023496, 0.7325637231325094 
3.2200000000023707, 0.7476506823706879 
3.230000000002392, 0.7532869692995051 
3.240000000002413, 0.7552704560659292 
3.250000000002434, 0.7553287300999918 
3.260000000002455, 0.7536506329613755 
3.2700000000024763, 0.7491254270870062 
3.2800000000024974, 0.7376497466242613 
3.2900000000025185, 0.7051236233126418 
3.3000000000025396, 0.6269226032051795 
3.3100000000025607, 0.887291548901637 
3.3200000000025818, 1.378209350423943 
3.330000000002603, 1.445544109646267 
3.340000000002624, 1.4561948837703498 
3.350000000002645, 1.458249829046617 
3.360000000002666, 1.4572064394884048 
3.3700000000026873, 1.4515421486876534 
3.3800000000027084, 1.4253633205537513 
3.3900000000027295, 1.2454054320193935 
3.4000000000027506, 0.8658424174198744 
3.4100000000027717, 0.9124692417794943 
3.420000000002793, 0.9512830142923259 
3.430000000002814, 0.9634606011897715 
3.440000000002835, 0.9674439729839168 
3.450000000002856, 0.9683638473445727 
3.460000000002877, 0.967453681577461 
3.4700000000028983, 0.9644539554663047 
3.4800000000029194, 0.9578931894907503 
3.4900000000029405, 0.9473452265176612 
3.5000000000029616, 0.9588457757876642 
3.5100000000029827, 1.0460689446552893 
3.520000000003004, 1.1156649786112522 
3.530000000003025, 1.1387847508701505 
3.540000000003046, 1.1457021462944448 
3.550000000003067, 1.1475054508872156 
3.5600000000030882, 1.1467744471301224 
3.5700000000031094, 1.1426839906837458 
3.5800000000031305, 1.1277261635437537 
3.5900000000031516, 1.051308094768587 
3.6000000000031727, 0.6151607279741851 
3.6100000000031938, 0.18863980995942414 
3.620000000003215, 0.16743145287283417 
3.630000000003236, 0.18669707825108758 
3.640000000003257, 0.19807620538410703 
3.650000000003278, 0.2037514547986156 
3.6600000000032993, 0.20654897875877515 
3.6700000000033204, 0.20783070619317168 
3.6800000000033415, 0.20818311361693556 
3.6900000000033626, 0.20779937163161497 
3.7000000000033837, 0.20660579044980606 
3.710000000003405, 0.20421919942537775 
3.720000000003426, 0.19967529441327908 
3.730000000003447, 0.1905608074970684 
3.740000000003468, 0.17003490181636696 
3.750000000003489, 0.11450287731881334 
3.7600000000035103, -0.07819748440192875 
3.7700000000035314, -0.7876523937001603 
3.7800000000035525, -1.7277753549101722 
3.7900000000035736, -2.026782278293775 
3.8000000000035947, -2.0939042588407704 
3.810000000003616, -2.1113738785175555 
3.820000000003637, -2.1163334320181972 
3.830000000003658, -2.1173979736774875 
3.840000000003679, -2.117059740234391 
3.8500000000037002, -2.116361404315323 
3.8600000000037213, -2.115506250523839 
3.8700000000037424, -2.114102828311603 
3.8800000000037635, -2.112513138927965 
3.8900000000037847, -2.1118292458476553 
3.9000000000038058, -2.1116328112981853 
3.910000000003827, -2.1102490284170305 
3.920000000003848, -2.104530433155415 
3.930000000003869, -2.0794339349812736 
3.94000000000389, -1.9087360492892291 
3.9500000000039113, -0.29116571929869495 
3.9600000000039324, 1.2466977426846728 
3.9700000000039535, 1.3437269490926231 
3.9800000000039746, 1.356392433938035 
3.9900000000039957, 1.3589408947283885 
4.000000000004016, 1.3584338028966447 
4.010000000003993, 1.3548439115493633 
4.02000000000397, 1.3432739594623502 
4.030000000003946, 1.3064293459908471 
4.040000000003923, 1.239031472757737 
4.0500000000039, 1.220502284435287 
4.0600000000038765, 1.2300480677810581 
4.070000000003853, 1.2358430722000424 
4.08000000000383, 1.2378424635359355 
4.090000000003807, 1.2376010473463304 
4.100000000003783, 1.2350375482910312 
4.11000000000376, 1.228038542231198 
4.120000000003737, 1.2136742658766067 
4.130000000003713, 1.2268871199386955 
4.14000000000369, 1.317960061028317 
4.150000000003667, 1.3663807600558249 
4.1600000000036434, 1.3795023534508577 
4.17000000000362, 1.3829407737801978 
4.180000000003597, 1.3830209962211293 
4.1900000000035735, 1.3800212813522634 
4.20000000000355, 1.3670561519885844 
4.210000000003527, 1.272471155762648 
4.220000000003504, -0.07168423580223134 
4.23000000000348, -1.5715968689980904 
4.240000000003457, -1.7914666097369096 
4.250000000003434, -1.8282645182671111 
4.26000000000341, -1.8366953839336844 
4.270000000003387, -1.8385947886174718 
4.280000000003364, -1.838330507549437 
4.2900000000033405, -1.83761577460676 
4.300000000003317, -1.838449669188488 
4.310000000003294, -1.8414640463275347 
4.320000000003271, -1.8447246033484077 
4.330000000003247, -1.8469649110736264 
4.340000000003224, -1.8482940662352647 
4.350000000003201, -1.8489494356101595 
4.360000000003177, -1.8488103186257188 
4.370000000003154, -1.847512930692319 
4.380000000003131, -1.8444883244442978 
4.390000000003107, -1.8388290582288882 
4.400000000003084, -1.8289662221665164 
4.410000000003061, -1.8117241222377882 
4.4200000000030375, -1.779525018014861 
4.430000000003014, -1.7131401304393363 
4.440000000002991, -1.5773787618229602 
4.450000000002968, -1.400174774830844 
4.460000000002944, -1.3179720376657242 
4.470000000002921, -1.3150626419774005 
4.480000000002898, -1.324322558678825 
4.490000000002874, -1.3298110863201626 
4.500000000002851, -1.3319177443363306 
4.510000000002828, -1.3317867220095727 
4.520000000002804, -1.3293127853069562 
4.530000000002781, -1.3224251172072319 
4.540000000002758, -1.304567124471286 
4.5500000000027345, -1.261403732920613 
4.560000000002711, -1.2247506682073648 
4.570000000002688, -1.8000930794933907 
4.580000000002665, -2.6809553065358087 
4.590000000002641, -2.799567830295943 
4.600000000002618, -2.8201084900909565 
4.610000000002595, -2.825730761962877 
4.620000000002571, -2.827017603737981 
4.630000000002548, -2.826023231875794 
4.640000000002525, -2.822425847104675 
4.6500000000025015, -2.8120193461077876 
4.660000000002478, -2.7743187049916953 
4.670000000002455, -2.710648554128687 
4.6800000000024315, -2.72524419988937 
4.690000000002408, -2.733895835603804 
4.700000000002385, -2.7348691714701108 
4.710000000002362, -2.7337655537191345 
4.720000000002338, -2.7343824354297106 
4.730000000002315, -2.7369206088120968 
4.740000000002292, -2.738140108821498 
4.750000000002268, -2.7383568438342167 
4.760000000002245, -2.7378318041576972 
4.770000000002222, -2.734743711679603 
4.7800000000021985, -2.719740188945341 
4.790000000002175, -2.5936270962732935 
4.800000000002152, -0.40645375853933585 
4.810000000002129, 1.06938024590203 
4.820000000002105, 1.1493494780404379 
4.830000000002082, 1.1615807908121831 
4.840000000002059, 1.1644428903303539 
4.850000000002035, 1.1645624530974685 
4.860000000002012, 1.1628898476988254 
4.870000000001989, 1.1588306952139047 
4.880000000001965, 1.151061858871898 
4.890000000001942, 1.1396263053057365 
4.900000000001919, 1.129229952660173 
4.9100000000018955, 1.1245853169355409 
4.920000000001872, 1.1240801337253645 
4.930000000001849, 1.124581774105223 
4.940000000001826, 1.1246109328444962 
4.950000000001802, 1.1233629458761727 
4.960000000001779, 1.119029445491313 
4.970000000001756, 1.1035467529076353 
