t, s[1].omega / s[0].omega 
0, -1.2405249245849013 
0.009999999999999995, -1.2866467128171186 
0.019999999999999934, -1.3198979057592235 
0.029999999999999874, -1.3411237855539178 
0.04000000000000012, -1.3530222314341054 
0.050000000000000405, -1.3589256036850246 
0.06000000000000069, -1.3614395411933415 
0.07000000000000098, -1.3621371057457898 
0.08000000000000126, -1.361931226490509 
0.09000000000000155, -1.3615540468843461 
0.10000000000000184, -1.361772238487407 
0.11000000000000212, -1.363036319766682 
0.12000000000000241, -1.3650616087863179 
0.130000000000002, -1.3672083172391236 
0.1400000000000009, -1.3690933996819799 
0.1499999999999998, -1.3706470002898796 
0.1599999999999987, -1.3718648774872073 
0.1699999999999976, -1.3726770287031997 
0.1799999999999965, -1.3729855556872441 
0.1899999999999954, -1.3727292458745057 
0.1999999999999943, -1.3718998287386774 
0.2099999999999932, -1.3705180420329028 
0.2199999999999921, -1.3685949568470976 
0.229999999999991, -1.3661049283379727 
0.2399999999999899, -1.3629807362663557 
0.2499999999999888, -1.3591132571340838 
0.2599999999999877, -1.354335887755092 
0.2699999999999866, -1.3484464043479425 
0.2799999999999855, -1.3414450847115433 
0.2899999999999844, -1.334102998117054 
0.2999999999999833, -1.328223403653833 
0.3099999999999822, -1.3252733481043244 
0.3199999999999811, -1.3247074951268432 
0.32999999999998, -1.324882513626334 
0.3399999999999789, -1.3245769619070056 
0.3499999999999778, -1.322926942417269 
0.35999999999997667, -1.3185067033842048 
0.36999999999997557, -1.3077765041333531 
0.37999999999997447, -1.2819704897693276 
0.38999999999997337, -1.2228304154135077 
0.39999999999997227, -1.1079378232138857 
0.40999999999997117, -0.9431066313001398 
0.41999999999997006, -0.7767703179407494 
0.42999999999996896, -0.6480959738067009 
0.43999999999996786, -0.5611176503172766 
0.44999999999996676, -0.5049402665656431 
0.45999999999996566, -0.4688351697187733 
0.46999999999996456, -0.44544660305019795 
0.47999999999996346, -0.4301735104399067 
0.48999999999996235, -0.420177336770056 
0.49999999999996125, -0.4136833890172327 
0.5099999999999602, -0.40955805744115387 
0.519999999999959, -0.40706215280913394 
0.529999999999958, -0.40570706419274477 
0.5399999999999568, -0.4051701721492238 
0.5499999999999557, -0.40524538979290614 
0.5599999999999546, -0.4058161151220867 
0.5699999999999535, -0.40684426869681695 
0.5799999999999524, -0.4083723222721648 
0.5899999999999513, -0.4105368850960806 
0.5999999999999502, -0.41359493185042695 
0.6099999999999491, -0.41796884368132076 
0.619999999999948, -0.4243181911085718 
0.6299999999999469, -0.4336191446877364 
0.6399999999999458, -0.44711486661563526 
0.6499999999999447, -0.4657382956790901 
0.6599999999999436, -0.4886119697257034 
0.6699999999999425, -0.5118688258052148 
0.6799999999999414, -0.5307478367928823 
0.6899999999999403, -0.5432923198236206 
0.6999999999999392, -0.5505244180470352 
0.7099999999999381, -0.5542539130768886 
0.719999999999937, -0.5558052727696682 
0.7299999999999359, -0.5558387179082515 
0.7399999999999348, -0.5544430458238709 
0.7499999999999337, -0.5510706652537231 
0.7599999999999326, -0.5440330638019135 
0.7699999999999315, -0.5289254391857334 
0.7799999999999304, -0.4945611899323941 
0.7899999999999293, -0.4174006344958146 
0.7999999999999282, -0.2805134707383107 
0.8099999999999271, -0.13618006424863252 
0.819999999999926, -0.04719854202374109 
0.8299999999999249, -0.004795627878271332 
0.8399999999999238, 0.01465889453345062 
0.8499999999999227, 0.02409005254059928 
0.8599999999999216, 0.02891929681793475 
0.8699999999999205, 0.03142714132888705 
0.8799999999999194, 0.032670451264643637 
0.8899999999999183, 0.03319855811347152 
0.8999999999999172, 0.033335953399236534 
0.9099999999999161, 0.033295154344124535 
0.919999999999915, 0.03322649439683241 
0.9299999999999139, 0.03325506875890112 
0.9399999999999128, 0.03353690870431793 
0.9499999999999117, 0.03438604874802316 
0.9599999999999106, 0.036632504233510485 
0.9699999999999095, 0.04274599253266375 
0.9799999999999084, 0.06020197734012718 
0.9899999999999073, 0.10736160118323454 
0.9999999999999062, 0.19929635763233838 
1.0099999999999052, 0.2949834436444515 
1.019999999999904, 0.34962276791832736 
1.029999999999903, 0.37333585137785547 
1.039999999999902, 0.38328628470690196 
1.0499999999999008, 0.3874994759748348 
1.0599999999998997, 0.38903942512455014 
1.0699999999998986, 0.3890244050112478 
1.0799999999998975, 0.38779693491813816 
1.0899999999998964, 0.38539577587581275 
1.0999999999998953, 0.38185462360660477 
1.1099999999998942, 0.3774674938022363 
1.119999999999893, 0.3728793299967947 
1.129999999999892, 0.368834867555715 
1.1399999999998909, 0.3658038597370227 
1.1499999999998898, 0.36386670179532293 
1.1599999999998887, 0.36286109242029774 
1.1699999999998876, 0.3625474881770015 
1.1799999999998865, 0.36268059627143806 
1.1899999999998854, 0.3630171998507168 
1.1999999999998843, 0.3633115153712293 
1.2099999999998832, 0.36331197671338583 
1.219999999999882, 0.36273204233541084 
1.229999999999881, 0.36113616268669924 
1.2399999999998799, 0.3576111343821799 
1.2499999999998788, 0.34977508581385763 
1.2599999999998777, 0.33019999053259863 
1.2699999999998766, 0.2706868944905794 
1.2799999999998755, 0.0536629998850226 
1.2899999999998744, -0.5009107584865775 
1.2999999999998733, -0.9263781511482223 
1.3099999999998722, -1.0654700919680993 
1.319999999999871, -1.1072815865073489 
1.32999999999987, -1.1213816911206613 
1.3399999999998689, -1.126471137170871 
1.3499999999998678, -1.1279822507351722 
1.3599999999998666, -1.127524419928862 
1.3699999999998655, -1.1252991289419918 
1.3799999999998644, -1.1208659481596008 
1.3899999999998633, -1.1146160480926028 
1.3999999999998622, -1.1152011590169846 
1.4099999999998611, -1.1612807465250758 
1.41999999999986, -1.3131174626564506 
1.429999999999859, -1.5111730401691674 
1.4399999999998578, -1.6395754773459257 
1.4499999999998567, -1.7042757006837437 
1.4599999999998556, -1.7377190005492253 
1.4699999999998545, -1.7562293782362897 
1.4799999999998534, -1.766716043831463 
1.4899999999998523, -1.772410221614028 
1.4999999999998512, -1.7751131050724491 
1.5099999999998501, -1.7759462436828393 
1.519999999999849, -1.7756283670346296 
1.529999999999848, -1.7746457996968974 
1.5399999999998468, -1.7732590532905697 
1.5499999999998457, -1.7713858617447333 
1.5599999999998446, -1.7689295016757456 
1.5699999999998435, -1.7665559408443865 
1.5799999999998424, -1.7653897345509697 
1.5899999999998413, -1.7652460465442783 
1.5999999999998402, -1.764811860614472 
1.6099999999998391, -1.762645974320763 
1.619999999999838, -1.7556323844653927 
1.629999999999837, -1.731615226976709 
1.6399999999998358, -1.6299440140177932 
1.6499999999998347, -1.1389392059114871 
1.6599999999998336, -0.13943558540345705 
1.6699999999998325, 0.23637892121327622 
1.6799999999998314, 0.31979265861934975 
1.6899999999998303, 0.34415934904010714 
1.6999999999998292, 0.3532049527677129 
1.709999999999828, 0.357013855707317 
1.719999999999827, 0.35862814037494534 
1.729999999999826, 0.35918741761945483 
1.7399999999998248, 0.3592199912814832 
1.7499999999998237, 0.35904210223554545 
1.7599999999998226, 0.3589064160877704 
1.7699999999998215, 0.35908129474735656 
1.7799999999998204, 0.3599289879560649 
1.7899999999998193, 0.36199838423054215 
1.7999999999998182, 0.36605592270986764 
1.809999999999817, 0.37279682067532505 
1.819999999999816, 0.38200663228024767 
1.8299999999998149, 0.3919362155188591 
1.8399999999998138, 0.4003277162118789 
1.8499999999998127, 0.4060809017814851 
1.8599999999998116, 0.4093779578752049 
1.8699999999998105, 0.4108041019914482 
1.8799999999998094, 0.41073674440296176 
1.8899999999998083, 0.40909916530442747 
1.8999999999998072, 0.4051100825991635 
1.909999999999806, 0.39670583771468626 
1.919999999999805, 0.37962538356682285 
1.9299999999998039, 0.3483532093637318 
1.9399999999998028, 0.3051960674590452 
1.9499999999998017, 0.26723782371861005 
1.9599999999998006, 0.2456849259606598 
1.9699999999997995, 0.23626159314297376 
1.9799999999997984, 0.2324721187985158 
1.9899999999997973, 0.2309086981936883 
1.9999999999997962, 0.23018923900379856 
2.0099999999998173, 0.22976194672548034 
2.0199999999998384, 0.22936361615730605 
2.0299999999998595, 0.22880225608265112 
2.0399999999998806, 0.22785037359778676 
2.0499999999999017, 0.22614349576053444 
2.059999999999923, 0.22298142892462539 
2.069999999999944, 0.21679196283847765 
2.079999999999965, 0.2034215187414226 
2.089999999999986, 0.16961438562292377 
2.100000000000007, 0.06280347296426964 
2.1100000000000283, -0.33329658056790856 
2.1200000000000494, -1.1324450237488453 
2.1300000000000705, -1.52502680723066 
2.1400000000000916, -1.6201088089461553 
2.1500000000001127, -1.6444248160984245 
2.160000000000134, -1.6515211244977306 
2.170000000000155, -1.653444398887265 
2.180000000000176, -1.6534274507874076 
2.190000000000197, -1.6528479866043266 
2.2000000000002182, -1.6531273070272658 
2.2100000000002393, -1.655180830288534 
2.2200000000002604, -1.6581287213216431 
2.2300000000002815, -1.660665966698857 
2.2400000000003026, -1.6624422518005393 
2.2500000000003237, -1.6636089607728128 
2.260000000000345, -1.6642041921159296 
2.270000000000366, -1.6640710950750495 
2.280000000000387, -1.662980894069063 
2.290000000000408, -1.660680172268537 
2.3000000000004293, -1.6568731102897831 
2.3100000000004504, -1.651141806314857 
2.3200000000004715, -1.6427393099709018 
2.3300000000004926, -1.6301531526838258 
2.3400000000005137, -1.6103242560052142 
2.3500000000005348, -1.578155695594125 
2.360000000000556, -1.5315012034203588 
2.370000000000577, -1.488098765627362 
2.380000000000598, -1.472436552516831 
2.390000000000619, -1.4743626578350173 
2.4000000000006403, -1.4779632146819925 
2.4100000000006614, -1.4795339039022595 
2.4200000000006825, -1.479051984520082 
2.4300000000007036, -1.4758536479567017 
2.4400000000007247, -1.4665349755547128 
2.450000000000746, -1.4400158547007467 
2.460000000000767, -1.3784544682186017 
2.470000000000788, -1.4705896524476574 
2.480000000000809, -2.3689707226974392 
2.49000000000083, -2.6768646401013423 
2.5000000000008513, -2.721561892847794 
2.5100000000008724, -2.7326403426071098 
2.5200000000008935, -2.7360245318916867 
2.5300000000009146, -2.736425379217578 
2.5400000000009357, -2.734780611464962 
2.550000000000957, -2.73017837308613 
2.560000000000978, -2.7169730632535622 
2.570000000000999, -2.6747228928786755 
2.58000000000102, -2.635288097663032 
2.5900000000010412, -2.6493259156547952 
2.6000000000010624, -2.654916992352351 
2.6100000000010835, -2.6551251202842994 
2.6200000000011046, -2.653770012694655 
2.6300000000011257, -2.6550548180213918 
2.6400000000011468, -2.6584876021502732 
2.650000000001168, -2.6602337190359933 
2.660000000001189, -2.6607071555832253 
2.67000000000121, -2.6602937373423226 
2.680000000001231, -2.6576028260037305 
2.6900000000012523, -2.6463551629123887 
2.7000000000012734, -2.5818879049917247 
2.7100000000012945, -1.8368008257201147 
2.7200000000013156, 0.4592387033912921 
2.7300000000013367, 0.7618551835525388 
2.740000000001358, 0.8008629489429296 
2.750000000001379, 0.8103668943464324 
2.7600000000014, 0.8133401191253224 
2.770000000001421, 0.8141337711700952 
2.780000000001442, 0.8139390005858292 
2.7900000000014633, 0.8131870402803297 
2.8000000000014844, 0.8121210810707638 
2.8100000000015055, 0.8109716504310587 
2.8200000000015266, 0.8099795515910353 
2.8300000000015477, 0.8093300057803935 
2.840000000001569, 0.8090739503264202 
2.85000000000159, 0.8091118856045565 
2.860000000001611, 0.8092461102643271 
2.870000000001632, 0.8092397886287668 
2.8800000000016532, 0.8088113663427281 
2.8900000000016743, 0.8074871644119737 
2.9000000000016954, 0.8040603232986276 
2.9100000000017165, 0.7942823182480349 
2.9200000000017377, 0.7562037164591271 
2.9300000000017588, 0.47179664226022744 
2.94000000000178, -1.8242924941198442 
2.950000000001801, -2.6421408773450463 
2.960000000001822, -2.711484438214803 
2.970000000001843, -2.722914264393529 
2.9800000000018643, -2.7250600097924567 
2.9900000000018854, -2.7246892951780266 
3.0000000000019065, -2.723192383833434 
3.0100000000019276, -2.7199937967136387 
3.0200000000019487, -2.7143686274799603 
3.03000000000197, -2.7116899572450164 
3.040000000001991, -2.7127135574707806 
3.050000000002012, -2.7120298355741594 
3.060000000002033, -2.706795524763936 
3.070000000002054, -2.6998382485946593 
3.0800000000020753, -2.7254224057098524 
3.0900000000020964, -2.7463809902903 
3.1000000000021175, -2.753134138406052 
3.1100000000021386, -2.755175345155628 
3.1200000000021597, -2.7550721304268917 
3.130000000002181, -2.7526585112349826 
3.140000000002202, -2.745347508133615 
3.150000000002223, -2.7211517036340847 
3.160000000002244, -2.591633224503366 
3.1700000000022652, -1.3865060093175567 
3.1800000000022863, 0.13590060485807065 
3.1900000000023074, 0.39696653216881234 
3.2000000000023285, 0.45045987506781193 
3.2100000000023496, 0.46671480743270977 
3.2200000000023707, 0.4728426552364227 
3.230000000002392, 0.4752196558537993 
3.240000000002413, 0.47573210564079427 
3.250000000002434, 0.4748646102448918 
3.260000000002455, 0.4723241677775305 
3.2700000000024763, 0.46674418615373614 
3.2800000000024974, 0.4539859755240287 
3.2900000000025185, 0.4208064644232339 
3.3000000000025396, 0.3289715082126804 
3.3100000000025607, 0.3255215405897642 
3.3200000000025818, 1.5248420166074346 
3.330000000002603, 1.726406874722959 
3.340000000002624, 1.7433019181579343 
3.350000000002645, 1.7459208421237995 
3.360000000002666, 1.7448408460757268 
3.3700000000026873, 1.7378939240422482 
3.3800000000027084, 1.6920417260632779 
3.3900000000027295, 1.1758880578983504 
3.4000000000027506, 0.9043929151665833 
3.4100000000027717, 1.0233302329324165 
3.420000000002793, 1.052576079822222 
3.430000000002814, 1.060410599840075 
3.440000000002835, 1.0626060281350984 
3.450000000002856, 1.0625586351095546 
3.460000000002877, 1.0609655362094224 
3.4700000000028983, 1.0578434151393794 
3.4800000000029194, 1.0548298675519938 
3.4900000000029405, 1.0624779202372072 
3.5000000000029616, 1.0931890516327987 
3.5100000000029827, 1.1240574884185988 
3.520000000003004, 1.1391502412525927 
3.530000000003025, 1.1448756942459983 
3.540000000003046, 1.146572666841786 
3.550000000003067, 1.1459733614637009 
3.5600000000030882, 1.1422736182860493 
3.5700000000031094, 1.1283246046416606 
3.5800000000031305, 1.0464082479691998 
3.5900000000031516, 0.16083130135769091 
3.6000000000031727, -1.3471061348767452 
3.6100000000031938, -1.6386154143403622 
3.620000000003215, -1.6900922000722152 
3.630000000003236, -1.7022981024998132 
3.640000000003257, -1.705490830940926 
3.650000000003278, -1.7057589195128773 
3.6600000000032993, -1.7048728949485787 
3.6700000000033204, -1.704562266024356 
3.6800000000033415, -1.7071097761003322 
3.6900000000033626, -1.71213395533695 
3.7000000000033837, -1.7169336272580469 
3.710000000003405, -1.7203093404772265 
3.720000000003426, -1.722470446777633 
3.730000000003447, -1.7237409764305707 
3.740000000003468, -1.7241902420412862 
3.750000000003489, -1.723745254846623 
3.7600000000035103, -1.7222839684856115 
3.7700000000035314, -1.7196309129838352 
3.7800000000035525, -1.7154880455103085 
3.7900000000035736, -1.7092755769212136 
3.8000000000035947, -1.6997837584432662 
3.810000000003616, -1.6844994181745498 
3.820000000003637, -1.6591633372680055 
3.830000000003658, -1.6223790717303317 
3.840000000003679, -1.590553145658809 
3.8500000000037002, -1.58222386685696 
3.8600000000037213, -1.5854171166394706 
3.8700000000037424, -1.5882687649521336 
3.8800000000037635, -1.5889431848444 
3.8900000000037847, -1.58733833066576 
3.9000000000038058, -1.581763948600718 
3.910000000003827, -1.5664116416993696 
3.920000000003848, -1.5358172333732791 
3.930000000003869, -1.5920932390822673 
3.94000000000389, -1.9340940962915643 
3.9500000000039113, -2.1452583370294525 
3.9600000000039324, -2.20664294599815 
3.9700000000039535, -2.2275242642939164 
3.9800000000039746, -2.236181646450139 
3.9900000000039957, -2.239930433981173 
4.000000000004016, -2.2411494363522366 
4.010000000003993, -2.2407298154475197 
4.02000000000397, -2.2389094161733354 
4.030000000003946, -2.235266146163476 
4.040000000003923, -2.2280409846792297 
4.0500000000039, -2.214720448862322 
4.0600000000038765, -2.2020663196533246 
4.070000000003853, -2.2017355799244345 
4.08000000000383, -2.2042903948829604 
4.090000000003807, -2.20445429793049 
4.100000000003783, -2.2015336179438547 
4.11000000000376, -2.194510910536864 
4.120000000003737, -2.1987427696439283 
4.130000000003713, -2.230993224591539 
4.14000000000369, -2.254087385485681 
4.150000000003667, -2.2639602849948104 
4.1600000000036434, -2.2681860243801752 
4.17000000000362, -2.269889890059299 
4.180000000003597, -2.2699831767535925 
4.1900000000035735, -2.2685597260314045 
4.20000000000355, -2.2651292333495245 
4.210000000003527, -2.2580813833057274 
4.220000000003504, -2.242223661428186 
4.23000000000348, -2.1991287829699506 
4.240000000003457, -2.088487618228459 
4.250000000003434, -2.009481802642356 
4.26000000000341, -2.027013156635408 
4.270000000003387, -2.0388224741127603 
4.280000000003364, -2.0419488613205177 
4.2900000000033405, -2.041693999100209 
4.300000000003317, -2.0396998538570603 
4.310000000003294, -2.0393137486960535 
4.320000000003271, -2.0459331896500954 
4.330000000003247, -2.054900191038471 
4.340000000003224, -2.060679319482505 
4.350000000003201, -2.0636897843373783 
4.360000000003177, -2.0651180278351586 
4.370000000003154, -2.0653642425888825 
4.380000000003131, -2.0643274885028733 
4.390000000003107, -2.061575717546802 
4.400000000003084, -2.056159769470274 
4.410000000003061, -2.045892188009455 
4.4200000000030375, -2.024861177388607 
4.430000000003014, -1.9744905180393009 
4.440000000002991, -1.8425652952645795 
4.450000000002968, -1.6378441491080438 
4.460000000002944, -1.5771929600434569 
4.470000000002921, -1.5949119984688562 
4.480000000002898, -1.6069231475788919 
4.490000000002874, -1.6112531739206841 
4.500000000002851, -1.6120131553053063 
4.510000000002828, -1.6104644520646083 
4.520000000002804, -1.6063990409643822 
4.530000000002781, -1.6017714928956095 
4.540000000002758, -1.6118762988572246 
4.5500000000027345, -1.6515374092351665 
4.560000000002711, -1.6945385609823167 
4.570000000002688, -1.7220270528223793 
4.580000000002665, -1.737639842407091 
4.590000000002641, -1.7468359372083906 
4.600000000002618, -1.7525098652054563 
4.610000000002595, -1.7559940249535781 
4.620000000002571, -1.757918950945265 
4.630000000002548, -1.758613092201561 
4.640000000002525, -1.7582733621507547 
4.6500000000025015, -1.7570309415669183 
4.660000000002478, -1.7549366155029318 
4.670000000002455, -1.7518328915884767 
4.6800000000024315, -1.7473022684880957 
4.690000000002408, -1.7413714053866958 
4.700000000002385, -1.736050423765509 
4.710000000002362, -1.7339997803322504 
4.720000000002338, -1.7342597540651699 
4.730000000002315, -1.7343407591861226 
4.740000000002292, -1.7327087922417281 
4.750000000002268, -1.726695381698362 
4.760000000002245, -1.7049660439167122 
4.770000000002222, -1.6033347986126099 
4.7800000000021985, -0.9685781575159277 
4.790000000002175, 1.0731207438186035 
4.800000000002152, 1.418142804627243 
4.810000000002129, 1.4459505749213324 
4.820000000002105, 1.450873985632459 
4.830000000002082, 1.4512553918420639 
4.840000000002059, 1.4486883671054849 
4.850000000002035, 1.4389890997667227 
4.860000000002012, 1.3986963781713768 
4.870000000001989, 1.2731610682341714 
4.880000000001965, 1.2280197691875863 
4.890000000001942, 1.250434394718343 
4.900000000001919, 1.260476010549206 
4.9100000000018955, 1.2636234892271223 
4.920000000001872, 1.2639134417063829 
4.930000000001849, 1.2621910067578288 
4.940000000001826, 1.2579031144891952 
4.950000000001802, 1.2519348608349834 
