t, s[1].omega / s[0].omega 
0, -1.4000358098071037 
0.009999999999999995, -1.4031143035963751 
0.019999999999999934, -1.4052141372220217 
0.029999999999999874, -1.4063637035276966 
0.04000000000000012, -1.406645654984302 
0.050000000000000405, -1.4062171405488229 
0.06000000000000069, -1.4052960798054746 
0.07000000000000098, -1.4041132005249897 
0.08000000000000126, -1.4028083408280336 
0.09000000000000155, -1.4013817053199384 
0.10000000000000184, -1.3998614505500473 
0.11000000000000212, -1.3985189563840683 
0.12000000000000241, -1.3977253276053072 
0.130000000000002, -1.3974860982159307 
0.1400000000000009, -1.3973338428137052 
0.1499999999999998, -1.3966464212073073 
0.1599999999999987, -1.3947493967199613 
0.1699999999999976, -1.390709134443305 
0.1799999999999965, -1.3831530771853366 
0.1899999999999954, -1.3704275688389835 
0.1999999999999943, -1.351109969450185 
0.2099999999999932, -1.3242838272823536 
0.2199999999999921, -1.2890441428275372 
0.229999999999991, -1.2437744492142042 
0.2399999999999899, -1.1864958156732301 
0.2499999999999888, -1.1179169920732634 
0.2599999999999877, -1.0470403925098588 
0.2699999999999866, -0.9905136237711385 
0.2799999999999855, -0.9584215750880369 
0.2899999999999844, -0.9461713797455552 
0.2999999999999833, -0.9437608201389578 
0.3099999999999822, -0.9444473718574082 
0.3199999999999811, -0.9454034057265195 
0.32999999999998, -0.9457272641018701 
0.3399999999999789, -0.9450566228523793 
0.3499999999999778, -0.9429114321806067 
0.35999999999997667, -0.9383022360794329 
0.36999999999997557, -0.9294220065554566 
0.37999999999997447, -0.913802539810906 
0.38999999999997337, -0.8898600834800844 
0.39999999999997227, -0.859343449552925 
0.40999999999997117, -0.8270805686459128 
0.41999999999997006, -0.7974046388268785 
0.42999999999996896, -0.7720662657881184 
0.43999999999996786, -0.7509681095495322 
0.44999999999996676, -0.7334077546273561 
0.45999999999996566, -0.7187165319742985 
0.46999999999996456, -0.7064381572233507 
0.47999999999996346, -0.6963175221841642 
0.48999999999996235, -0.6882262777075174 
0.49999999999996125, -0.6820707916267511 
0.5099999999999602, -0.6777094170694584 
0.519999999999959, -0.6749062901172083 
0.529999999999958, -0.6733380295951797 
0.5399999999999568, -0.672643081800902 
0.5499999999999557, -0.6724818336547119 
0.5599999999999546, -0.6725787481539655 
0.5699999999999535, -0.6727394738200586 
0.5799999999999524, -0.672853798305119 
0.5899999999999513, -0.672895512785488 
0.5999999999999502, -0.6729166483126787 
0.6099999999999491, -0.6730244112514951 
0.619999999999948, -0.6733395945975658 
0.6299999999999469, -0.6739513544248515 
0.6399999999999458, -0.674880327257292 
0.6499999999999447, -0.6760521662619047 
0.6599999999999436, -0.677294364160562 
0.6699999999999425, -0.6783822993130234 
0.6799999999999414, -0.6791274107020694 
0.6899999999999403, -0.6794471807393673 
0.6999999999999392, -0.6793748651212337 
0.7099999999999381, -0.6790393417611288 
0.719999999999937, -0.6786730014698725 
0.7299999999999359, -0.6786811484062365 
0.7399999999999348, -0.679775296841395 
0.7499999999999337, -0.6831362560357417 
0.7599999999999326, -0.6905113501583686 
0.7699999999999315, -0.7040896840924605 
0.7799999999999304, -0.7260388595095372 
0.7899999999999293, -0.7578116558332497 
0.7999999999999282, -0.7996223431855646 
0.8099999999999271, -0.8504855689639704 
0.819999999999926, -0.9087109486258507 
0.8299999999999249, -0.9721667915988942 
0.8399999999999238, -1.0376134615761412 
0.8499999999999227, -1.099421950396549 
0.8599999999999216, -1.1501219585458844 
0.8699999999999205, -1.1848180678324403 
0.8799999999999194, -1.204726855012039 
0.8899999999999183, -1.2147155233707185 
0.8999999999999172, -1.219218336273189 
0.9099999999999161, -1.2208951217144481 
0.919999999999915, -1.2210899904436225 
0.9299999999999139, -1.2205673092226696 
0.9399999999999128, -1.2201508399808871 
0.9499999999999117, -1.221112623373081 
0.9599999999999106, -1.2246793526003596 
0.9699999999999095, -1.2307667973308507 
0.9799999999999084, -1.2379349668067556 
0.9899999999999073, -1.244787960700347 
0.9999999999999062, -1.2507310389426551 
1.0099999999999052, -1.2557307094741048 
1.019999999999904, -1.2599297404692456 
1.029999999999903, -1.2634684947428279 
1.039999999999902, -1.266442945656859 
1.0499999999999008, -1.2688932841384384 
1.0599999999998997, -1.2707974185766406 
1.0699999999998986, -1.2720906424502978 
1.0799999999998975, -1.2727194707843297 
1.0899999999998964, -1.2726982891414615 
1.0999999999998953, -1.2721329273097004 
1.1099999999998942, -1.2712092231240575 
1.119999999999893, -1.2701455463334446 
1.129999999999892, -1.269100011206758 
1.1399999999998909, -1.2681088357810917 
1.1499999999998898, -1.2671687696094338 
1.1599999999998887, -1.2663793392711447 
1.1699999999998876, -1.265917783584396 
1.1799999999998865, -1.2658206893129051 
1.1899999999998854, -1.265856712648229 
1.1999999999998843, -1.2656455900812846 
1.2099999999998832, -1.2648066502613804 
1.219999999999882, -1.2629959700937252 
1.229999999999881, -1.2599300350620601 
1.2399999999998799, -1.2554655484779529 
1.2499999999998788, -1.2496490156969904 
1.2599999999998777, -1.2426323393663832 
1.2699999999998766, -1.2345093719112736 
1.2799999999998755, -1.2252043414691125 
1.2899999999998744, -1.2144568537456286 
1.2999999999998733, -1.2019106957141825 
1.3099999999998722, -1.1874149287633569 
1.319999999999871, -1.1717067674298485 
1.32999999999987, -1.1571379410792058 
1.3399999999998689, -1.14688149847354 
1.3499999999998678, -1.1421408370215742 
1.3599999999998666, -1.1411579588702692 
1.3699999999998655, -1.1414882735779497 
1.3799999999998644, -1.141657463492034 
1.3899999999998633, -1.1409401780417059 
1.3999999999998622, -1.1386222353587496 
1.4099999999998611, -1.133287763738216 
1.41999999999986, -1.1219657737576876 
1.429999999999859, -1.0994279517192465 
1.4399999999998578, -1.0597086117581505 
1.4499999999998567, -1.0019815174143578 
1.4599999999998556, -0.9345523628661345 
1.4699999999998545, -0.8686053080954597 
1.4799999999998534, -0.8106218440755109 
1.4899999999998523, -0.7621906898915828 
1.4999999999998512, -0.7227875519005023 
1.5099999999998501, -0.6914661444598225 
1.519999999999849, -0.6673365568474958 
1.529999999999848, -0.6495384860643934 
1.5399999999998468, -0.6371302776308772 
1.5499999999998457, -0.6290588291096866 
1.5599999999998446, -0.6242314328344734 
1.5699999999998435, -0.6216349589447558 
1.5799999999998424, -0.6204331520459669 
1.5899999999998413, -0.6200044219336456 
1.5999999999998402, -0.619924936794429 
1.6099999999998391, -0.6199257135461635 
1.619999999999838, -0.6198528201912297 
1.629999999999837, -0.6196462132489523 
1.6399999999998358, -0.6193331743605835 
1.6499999999998347, -0.6190158639052217 
1.6599999999998336, -0.6188362684896276 
1.6699999999998325, -0.6189271660841247 
1.6799999999998314, -0.6193710026158518 
1.6899999999998303, -0.6201725962041131 
1.6999999999998292, -0.62124045391207 
1.709999999999828, -0.6223897506383754 
1.719999999999827, -0.6233932055957745 
1.729999999999826, -0.6240677763798155 
1.7399999999998248, -0.6243363669559899 
1.7499999999998237, -0.6242308366814785 
1.7599999999998226, -0.623871798019361 
1.7699999999998215, -0.6234827074874991 
1.7799999999998204, -0.6234792621235 
1.7899999999998193, -0.6246679435359784 
1.7999999999998182, -0.628589807084662 
1.809999999999817, -0.6380133013231389 
1.819999999999816, -0.6574321299503858 
1.8299999999998149, -0.6930471927124735 
1.8399999999998138, -0.751159207143367 
1.8499999999998127, -0.8341876176147863 
1.8599999999998116, -0.9366193645675474 
1.8699999999998105, -1.0461802685530979 
1.8799999999998094, -1.1498989187199817 
1.8899999999998083, -1.2380133711698542 
1.8999999999998072, -1.3044164237056755 
1.909999999999806, -1.3477306159342008 
1.919999999999805, -1.3720538680897716 
1.9299999999998039, -1.3841037015849 
1.9399999999998028, -1.3894887662776239 
1.9499999999998017, -1.3915348890086876 
1.9599999999998006, -1.3919179013165675 
1.9699999999997995, -1.3915633162025371 
1.9799999999997984, -1.3912965748550303 
1.9899999999997973, -1.3919599969189713 
1.9999999999997962, -1.3938229187929463 
2.0099999999998173, -1.396298789126091 
2.0199999999998384, -1.3986674203245577 
2.0299999999998595, -1.400634206267107 
2.0399999999998806, -1.4021920888501782 
2.0499999999999017, -1.4033390232379643 
2.059999999999923, -1.4040029603292548 
2.069999999999944, -1.4041051060268646 
2.079999999999965, -1.4036093544272743 
2.089999999999986, -1.4025200143443446 
2.100000000000007, -1.4008494430575706 
2.1100000000000283, -1.3985828345626259 
2.1200000000000494, -1.3956602978418309 
2.1300000000000705, -1.3919713749264573 
2.1400000000000916, -1.3873370140946064 
2.1500000000001127, -1.3814956853339395 
2.160000000000134, -1.3742512934775406 
2.170000000000155, -1.3660360683986867 
2.180000000000176, -1.3586098185297073 
2.190000000000197, -1.3542062485001787 
2.2000000000002182, -1.3530134253047215 
2.2100000000002393, -1.3532238363171158 
2.2200000000002604, -1.35323020424465 
2.2300000000002815, -1.3520860159322907 
2.2400000000003026, -1.3485623577189234 
2.2500000000003237, -1.3394905546067986 
2.260000000000345, -1.3158508006716385 
2.270000000000366, -1.2534370923032943 
2.280000000000387, -1.1057191784954217 
2.290000000000408, -0.8595715714580896 
2.3000000000004293, -0.6187012763398547 
2.3100000000004504, -0.4641473786013509 
2.3200000000004715, -0.3799157762308657 
2.3300000000004926, -0.3341541557208921 
2.3400000000005137, -0.30807336670880053 
2.3500000000005348, -0.29240213786020663 
2.360000000000556, -0.2825665904733084 
2.370000000000577, -0.2762109547707637 
2.380000000000598, -0.2720647893329242 
2.390000000000619, -0.2694206164632341 
2.4000000000006403, -0.2678840834372775 
2.4100000000006614, -0.2672516542223716 
2.4200000000006825, -0.26745345500231144 
2.4300000000007036, -0.2685352039583246 
2.4400000000007247, -0.2706715990915606 
2.450000000000746, -0.2742171273591993 
2.460000000000767, -0.27981788680322023 
2.470000000000788, -0.28864238649472 
2.480000000000809, -0.30286823034613575 
2.49000000000083, -0.3267487864805842 
2.5000000000008513, -0.3689801216262326 
2.5100000000008724, -0.44738282354238096 
2.5200000000008935, -0.5924297184981465 
2.5300000000009146, -0.8187478896036741 
2.5400000000009357, -1.0473711788028945 
2.550000000000957, -1.182613058419912 
2.560000000000978, -1.2394277899310575 
2.570000000000999, -1.2608796560357614 
2.58000000000102, -1.2689335178595846 
2.5900000000010412, -1.2717850358622649 
2.6000000000010624, -1.272327482879877 
2.6100000000010835, -1.271651522226995 
2.6200000000011046, -1.2705636780230694 
2.6300000000011257, -1.2707588128124465 
2.6400000000011468, -1.275175310218036 
2.650000000001168, -1.2853731254034035 
2.660000000001189, -1.298862024432164 
2.67000000000121, -1.3118957784542251 
2.680000000001231, -1.3227257581448344 
2.6900000000012523, -1.3313174283700386 
2.7000000000012734, -1.3381545413884366 
2.7100000000012945, -1.3436718053547048 
2.7200000000013156, -1.3481362063569522 
2.7300000000013367, -1.351663027771355 
2.740000000001358, -1.3542636357606965 
2.750000000001379, -1.3559207965960625 
2.7600000000014, -1.3566687681327096 
2.770000000001421, -1.3566311255440575 
2.780000000001442, -1.3560120798789654 
2.7900000000014633, -1.355066652819258 
2.8000000000014844, -1.354027136805991 
2.8100000000015055, -1.3529921114307346 
2.8200000000015266, -1.3519369426085786 
2.8300000000015477, -1.3509066895732846 
2.840000000001569, -1.3501254712758701 
2.85000000000159, -1.3497812605388415 
2.860000000001611, -1.3497292747934846 
2.870000000001632, -1.3495379820398408 
2.8800000000016532, -1.3487093079752945 
2.8900000000016743, -1.3467213681037111 
2.9000000000016954, -1.3429714884134536 
2.9100000000017165, -1.3368386769258749 
2.9200000000017377, -1.3278850667595208 
2.9300000000017588, -1.315953933710804 
2.94000000000178, -1.3009604490223963 
2.950000000001801, -1.2825277046846568 
2.960000000001822, -1.2597676084587808 
2.970000000001843, -1.2314871202598505 
2.9800000000018643, -1.197408639141054 
2.9900000000018854, -1.1609387173038241 
3.0000000000019065, -1.1305670018377034 
3.0100000000019276, -1.1135116278752155 
3.0200000000019487, -1.1081670339109642 
3.03000000000197, -1.1081953064274481 
3.040000000001991, -1.109272403508391 
3.050000000002012, -1.109781932550366 
3.060000000002033, -1.1091704639254785 
3.070000000002054, -1.106783966953401 
3.0800000000020753, -1.1009843073029064 
3.0900000000020964, -1.0876936987350558 
3.1000000000021175, -1.0578055185919644 
3.1100000000021386, -0.996268971209636 
3.1200000000021597, -0.8947525058362988 
3.130000000002181, -0.7745702085796548 
3.140000000002202, -0.6705693701256916 
3.150000000002223, -0.595942589704168 
3.160000000002244, -0.5458603923143548 
3.1700000000022652, -0.5123755589361176 
3.1800000000022863, -0.4895953973713788 
3.1900000000023074, -0.4738041569948607 
3.2000000000023285, -0.46272199325956576 
3.2100000000023496, -0.4549255730554548 
3.2200000000023707, -0.44949609317178396 
3.230000000002392, -0.4458172611823102 
3.240000000002413, -0.44346038095190005 
3.250000000002434, -0.44211910025172524 
3.260000000002455, -0.44157285900926285 
3.2700000000024763, -0.44166752955438204 
3.2800000000024974, -0.4423072943398153 
3.2900000000025185, -0.44345521184639713 
3.3000000000025396, -0.4451418680080216 
3.3100000000025607, -0.4474824550972178 
3.3200000000025818, -0.45070380097614493 
3.330000000002603, -0.4551858378176113 
3.340000000002624, -0.46152337022861845 
3.350000000002645, -0.47059414777201913 
3.360000000002666, -0.4835273748915297 
3.3700000000026873, -0.5012483814314228 
3.3800000000027084, -0.5232040734089932 
3.3900000000027295, -0.5460954732800078 
3.4000000000027506, -0.5653048710100669 
3.4100000000027717, -0.5784475899271329 
3.420000000002793, -0.586175645762995 
3.430000000002814, -0.5902246578134089 
3.440000000002835, -0.5919796032856448 
3.450000000002856, -0.5921787174035378 
3.460000000002877, -0.5909907881663323 
3.4700000000028983, -0.587984225801639 
3.4800000000029194, -0.5816934533499506 
3.4900000000029405, -0.5680985508906613 
3.5000000000029616, -0.5357431027939057 
3.5100000000029827, -0.4522058943603472 
3.520000000003004, -0.2599976929743975 
3.530000000003025, -0.011142073596069623 
3.540000000003046, 0.1336360579795634 
3.550000000003067, 0.18972617034539482 
3.5600000000030882, 0.2112879567963466 
3.5700000000031094, 0.22041556629304818 
3.5800000000031305, 0.2245420974169512 
3.5900000000031516, 0.22634950172404142 
3.6000000000031727, 0.22692766278482482 
3.6100000000031938, 0.22679734267471502 
3.620000000003215, 0.22627711567070025 
3.630000000003236, 0.2256194991353282 
3.640000000003257, 0.22505418533974683 
3.650000000003278, 0.2248050153697152 
3.6600000000032993, 0.22512229150727342 
3.6700000000033204, 0.22634511218734063 
3.6800000000033415, 0.22896965287395493 
3.6900000000033626, 0.23362059117067696 
3.7000000000033837, 0.24071035180015224 
3.710000000003405, 0.24973757353641987 
3.720000000003426, 0.25900984712453806 
3.730000000003447, 0.2666705422227654 
3.740000000003468, 0.27191429146953866 
3.750000000003489, 0.2749432297461869 
3.7600000000035103, 0.2762563911390904 
3.7700000000035314, 0.27618106194259207 
3.7800000000035525, 0.27470411985507437 
3.7900000000035736, 0.2713855209218535 
3.8000000000035947, 0.26528553075873157 
3.810000000003616, 0.2551609312537875 
3.820000000003637, 0.24057615048472142 
3.830000000003658, 0.22370287769984593 
3.840000000003679, 0.2087478753110462 
3.8500000000037002, 0.19831661711464582 
3.8600000000037213, 0.1921112009454214 
3.8700000000037424, 0.18871079607248012 
3.8800000000037635, 0.1869343976998455 
3.8900000000037847, 0.1860702456756263 
3.9000000000038058, 0.1857161098329267 
3.910000000003827, 0.18561615105486656 
3.920000000003848, 0.18556078778142035 
3.930000000003869, 0.18533398206742038 
3.94000000000389, 0.18467780816010385 
3.9500000000039113, 0.18322923133202543 
3.9600000000039324, 0.18035192161849825 
3.9700000000039535, 0.17468503013229375 
3.9800000000039746, 0.1628601620249292 
3.9900000000039957, 0.13552381967815072 
4.000000000004016, 0.06541909808604272 
4.010000000003993, -0.10612796320288384 
4.02000000000397, -0.36565528402296 
4.030000000003946, -0.5432980058345172 
4.040000000003923, -0.6173799152283512 
4.0500000000039, -0.6459324326719882 
4.0600000000038765, -0.657722702123404 
4.070000000003853, -0.6628749947075588 
4.08000000000383, -0.6649723759004433 
4.090000000003807, -0.6652844763260498 
4.100000000003783, -0.6640648587432035 
4.11000000000376, -0.6608262680953125 
4.120000000003737, -0.6540849285270204 
4.130000000003713, -0.6406838986251782 
4.14000000000369, -0.6153987911845928 
4.150000000003667, -0.5738550957983892 
4.1600000000036434, -0.5207032488457087 
4.17000000000362, -0.47026516420594555 
4.180000000003597, -0.432475342122512 
4.1900000000035735, -0.4073692753702239 
4.20000000000355, -0.3911681419593268 
4.210000000003527, -0.3805383834884543 
4.220000000003504, -0.3733382046150657 
4.23000000000348, -0.3683001903932655 
4.240000000003457, -0.3646834242848346 
4.250000000003434, -0.3620572314166208 
4.26000000000341, -0.36018241007943447 
4.270000000003387, -0.3589474687180741 
4.280000000003364, -0.35833579997831805 
4.2900000000033405, -0.35841326217162883 
4.300000000003317, -0.35933294840165836 
4.310000000003294, -0.36135873613662906 
4.320000000003271, -0.36491476621891455 
4.330000000003247, -0.3706771136844768 
4.340000000003224, -0.37974081997064946 
4.350000000003201, -0.3939282461694063 
4.360000000003177, -0.4163668148210521 
4.370000000003154, -0.4525607403525248 
4.380000000003131, -0.5121900890492905 
4.390000000003107, -0.6108954630193003 
4.400000000003084, -0.7657908562666014 
4.410000000003061, -0.9682353939400381 
4.4200000000030375, -1.154610892287078 
4.430000000003014, -1.2684570160394515 
4.440000000002991, -1.320312807201941 
4.450000000002968, -1.3411058587433362 
4.460000000002944, -1.3491435050767941 
4.470000000002921, -1.3520322829464833 
4.480000000002898, -1.3526493401811925 
4.490000000002874, -1.3521827303657876 
4.500000000002851, -1.3515664977382513 
4.510000000002828, -1.3522441630008282 
4.520000000002804, -1.3556390810581302 
4.530000000002781, -1.3614355460117287 
4.540000000002758, -1.3678028897467616 
4.5500000000027345, -1.3733739869205353 
4.560000000002711, -1.377817703439661 
4.570000000002688, -1.381277872203897 
4.580000000002665, -1.383940352310478 
4.590000000002641, -1.3859290879435167 
4.600000000002618, -1.3873252608215156 
4.610000000002595, -1.3881789440034207 
4.620000000002571, -1.388504424579327 
4.630000000002548, -1.3882870917881027 
4.640000000002525, -1.387511488703747 
4.6500000000025015, -1.3861937761638687 
4.660000000002478, -1.3843896247972833 
4.670000000002455, -1.3821537928271517 
4.6800000000024315, -1.3794840618829505 
4.690000000002408, -1.3763886385916784 
4.700000000002385, -1.3731547937572617 
4.710000000002362, -1.3705082443723282 
4.720000000002338, -1.3691013823738731 
4.730000000002315, -1.3687464711346538 
4.740000000002292, -1.3686147134650848 
4.750000000002268, -1.3678759560555074 
4.760000000002245, -1.3656825362031981 
4.770000000002222, -1.3606107521220345 
4.7800000000021985, -1.3498905371489287 
4.790000000002175, -1.3288642775540576 
4.800000000002152, -1.2919268529471717 
4.810000000002129, -1.2356247756748573 
4.820000000002105, -1.1610116610888326 
4.830000000002082, -1.0725986193350774 
4.840000000002059, -0.9769262071017695 
4.850000000002035, -0.8830286212043615 
4.860000000002012, -0.8015708593455644 
4.870000000001989, -0.7403521294718225 
4.880000000001965, -0.7005297216880523 
4.890000000001942, -0.6778528288277683 
4.900000000001919, -0.6664590166665691 
4.9100000000018955, -0.661462962087612 
4.920000000001872, -0.6596548318892423 
