t, s[1].omega / s[0].omega 
0, -1.3620852822660094 
0.009999999999999995, -1.5209620471420267 
0.019999999999999934, -1.6019245852979993 
0.029999999999999874, -1.638544441457822 
0.04000000000000012, -1.6539427094466443 
0.050000000000000405, -1.660040193824394 
0.06000000000000069, -1.6621225727550293 
0.07000000000000098, -1.6624130582503107 
0.08000000000000126, -1.6620159261565586 
0.09000000000000155, -1.6617339451738364 
0.10000000000000184, -1.6619332746610542 
0.11000000000000212, -1.6623078518157737 
0.12000000000000241, -1.662499254323036 
0.130000000000002, -1.6625798961621818 
0.1400000000000009, -1.6626973634090532 
0.1499999999999998, -1.662617199751995 
0.1599999999999987, -1.66179156239719 
0.1699999999999976, -1.6594591483276215 
0.1799999999999965, -1.6544063475239335 
0.1899999999999954, -1.6446199111042552 
0.1999999999999943, -1.6269851504881359 
0.2099999999999932, -1.5966824723960873 
0.2199999999999921, -1.5452411369629522 
0.229999999999991, -1.4565346217920556 
0.2399999999999899, -1.3073416981756365 
0.2499999999999888, -1.1041062517435212 
0.2599999999999877, -0.9289547241026384 
0.2699999999999866, -0.8377678867383531 
0.2799999999999855, -0.8052286132890213 
0.2899999999999844, -0.7972402921706074 
0.2999999999999833, -0.7969193454680649 
0.3099999999999822, -0.7981849990719162 
0.3199999999999811, -0.7992250238012479 
0.32999999999998, -0.799564911276841 
0.3399999999999789, -0.7990047858469549 
0.3499999999999778, -0.7972407907312247 
0.35999999999997667, -0.7937095022035174 
0.36999999999997557, -0.7875989933192206 
0.37999999999997447, -0.7782124934666961 
0.38999999999997337, -0.7657280477266374 
0.39999999999997227, -0.7516024165728857 
0.40999999999997117, -0.7377863374694724 
0.41999999999997006, -0.7255716903626926 
0.42999999999996896, -0.7153109746144832 
0.43999999999996786, -0.7068099787502449 
0.44999999999996676, -0.6997214893516164 
0.45999999999996566, -0.693735406670583 
0.46999999999996456, -0.6886339641946028 
0.47999999999996346, -0.6842900906554935 
0.48999999999996235, -0.6806462182315144 
0.49999999999996125, -0.6776880199974078 
0.5099999999999602, -0.6754185479610241 
0.519999999999959, -0.6738348020121903 
0.529999999999958, -0.6729088292433615 
0.5399999999999568, -0.6725773867939303 
0.5499999999999557, -0.6727443913554831 
0.5599999999999546, -0.6732966071198885 
0.5699999999999535, -0.6741277574771979 
0.5799999999999524, -0.6751638061605114 
0.5899999999999513, -0.676382869464832 
0.5999999999999502, -0.6778239801318993 
0.6099999999999491, -0.6795797329543081 
0.619999999999948, -0.6817710951993023 
0.6299999999999469, -0.6845039826901755 
0.6399999999999458, -0.6878023170120957 
0.6499999999999447, -0.6915213281664656 
0.6599999999999436, -0.6952984544757385 
0.6699999999999425, -0.6986445798646563 
0.6799999999999414, -0.7011674890201045 
0.6899999999999403, -0.7027310296781961 
0.6999999999999392, -0.7034199782032671 
0.7099999999999381, -0.7034134999874688 
0.719999999999937, -0.7029161468114069 
0.7299999999999359, -0.7022086669655814 
0.7399999999999348, -0.701861843041838 
0.7499999999999337, -0.7032272804241206 
0.7599999999999326, -0.709398361125017 
0.7699999999999315, -0.7267058530776203 
0.7799999999999304, -0.7658458806695071 
0.7899999999999293, -0.8390379337100071 
0.7999999999999282, -0.9484699614914749 
0.8099999999999271, -1.075444053778154 
0.819999999999926, -1.1931401252457898 
0.8299999999999249, -1.287522449457138 
0.8399999999999238, -1.3574139676904224 
0.8499999999999227, -1.4058511445003075 
0.8599999999999216, -1.4365874977580197 
0.8699999999999205, -1.4540771022317593 
0.8799999999999194, -1.4629800504013233 
0.8899999999999183, -1.4669991817003711 
0.8999999999999172, -1.468434448444094 
0.9099999999999161, -1.4685498424405248 
0.919999999999915, -1.4681526283334634 
0.9299999999999139, -1.467959076703918 
0.9399999999999128, -1.4684306599822279 
0.9499999999999117, -1.469414504659604 
0.9599999999999106, -1.4704426929772474 
0.9699999999999095, -1.471287822298121 
0.9799999999999084, -1.4719784666978954 
0.9899999999999073, -1.4724919571143356 
0.9999999999999062, -1.4726281275391062 
1.0099999999999052, -1.4721096342332531 
1.019999999999904, -1.4706726561357404 
1.029999999999903, -1.4680968944007762 
1.039999999999902, -1.4642193147899185 
1.0499999999999008, -1.4589019979952222 
1.0599999999998997, -1.4519244019934168 
1.0699999999998986, -1.442824461453696 
1.0799999999998975, -1.4307167516546968 
1.0899999999998964, -1.4141965729207364 
1.0999999999998953, -1.3919477527469186 
1.1099999999998942, -1.3655525556839152 
1.119999999999893, -1.343087350664229 
1.129999999999892, -1.3326906557793023 
1.1399999999998909, -1.331662030608173 
1.1499999999998898, -1.33319213342403 
1.1599999999998887, -1.3341246563978875 
1.1699999999998876, -1.3336492098236603 
1.1799999999998865, -1.330934816205234 
1.1899999999998854, -1.3231684789510605 
1.1999999999998843, -1.3001905655153 
1.2099999999998832, -1.2204455488444181 
1.219999999999882, -0.9046623048216242 
1.229999999999881, -0.11440072943261545 
1.2399999999998799, 0.3353915343209205 
1.2499999999998788, 0.4375645181974033 
1.2599999999998777, 0.4644642028594448 
1.2699999999998766, 0.4735847786549675 
1.2799999999998755, 0.4770796083752205 
1.2899999999998744, 0.47827596780714704 
1.2999999999998733, 0.4782880837045605 
1.3099999999998722, 0.47756999061286176 
1.319999999999871, 0.47639059230000436 
1.32999999999987, 0.4750052964427288 
1.3399999999998689, 0.4736938459432204 
1.3499999999998678, 0.47272355447941417 
1.3599999999998666, 0.47229472603094624 
1.3699999999998655, 0.47250484841406665 
1.3799999999998644, 0.4733279472379623 
1.3899999999998633, 0.4746013098365423 
1.3999999999998622, 0.47604348067099006 
1.4099999999998611, 0.47732651720596325 
1.41999999999986, 0.4781623861649778 
1.429999999999859, 0.4783199420054823 
1.4399999999998578, 0.47751995490502247 
1.4499999999998567, 0.47515359780955846 
1.4599999999998556, 0.4695269760577549 
1.4699999999998545, 0.4551938366536322 
1.4799999999998534, 0.41082465631333775 
1.4899999999998523, 0.23722524799444494 
1.4999999999998512, -0.3061367436542667 
1.5099999999998501, -0.8014334151606868 
1.519999999999849, -0.9678806621011677 
1.529999999999848, -1.0178420663400674 
1.5399999999998468, -1.0348632537381848 
1.5499999999998457, -1.0412167331149056 
1.5599999999998446, -1.0433995920565364 
1.5699999999998435, -1.04340693157839 
1.5799999999998424, -1.041552529710175 
1.5899999999998413, -1.0370054504934862 
1.5999999999998402, -1.0273854054029719 
1.6099999999998391, -1.0083944562850802 
1.619999999999838, -0.9822875288730716 
1.629999999999837, -1.0500036358666218 
1.6399999999998358, -1.9224643624056186 
1.6499999999998347, -2.688419088464853 
1.6599999999998336, -2.7813122503799095 
1.6699999999998325, -2.799025887968104 
1.6799999999998314, -2.8040437965516167 
1.6899999999998303, -2.8051005915043308 
1.6999999999998292, -2.8039512120680175 
1.709999999999828, -2.800148593464644 
1.719999999999827, -2.789193506455703 
1.729999999999826, -2.7511838239322453 
1.7399999999998248, -2.699765574119335 
1.7499999999998237, -2.7140952046650417 
1.7599999999998226, -2.721088110405252 
1.7699999999998215, -2.7216453189148777 
1.7799999999998204, -2.720426432845149 
1.7899999999998193, -2.7214102724047957 
1.7999999999998182, -2.7242534934884377 
1.809999999999817, -2.7255792165195656 
1.819999999999816, -2.725846362636114 
1.8299999999998149, -2.7252723416621203 
1.8399999999998138, -2.722002838713986 
1.8499999999998127, -2.7065677773752763 
1.8599999999998116, -2.584399027229598 
1.8699999999998105, -0.6329589030623366 
1.8799999999998094, 0.9316048844011038 
1.8899999999998083, 1.0290030888262283 
1.8999999999998072, 1.044185169525958 
1.909999999999806, 1.0479877171798306 
1.919999999999805, 1.0486974146929264 
1.9299999999998039, 1.0478645085330338 
1.9399999999998028, 1.0455987051301299 
1.9499999999998017, 1.041595276666456 
1.9599999999998006, 1.0358887049933174 
1.9699999999997995, 1.0297305614986008 
1.9799999999997984, 1.0251289334028415 
1.9899999999997973, 1.0228660617883667 
1.9999999999997962, 1.0221546131887456 
2.0099999999998173, 1.0219161895933735 
2.0199999999998384, 1.0213506080833044 
2.0299999999998595, 1.0195794921338925 
2.0399999999998806, 1.0143257408523476 
2.0499999999999017, 0.995218363856015 
2.059999999999923, 0.873775999662041 
2.069999999999944, -1.0094396612220962 
2.079999999999965, -3.039380296907349 
2.089999999999986, -3.141164951268453 
2.100000000000007, -3.1552606416378617 
2.1100000000000283, -3.1581982692741897 
2.1200000000000494, -3.1577702155376026 
2.1300000000000705, -3.1545768230137763 
2.1400000000000916, -3.1434848754974047 
2.1500000000001127, -3.0955430678182827 
2.160000000000134, -3.0625386475997862 
2.170000000000155, -3.0810573746031102 
2.180000000000176, -3.0843417875491204 
2.190000000000197, -3.0837191376846818 
2.2000000000002182, -3.0836752273972854 
2.2100000000002393, -3.0849537815221693 
2.2200000000002604, -3.085101044355701 
2.2300000000002815, -3.084825324141943 
2.2400000000003026, -3.0836839156582085 
2.2500000000003237, -3.0765371456924426 
2.260000000000345, -3.003354445036788 
2.270000000000366, -2.1111789443572286 
2.280000000000387, -4.6067455244029345 
2.290000000000408, -4.653934279696292 
2.3000000000004293, -4.656160423231981 
2.3100000000004504, -4.652919304962567 
2.3200000000004715, -4.615587014976048 
2.3300000000004926, 0.8348880095465343 
2.3400000000005137, 2.2757999798420916 
2.3500000000005348, 2.296661023049168 
2.360000000000556, 2.2987651600663757 
2.370000000000577, 2.298571202079132 
2.380000000000598, 2.2971698002397014 
2.390000000000619, 2.29387433230644 
2.4000000000006403, 2.2897667716748913 
2.4100000000006614, 2.2886495829243088 
2.4200000000006825, 2.2889926162828234 
2.4300000000007036, 2.2876041200108554 
2.4400000000007247, 2.279800041648527 
2.450000000000746, 2.26112865597582 
2.460000000000767, 2.316246172050296 
2.470000000000788, 2.343743286073545 
2.480000000000809, 2.3483306935188035 
2.49000000000083, 2.348099858004196 
2.5000000000008513, 2.342502439230498 
2.5100000000008724, 2.2604937633404356 
2.5200000000008935, -3.9596266509604066 
2.5300000000009146, -4.298727829487285 
2.5400000000009357, -4.307327616437175 
2.550000000000957, -4.306831519916943 
2.560000000000978, -4.30124319396719 
2.570000000000999, -4.25800735023979 
2.58000000000102, -4.25619812510295 
2.5900000000010412, -4.264765949085373 
2.6000000000010624, -4.264386036397964 
2.6100000000010835, -4.263889782902644 
2.6200000000011046, -4.262252999696926 
2.6300000000011257, -4.261505036412517 
2.6400000000011468, -4.259539090256391 
2.650000000001168, -4.249914993962447 
2.660000000001189, -4.267945701697029 
2.67000000000121, -4.274177442059142 
2.680000000001231, -4.2742913839582855 
2.6900000000012523, -4.269701051540318 
2.7000000000012734, -4.184404565485542 
2.7100000000012945, 2.4172830267112393 
2.7200000000013156, 2.6589981936719953 
2.7300000000013367, 2.665702634776317 
2.740000000001358, 2.6648978353632877 
2.750000000001379, 2.654370894068091 
2.7600000000014, 2.4409027035368056 
2.770000000001421, 2.2357193949933105 
2.780000000001442, 2.317921026400949 
2.7900000000014633, 2.3246161656488558 
2.8000000000014844, 2.3252165565563496 
2.8100000000015055, 2.3250624204392087 
2.8200000000015266, 2.3250592359521574 
2.8300000000015477, 2.3246328980485202 
2.840000000001569, 2.3237198037951603 
2.85000000000159, 2.32308801984495 
2.860000000001611, 2.3222371204074648 
2.870000000001632, 2.317868660723063 
2.8800000000016532, 2.28147837384744 
2.8900000000016743, 2.220271573646816 
2.9000000000016954, 2.570943230030207 
2.9100000000017165, 2.5904220957684254 
2.9200000000017377, 2.591918775383549 
2.9300000000017588, 2.5883939062921524 
2.94000000000178, 2.5418127427453774 
2.950000000001801, -3.5543780496455524 
2.960000000001822, -4.230586008278135 
2.970000000001843, -4.240721792237443 
2.9800000000018643, -4.2404441041867935 
2.9900000000018854, -4.2365735837843 
3.0000000000019065, -4.217692102971418 
3.0100000000019276, -4.216996246807602 
3.0200000000019487, -4.220914619988258 
3.03000000000197, -4.219992307373547 
3.040000000001991, -4.220326682259669 
3.050000000002012, -4.219767527994898 
3.060000000002033, -4.21910832670741 
3.070000000002054, -4.215966514178303 
3.0800000000020753, -4.190420886529653 
3.0900000000020964, -4.241055746785758 
3.1000000000021175, -4.256533379026226 
3.1100000000021386, -4.257755600204389 
3.1200000000021597, -4.2548082313999815 
3.130000000002181, -4.225410972003412 
3.140000000002202, -0.39581975319119966 
3.150000000002223, 2.2551280861802048 
3.160000000002244, 2.278940429670191 
3.1700000000022652, 2.2810965391558384 
3.1800000000022863, 2.279666166709432 
3.1900000000023074, 2.272041851171072 
3.2000000000023285, 2.2387199010150587 
3.2100000000023496, 2.208709840106922 
3.2200000000023707, 2.222324394096736 
3.230000000002392, 2.226713968650989 
3.240000000002413, 2.2267122929820014 
3.250000000002434, 2.225216700400746 
3.260000000002455, 2.226065202259504 
3.2700000000024763, 2.231066197298488 
3.2800000000024974, 2.2346476087157425 
3.2900000000025185, 2.2356990588161993 
3.3000000000025396, 2.235218487896783 
3.3100000000025607, 2.2321011818205485 
3.3200000000025818, 2.2076178971303797 
3.330000000002603, 0.16653751302791434 
3.340000000002624, -4.322701558179584 
3.350000000002645, -4.35587255562219 
3.360000000002666, -4.358098428409909 
3.3700000000026873, -4.355496658542238 
3.3800000000027084, -4.33496681926785 
3.3900000000027295, -3.756933149382032 
3.4000000000027506, -3.9749635272458312 
3.4100000000027717, -3.994681072922924 
3.420000000002793, -3.995303478476058 
3.430000000002814, -3.9942048829932304 
3.440000000002835, -3.9910904665913494 
3.450000000002856, -3.988234607381517 
3.460000000002877, -3.9888975199527827 
3.4700000000028983, -3.986024577442336 
3.4800000000029194, -3.9863335513086327 
3.4900000000029405, -3.9931047226453 
3.5000000000029616, -3.994321524357769 
3.5100000000029827, -3.993396556975882 
3.520000000003004, -3.9846404247797964 
3.530000000003025, -3.685461178497133 
3.540000000003046, 3.1421172391366707 
3.550000000003067, 3.2391670521482423 
3.5600000000030882, 3.2417622199137384 
3.5700000000031094, 3.2373258608567363 
3.5800000000031305, 3.077325384271758 
3.5900000000031516, -4.108030551412375 
3.6000000000031727, -4.2313681694417395 
3.6100000000031938, -4.235119290952836 
3.620000000003215, -4.233976600707281 
3.630000000003236, -4.228940432097702 
3.640000000003257, -4.21753846141475 
3.650000000003278, -4.221646187615764 
3.6600000000032993, -4.221607287114773 
3.6700000000033204, -4.220900110827035 
3.6800000000033415, -4.2222280788745525 
3.6900000000033626, -4.221843987446322 
3.7000000000033837, -4.22077041349127 
3.710000000003405, -4.209957466142536 
3.720000000003426, -4.170649244251551 
3.730000000003447, -4.2976630040636135 
3.740000000003468, -4.307442325046329 
3.750000000003489, -4.307654275002611 
3.7600000000035103, -4.302383031645772 
3.7700000000035314, -4.233810419526381 
3.7800000000035525, 1.7968365470309056 
3.7900000000035736, 2.291381509441132 
3.8000000000035947, 2.3032126570739395 
3.810000000003616, 2.304255359280916 
3.820000000003637, 2.302576632575188 
3.830000000003658, 2.295823513258166 
3.840000000003679, 2.2773940037250764 
3.8500000000037002, 2.2684625404035996 
3.8600000000037213, 2.273595745971371 
3.8700000000037424, 2.2753243482036756 
3.8800000000037635, 2.274067910993789 
3.8900000000037847, 2.2709765536701116 
3.9000000000038058, 2.274418745753669 
3.910000000003827, 2.284588820473933 
3.920000000003848, 2.289388827527161 
3.930000000003869, 2.290375957305967 
3.94000000000389, 2.289235722423268 
3.9500000000039113, 2.2819649178263557 
3.9600000000039324, 2.153452002347442 
3.9700000000039535, -4.087373546753454 
3.9800000000039746, -4.303936611343575 
3.9900000000039957, -4.311874291879143 
4.000000000004016, -4.311409618368817 
4.010000000003993, -4.3049132569114 
4.02000000000397, -4.218598371568428 
4.030000000003946, -4.096474192059467 
4.040000000003923, -4.141989680422649 
4.0500000000039, -4.143818291910788 
4.0600000000038765, -4.1429611686611665 
4.070000000003853, -4.140811158660481 
4.08000000000383, -4.137869676724192 
4.090000000003807, -4.138248325840685 
4.100000000003783, -4.135251405616848 
4.11000000000376, -4.135184525848889 
4.120000000003737, -4.142750136209971 
4.130000000003713, -4.1439518805110325 
4.14000000000369, -4.142776717072976 
4.150000000003667, -4.130775713088941 
4.1600000000036434, -3.3270441988820467 
4.17000000000362, 3.4182732465011134 
4.180000000003597, 3.4548558688917566 
4.1900000000035735, 3.4553932147367297 
4.20000000000355, 3.4443517978797997 
4.210000000003527, -0.2944427894075876 
4.220000000003504, -4.675070285431363 
4.23000000000348, -4.688712463064845 
4.240000000003457, -4.688195087047946 
4.250000000003434, -4.683066147073076 
4.26000000000341, -4.663166225135994 
4.270000000003387, -4.671124658993024 
4.280000000003364, -4.671588486389627 
4.2900000000033405, -4.671061489156438 
4.300000000003317, -4.670445344786 
4.310000000003294, -4.669492859136057 
4.320000000003271, -4.667163325971068 
4.330000000003247, -4.654542622477086 
4.340000000003224, -4.678977986213971 
4.350000000003201, -4.683551939755914 
4.360000000003177, -4.682665926000885 
4.370000000003154, -4.669544289636081 
4.380000000003131, -1.6581098359579518 
4.390000000003107, 3.1440624107771264 
4.400000000003084, 3.158247783873393 
4.410000000003061, 3.1578351621325607 
4.4200000000030375, 3.144536412839434 
4.430000000003014, 2.0619452677066383 
4.440000000002991, 2.129617882187649 
4.450000000002968, 2.2152062558446763 
4.460000000002944, 2.22157825285309 
4.470000000002921, 2.222250685049841 
4.480000000002898, 2.222051398367733 
4.490000000002874, 2.221581694981876 
4.500000000002851, 2.220446854451699 
4.510000000002828, 2.2189757939092196 
4.520000000002804, 2.2182276163883268 
4.530000000002781, 2.2176724144972284 
4.540000000002758, 2.2148116806795857 
4.5500000000027345, 2.196504752517174 
4.560000000002711, 2.082935652608934 
4.570000000002688, 2.3866235553514246 
4.580000000002665, 2.4321247537257427 
4.590000000002641, 2.436432418088768 
4.600000000002618, 2.4354091948536567 
4.610000000002595, 2.424401020063827 
4.620000000002571, 2.0057028494591798 
4.630000000002548, -4.008700663244856 
4.640000000002525, -4.082874427723404 
4.6500000000025015, -4.08642447207446 
4.660000000002478, -4.085230180644202 
4.670000000002455, -4.079544684256797 
4.6800000000024315, -4.060743643063188 
4.690000000002408, -4.065710466745168 
4.700000000002385, -4.067540313978396 
4.710000000002362, -4.066474174947533 
4.720000000002338, -4.067324986599109 
4.730000000002315, -4.067022151255982 
4.740000000002292, -4.066419538228384 
4.750000000002268, -4.062868054886769 
4.760000000002245, -4.0252528717938825 
4.770000000002222, -4.103749907014727 
4.7800000000021985, -4.135466533784543 
4.790000000002175, -4.138380850108565 
4.800000000002152, -4.136919297499842 
4.810000000002129, -4.125350930601308 
4.820000000002105, -3.8410029419818166 
4.830000000002082, 2.0011986192177664 
4.840000000002059, 2.127477196479753 
4.850000000002035, 2.1348110882118947 
4.860000000002012, 2.1354233124344577 
4.870000000001989, 2.1336855510150525 
4.880000000001965, 2.1277300835793076 
4.890000000001942, 2.1137161241800095 
4.900000000001919, 2.104609410221788 
4.9100000000018955, 2.107511745117209 
4.920000000001872, 2.109367843273284 
4.930000000001849, 2.108497561429348 
4.940000000001826, 2.10434952268432 
4.950000000001802, 2.1014673873672307 
4.960000000001779, 2.11822996537217 
4.970000000001756, 2.1320220504968543 
4.980000000001732, 2.1361367382136494 
4.990000000001709, 2.1365315035482007 
5.000000000001686, 2.1340523219559104 
5.0100000000016625, 2.11683098446935 
