t, s[1].omega / s[0].omega 
0, -0.8799918660656413 
0.009999999999999995, -0.8792158070090483 
0.019999999999999934, -0.8784914242444275 
0.029999999999999874, -0.877752891725196 
0.04000000000000012, -0.8769276956229012 
0.050000000000000405, -0.8759828685975094 
0.06000000000000069, -0.8749538520980155 
0.07000000000000098, -0.8739457129199717 
0.08000000000000126, -0.8731078977140998 
0.09000000000000155, -0.8725889729203594 
0.10000000000000184, -0.8724888873261845 
0.11000000000000212, -0.8728362134479294 
0.12000000000000241, -0.8736017295724876 
0.130000000000002, -0.874728161414045 
0.1400000000000009, -0.876148911983738 
0.1499999999999998, -0.8777918229373288 
0.1599999999999987, -0.8795839023538164 
0.1699999999999976, -0.8814676905665646 
0.1799999999999965, -0.8834215258548233 
0.1899999999999954, -0.8854665126400905 
0.1999999999999943, -0.8876486724335436 
0.2099999999999932, -0.8899971469307884 
0.2199999999999921, -0.892470325667083 
0.229999999999991, -0.8949153765936229 
0.2399999999999899, -0.8970837969314424 
0.2499999999999888, -0.8987261354595688 
0.2599999999999877, -0.8997079279026613 
0.2699999999999866, -0.9000530750884904 
0.2799999999999855, -0.8999111148897437 
0.2899999999999844, -0.8995257846512132 
0.2999999999999833, -0.899248058017571 
0.3099999999999822, -0.8995519232204027 
0.3199999999999811, -0.9009599982739072 
0.32999999999998, -0.903844196525647 
0.3399999999999789, -0.9082358259876324 
0.3499999999999778, -0.9138367148491573 
0.35999999999997667, -0.9202211899243785 
0.36999999999997557, -0.9270388827943584 
0.37999999999997447, -0.9340977370900093 
0.38999999999997337, -0.9413493523951416 
0.39999999999997227, -0.9488366175585426 
0.40999999999997117, -0.9566251585118207 
0.41999999999997006, -0.9647049098720245 
0.42999999999996896, -0.9728575776533261 
0.43999999999996786, -0.9805632951357255 
0.44999999999996676, -0.9871121371817324 
0.45999999999996566, -0.9919600686664254 
0.46999999999996456, -0.9950162182744963 
0.47999999999996346, -0.9965738591636745 
0.48999999999996235, -0.9970541349650711 
0.49999999999996125, -0.9968618306150825 
0.5099999999999602, -0.996430905449816 
0.519999999999959, -0.9963775282242281 
0.529999999999958, -0.9975746114367429 
0.5399999999999568, -1.0008873092140234 
0.5499999999999557, -1.0066083984197824 
0.5599999999999546, -1.014202462231738 
0.5699999999999535, -1.0227211942200363 
0.5799999999999524, -1.0313823459061047 
0.5899999999999513, -1.0397913679771338 
0.5999999999999502, -1.0478554028497846 
0.6099999999999491, -1.0556255776898107 
0.619999999999948, -1.0631696409296114 
0.6299999999999469, -1.07046721380654 
0.6399999999999458, -1.0773202122250458 
0.6499999999999447, -1.0833381344613593 
0.6599999999999436, -1.0880848766525357 
0.6699999999999425, -1.0913274850497174 
0.6799999999999414, -1.0931532514609392 
0.6899999999999403, -1.093865110705171 
0.6999999999999392, -1.0938316398476764 
0.7099999999999381, -1.0934516610859792 
0.719999999999937, -1.0932076476801875 
0.7299999999999359, -1.0936438316553372 
0.7399999999999348, -1.0951362014127768 
0.7499999999999337, -1.0976363590114255 
0.7599999999999326, -1.1007409352213884 
0.7699999999999315, -1.1040131710216614 
0.7799999999999304, -1.107186492458683 
0.7899999999999293, -1.1101512145041137 
0.7999999999999282, -1.1128706070751435 
0.8099999999999271, -1.1153359078016198 
0.819999999999926, -1.117559164183194 
0.8299999999999249, -1.1195630575165703 
0.8399999999999238, -1.1213516699496913 
0.8499999999999227, -1.1228792160822585 
0.8599999999999216, -1.1240467123568694 
0.8699999999999205, -1.124743330913431 
0.8799999999999194, -1.1249114620219642 
0.8899999999999183, -1.1245901473670012 
0.8999999999999172, -1.1239187661527026 
0.9099999999999161, -1.1231127913022019 
0.919999999999915, -1.1224054356215514 
0.9299999999999139, -1.12195319053269 
0.9399999999999128, -1.1217786737335445 
0.9499999999999117, -1.1218249165439684 
0.9599999999999106, -1.1220538106015743 
0.9699999999999095, -1.1224623997413745 
0.9799999999999084, -1.1230111143316412 
0.9899999999999073, -1.1235731781903682 
0.9999999999999062, -1.1239709525013262 
1.0099999999999052, -1.1240507760474787 
1.019999999999904, -1.1237330304235578 
1.029999999999903, -1.123023376496611 
1.039999999999902, -1.1219881727295686 
1.0499999999999008, -1.1207048574999616 
1.0599999999998997, -1.1192173776489958 
1.0699999999998986, -1.1175244329281282 
1.0799999999998975, -1.1156019868734663 
1.0899999999998964, -1.1134389277351895 
1.0999999999998953, -1.1110584305412665 
1.1099999999998942, -1.1085107905100073 
1.119999999999893, -1.1058563415536284 
1.129999999999892, -1.1031832338342757 
1.1399999999998909, -1.1006697608506095 
1.1499999999998898, -1.0986061442922297 
1.1599999999998887, -1.0972626710106286 
1.1699999999998876, -1.096665161577981 
1.1799999999998865, -1.0965307994455535 
1.1899999999998854, -1.0964346115284274 
1.1999999999998843, -1.095981314817605 
1.2099999999998832, -1.094847895988599 
1.219999999999882, -1.0927814891573568 
1.229999999999881, -1.089651546875429 
1.2399999999998799, -1.0855271071056314 
1.2499999999998788, -1.080659159943915 
1.2599999999998777, -1.0753406461231452 
1.2699999999998766, -1.0697690833595899 
1.2799999999998755, -1.064010065394604 
1.2899999999998744, -1.05803872991861 
1.2999999999998733, -1.0518006700736233 
1.3099999999998722, -1.0452724921694911 
1.319999999999871, -1.0385424547869935 
1.32999999999987, -1.0319223657199823 
1.3399999999998689, -1.0260095321220128 
1.3499999999998678, -1.0215144352507552 
1.3599999999998666, -1.0188210464948662 
1.3699999999998655, -1.0176795566610144 
1.3799999999998644, -1.017405707048297 
1.3899999999998633, -1.0173033115533525 
1.3999999999998622, -1.016855090787908 
1.4099999999998611, -1.0156634302622383 
1.41999999999986, -1.013353829670446 
1.429999999999859, -1.0095967443359208 
1.4399999999998578, -1.0042778852210663 
1.4499999999998567, -0.9976578256243857 
1.4599999999998556, -0.9902817071981278 
1.4699999999998545, -0.9826819921868598 
1.4799999999998534, -0.9751694998863467 
1.4899999999998523, -0.9678326292276564 
1.4999999999998512, -0.9606390627384673 
1.5099999999998501, -0.9535354020955171 
1.519999999999849, -0.9465205860988186 
1.529999999999848, -0.9397074104965555 
1.5399999999998468, -0.9333720608277977 
1.5499999999998457, -0.9279419791504668 
1.5599999999998446, -0.9238502042314167 
1.5699999999998435, -0.9212869035221235 
1.5799999999998424, -0.920049881864494 
1.5899999999998413, -0.9196512311204751 
1.5999999999998402, -0.9195582697832817 
1.6099999999998391, -0.9193457332137518 
1.619999999999838, -0.9187099689448848 
1.629999999999837, -0.9174395099075449 
1.6399999999998358, -0.9154273491793046 
1.6499999999998347, -0.9127238574982425 
1.6599999999998336, -0.9095465397438435 
1.6699999999998325, -0.9061861188823107 
1.6799999999998314, -0.9028747764954261 
1.6899999999998303, -0.8997222694072706 
1.6999999999998292, -0.8967358593819139 
1.709999999999828, -0.8938761099011121 
1.719999999999827, -0.8911085070526001 
1.729999999999826, -0.8884330075320298 
1.7399999999998248, -0.8858879055069842 
1.7499999999998237, -0.8835371006774849 
1.7599999999998226, -0.8814571392168593 
1.7699999999998215, -0.8797325581477192 
1.7799999999998204, -0.8784491484794967 
1.7899999999998193, -0.8776676236378081 
1.7999999999998182, -0.8773816359831258 
1.809999999999817, -0.8774935207050089 
1.819999999999816, -0.8778357738941276 
1.8299999999998149, -0.8782261694200665 
1.8399999999998138, -0.8785216957369171 
1.8499999999998127, -0.8786513504855611 
1.8599999999998116, -0.8786245836575033 
1.8699999999998105, -0.8785123611662133 
1.8799999999998094, -0.8784032810996072 
1.8899999999998083, -0.8783540548421543 
1.8999999999998072, -0.8783579595439022 
1.909999999999806, -0.8783437784244761 
1.919999999999805, -0.878207540197938 
1.9299999999998039, -0.8778657824488988 
1.9399999999998028, -0.8773029105970611 
1.9499999999998017, -0.8765912229932151 
1.9599999999998006, -0.8758847996311185 
1.9699999999997995, -0.8753923699421507 
1.9799999999997984, -0.8753247719302794 
1.9899999999997973, -0.8758263655160159 
1.9999999999997962, -0.8769302073785399 
2.0099999999998173, -0.8785704290325885 
2.0199999999998384, -0.8806351155373046 
2.0299999999998595, -0.8830140739398875 
2.0399999999998806, -0.885619263330893 
2.0499999999999017, -0.8883894404105221 
2.059999999999923, -0.8912957564159125 
2.069999999999944, -0.8943480496185943 
2.079999999999965, -0.8975880890101532 
2.089999999999986, -0.9010575526400988 
2.100000000000007, -0.9047393641396481 
2.1100000000000283, -0.9084896407014306 
2.1200000000000494, -0.9120117727525926 
2.1300000000000705, -0.914939474845674 
2.1400000000000916, -0.9170077112718543 
2.1500000000001127, -0.9181659418076602 
2.160000000000134, -0.9185484483336781 
2.170000000000155, -0.9183900701387158 
2.180000000000176, -0.9180028328600918 
2.190000000000197, -0.9178289947803633 
2.2000000000002182, -0.9184843646718395 
2.2100000000002393, -0.9206497149086624 
2.2200000000002604, -0.9247676422491576 
2.2300000000002815, -0.9307771542789126 
2.2400000000003026, -0.9381791241183866 
2.2500000000003237, -0.946363848854868 
2.260000000000345, -0.9548849689030057 
2.270000000000366, -0.9635338682592292 
2.280000000000387, -0.9722835928282452 
2.290000000000408, -0.9811939527955248 
2.3000000000004293, -0.990301546810883 
2.3100000000004504, -0.9994821034524483 
2.3200000000004715, -1.008316579316654 
2.3300000000004926, -1.01610503658422 
2.3400000000005137, -1.0221664105105916 
2.3500000000005348, -1.0262301867131136 
2.360000000000556, -1.0285114404042144 
2.370000000000577, -1.0294602424028285 
2.380000000000598, -1.0295300942836614 
2.390000000000619, -1.0291499777473552 
2.4000000000006403, -1.028852763993668 
2.4100000000006614, -1.0293974863371738 
2.4200000000006825, -1.0316253755325149 
2.4300000000007036, -1.035961337572562 
2.4400000000007247, -1.0420541042513631 
2.450000000000746, -1.0490603172388426 
2.460000000000767, -1.056215957844309 
2.470000000000788, -1.0631086110139116 
2.480000000000809, -1.0696202612652133 
2.49000000000083, -1.0757811532236032 
2.5000000000008513, -1.08166038277155 
2.5100000000008724, -1.087290401965887 
2.5200000000008935, -1.0926001013353643 
2.5300000000009146, -1.0973745843603102 
2.5400000000009357, -1.101303113969076 
2.550000000000957, -1.1041332729211062 
2.560000000000978, -1.105815923574737 
2.570000000000999, -1.1065102215745377 
2.58000000000102, -1.1064923184467896 
2.5900000000010412, -1.1061004340588887 
2.6000000000010624, -1.105742531489639 
2.6100000000010835, -1.105857404803522 
2.6200000000011046, -1.1067365048868396 
2.6300000000011257, -1.1083488637544536 
2.6400000000011468, -1.1104102518254593 
2.650000000001168, -1.1126201740845336 
2.660000000001189, -1.1147978597818962 
2.67000000000121, -1.1168568166716275 
2.680000000001231, -1.1187389392832752 
2.6900000000012523, -1.1203958456733991 
2.7000000000012734, -1.1218060788284858 
2.7100000000012945, -1.1229820504577188 
2.7200000000013156, -1.1239483302090147 
2.7300000000013367, -1.1247061440877706 
2.740000000001358, -1.1252116997122183 
2.750000000001379, -1.1253889349504866 
2.7600000000014, -1.1251743241836027 
2.770000000001421, -1.1245656745229957 
2.780000000001442, -1.1236454992674496 
2.7900000000014633, -1.1225684554973159 
2.8000000000014844, -1.1215099803534323 
2.8100000000015055, -1.1205924217970886 
2.8200000000015266, -1.1198530952218406 
2.8300000000015477, -1.119297693852624 
2.840000000001569, -1.1189685672507579 
2.85000000000159, -1.1189224492507812 
2.860000000001611, -1.119131358898596 
2.870000000001632, -1.1194338602648428 
2.8800000000016532, -1.1195963405234601 
2.8900000000016743, -1.1194067159978982 
2.9000000000016954, -1.118730919095574 
2.9100000000017165, -1.1175359418861999 
2.9200000000017377, -1.1158843580564468 
2.9300000000017588, -1.1138890691622856 
2.94000000000178, -1.1116483811262647 
2.950000000001801, -1.1092065578408525 
2.960000000001822, -1.106559045925461 
2.970000000001843, -1.1036848216980297 
2.9800000000018643, -1.1005760704401968 
2.9900000000018854, -1.097247812918896 
3.0000000000019065, -1.09374148845103 
3.0100000000019276, -1.090161143739485 
3.0200000000019487, -1.0867468511797074 
3.03000000000197, -1.083890995638261 
3.040000000001991, -1.0819658080746946 
3.050000000002012, -1.0810350777551414 
3.060000000002033, -1.0807706721771042 
3.070000000002054, -1.080668109573803 
3.0800000000020753, -1.080267130153834 
3.0900000000020964, -1.0791931734596287 
3.1000000000021175, -1.077121867698389 
3.1100000000021386, -1.0738124286906676 
3.1200000000021597, -1.0692279369569087 
3.130000000002181, -1.0636023743409253 
3.140000000002202, -1.0573231592239665 
3.150000000002223, -1.0507227083402957 
3.160000000002244, -1.04396656358271 
3.1700000000022652, -1.0370738072387193 
3.1800000000022863, -1.02999280253506 
3.1900000000023074, -1.0226796229405253 
3.2000000000023285, -1.0151828946436048 
3.2100000000023496, -1.0077518418700824 
3.2200000000023707, -1.0009207067435 
3.230000000002392, -0.9954149737354362 
3.240000000002413, -0.9917746198818991 
3.250000000002434, -0.9899564798411836 
3.260000000002455, -0.9893657420510188 
3.2700000000024763, -0.9892584178537966 
3.2800000000024974, -0.9890422041840399 
3.2900000000025185, -0.9882958641535302 
3.3000000000025396, -0.9866694093990777 
3.3100000000025607, -0.9838453384843382 
3.3200000000025818, -0.979637950207559 
3.330000000002603, -0.9741593815984029 
3.340000000002624, -0.9678385283057878 
3.350000000002645, -0.9612019969489378 
3.360000000002666, -0.9546272158582145 
3.3700000000026873, -0.948270299984143 
3.3800000000027084, -0.9421353750303881 
3.3900000000027295, -0.9361711238129935 
3.4000000000027506, -0.9303405492737552 
3.4100000000027717, -0.9246648317146857 
3.420000000002793, -0.9192570962014688 
3.430000000002814, -0.914344407467118 
3.440000000002835, -0.9102411433804889 
3.450000000002856, -0.9072324609092322 
3.460000000002877, -0.9054058626812618 
3.4700000000028983, -0.9045680089080683 
3.4800000000029194, -0.9043316239621582 
3.4900000000029405, -0.9042817300975277 
3.5000000000029616, -0.90408199245818 
3.5100000000029827, -0.9034959111945321 
3.520000000003004, -0.902385079871553 
3.530000000003025, -0.9007286670536813 
3.540000000003046, -0.8986395614638847 
3.550000000003067, -0.8963223675107521 
3.5600000000030882, -0.8939783713246843 
3.5700000000031094, -0.8917287344950513 
3.5800000000031305, -0.8896005325881966 
3.5900000000031516, -0.8875601148919664 
3.6000000000031727, -0.8855616181905075 
3.6100000000031938, -0.8835877842291238 
3.620000000003215, -0.8816686893195502 
3.630000000003236, -0.8798740245595988 
3.640000000003257, -0.8782879808846804 
3.650000000003278, -0.8769852168696046 
3.6600000000032993, -0.8760222099028587 
3.6700000000033204, -0.8754396830754141 
3.6800000000033415, -0.8752578328463578 
3.6900000000033626, -0.8754569115566893 
3.7000000000033837, -0.8759607965721822 
3.710000000003405, -0.8766471913230314 
3.720000000003426, -0.8773851071563786 
3.730000000003447, -0.8780779316762033 
3.740000000003468, -0.8786908325534665 
3.750000000003489, -0.879251868726976 
3.7600000000035103, -0.8798253424275149 
3.7700000000035314, -0.8804675175056287 
3.7800000000035525, -0.8811837485205108 
3.7900000000035736, -0.8819056391394696 
3.8000000000035947, -0.8825038926122512 
3.810000000003616, -0.8828411017418171 
3.820000000003637, -0.8828382896671163 
3.830000000003658, -0.8825143361977453 
3.840000000003679, -0.8819894716335709 
3.8500000000037002, -0.8814740352770316 
3.8600000000037213, -0.8812462518992046 
3.8700000000037424, -0.8815949332429384 
3.8800000000037635, -0.8827239231663061 
3.8900000000037847, -0.8846753287319526 
3.9000000000038058, -0.8873376750371685 
3.910000000003827, -0.8905281685704761 
3.920000000003848, -0.8940770936390757 
3.930000000003869, -0.8978683306240025 
3.94000000000389, -0.9018443476767892 
3.9500000000039113, -0.9060002126670319 
3.9600000000039324, -0.9103733821805141 
3.9700000000039535, -0.9150176968097125 
3.9800000000039746, -0.9199476494644971 
3.9900000000039957, -0.9250537290832629 
4.000000000004016, -0.9300306822026775 
4.010000000003993, -0.9344148183596269 
4.02000000000397, -0.93778153326252 
4.030000000003946, -0.9399581153248724 
4.040000000003923, -0.9410499157084564 
4.0500000000039, -0.94131289250662 
4.0600000000038765, -0.9410560454545515 
4.070000000003853, -0.9406636588302056 
4.08000000000383, -0.9406954320809018 
4.090000000003807, -0.9419224792658776 
4.100000000003783, -0.9451147411134402 
4.11000000000376, -0.9506105665539663 
4.120000000003737, -0.9580799830241521 
4.130000000003713, -0.9667753553378848 
4.14000000000369, -0.9759852152251938 
4.150000000003667, -0.9852845554235898 
4.1600000000036434, -0.994528951322039 
4.17000000000362, -1.0037407006116494 
4.180000000003597, -1.012982239028407 
4.1900000000035735, -1.022223704711035 
4.20000000000355, -1.0312036465505345 
4.210000000003527, -1.0393663746189004 
4.220000000003504, -1.046032267698292 
4.23000000000348, -1.050773388103527 
4.240000000003457, -1.0536375903112625 
4.250000000003434, -1.0550092112025378 
4.26000000000341, -1.0553490039575506 
4.270000000003387, -1.0550884568380121 
4.280000000003364, -1.0547051913916572 
4.2900000000033405, -1.0548451833231651 
4.300000000003317, -1.0562572819931924 
4.310000000003294, -1.0593998467446026 
4.320000000003271, -1.0640741426227303 
4.330000000003247, -1.0695937561476057 
4.340000000003224, -1.075282772131595 
4.350000000003201, -1.0807540677267005 
4.360000000003177, -1.0858793481984206 
4.370000000003154, -1.090664159439467 
4.380000000003131, -1.0951591094109827 
4.390000000003107, -1.099408885150939 
4.400000000003084, -1.1034065909203647 
4.410000000003061, -1.1070513080608082 
4.4200000000030375, -1.110146219563099 
4.430000000003014, -1.1124747108545003 
4.440000000002991, -1.1139198951316387 
4.450000000002968, -1.114527653540586 
4.460000000002944, -1.1144793106768527 
4.470000000002921, -1.1140451504721813 
4.480000000002898, -1.1135650069175786 
4.490000000002874, -1.1133979824375393 
4.500000000002851, -1.1137817481111136 
4.510000000002828, -1.1147088439776094 
4.520000000002804, -1.1159872349939088 
4.530000000002781, -1.1174170556604426 
4.540000000002758, -1.1188814288704474 
4.5500000000027345, -1.1203105877945772 
4.560000000002711, -1.1216255077907982 
4.570000000002688, -1.1227380614283884 
4.580000000002665, -1.1235885024388568 
4.590000000002641, -1.1241685984673917 
4.600000000002618, -1.1245090744435469 
4.610000000002595, -1.1246428666711776 
4.620000000002571, -1.124570777511222 
4.630000000002548, -1.1242536303720472 
4.640000000002525, -1.1236379776752548 
4.6500000000025015, -1.1226999076411528 
4.660000000002478, -1.1214786431533315 
4.670000000002455, -1.1200776342677483 
4.6800000000024315, -1.1186265311855892 
4.690000000002408, -1.1172256153588758 
4.700000000002385, -1.1159294744179729 
4.710000000002362, -1.1147985440619668 
4.720000000002338, -1.1139480530371453 
4.730000000002315, -1.1134949303588666 
4.740000000002292, -1.1134278278900596 
4.750000000002268, -1.11355380922487 
4.760000000002245, -1.1135840295941701 
4.770000000002222, -1.1132470968475192 
4.7800000000021985, -1.1123466525016876 
4.790000000002175, -1.1107896066625123 
4.800000000002152, -1.1086061295655978 
4.810000000002129, -1.1059275657393934 
4.820000000002105, -1.1029105375555095 
4.830000000002082, -1.0996615614230174 
4.840000000002059, -1.096213750796879 
4.850000000002035, -1.0925510009329598 
4.860000000002012, -1.088645137474519 
4.870000000001989, -1.0844817330411243 
4.880000000001965, -1.0800817971955692 
4.890000000001942, -1.0755527291880074 
4.900000000001919, -1.0711743924022117 
4.9100000000018955, -1.0674249513089715 
4.920000000001872, -1.0647912874939824 
4.930000000001849, -1.063417268024963 
