t, s[1].omega / s[0].omega 
0, -0.9199975976803636 
0.009999999999999995, -0.9197244800256102 
0.019999999999999934, -0.9193694253638449 
0.029999999999999874, -0.9188935023352439 
0.04000000000000012, -0.9182624434980482 
0.050000000000000405, -0.9174732010227865 
0.06000000000000069, -0.916568323101757 
0.07000000000000098, -0.9156365652831697 
0.08000000000000126, -0.9148015511531374 
0.09000000000000155, -0.9141973632231315 
0.10000000000000184, -0.9139345103090791 
0.11000000000000212, -0.9140718724712155 
0.12000000000000241, -0.9146104569526186 
0.130000000000002, -0.9155067976233736 
0.1400000000000009, -0.9166905896362246 
0.1499999999999998, -0.9180781207257904 
0.1599999999999987, -0.919584881189541 
0.1699999999999976, -0.9211403704606005 
0.1799999999999965, -0.9227002867967288 
0.1899999999999954, -0.9242478950278974 
0.1999999999999943, -0.9257800276903317 
0.2099999999999932, -0.9272810074437405 
0.2199999999999921, -0.9286970648557533 
0.229999999999991, -0.9299301073419493 
0.2399999999999899, -0.9308640205601357 
0.2499999999999888, -0.9314127180949635 
0.2599999999999877, -0.931556505550688 
0.2699999999999866, -0.9313460499548454 
0.2799999999999855, -0.9308887029091337 
0.2899999999999844, -0.930342419798601 
0.2999999999999833, -0.9299192925096704 
0.3099999999999822, -0.9298730641684658 
0.3199999999999811, -0.9304440892159261 
0.32999999999998, -0.9317763551655112 
0.3399999999999789, -0.9338674173694612 
0.3499999999999778, -0.9365933625464077 
0.35999999999997667, -0.939781086926095 
0.36999999999997557, -0.9432711306656694 
0.37999999999997447, -0.9469459742999735 
0.38999999999997337, -0.950731572239633 
0.39999999999997227, -0.9545830317150685 
0.40999999999997117, -0.958456421066785 
0.41999999999997006, -0.9622691503181355 
0.42999999999996896, -0.9658658973146228 
0.43999999999996786, -0.9690243449133117 
0.44999999999996676, -0.9715240297496018 
0.45999999999996566, -0.973242352685572 
0.46999999999996456, -0.97419804202114 
0.47999999999996346, -0.9745152190985491 
0.48999999999996235, -0.9743638959955458 
0.49999999999996125, -0.9739376182120243 
0.5099999999999602, -0.9734793966877027 
0.519999999999959, -0.9733209055091008 
0.529999999999958, -0.9738678145534732 
0.5399999999999568, -0.9754791945951519 
0.5499999999999557, -0.9782977583845094 
0.5599999999999546, -0.9821859487199974 
0.5699999999999535, -0.9868310064695072 
0.5799999999999524, -0.9919078167491111 
0.5899999999999513, -0.9971751115176749 
0.5999999999999502, -1.0024864165997662 
0.6099999999999491, -1.0077552335047182 
0.619999999999948, -1.012904154805684 
0.6299999999999469, -1.017811796314547 
0.6399999999999458, -1.0222797892061948 
0.6499999999999447, -1.0260569533935342 
0.6599999999999436, -1.0289326342549587 
0.6699999999999425, -1.0308366698456137 
0.6799999999999414, -1.031857523688394 
0.6899999999999403, -1.0321775260968902 
0.6999999999999392, -1.0320049687122326 
0.7099999999999381, -1.0315609987868826 
0.719999999999937, -1.0311160484274777 
0.7299999999999359, -1.031021277089717 
0.7399999999999348, -1.0316558819136958 
0.7499999999999337, -1.0332693539889515 
0.7599999999999326, -1.0358445784492256 
0.7699999999999315, -1.0391317525337869 
0.7799999999999304, -1.0428106959452155 
0.7899999999999293, -1.0466217727892828 
0.7999999999999282, -1.0504006835481141 
0.8099999999999271, -1.0540572324384905 
0.819999999999926, -1.057542278552695 
0.8299999999999249, -1.0608146072107896 
0.8399999999999238, -1.0638091087568395 
0.8499999999999227, -1.0664189108387037 
0.8599999999999216, -1.0685119431530745 
0.8699999999999205, -1.0699835513090898 
0.8799999999999194, -1.070808767419414 
0.8899999999999183, -1.0710526738113475 
0.8999999999999172, -1.070844141780325 
0.9099999999999161, -1.0703532871204118 
0.919999999999915, -1.0697919021076048 
0.9299999999999139, -1.0694097984013096 
0.9399999999999128, -1.0694422513594184 
0.9499999999999117, -1.0700164794224887 
0.9599999999999106, -1.071102553203034 
0.9699999999999095, -1.0725625202489593 
0.9799999999999084, -1.0742371807999993 
0.9899999999999073, -1.0759918492986351 
0.9999999999999062, -1.0777191627283254 
1.0099999999999052, -1.079335621428317 
1.019999999999904, -1.0807855904646386 
1.029999999999903, -1.0820422168176034 
1.039999999999902, -1.0830960456123107 
1.0499999999999008, -1.0839348654307945 
1.0599999999998997, -1.084528097132176 
1.0699999999998986, -1.084829298125787 
1.0799999999998975, -1.0847983472541276 
1.0899999999998964, -1.0844288334234158 
1.0999999999998953, -1.0837640487452211 
1.1099999999998942, -1.082898598172324 
1.119999999999893, -1.0819689888156967 
1.129999999999892, -1.081128055275858 
1.1399999999998909, -1.080502222258255 
1.1499999999998898, -1.0801579499847835 
1.1599999999998887, -1.0801061215060972 
1.1699999999998876, -1.080326979516275 
1.1799999999998865, -1.0807751203849292 
1.1899999999998854, -1.0813653819627784 
1.1999999999998843, -1.0819753905131038 
1.2099999999998832, -1.0824754653911501 
1.219999999999882, -1.0827620569928027 
1.229999999999881, -1.0827760315122705 
1.2399999999998799, -1.0825048108896707 
1.2499999999998788, -1.081970181149977 
1.2599999999998777, -1.0812049988355514 
1.2699999999998766, -1.080230947652922 
1.2799999999998755, -1.0790518594491236 
1.2899999999998744, -1.0776659166534919 
1.2999999999998733, -1.0760867129765204 
1.3099999999998722, -1.0743589907973254 
1.319999999999871, -1.0725599616831076 
1.32999999999987, -1.0707870231157768 
1.3399999999998689, -1.069144342350898 
1.3499999999998678, -1.0677409215708793 
1.3599999999998666, -1.0666879094708417 
1.3699999999998655, -1.0660640694301535 
1.3799999999998644, -1.06585528510794 
1.3899999999998633, -1.0659296242799792 
1.3999999999998622, -1.0660831183239121 
1.4099999999998611, -1.0661097819432466 
1.41999999999986, -1.06584036703526 
1.429999999999859, -1.065151730432816 
1.4399999999998578, -1.0639755832575184 
1.4499999999998567, -1.0623120146992628 
1.4599999999998556, -1.06022568181167 
1.4699999999998545, -1.0578120287103432 
1.4799999999998534, -1.0551549808093552 
1.4899999999998523, -1.0523068327432274 
1.4999999999998512, -1.0492973145756985 
1.5099999999998501, -1.0461569559566049 
1.519999999999849, -1.0429384183371375 
1.529999999999848, -1.0397312288124314 
1.5399999999998468, -1.0366748445365055 
1.5499999999998457, -1.0339654979432704 
1.5599999999998446, -1.031826240893312 
1.5699999999998435, -1.0304140919374905 
1.5799999999998424, -1.029712813065467 
1.5899999999998413, -1.0295176306737344 
1.5999999999998402, -1.0295328407732973 
1.6099999999998391, -1.0294800789021203 
1.619999999999838, -1.0291368445507307 
1.629999999999837, -1.028323819621722 
1.6399999999998358, -1.0268974328400895 
1.6499999999998347, -1.0247767410195885 
1.6599999999998336, -1.0219834761685243 
1.6699999999998325, -1.0186431384952435 
1.6799999999998314, -1.0149279578955972 
1.6899999999998303, -1.0109867170701126 
1.6999999999998292, -1.0069135681618997 
1.709999999999828, -1.0027616555900627 
1.719999999999827, -0.9985766078842607 
1.729999999999826, -0.994428844123394 
1.7399999999998248, -0.9904384398848844 
1.7499999999998237, -0.9867896282845516 
1.7599999999998226, -0.9837171261571139 
1.7699999999998215, -0.9814368440360033 
1.7799999999998204, -0.9800334558402067 
1.7899999999998193, -0.9793896543825118 
1.7999999999998182, -0.97923161637352 
1.809999999999817, -0.9792472259259144 
1.819999999999816, -0.9791718648112896 
1.8299999999998149, -0.9788034557128779 
1.8399999999998138, -0.977984993523776 
1.8499999999998127, -0.9766026585436574 
1.8599999999998116, -0.9746141632576814 
1.8699999999998105, -0.9720780837086416 
1.8799999999998094, -0.969138702603783 
1.8899999999998083, -0.9659633066027953 
1.8999999999998072, -0.9626811275811722 
1.909999999999806, -0.9593645488302137 
1.919999999999805, -0.9560486211265958 
1.9299999999998039, -0.9527629111062037 
1.9399999999998028, -0.9495559616963911 
1.9499999999998017, -0.9465067682715113 
1.9599999999998006, -0.9437263748173216 
1.9699999999997995, -0.9413500938329659 
1.9799999999997984, -0.9395113396943179 
1.9899999999997973, -0.9382912067882095 
1.9999999999997962, -0.9376660370957376 
2.0099999999998173, -0.9374969671168604 
2.0199999999998384, -0.9375763052359746 
2.0299999999998595, -0.9376930754877438 
2.0399999999998806, -0.9376741920756775 
2.0499999999999017, -0.9373963221060586 
2.059999999999923, -0.9367895601570873 
2.069999999999944, -0.9358449577984436 
2.079999999999965, -0.9346146522270781 
2.089999999999986, -0.9331882692054512 
2.100000000000007, -0.9316522597221024 
2.1100000000000283, -0.9300590045071649 
2.1200000000000494, -0.9284234089154081 
2.1300000000000705, -0.9267425541480806 
2.1400000000000916, -0.9250222831350694 
2.1500000000001127, -0.9232959595391701 
2.160000000000134, -0.921628198871144 
2.170000000000155, -0.9201043372266516 
2.180000000000176, -0.9188125108105452 
2.190000000000197, -0.9178275349471562 
2.2000000000002182, -0.9172005281240724 
2.2100000000002393, -0.9169496602663495 
2.2200000000002604, -0.9170487918298516 
2.2300000000002815, -0.917422497265456 
2.2400000000003026, -0.9179589509837015 
2.2500000000003237, -0.9185381989572841 
2.260000000000345, -0.9190610665275406 
2.270000000000366, -0.9194675126832493 
2.280000000000387, -0.9197417063104 
2.290000000000408, -0.9199029999133155 
2.3000000000004293, -0.9199834341765586 
2.3100000000004504, -0.9200001935734884 
2.3200000000004715, -0.9199380320382282 
2.3300000000004926, -0.9197530419742946 
2.3400000000005137, -0.9193966260669836 
2.3500000000005348, -0.9188454880939882 
2.360000000000556, -0.9181215765948553 
2.370000000000577, -0.9172973211282063 
2.380000000000598, -0.916490209842436 
2.390000000000619, -0.9158465652746897 
2.4000000000006403, -0.915510393520129 
2.4100000000006614, -0.9155842179481677 
2.4200000000006825, -0.916103663388167 
2.4300000000007036, -0.9170408480995238 
2.4400000000007247, -0.9183272746089536 
2.450000000000746, -0.9198767121270656 
2.460000000000767, -0.9216007698388919 
2.470000000000788, -0.9234215108313262 
2.480000000000809, -0.9252829959719706 
2.49000000000083, -0.9271562256390574 
2.5000000000008513, -0.9290305760104592 
2.5100000000008724, -0.9308906753325061 
2.5200000000008935, -0.9326874939272795 
2.5300000000009146, -0.934322203669061 
2.5400000000009357, -0.9356626504244708 
2.550000000000957, -0.936592586807085 
2.560000000000978, -0.9370613388530101 
2.570000000000999, -0.9370986787365055 
2.58000000000102, -0.9367985862582586 
2.5900000000010412, -0.936304116896037 
2.6000000000010624, -0.9358111029728468 
2.6100000000010835, -0.93557416871638 
2.6200000000011046, -0.9358775192908715 
2.6300000000011257, -0.9369530117710838 
2.6400000000011468, -0.9388896690384486 
2.650000000001168, -0.9416107084145142 
2.660000000001189, -0.944935313346002 
2.67000000000121, -0.9486661230611837 
2.680000000001231, -0.9526447991373267 
2.6900000000012523, -0.9567664004138576 
2.7000000000012734, -0.9609681722223335 
2.7100000000012945, -0.9652026814766899 
2.7200000000013156, -0.9693980319279654 
2.7300000000013367, -0.9734161674993442 
2.740000000001358, -0.9770399362248045 
2.750000000001379, -0.9800237082916963 
2.7600000000014, -0.9821949728983597 
2.770000000001421, -0.9835276623161757 
2.780000000001442, -0.9841274670321694 
2.7900000000014633, -0.9841651876086708 
2.8000000000014844, -0.9838327045939929 
2.8100000000015055, -0.983353457078298 
2.8200000000015266, -0.9830266010385864 
2.8300000000015477, -0.9832448221633978 
2.840000000001569, -0.9844136013936089 
2.85000000000159, -0.9867767592336166 
2.860000000001611, -0.990289981595712 
2.870000000001632, -0.9946723036250207 
2.8800000000016532, -0.9995749057535601 
2.8900000000016743, -1.004714497778784 
2.9000000000016954, -1.0099109870634764 
2.9100000000017165, -1.0150623802644492 
2.9200000000017377, -1.0200972158105421 
2.9300000000017588, -1.0249220798433496 
2.94000000000178, -1.0293794418209536 
2.950000000001801, -1.033246754298747 
2.960000000001822, -1.0363026942183975 
2.970000000001843, -1.0384286809973864 
2.9800000000018643, -1.0396598994743262 
2.9900000000018854, -1.0401474659885959 
3.0000000000019065, -1.0400884092232612 
3.0100000000019276, -1.0396941506361161 
3.0200000000019487, -1.0392123245773477 
3.03000000000197, -1.0389610837626158 
3.040000000001991, -1.0393015961670382 
3.050000000002012, -1.0405073165961742 
3.060000000002033, -1.0426193774915018 
3.070000000002054, -1.0454425124643296 
3.0800000000020753, -1.0486833329368968 
3.0900000000020964, -1.0520857469018108 
3.1000000000021175, -1.0554786849977749 
3.1100000000021386, -1.058763439658308 
3.1200000000021597, -1.061886856620173 
3.130000000002181, -1.0648146671643661 
3.140000000002202, -1.067503248823161 
3.150000000002223, -1.0698764390777078 
3.160000000002244, -1.071825681202497 
3.1700000000022652, -1.0732449922548877 
3.1800000000022863, -1.0740818369898981 
3.1900000000023074, -1.0743642666310194 
3.2000000000023285, -1.074190491988686 
3.2100000000023496, -1.0737077463681761 
3.2200000000023707, -1.0731058587951705 
3.230000000002392, -1.0726123565463328 
3.240000000002413, -1.0724508085178681 
3.250000000002434, -1.0727597629339054 
3.260000000002455, -1.0735402109697896 
3.2700000000024763, -1.0746878742483474 
3.2800000000024974, -1.076067582180391 
3.2900000000025185, -1.0775563895182807 
3.3000000000025396, -1.079047411412089 
3.3100000000025607, -1.0804487263105174 
3.3200000000025818, -1.0816922645657099 
3.330000000002603, -1.082741431679776 
3.340000000002624, -1.083585727271262 
3.350000000002645, -1.084222795578081 
3.360000000002666, -1.0846387679246272 
3.3700000000026873, -1.0848013458261232 
3.3800000000027084, -1.0846728900903884 
3.3900000000027295, -1.0842357907972668 
3.4000000000027506, -1.083513797051229 
3.4100000000027717, -1.082580011630255 
3.420000000002793, -1.0815514668247084 
3.430000000002814, -1.0805679311579905 
3.440000000002835, -1.0797548598978408 
3.450000000002856, -1.0791914398565452 
3.460000000002877, -1.078909828151771 
3.4700000000028983, -1.078913379389945 
3.4800000000029194, -1.0791764769757324 
3.4900000000029405, -1.0796249114418748 
3.5000000000029616, -1.0801345120321142 
3.5100000000029827, -1.0805627775769915 
3.520000000003004, -1.0807875322197797 
3.530000000003025, -1.080729830235248 
3.540000000003046, -1.080360871655514 
3.550000000003067, -1.0796958427218561 
3.5600000000030882, -1.078773811289643 
3.5700000000031094, -1.0776313786292522 
3.5800000000031305, -1.0762867415834796 
3.5900000000031516, -1.0747439579721387 
3.6000000000031727, -1.0730118038440617 
3.6100000000031938, -1.0711229316291597 
3.620000000003215, -1.069141465104592 
3.630000000003236, -1.0671568484703253 
3.640000000003257, -1.0652738317135337 
3.650000000003278, -1.0636108959169486 
3.6600000000032993, -1.062297927445691 
3.6700000000033204, -1.0614416212210858 
3.6800000000033415, -1.061057175338141 
3.6900000000033626, -1.0610283302521148 
3.7000000000033837, -1.0611463277410453 
3.710000000003405, -1.0611879519075174 
3.720000000003426, -1.0609641373570289 
3.730000000003447, -1.0603302660215952 
3.740000000003468, -1.059191500449983 
3.750000000003489, -1.0575198426685162 
3.7600000000035103, -1.0553633019439181 
3.7700000000035314, -1.0528218501866191 
3.7800000000035525, -1.0499999164106142 
3.7900000000035736, -1.0469716470184256 
3.8000000000035947, -1.0437788443121887 
3.810000000003616, -1.0404520896554816 
3.820000000003637, -1.037036005510559 
3.830000000003658, -1.0336088545767854 
3.840000000003679, -1.030298605221806 
3.8500000000037002, -1.0272943733364697 
3.8600000000037213, -1.0248285238584764 
3.8700000000037424, -1.0230961689497626 
3.8800000000037635, -1.0221379020488366 
3.8900000000037847, -1.0217902771426326 
3.9000000000038058, -1.021762057650032 
3.910000000003827, -1.0217553752554165 
3.920000000003848, -1.0215276127535293 
3.930000000003869, -1.0208867505157924 
3.94000000000389, -1.0196752212100912 
3.9500000000039113, -1.017784875142023 
3.9600000000039324, -1.0151990652177214 
3.9700000000039535, -1.0120139153548 
3.9800000000039746, -1.0083990127796256 
3.9900000000039957, -1.0045226983680617 
4.000000000004016, -1.000502179499411 
4.010000000003993, -0.9964029696158659 
4.02000000000397, -0.9922687004173103 
4.030000000003946, -0.9881552758021135 
4.040000000003923, -0.9841575536644743 
4.0500000000039, -0.9804268947985806 
4.0600000000038765, -0.9771709071711033 
4.070000000003853, -0.9746113986577853 
4.08000000000383, -0.9728905298980157 
4.090000000003807, -0.971977218733928 
4.100000000003783, -0.9716610011187015 
4.11000000000376, -0.9716444309027967 
4.120000000003737, -0.9716467438424908 
4.130000000003713, -0.9714472893094259 
4.14000000000369, -0.9708786000401869 
4.150000000003667, -0.9698163148097609 
4.1600000000036434, -0.968194860346632 
4.17000000000362, -0.9660369346483717 
4.180000000003597, -0.9634554097191055 
4.1900000000035735, -0.9606064217968375 
4.20000000000355, -0.9576260575430892 
4.210000000003527, -0.9545975068177439 
4.220000000003504, -0.9515594802361333 
4.23000000000348, -0.9485354007691399 
4.240000000003457, -0.9455605461692376 
4.250000000003434, -0.9426963283210927 
4.26000000000341, -0.9400325718325819 
4.270000000003387, -0.9376825277660895 
4.280000000003364, -0.9357689447703013 
4.2900000000033405, -0.9343924082555372 
4.300000000003317, -0.9335842313873497 
4.310000000003294, -0.9332730716378943 
4.320000000003271, -0.9332979227766197 
4.330000000003247, -0.9334609852110187 
4.340000000003224, -0.9335803768111788 
4.350000000003201, -0.9335169739406067 
4.360000000003177, -0.9331826413784027 
4.370000000003154, -0.9325457211582403 
4.380000000003131, -0.9316332163966387 
4.390000000003107, -0.9305158699904063 
4.400000000003084, -0.9292738130052631 
4.410000000003061, -0.9279624026870721 
4.4200000000030375, -0.9265997114886103 
4.430000000003014, -0.9251791854405063 
4.440000000002991, -0.9236953662424465 
4.450000000002968, -0.9221670187594591 
4.460000000002944, -0.920647320718085 
4.470000000002921, -0.9192184860639949 
4.480000000002898, -0.9179743629508081 
4.490000000002874, -0.9169995314329796 
4.500000000002851, -0.9163544179659802 
4.510000000002828, -0.9160684529932548 
4.520000000002804, -0.9161350102833756 
4.530000000002781, -0.9165058563104731 
4.540000000002758, -0.9170935471632774 
4.5500000000027345, -0.9177890876846442 
4.560000000002711, -0.9184889435899098 
4.570000000002688, -0.9191184516885 
4.580000000002665, -0.9196434268256375 
4.590000000002641, -0.9200672990231679 
4.600000000002618, -0.9204136328532264 
4.610000000002595, -0.9206995098807335 
4.620000000002571, -0.9209129155211961 
4.630000000002548, -0.9210083451449307 
4.640000000002525, -0.920925655575276 
4.6500000000025015, -0.9206219319736547 
4.660000000002478, -0.9200973895005549 
4.670000000002455, -0.9194050837037107 
4.6800000000024315, -0.9186489058718106 
4.690000000002408, -0.9179745507963017 
4.700000000002385, -0.9175476124001877 
4.710000000002362, -0.9175140030342452 
4.720000000002338, -0.9179575036452847 
4.730000000002315, -0.9188820890230731 
4.740000000002292, -0.9202284209809625 
4.750000000002268, -0.921905624078763 
4.760000000002245, -0.9238168453812182 
4.770000000002222, -0.9258746107351497 
4.7800000000021985, -0.9280114192821063 
4.790000000002175, -0.9301859490960336 
4.800000000002152, -0.9323789148090187 
4.810000000002129, -0.9345740967561355 
4.820000000002105, -0.936728665670857 
4.830000000002082, -0.9387486446510422 
4.840000000002059, -0.9404929439826073 
4.850000000002035, -0.9418178252331056 
4.860000000002012, -0.9426376446542646 
4.870000000001989, -0.9429559089355065 
4.880000000001965, -0.9428525192526864 
4.890000000001942, -0.9424587369822369 
4.900000000001919, -0.9419525493158307 
4.9100000000018955, -0.9415728416392296 
4.920000000001872, -0.9416170176671829 
4.930000000001849, -0.9423816223567197 
