t, s[1].omega / s[0].omega 
0, -0.8399938301172808 
0.009999999999999995, -0.8394337074275544 
0.019999999999999934, -0.83895750488201 
0.029999999999999874, -0.8384863221588976 
0.04000000000000012, -0.8379301135165619 
0.050000000000000405, -0.8372369624515642 
0.06000000000000069, -0.8364268120361924 
0.07000000000000098, -0.83559901251713 
0.08000000000000126, -0.8349167956958737 
0.09000000000000155, -0.8345708517566195 
0.10000000000000184, -0.8347255894020913 
0.11000000000000212, -0.8354692469232681 
0.12000000000000241, -0.8367983620347588 
0.130000000000002, -0.8386435126119341 
0.1400000000000009, -0.8409110852934548 
0.1499999999999998, -0.843513815660336 
0.1599999999999987, -0.8463855275980521 
0.1699999999999976, -0.8494905550010257 
0.1799999999999965, -0.8528330823505081 
0.1899999999999954, -0.8564587649031103 
0.1999999999999943, -0.8604352208164145 
0.2099999999999932, -0.8648009905456142 
0.2199999999999921, -0.8694826620058705 
0.229999999999991, -0.8742122805091996 
0.2399999999999899, -0.878535542597936 
0.2499999999999888, -0.8819861405245234 
0.2599999999999877, -0.8843170179912783 
0.2699999999999866, -0.8855690030848287 
0.2799999999999855, -0.8859597876927469 
0.2899999999999844, -0.8857690657583965 
0.2999999999999833, -0.8853379286934885 
0.3099999999999822, -0.8851802312144474 
0.3199999999999811, -0.8861188687370698 
0.32999999999998, -0.8892563051632232 
0.3399999999999789, -0.8955862878706394 
0.3499999999999778, -0.9054119254020051 
0.35999999999997667, -0.9181430419252076 
0.36999999999997557, -0.9327198929392576 
0.37999999999997447, -0.9482097822358992 
0.38999999999997337, -0.9640976746122117 
0.39999999999997227, -0.980240876139453 
0.40999999999997117, -0.9966589385510753 
0.41999999999997006, -1.0132511517326888 
0.42999999999996896, -1.0294794498976727 
0.43999999999996786, -1.0442095388212842 
0.44999999999996676, -1.0560873795932615 
0.45999999999996566, -1.0643741368933024 
0.46999999999996456, -1.0693494465443911 
0.47999999999996346, -1.0718771239391538 
0.48999999999996235, -1.072811706878616 
0.49999999999996125, -1.0727822944084056 
0.5099999999999602, -1.0723074179812655 
0.519999999999959, -1.0720587503025614 
0.529999999999958, -1.0730489634170706 
0.5399999999999568, -1.0763481157911303 
0.5499999999999557, -1.0822816381391647 
0.5599999999999546, -1.0900621121024279 
0.5699999999999535, -1.098454432696471 
0.5799999999999524, -1.1065750493620063 
0.5899999999999513, -1.1140740489381127 
0.5999999999999502, -1.1209318008845028 
0.6099999999999491, -1.127245407993398 
0.619999999999948, -1.1331051532471874 
0.6299999999999469, -1.1385216757087293 
0.6399999999999458, -1.1433788620571894 
0.6499999999999447, -1.1474453228199093 
0.6599999999999436, -1.150482833725027 
0.6699999999999425, -1.1523943935946623 
0.6799999999999414, -1.153281015875041 
0.6899999999999403, -1.1533830555918203 
0.6999999999999392, -1.1530140897758063 
0.7099999999999381, -1.1525477262416308 
0.719999999999937, -1.1523802739689786 
0.7299999999999359, -1.1527789082430835 
0.7399999999999348, -1.1537321298440544 
0.7499999999999337, -1.1550184376229367 
0.7599999999999326, -1.1564179213593164 
0.7699999999999315, -1.1578151953197864 
0.7799999999999304, -1.1591482031539397 
0.7899999999999293, -1.1603372941053327 
0.7999999999999282, -1.1612857643517824 
0.8099999999999271, -1.1619245250413088 
0.819999999999926, -1.16223996983111 
0.8299999999999249, -1.1622631135441 
0.8399999999999238, -1.1620328735349763 
0.8499999999999227, -1.1615608919806226 
0.8599999999999216, -1.1608224064128803 
0.8699999999999205, -1.1597792270626892 
0.8799999999999194, -1.1584186723511383 
0.8899999999999183, -1.156780435773077 
0.8999999999999172, -1.1549489590825415 
0.9099999999999161, -1.1530134049304928 
0.919999999999915, -1.1510398258441437 
0.9299999999999139, -1.1491110149377821 
0.9399999999999128, -1.1474034612880248 
0.9499999999999117, -1.146167345616256 
0.9599999999999106, -1.1455427871301933 
0.9699999999999095, -1.145390959247024 
0.9799999999999084, -1.145353415109113 
0.9899999999999073, -1.1450340127905974 
0.9999999999999062, -1.144091336543672 
1.0099999999999052, -1.1422482294183256 
1.019999999999904, -1.1393292693159869 
1.029999999999903, -1.1353367786590725 
1.039999999999902, -1.1304595016886512 
1.0499999999999008, -1.1249570551969894 
1.0599999999998997, -1.119017870263288 
1.0699999999998986, -1.112701428357638 
1.0799999999998975, -1.1059639173338833 
1.0899999999998964, -1.0987172131656917 
1.0999999999998953, -1.090909543491703 
1.1099999999998942, -1.082663908757804 
1.119999999999893, -1.074478836182434 
1.129999999999892, -1.0673128148418667 
1.1399999999998909, -1.0622054862218917 
1.1499999999998898, -1.0595132251825468 
1.1599999999998887, -1.0586256311961164 
1.1699999999998876, -1.058527727020715 
1.1799999999998865, -1.058393477724622 
1.1899999999998854, -1.0576661646198513 
1.1999999999998843, -1.0558523046132091 
1.2099999999998832, -1.0523413592675346 
1.219999999999882, -1.0464306459797146 
1.229999999999881, -1.037662855199756 
1.2399999999998799, -1.0262780504005913 
1.2499999999998788, -1.0132105524465256 
1.2599999999998777, -0.9995113022867601 
1.2699999999998766, -0.9858393116571553 
1.2799999999998755, -0.9724102829729089 
1.2899999999998744, -0.959203415183141 
1.2999999999998733, -0.9461882482890227 
1.3099999999998722, -0.9335116996611618 
1.319999999999871, -0.921635655572541 
1.32999999999987, -0.911339794213311 
1.3399999999998689, -0.9034543365273409 
1.3499999999998678, -0.8983788724449067 
1.3599999999998666, -0.8957885658093538 
1.3699999999998655, -0.8948435385453829 
1.3799999999998644, -0.8946535002041642 
1.3899999999998633, -0.8945575709838749 
1.3999999999998622, -0.8941269179367884 
1.4099999999998611, -0.893057684462893 
1.41999999999986, -0.8911072503770787 
1.429999999999859, -0.8881367431784417 
1.4399999999998578, -0.8842221528364996 
1.4499999999998567, -0.8796893910938899 
1.4599999999998556, -0.8749725482387124 
1.4699999999998545, -0.8704111359302182 
1.4799999999998534, -0.8661615245345885 
1.4899999999998523, -0.8622354034538408 
1.4999999999998512, -0.8585796669010224 
1.5099999999998501, -0.8551406542969735 
1.519999999999849, -0.8518981951423544 
1.529999999999848, -0.8488728894919408 
1.5399999999998468, -0.8461180373568598 
1.5499999999998457, -0.8437091972860828 
1.5599999999998446, -0.8417351213870408 
1.5699999999998435, -0.8402807464755331 
1.5799999999998424, -0.8393936456722436 
1.5899999999998413, -0.8390460798762204 
1.5999999999998402, -0.8391226631187274 
1.6099999999998391, -0.8394497203549912 
1.619999999999838, -0.8398487834118147 
1.629999999999837, -0.8401846273902331 
1.6399999999998358, -0.8403936265525651 
1.6499999999998347, -0.8404900784375716 
1.6599999999998336, -0.8405468890831598 
1.6699999999998325, -0.8406528599529975 
1.6799999999998314, -0.8408641879331211 
1.6899999999998303, -0.8411710205012891 
1.6999999999998292, -0.8414914364838092 
1.709999999999828, -0.841699780178369 
1.719999999999827, -0.8416833355193626 
1.729999999999826, -0.8413977835153983 
1.7399999999998248, -0.8408930911087911 
1.7499999999998237, -0.8403126746556845 
1.7599999999998226, -0.8398809406973587 
1.7699999999998215, -0.8398732315506321 
1.7799999999998204, -0.8405510254282025 
1.7899999999998193, -0.8420765580025049 
1.7999999999998182, -0.8444622824595704 
1.809999999999817, -0.8475953625530576 
1.819999999999816, -0.8513128581857698 
1.8299999999998149, -0.855471264082236 
1.8399999999998138, -0.859981800588437 
1.8499999999998127, -0.864819153070678 
1.8599999999998116, -0.8700178053895561 
1.8699999999998105, -0.8756552958818015 
1.8799999999998094, -0.8818073819855876 
1.8899999999998083, -0.8884572641474134 
1.8999999999998072, -0.8953659202224816 
1.909999999999806, -0.9019935159414283 
1.919999999999805, -0.9076378595988469 
1.9299999999998039, -0.911788234629212 
1.9399999999998028, -0.9143656402299438 
1.9499999999998017, -0.9156273486270534 
1.9599999999998006, -0.9159348340056447 
1.9699999999997995, -0.9156413231523037 
1.9799999999997984, -0.9151555600945567 
1.9899999999997973, -0.9151311967618382 
1.9999999999997962, -0.9166520647997295 
2.0099999999998173, -0.921120558799754 
2.0199999999998384, -0.9296056582017813 
2.0299999999998595, -0.9420692468758626 
2.0399999999998806, -0.9573607806324758 
2.0499999999999017, -0.9740195880968695 
2.059999999999923, -0.9910061056933657 
2.069999999999944, -1.0078703668104179 
2.079999999999965, -1.0245445135597266 
2.089999999999986, -1.041030532325277 
2.100000000000007, -1.057080456466631 
2.1100000000000283, -1.0719531082079115 
2.1200000000000494, -1.0845085351799617 
2.1300000000000705, -1.0938181465002594 
2.1400000000000916, -1.0997819213483793 
2.1500000000001127, -1.1030485410960906 
2.160000000000134, -1.1044690201530416 
2.170000000000155, -1.1047380929240427 
2.180000000000176, -1.1043935983004534 
2.190000000000197, -1.1040198322213015 
2.2000000000002182, -1.1044363966607735 
2.2100000000002393, -1.1065390686173613 
2.2200000000002604, -1.1106856132734042 
2.2300000000002815, -1.1163348394697499 
2.2400000000003026, -1.122522120928823 
2.2500000000003237, -1.128522696246693 
2.260000000000345, -1.1340327740373732 
2.270000000000366, -1.1390147857101405 
2.280000000000387, -1.1435289481045385 
2.290000000000408, -1.1476471962958688 
2.3000000000004293, -1.151410425174603 
2.3100000000004504, -1.1547922764767222 
2.3200000000004715, -1.1576801389758857 
2.3300000000004926, -1.1599091439165112 
2.3400000000005137, -1.1613521056972402 
2.3500000000005348, -1.1620012472442702 
2.360000000000556, -1.1619809022420693 
2.370000000000577, -1.1615155524803324 
2.380000000000598, -1.1609002180930221 
2.390000000000619, -1.16044547473938 
2.4000000000006403, -1.1603554665796003 
2.4100000000006614, -1.1606336008391884 
2.4200000000006825, -1.1611513691180289 
2.4300000000007036, -1.1618000286058965 
2.4400000000007247, -1.1625391526744613 
2.450000000000746, -1.1633239135687476 
2.460000000000767, -1.164041617771611 
2.470000000000788, -1.1645378445222163 
2.480000000000809, -1.1646853575893263 
2.49000000000083, -1.1644285668654164 
2.5000000000008513, -1.163786355222785 
2.5100000000008724, -1.162820071284946 
2.5200000000008935, -1.1615860058977536 
2.5300000000009146, -1.160103149686246 
2.5400000000009357, -1.1583552341346102 
2.550000000000957, -1.156319646300313 
2.560000000000978, -1.1539975465377483 
2.570000000000999, -1.1514200624120217 
2.58000000000102, -1.148631276920676 
2.5900000000010412, -1.1456908541780637 
2.6000000000010624, -1.1427410350786067 
2.6100000000010835, -1.1400879133830915 
2.6200000000011046, -1.138132567098463 
2.6300000000011257, -1.1370866597068237 
2.6400000000011468, -1.1367534721545896 
2.650000000001168, -1.1366559858116532 
2.660000000001189, -1.1362993482854782 
2.67000000000121, -1.1352618571424178 
2.680000000001231, -1.133153672082956 
2.6900000000012523, -1.1296258304441507 
2.7000000000012734, -1.124504045562987 
2.7100000000012945, -1.1179240538723012 
2.7200000000013156, -1.110266706891824 
2.7300000000013367, -1.1019184440369174 
2.740000000001358, -1.0930895004369288 
2.750000000001379, -1.0837967596926117 
2.7600000000014, -1.0739474855846847 
2.770000000001421, -1.063467163000775 
2.780000000001442, -1.0524870983982242 
2.7900000000014633, -1.041592503876706 
2.8000000000014844, -1.0319386208314376 
2.8100000000015055, -1.0248368985528349 
2.8200000000015266, -1.02084431467102 
2.8300000000015477, -1.019331154592814 
2.840000000001569, -1.0190855752743255 
2.85000000000159, -1.0190848406909947 
2.860000000001611, -1.0186849489584557 
2.870000000001632, -1.017417262580524 
2.8800000000016532, -1.0147583569855658 
2.8900000000016743, -1.0100556879960423 
2.9000000000016954, -1.0027329128033853 
2.9100000000017165, -0.9927458476940046 
2.9200000000017377, -0.9808305258281214 
2.9300000000017588, -0.9681103391936571 
2.94000000000178, -0.9554638117933278 
2.950000000001801, -0.9432831542949911 
2.960000000001822, -0.9316150164368715 
2.970000000001843, -0.9203847618597274 
2.9800000000018643, -0.9095665179710256 
2.9900000000018854, -0.8992981834066871 
3.0000000000019065, -0.8899432948118591 
3.0100000000019276, -0.8820462422453591 
3.0200000000019487, -0.8761202184330006 
3.03000000000197, -0.8723435769376826 
3.040000000001991, -0.8704117304113144 
3.050000000002012, -0.8696941710698056 
3.060000000002033, -0.8695299794361976 
3.070000000002054, -0.8694085219912463 
3.0800000000020753, -0.8689820294885745 
3.0900000000020964, -0.8680124169478551 
3.1000000000021175, -0.8663520440966368 
3.1100000000021386, -0.8639852742253471 
3.1200000000021597, -0.8610710680363077 
3.130000000002181, -0.8578953758924783 
3.140000000002202, -0.8547393230952813 
3.150000000002223, -0.8517735285448669 
3.160000000002244, -0.8490432494504383 
3.1700000000022652, -0.8465140922891484 
3.1800000000022863, -0.844129739997706 
3.1900000000023074, -0.8418566197497214 
3.2000000000023285, -0.8397053870158349 
3.2100000000023496, -0.8377274630175109 
3.2200000000023707, -0.835994807737235 
3.230000000002392, -0.8345779213129534 
3.240000000002413, -0.8335336826705868 
3.250000000002434, -0.8329016411932628 
3.260000000002455, -0.8326975316426835 
3.2700000000024763, -0.8328991337698476 
3.2800000000024974, -0.8334359318275231 
3.2900000000025185, -0.8341988086840038 
3.3000000000025396, -0.8350712191147931 
3.3100000000025607, -0.8359665902063048 
3.3200000000025818, -0.8368541723587828 
3.330000000002603, -0.8377620733653177 
3.340000000002624, -0.8387543095089699 
3.350000000002645, -0.8398889658910859 
3.360000000002666, -0.841172064740763 
3.3700000000026873, -0.8425239893929767 
3.3800000000027084, -0.8437808364278501 
3.3900000000027295, -0.8447492551129674 
3.4000000000027506, -0.8452924892127541 
3.4100000000027717, -0.8453871841888695 
3.420000000002793, -0.8451258213330488 
3.430000000002814, -0.8447015275531387 
3.440000000002835, -0.8444100464464677 
3.450000000002856, -0.8446504160796227 
3.460000000002877, -0.84586789355272 
3.4700000000028983, -0.8484150030207257 
3.4800000000029194, -0.852406909707153 
3.4900000000029405, -0.8576955397736379 
3.5000000000029616, -0.8639861821812236 
3.5100000000029827, -0.8709940120645964 
3.520000000003004, -0.8785415551752376 
3.530000000003025, -0.8865811292841566 
3.540000000003046, -0.8951706073560048 
3.550000000003067, -0.9044165460867026 
3.5600000000030882, -0.9143669859448293 
3.5700000000031094, -0.9248312746083697 
3.5800000000031305, -0.9351875312566513 
3.5900000000031516, -0.9444190792774695 
3.6000000000031727, -0.9515820360466722 
3.6100000000031938, -0.9563481063527395 
3.620000000003215, -0.9590307440942404 
3.630000000003236, -0.960194546655248 
3.640000000003257, -0.9603501789049964 
3.650000000003278, -0.9599200270746453 
3.6600000000032993, -0.959408628894226 
3.6700000000033204, -0.9596858526406662 
3.6800000000033415, -0.9621658995382804 
3.6900000000033626, -0.9684261904564039 
3.7000000000033837, -0.9791610530450183 
3.710000000003405, -0.9935071257422516 
3.720000000003426, -1.0096850456373718 
3.730000000003447, -1.0261582760955652 
3.740000000003468, -1.0421461949133166 
3.750000000003489, -1.0574666865438238 
3.7600000000035103, -1.0721807073202982 
3.7700000000035314, -1.0862743943170352 
3.7800000000035525, -1.099418055980402 
3.7900000000035736, -1.1109001587857508 
3.8000000000035947, -1.1199173940246934 
3.810000000003616, -1.1261017575630867 
3.820000000003637, -1.129740171141926 
3.830000000003658, -1.1314857348280483 
3.840000000003679, -1.1319875556694265 
3.8500000000037002, -1.1317774316829603 
3.8600000000037213, -1.1313837963207205 
3.8700000000037424, -1.1314773480045957 
3.8800000000037635, -1.1327660201407677 
3.8900000000037847, -1.1355481457930536 
3.9000000000038058, -1.139445895498048 
3.910000000003827, -1.1437563689847954 
3.920000000003848, -1.1479463839037478 
3.930000000003869, -1.1517867024401038 
3.94000000000389, -1.1552321491727855 
3.9500000000039113, -1.1583002285448656 
3.9600000000039324, -1.1610241690564949 
3.9700000000039535, -1.1634384208405182 
3.9800000000039746, -1.1655560173734654 
3.9900000000039957, -1.1673408072144995 
4.000000000004016, -1.1687032257191925 
4.010000000003993, -1.1695397255503601 
4.02000000000397, -1.1697975911571858 
4.030000000003946, -1.1695193605633558 
4.040000000003923, -1.1688469471870273 
4.0500000000039, -1.1679968540708834 
4.0600000000038765, -1.1671992799460396 
4.070000000003853, -1.1666011029076047 
4.08000000000383, -1.1662171450454681 
4.090000000003807, -1.1660037449722207 
4.100000000003783, -1.1659623664991283 
4.11000000000376, -1.1661300042159604 
4.120000000003737, -1.1664717842777605 
4.130000000003713, -1.166825639582271 
4.14000000000369, -1.1669642183595303 
4.150000000003667, -1.1666876502513515 
4.1600000000036434, -1.1658769302415661 
4.17000000000362, -1.1645129468266382 
4.180000000003597, -1.1626634862162981 
4.1900000000035735, -1.1604319421545333 
4.20000000000355, -1.157896250438077 
4.210000000003527, -1.1550802479866211 
4.220000000003504, -1.1519661973282571 
4.23000000000348, -1.1485243066636737 
4.240000000003457, -1.1447324772153238 
4.250000000003434, -1.1405879672705954 
4.26000000000341, -1.136153500696503 
4.270000000003387, -1.1316712163067761 
4.280000000003364, -1.1276560657450578 
4.2900000000033405, -1.1247360710015042 
4.300000000003317, -1.1231947781324778 
4.310000000003294, -1.122703655273758 
4.320000000003271, -1.1225975769723044 
4.330000000003247, -1.1222592956149124 
4.340000000003224, -1.1211938318384165 
4.350000000003201, -1.1189054285610134 
4.360000000003177, -1.1148322762459473 
4.370000000003154, -1.1084951387066517 
4.380000000003131, -1.09981305249671 
4.390000000003107, -1.089241801397705 
4.400000000003084, -1.0774871136865527 
4.410000000003061, -1.065087518589762 
4.4200000000030375, -1.0522523268664163 
4.430000000003014, -1.0389553140969328 
4.440000000002991, -1.0251311082911974 
4.450000000002968, -1.0109200432008822 
4.460000000002944, -0.9969455026980413 
4.470000000002921, -0.9844476804231279 
4.480000000002898, -0.9748983002680541 
4.490000000002874, -0.9690717769572302 
4.500000000002851, -0.9664622364653572 
4.510000000002828, -0.9657673540287576 
4.520000000002804, -0.9657593856659752 
4.530000000002781, -0.9656467521620027 
4.540000000002758, -0.9649456245389508 
4.5500000000027345, -0.9632424873732802 
4.560000000002711, -0.9600603440133391 
4.570000000002688, -0.9549263170606108 
4.580000000002665, -0.9476681295403866 
4.590000000002641, -0.9387031846437086 
4.600000000002618, -0.9289063734718319 
4.610000000002595, -0.91911535526332 
4.620000000002571, -0.9097969980127283 
4.630000000002548, -0.9010696759573815 
4.640000000002525, -0.8928753309585733 
4.6500000000025015, -0.8851246259673037 
4.660000000002478, -0.8777820898531805 
4.670000000002455, -0.8709129310343331 
4.6800000000024315, -0.8647033782193179 
4.690000000002408, -0.8594365411283398 
4.700000000002385, -0.8553948698443199 
4.710000000002362, -0.8527084812194541 
4.720000000002338, -0.8512499365521433 
4.730000000002315, -0.8506703539190031 
4.740000000002292, -0.8505430279271022 
4.750000000002268, -0.8504923697219295 
4.760000000002245, -0.850243260955844 
4.770000000002222, -0.8496208232122223 
4.7800000000021985, -0.8485530037427187 
4.790000000002175, -0.8470852276204237 
4.800000000002152, -0.8453683042759202 
4.810000000002129, -0.843592645602522 
4.820000000002105, -0.841905383787098 
4.830000000002082, -0.8403665545304252 
4.840000000002059, -0.8389562229948504 
4.850000000002035, -0.8376115827743551 
4.860000000002012, -0.8362733368415629 
4.870000000001989, -0.8349248134098582 
4.880000000001965, -0.8336099827536565 
4.890000000001942, -0.8324253965522128 
4.900000000001919, -0.8314909374304632 
4.9100000000018955, -0.8309119132123943 
4.920000000001872, -0.8307507670155513 
4.930000000001849, -0.8310216027862782 
