t, s[1].omega / s[0].omega 
0, -1.31999734889146 
0.009999999999999995, -1.3195302802102122 
0.019999999999999934, -1.3186454325962298 
0.029999999999999874, -1.3173057237826926 
0.04000000000000012, -1.3154887015448797 
0.050000000000000405, -1.3132016258325376 
0.06000000000000069, -1.3104491080869505 
0.07000000000000098, -1.3071918109760463 
0.08000000000000126, -1.3034271195778053 
0.09000000000000155, -1.2994588022972238 
0.10000000000000184, -1.2960782959650383 
0.11000000000000212, -1.294090368437516 
0.12000000000000241, -1.2934513096976432 
0.130000000000002, -1.293319097044695 
0.1400000000000009, -1.2927794476035066 
0.1499999999999998, -1.2910156157272061 
0.1599999999999987, -1.2869077428909634 
0.1699999999999976, -1.27855178858943 
0.1799999999999965, -1.263214167093261 
0.1899999999999954, -1.2384363920927346 
0.1999999999999943, -1.2038592743810541 
0.2099999999999932, -1.1613668177607284 
0.2199999999999921, -1.1131229109628225 
0.229999999999991, -1.0602603875509145 
0.2399999999999899, -1.0035353323849758 
0.2499999999999888, -0.9451405814278508 
0.2599999999999877, -0.8901558473657282 
0.2699999999999866, -0.8453654694144866 
0.2799999999999855, -0.815115121274912 
0.2899999999999844, -0.7985617309086374 
0.2999999999999833, -0.7913934585126874 
0.3099999999999822, -0.7891513624894867 
0.3199999999999811, -0.7888773566284867 
0.32999999999998, -0.7890430279905907 
0.3399999999999789, -0.788940210847497 
0.3499999999999778, -0.7881896822314828 
0.35999999999997667, -0.78648354808569 
0.36999999999997557, -0.7835303255541554 
0.37999999999997447, -0.7791843965753148 
0.38999999999997337, -0.7736615513273951 
0.39999999999997227, -0.7675694128336691 
0.40999999999997117, -0.7616105736416233 
0.41999999999997006, -0.7562461740543334 
0.42999999999996896, -0.7516175105175587 
0.43999999999996786, -0.7476608633662112 
0.44999999999996676, -0.7442388365213671 
0.45999999999996566, -0.7412221144189897 
0.46999999999996456, -0.7385288053560976 
0.47999999999996346, -0.7361349178244885 
0.48999999999996235, -0.734063849812556 
0.49999999999996125, -0.7323643169332156 
0.5099999999999602, -0.7310879963414405 
0.519999999999959, -0.7302744597623418 
0.529999999999958, -0.7299436666190748 
0.5399999999999568, -0.7300916231693371 
0.5499999999999557, -0.7306870152810577 
0.5599999999999546, -0.7316725980508823 
0.5699999999999535, -0.7329771816578659 
0.5799999999999524, -0.7345388587830044 
0.5899999999999513, -0.7363321946500534 
0.5999999999999502, -0.7383876264781913 
0.6099999999999491, -0.7407927122774058 
0.619999999999948, -0.7436703823611872 
0.6299999999999469, -0.7471315606956889 
0.6399999999999458, -0.7511945991261254 
0.6499999999999447, -0.7556772785414358 
0.6599999999999436, -0.7601377811543129 
0.6699999999999425, -0.7639979265057368 
0.6799999999999414, -0.7668260312810302 
0.6899999999999403, -0.7685151938390041 
0.6999999999999392, -0.7692142220484798 
0.7099999999999381, -0.7691728794648847 
0.719999999999937, -0.7686882583696034 
0.7299999999999359, -0.768215229592618 
0.7399999999999348, -0.7686624297716416 
0.7499999999999337, -0.7718637055069981 
0.7599999999999326, -0.7809884987504979 
0.7699999999999315, -0.8001848639759885 
0.7799999999999304, -0.8326925989359637 
0.7899999999999293, -0.8782217381345507 
0.7999999999999282, -0.9324432946487979 
0.8099999999999271, -0.9897320956528072 
0.819999999999926, -1.0461221499852535 
0.8299999999999249, -1.0997678434606106 
0.8399999999999238, -1.1495215488280586 
0.8499999999999227, -1.1933539884919657 
0.8599999999999216, -1.2282131350980081 
0.8699999999999205, -1.2521115231331392 
0.8799999999999194, -1.2660838632912295 
0.8899999999999183, -1.2731852694919106 
0.8999999999999172, -1.2763010488388753 
0.9099999999999161, -1.277269629450433 
0.919999999999915, -1.277143392141411 
0.9299999999999139, -1.2767471463903757 
0.9399999999999128, -1.2770721908456837 
0.9499999999999117, -1.2790001803266338 
0.9599999999999106, -1.2824779892955793 
0.9699999999999095, -1.2865550217322261 
0.9799999999999084, -1.2903612838734708 
0.9899999999999073, -1.2935755741992254 
0.9999999999999062, -1.2962086326435593 
1.0099999999999052, -1.2983237581972547 
1.019999999999904, -1.2999505992393903 
1.029999999999903, -1.3011129034212794 
1.039999999999902, -1.301848551180961 
1.0499999999999008, -1.3021909140262298 
1.0599999999998997, -1.3021415444011677 
1.0699999999998986, -1.3016671428899473 
1.0799999999998975, -1.3007290972649288 
1.0899999999998964, -1.299324767847375 
1.0999999999998953, -1.2975036562169646 
1.1099999999998942, -1.2953302127654547 
1.119999999999893, -1.292821472884087 
1.129999999999892, -1.289977099648658 
1.1399999999998909, -1.2869759796646865 
1.1499999999998898, -1.2843454489151616 
1.1599999999998887, -1.282693573059921 
1.1699999999998876, -1.2820825440003139 
1.1799999999998865, -1.2819176008860595 
1.1899999999998854, -1.2814335643869257 
1.1999999999998843, -1.2799193779094717 
1.2099999999998832, -1.2765187383695384 
1.219999999999882, -1.2700149680980792 
1.229999999999881, -1.2590002513772824 
1.2399999999998799, -1.2425809068397264 
1.2499999999998788, -1.2209674691357821 
1.2599999999998777, -1.1950432401360842 
1.2699999999998766, -1.165362080072156 
1.2799999999998755, -1.131691576068675 
1.2899999999998744, -1.093416374790218 
1.2999999999998733, -1.0507871907005684 
1.3099999999998722, -1.0068775571633053 
1.319999999999871, -0.9683619917974738 
1.32999999999987, -0.9418637059439389 
1.3399999999998689, -0.9284600507858383 
1.3499999999998678, -0.9239191711097904 
1.3599999999998666, -0.9233593922664977 
1.3699999999998655, -0.9238314528315282 
1.3799999999998644, -0.9240504650208123 
1.3899999999998633, -0.9234509341557583 
1.3999999999998622, -0.9215427073636707 
1.4099999999998611, -0.9175711209624933 
1.41999999999986, -0.9104430819263258 
1.429999999999859, -0.8991565392046633 
1.4399999999998578, -0.8838132768440407 
1.4499999999998567, -0.8661693716451515 
1.4599999999998556, -0.8485915703804052 
1.4699999999998545, -0.8326093151357791 
1.4799999999998534, -0.8186333133666149 
1.4899999999998523, -0.8064602667205586 
1.4999999999998512, -0.7957341635408736 
1.5099999999998501, -0.7861628241048687 
1.519999999999849, -0.7775859672210269 
1.529999999999848, -0.7699818869623613 
1.5399999999998468, -0.7634433100087319 
1.5499999999998457, -0.7581213355305403 
1.5599999999998446, -0.7541366446349083 
1.5699999999998435, -0.7514856178741046 
1.5799999999998424, -0.7499948848132063 
1.5899999999998413, -0.7493570122671849 
1.5999999999998402, -0.7492201242101169 
1.6099999999998391, -0.749271699416101 
1.619999999999838, -0.7492834092099964 
1.629999999999837, -0.7491263951714624 
1.6399999999998358, -0.748776421361421 
1.6499999999998347, -0.7483066292663532 
1.6599999999998336, -0.7478514764307197 
1.6699999999998325, -0.7475466805762643 
1.6799999999998314, -0.7474752210289071 
1.6899999999998303, -0.7476386737459146 
1.6999999999998292, -0.7479527118771225 
1.709999999999828, -0.7482696494414115 
1.719999999999827, -0.748433969717093 
1.729999999999826, -0.7483503210173182 
1.7399999999998248, -0.7480258201455791 
1.7499999999998237, -0.7475784276252531 
1.7599999999998226, -0.7472353882502851 
1.7699999999998215, -0.7473327091354219 
1.7799999999998204, -0.7482921935988018 
1.7899999999998193, -0.7505447140677237 
1.7999999999998182, -0.7544102006647766 
1.809999999999817, -0.7600041203953849 
1.819999999999816, -0.767241973623079 
1.8299999999998149, -0.7759401594721449 
1.8399999999998138, -0.7859460952101684 
1.8499999999998127, -0.7972364896030073 
1.8599999999998116, -0.8099661212570368 
1.8699999999998105, -0.8244684352297883 
1.8799999999998094, -0.8411779487893106 
1.8899999999998083, -0.8603672692239217 
1.8999999999998072, -0.881558767968466 
1.909999999999806, -0.9028378121122194 
1.919999999999805, -0.9211772119488272 
1.9299999999998039, -0.9343603491900524 
1.9399999999998028, -0.9423592341350597 
1.9499999999998017, -0.9465383579450026 
1.9599999999998006, -0.9483063990380618 
1.9699999999997995, -0.9485930315608797 
1.9799999999997984, -0.9479520108824657 
1.9899999999997973, -0.9469299623139428 
1.9999999999997962, -0.94672400570133 
2.0099999999998173, -0.9501734185266271 
2.0199999999998384, -0.9621329903602934 
2.0299999999998595, -0.9868957686887374 
2.0399999999998806, -1.0233585390304556 
2.0499999999999017, -1.0648324726063605 
2.059999999999923, -1.1047483434733099 
2.069999999999944, -1.1402313782684392 
2.079999999999965, -1.171174271982236 
2.089999999999986, -1.1982852521451286 
2.100000000000007, -1.2219102542902998 
2.1100000000000283, -1.2416482491731757 
2.1200000000000494, -1.2567134853095703 
2.1300000000000705, -1.266825520354505 
2.1400000000000916, -1.27269160732404 
2.1500000000001127, -1.2755609602745381 
2.160000000000134, -1.2765723776662683 
2.170000000000155, -1.2765535700074324 
2.180000000000176, -1.276197029169156 
2.190000000000197, -1.276243809358838 
2.2000000000002182, -1.2772800716908543 
2.2100000000002393, -1.2792746522465028 
2.2200000000002604, -1.2816597699357852 
2.2300000000002815, -1.2839209891302878 
2.2400000000003026, -1.28587311067183 
2.2500000000003237, -1.2875101611843578 
2.260000000000345, -1.2888129907982813 
2.270000000000366, -1.2897149812551447 
2.280000000000387, -1.290163024862046 
2.290000000000408, -1.2901570919007834 
2.3000000000004293, -1.289736241958005 
2.3100000000004504, -1.288937237795302 
2.3200000000004715, -1.2877628485661274 
2.3300000000004926, -1.2861826264062208 
2.3400000000005137, -1.2841606352169528 
2.3500000000005348, -1.2816792690238983 
2.360000000000556, -1.278726340583893 
2.370000000000577, -1.2752618476704134 
2.380000000000598, -1.2712677735394105 
2.390000000000619, -1.2669721966651653 
2.4000000000006403, -1.2630797312979978 
2.4100000000006614, -1.2604886936312583 
2.4200000000006825, -1.2594368814023027 
2.4300000000007036, -1.2592393539721 
2.4400000000007247, -1.2589565632846083 
2.450000000000746, -1.2577987704801945 
2.460000000000767, -1.2548922172179098 
2.470000000000788, -1.2488594125725532 
2.480000000000809, -1.2376597533516551 
2.49000000000083, -1.2192367577523755 
2.5000000000008513, -1.192954881884838 
2.5100000000008724, -1.1601654688125302 
2.5200000000008935, -1.1228542819274563 
2.5300000000009146, -1.0821729820795256 
2.5400000000009357, -1.0383985140969911 
2.550000000000957, -0.9920049851089014 
2.560000000000978, -0.945147446454597 
2.570000000000999, -0.9024592361676748 
2.58000000000102, -0.8694110251098637 
2.5900000000010412, -0.8486610689763487 
2.6000000000010624, -0.8384493587981245 
2.6100000000010835, -0.8347502884367002 
2.6200000000011046, -0.8340292154477538 
2.6300000000011257, -0.8341961482764555 
2.6400000000011468, -0.8342519147471409 
2.650000000001168, -0.8337065761478254 
2.660000000001189, -0.8321951120022539 
2.67000000000121, -0.8293202253768663 
2.680000000001231, -0.8247198184431392 
2.6900000000012523, -0.8183483289906415 
2.7000000000012734, -0.8107283273658592 
2.7100000000012945, -0.8027752889584858 
2.7200000000013156, -0.7952883990755659 
2.7300000000013367, -0.7886484660608262 
2.740000000001358, -0.7828836458455011 
2.750000000001379, -0.7778591026231163 
2.7600000000014, -0.7734143338134826 
2.770000000001421, -0.7694284731274436 
2.780000000001442, -0.7658398984576632 
2.7900000000014633, -0.7626409001570104 
2.8000000000014844, -0.7598617113972399 
2.8100000000015055, -0.7575536451218858 
2.8200000000015266, -0.7557733090063177 
2.8300000000015477, -0.7545635611930002 
2.840000000001569, -0.7539298070021789 
2.85000000000159, -0.7538209302932526 
2.860000000001611, -0.7541296552736756 
2.870000000001632, -0.75471774350382 
2.8800000000016532, -0.7554556374363306 
2.8900000000016743, -0.7562598403437961 
2.9000000000016954, -0.7571152901454481 
2.9100000000017165, -0.7580747677305189 
2.9200000000017377, -0.7592332089901807 
2.9300000000017588, -0.760684272691982 
2.94000000000178, -0.762469458870596 
2.950000000001801, -0.7645265524652827 
2.960000000001822, -0.7666586096858292 
2.970000000001843, -0.7685712585791367 
2.9800000000018643, -0.7699927829208733 
2.9900000000018854, -0.7707927954758234 
3.0000000000019065, -0.7710079072186188 
3.0100000000019276, -0.7708020992364113 
3.0200000000019487, -0.7704539777478614 
3.03000000000197, -0.7704162833041268 
3.040000000001991, -0.7714166776037578 
3.050000000002012, -0.7744924489752145 
3.060000000002033, -0.7808108441133801 
3.070000000002054, -0.791247212941939 
3.0800000000020753, -0.8059817986393787 
3.0900000000020964, -0.8244818780385058 
3.1000000000021175, -0.8459030660843645 
3.1100000000021386, -0.8695707430558635 
3.1200000000021597, -0.8952340291359852 
3.130000000002181, -0.9230217040623447 
3.140000000002202, -0.9530992512764515 
3.150000000002223, -0.9849415331449352 
3.160000000002244, -1.0163676668048311 
3.1700000000022652, -1.043538401909538 
3.1800000000022863, -1.0632299405540098 
3.1900000000023074, -1.0751971895504735 
3.2000000000023285, -1.0814755564053296 
3.2100000000023496, -1.0842992111838776 
3.2200000000023707, -1.0851573877984575 
3.230000000002392, -1.0849029434983322 
3.240000000002413, -1.0842093678423974 
3.250000000002434, -1.0841492929302834 
3.260000000002455, -1.0865990737522997 
3.2700000000024763, -1.09352251543742 
3.2800000000024974, -1.1050544725307303 
3.2900000000025185, -1.1190373596351133 
3.3000000000025396, -1.132987813983774 
3.3100000000025607, -1.1456155856800305 
3.3200000000025818, -1.1567121157523759 
3.330000000002603, -1.166529690580035 
3.340000000002624, -1.1753743325129085 
3.350000000002645, -1.1834244372020404 
3.360000000002666, -1.1906481288717115 
3.3700000000026873, -1.1967981504972596 
3.3800000000027084, -1.2015457637041416 
3.3900000000027295, -1.2047177820289905 
3.4000000000027506, -1.2064291060490586 
3.4100000000027717, -1.2070057271569277 
3.420000000002793, -1.2068552745247174 
3.430000000002814, -1.2064327011175815 
3.440000000002835, -1.2062264674903331 
3.450000000002856, -1.2065950009402733 
3.460000000002877, -1.2075468882208265 
3.4700000000028983, -1.2088033373141864 
3.4800000000029194, -1.2100962265051063 
3.4900000000029405, -1.2113217032987607 
3.5000000000029616, -1.2124568795420636 
3.5100000000029827, -1.2134355152197156 
3.520000000003004, -1.2141359756678278 
3.530000000003025, -1.2144511808162428 
3.540000000003046, -1.214342891800393 
3.550000000003067, -1.2138423976451889 
3.5600000000030882, -1.2130102914376049 
3.5700000000031094, -1.2118874535185982 
3.5800000000031305, -1.21047100961378 
3.5900000000031516, -1.2087279160984372 
3.6000000000031727, -1.206630330177847 
3.6100000000031938, -1.2041795062943685 
3.620000000003215, -1.2013930302683204 
3.630000000003236, -1.1982782809097297 
3.640000000003257, -1.1948726886723424 
3.650000000003278, -1.1913922521062625 
3.6600000000032993, -1.1883428773672338 
3.6700000000033204, -1.1863002454360771 
3.6800000000033415, -1.185399098554493 
3.6900000000033626, -1.1851702933523158 
3.7000000000033837, -1.1849192974413048 
3.710000000003405, -1.1840275586720101 
3.720000000003426, -1.1819088536744642 
3.730000000003447, -1.1778918051232994 
3.740000000003468, -1.1713165864373565 
3.750000000003489, -1.1618994074382474 
3.7600000000035103, -1.15000016160625 
3.7700000000035314, -1.1363642137917036 
3.7800000000035525, -1.1215828705342292 
3.7900000000035736, -1.1058174588287408 
3.8000000000035947, -1.0888712944187602 
3.810000000003616, -1.0704430537773335 
3.820000000003637, -1.0505409257328775 
3.830000000003658, -1.0301000550231563 
3.840000000003679, -1.0114309938533759 
3.8500000000037002, -0.9974525973622688 
3.8600000000037213, -0.989558851115758 
3.8700000000037424, -0.9865511261394853 
3.8800000000037635, -0.9860610091338053 
3.8900000000037847, -0.9862425682135708 
3.9000000000038058, -0.9861019472509882 
3.910000000003827, -0.9850661255431346 
3.920000000003848, -0.9825393164968291 
3.930000000003869, -0.9776579340149322 
3.94000000000389, -0.9693814098123736 
3.9500000000039113, -0.9571296289711813 
3.9600000000039324, -0.9416099622900946 
3.9700000000039535, -0.9246700203797056 
3.9800000000039746, -0.9080847707995832 
3.9900000000039957, -0.8927412076449388 
4.000000000004016, -0.8787632179491635 
4.010000000003993, -0.865944761732222 
4.02000000000397, -0.8540533382467018 
4.030000000003946, -0.8429788972681467 
4.040000000003923, -0.8328004148271371 
4.0500000000039, -0.8237944112234825 
4.0600000000038765, -0.8163574007586905 
4.070000000003853, -0.8108233984514319 
4.08000000000383, -0.8072520522094571 
4.090000000003807, -0.8053453690935157 
4.100000000003783, -0.8045667641342303 
4.11000000000376, -0.8043501981282789 
4.120000000003737, -0.8042404461303436 
4.130000000003713, -0.8039236276089132 
4.14000000000369, -0.8032095265459829 
4.150000000003667, -0.8020287551686112 
4.1600000000036434, -0.8004479351007368 
4.17000000000362, -0.7986519420113017 
4.180000000003597, -0.7968633583985558 
4.1900000000035735, -0.795247515114592 
4.20000000000355, -0.7938671451396115 
4.210000000003527, -0.7926920933316145 
4.220000000003504, -0.7916368867951494 
4.23000000000348, -0.7906091098194927 
4.240000000003457, -0.7895571365344088 
4.250000000003434, -0.7885010147280687 
4.26000000000341, -0.7875360252365355 
4.270000000003387, -0.7868102268979563 
4.280000000003364, -0.7864828249751084 
4.2900000000033405, -0.7866764772573035 
4.300000000003317, -0.7874453083545032 
4.310000000003294, -0.7887748353837228 
4.320000000003271, -0.7906076166420716 
4.330000000003247, -0.7928732307042698 
4.340000000003224, -0.7955085859373361 
4.350000000003201, -0.7984709366486056 
4.360000000003177, -0.8017515548331982 
4.370000000003154, -0.8053900467594408 
4.380000000003131, -0.8094791118595864 
4.390000000003107, -0.81414557106198 
4.400000000003084, -0.8194919805810384 
4.410000000003061, -0.8254833437312173 
4.4200000000030375, -0.8318008543289336 
4.430000000003014, -0.8377984453422498 
4.440000000002991, -0.8427392521813314 
4.450000000002968, -0.8461901256326522 
4.460000000002944, -0.8481705496340319 
4.470000000002921, -0.8489720574790741 
4.480000000002898, -0.8489451129223846 
4.490000000002874, -0.848460260639445 
4.500000000002851, -0.8480639165018091 
4.510000000002828, -0.8487916158273293 
4.520000000002804, -0.8524774162548594 
4.530000000002781, -0.8615841475871024 
4.540000000002758, -0.8780663993937236 
4.5500000000027345, -0.9018756665691932 
4.560000000002711, -0.9308010303766435 
4.570000000002688, -0.9619905428404163 
4.580000000002665, -0.9934621540823525 
4.590000000002641, -1.0244385594590477 
4.600000000002618, -1.0548319595465194 
4.610000000002595, -1.0844661406768699 
4.620000000002571, -1.1123247351365273 
4.630000000002548, -1.136321609479331 
4.640000000002525, -1.1543398451337124 
4.6500000000025015, -1.165877485901224 
4.660000000002478, -1.172225835232082 
4.670000000002455, -1.1752018956143702 
4.6800000000024315, -1.1762040148157455 
4.690000000002408, -1.176123112890384 
4.700000000002385, -1.1756791025713644 
4.710000000002362, -1.1758044099726568 
4.720000000002338, -1.1776225776308147 
4.730000000002315, -1.1816703530601183 
4.740000000002292, -1.1872818326869958 
4.750000000002268, -1.193239765772756 
4.760000000002245, -1.198725476469612 
4.770000000002222, -1.2034922294876513 
4.7800000000021985, -1.2075850125491139 
4.790000000002175, -1.2111121307499029 
4.800000000002152, -1.2141686467577038 
4.810000000002129, -1.2168238261818787 
4.820000000002105, -1.2191036920969922 
4.830000000002082, -1.2209690002932296 
4.840000000002059, -1.2223228170940748 
4.850000000002035, -1.2230659178146375 
4.860000000002012, -1.2231701022003358 
4.870000000001989, -1.2227185876958049 
4.880000000001965, -1.2218993783615446 
4.890000000001942, -1.2209550955839186 
4.900000000001919, -1.220079112391732 
4.9100000000018955, -1.2193219513159443 
4.920000000001872, -1.2186399361751707 
4.930000000001849, -1.2180510019356732 
