t, s[1].omega / s[0].omega 
0, -0.5699977377551511 
0.009999999999999995, -0.5697899284766679 
0.019999999999999934, -0.569609450159714 
0.029999999999999874, -0.5694329163817046 
0.04000000000000012, -0.5692321335953928 
0.050000000000000405, -0.5689840109936957 
0.06000000000000069, -0.5686764279097287 
0.07000000000000098, -0.5683090699248711 
0.08000000000000126, -0.5678916447914135 
0.09000000000000155, -0.567442811928667 
0.10000000000000184, -0.56699225346221 
0.11000000000000212, -0.5665873900676464 
0.12000000000000241, -0.5663061684441043 
0.130000000000002, -0.566277900700116 
0.1400000000000009, -0.566714521717931 
0.1499999999999998, -0.5679532417840943 
0.1599999999999987, -0.5705046246865414 
0.1699999999999976, -0.5750795649346927 
0.1799999999999965, -0.5825240310556289 
0.1899999999999954, -0.5935345208664506 
0.1999999999999943, -0.608073141637513 
0.2099999999999932, -0.6247734588413992 
0.2199999999999921, -0.6411415960970205 
0.229999999999991, -0.6548606784026033 
0.2399999999999899, -0.6649794002832978 
0.2499999999999888, -0.6718388629940437 
0.2599999999999877, -0.6762853099911297 
0.2699999999999866, -0.6791071852972139 
0.2799999999999855, -0.6808699147459019 
0.2899999999999844, -0.6819391698396272 
0.2999999999999833, -0.6825407180379387 
0.3099999999999822, -0.6828080230603694 
0.3199999999999811, -0.6828119690885492 
0.32999999999998, -0.6825766914038147 
0.3399999999999789, -0.6820855821737413 
0.3499999999999778, -0.6812807876765228 
0.35999999999997667, -0.6800606666497756 
0.36999999999997557, -0.6782840457564052 
0.37999999999997447, -0.6757963406339937 
0.38999999999997337, -0.6724911183823322 
0.39999999999997227, -0.668394529410737 
0.40999999999997117, -0.6637154416013122 
0.41999999999997006, -0.6588014686845888 
0.42999999999996896, -0.654018711541837 
0.43999999999996786, -0.649643366956733 
0.44999999999996676, -0.6458249207597292 
0.45999999999996566, -0.642608723128687 
0.46999999999996456, -0.639977224646634 
0.47999999999996346, -0.6378834717191075 
0.48999999999996235, -0.6362704910604234 
0.49999999999996125, -0.6350799386298397 
0.5099999999999602, -0.6342550688260212 
0.519999999999959, -0.6337416937828066 
0.529999999999958, -0.6334890162233436 
0.5399999999999568, -0.6334508971123992 
0.5499999999999557, -0.6335874035459403 
0.5599999999999546, -0.6338662741286074 
0.5699999999999535, -0.6342640153989371 
0.5799999999999524, -0.6347664062219414 
0.5899999999999513, -0.6353679807028211 
0.5999999999999502, -0.6360695759167879 
0.6099999999999491, -0.6368727285106399 
0.619999999999948, -0.63777045942804 
0.6299999999999469, -0.638736462933265 
0.6399999999999458, -0.6397182477626211 
0.6499999999999447, -0.640641335657997 
0.6599999999999436, -0.6414269240913633 
0.6699999999999425, -0.6420150004859795 
0.6799999999999414, -0.642378742352475 
0.6899999999999403, -0.6425227832126804 
0.6999999999999392, -0.6424704346450361 
0.7099999999999381, -0.6422499769494734 
0.719999999999937, -0.6418863171278992 
0.7299999999999359, -0.6413991905548924 
0.7399999999999348, -0.6408072221026606 
0.7499999999999337, -0.6401381683119644 
0.7599999999999326, -0.6394478132733299 
0.7699999999999315, -0.6388518259342612 
0.7799999999999304, -0.6385739626964212 
0.7899999999999293, -0.6390041082212862 
0.7999999999999282, -0.6407288501240853 
0.8099999999999271, -0.644438833430556 
0.819999999999926, -0.6505846463633556 
0.8299999999999249, -0.6588363845608887 
0.8399999999999238, -0.6678839200217007 
0.8499999999999227, -0.676137781926595 
0.8599999999999216, -0.6827267308768834 
0.8699999999999205, -0.6876534467892965 
0.8799999999999194, -0.6912729631100258 
0.8899999999999183, -0.6939133048185477 
0.8999999999999172, -0.6958069916679803 
0.9099999999999161, -0.6971248722601661 
0.919999999999915, -0.6979998711223041 
0.9299999999999139, -0.6985334657899905 
0.9399999999999128, -0.6987969553146768 
0.9499999999999117, -0.6988324699149853 
0.9599999999999106, -0.6986536176630597 
0.9699999999999095, -0.6982447520266207 
0.9799999999999084, -0.6975589572581327 
0.9899999999999073, -0.6965173698731506 
0.9999999999999062, -0.695016451868305 
1.0099999999999052, -0.6929531278791304 
1.019999999999904, -0.6902726259779143 
1.029999999999903, -0.6870225179490893 
1.039999999999902, -0.6833724569446774 
1.0499999999999008, -0.6795714487688306 
1.0599999999998997, -0.6758673344815217 
1.0699999999998986, -0.6724438921281324 
1.0799999999998975, -0.66940394435961 
1.0899999999998964, -0.6667861295747486 
1.0999999999998953, -0.6645907379326246 
1.1099999999998942, -0.6627997578405573 
1.119999999999893, -0.6613878100976283 
1.129999999999892, -0.6603262742203423 
1.1399999999998909, -0.6595840055259317 
1.1499999999998898, -0.6591272635978033 
1.1599999999998887, -0.6589202889800017 
1.1699999999998876, -0.6589269240275625 
1.1799999999998865, -0.6591129751900814 
1.1899999999998854, -0.6594487227934864 
1.1999999999998843, -0.6599110128561321 
1.2099999999998832, -0.6604844634068727 
1.219999999999882, -0.6611612088943016 
1.229999999999881, -0.6619382657810042 
1.2399999999998799, -0.6628115166607513 
1.2499999999998788, -0.6637663734080064 
1.2599999999998777, -0.6647679203366501 
1.2699999999998766, -0.6657566356518314 
1.2799999999998755, -0.6666560770932813 
1.2899999999998744, -0.6673925067302174 
1.2999999999998733, -0.667916243879834 
1.3099999999998722, -0.6682115351906986 
1.319999999999871, -0.6682910031746275 
1.32999999999987, -0.6681819924076803 
1.3399999999998689, -0.6679144083817417 
1.3499999999998678, -0.6675149096312758 
1.3599999999998666, -0.667008024897537 
1.3699999999998655, -0.6664239625919741 
1.3799999999998644, -0.6658144917547728 
1.3899999999998633, -0.665280559384507 
1.3999999999998622, -0.6650165842528054 
1.4099999999998611, -0.6653733991235039 
1.41999999999986, -0.666927289274093 
1.429999999999859, -0.6705045404175971 
1.4399999999998578, -0.6770467002894571 
1.4499999999998567, -0.6871741376452583 
1.4599999999998556, -0.7005090247953091 
1.4699999999998545, -0.7153380565760861 
1.4799999999998534, -0.7293070823346918 
1.4899999999998523, -0.7407128586437992 
1.4999999999998512, -0.7490948511855641 
1.5099999999998501, -0.7548518892246985 
1.519999999999849, -0.7586463146965966 
1.529999999999848, -0.7610755208558296 
1.5399999999998468, -0.7625825078989648 
1.5499999999998457, -0.763466919465026 
1.5599999999998446, -0.7639190629848226 
1.5699999999998435, -0.7640500102129519 
1.5799999999998424, -0.7639113955532693 
1.5899999999998413, -0.7635045316236291 
1.5999999999998402, -0.7627795294327957 
1.6099999999998391, -0.7616254474426204 
1.619999999999838, -0.7598551187046235 
1.629999999999837, -0.7571970080601341 
1.6399999999998358, -0.7533230264256672 
1.6499999999998347, -0.7479521079144116 
1.6599999999998336, -0.7410321998406668 
1.6699999999998325, -0.7328965316323086 
1.6799999999998314, -0.7242297811852112 
1.6899999999998303, -0.7158234303370178 
1.6999999999998292, -0.7083064720989839 
1.709999999999828, -0.7020237556880885 
1.719999999999827, -0.6970632691012486 
1.729999999999826, -0.6933431354842757 
1.7399999999998248, -0.6906925044226171 
1.7499999999998237, -0.688907028326993 
1.7599999999998226, -0.6877827215008409 
1.7699999999998215, -0.6871355937245162 
1.7799999999998204, -0.6868117215337186 
1.7899999999998193, -0.6866901890357818 
1.7999999999998182, -0.6866808201615616 
1.809999999999817, -0.6867188880604511 
1.819999999999816, -0.6867590798617196 
1.8299999999998149, -0.6867706167264489 
1.8399999999998138, -0.686734620129599 
1.8499999999998127, -0.6866435707533496 
1.8599999999998116, -0.6865011705502763 
1.8699999999998105, -0.6863200028824681 
1.8799999999998094, -0.6861155082204881 
1.8899999999998083, -0.6858979487727652 
1.8999999999998072, -0.6856666533746968 
1.909999999999806, -0.6854101707361009 
1.919999999999805, -0.685112262018013 
1.9299999999998039, -0.6847599978003458 
1.9399999999998028, -0.684349654914254 
1.9499999999998017, -0.6838888324299475 
1.9599999999998006, -0.6833963949231713 
1.9699999999997995, -0.6829029347537021 
1.9799999999997984, -0.6824534975719097 
1.9899999999997973, -0.6821127976436798 
1.9999999999997962, -0.6819719437928692 
2.0099999999998173, -0.6821548821305246 
2.0199999999998384, -0.6828222709441413 
2.0299999999998595, -0.6841703498035383 
2.0399999999998806, -0.6864222774276506 
2.0499999999999017, -0.6898084869681973 
2.059999999999923, -0.6945298925977947 
2.069999999999944, -0.700694650510061 
2.079999999999965, -0.7082235125115379 
2.089999999999986, -0.7167464004198852 
2.100000000000007, -0.7255685016373737 
2.1100000000000283, -0.7338111503836731 
2.1200000000000494, -0.7407220123834135 
2.1300000000000705, -0.7459484220202253 
2.1400000000000916, -0.7495638313591497 
2.1500000000001127, -0.7518848456740445 
2.160000000000134, -0.7532701265461041 
2.170000000000155, -0.7540116220379119 
2.180000000000176, -0.7543086328551695 
2.190000000000197, -0.7542789729108209 
2.2000000000002182, -0.7539761915319896 
2.2100000000002393, -0.7534002132837554 
2.2200000000002604, -0.7524976556993614 
2.2300000000002815, -0.7511502250070139 
2.2400000000003026, -0.7491491604994132 
2.2500000000003237, -0.7461543014828741 
2.260000000000345, -0.7416444578677714 
2.270000000000366, -0.7348964985656485 
2.280000000000387, -0.7251022356334923 
2.290000000000408, -0.7117945896672302 
2.3000000000004293, -0.6955526586551235 
2.3100000000004504, -0.6783367307024151 
2.3200000000004715, -0.6627012735708697 
2.3300000000004926, -0.6504300164749954 
2.3400000000005137, -0.641930884372172 
2.3500000000005348, -0.6366273684868123 
2.360000000000556, -0.6336120197018209 
2.370000000000577, -0.6320577302950001 
2.380000000000598, -0.6313555424988346 
2.390000000000619, -0.6311070728651929 
2.4000000000006403, -0.6310706922472502 
2.4100000000006614, -0.6311069523535429 
2.4200000000006825, -0.6311370153858703 
2.4300000000007036, -0.6311148042856829 
2.4400000000007247, -0.6310099659830718 
2.450000000000746, -0.6307988652845926 
2.460000000000767, -0.6304619830934919 
2.470000000000788, -0.6299867705167139 
2.480000000000809, -0.6293741025185924 
2.49000000000083, -0.6286440012656881 
2.5000000000008513, -0.6278348703969046 
2.5100000000008724, -0.6269937476177203 
2.5200000000008935, -0.6261620032586422 
2.5300000000009146, -0.625364725331089 
2.5400000000009357, -0.6246088818892945 
2.550000000000957, -0.6238891905763718 
2.560000000000978, -0.6231969888110088 
2.570000000000999, -0.6225277535186537 
2.58000000000102, -0.6218855323273936 
2.5900000000010412, -0.6212850179680676 
2.6000000000010624, -0.6207529302051985 
2.6100000000010835, -0.6203299289315656 
2.6200000000011046, -0.6200733987807966 
2.6300000000011257, -0.6200607901422857 
2.6400000000011468, -0.620392926800891 
2.650000000001168, -0.6211966488347207 
2.660000000001189, -0.6226260231739043 
2.67000000000121, -0.6248605565943758 
2.680000000001231, -0.6280965747857146 
2.6900000000012523, -0.6325235717866524 
2.7000000000012734, -0.6382722099449317 
2.7100000000012945, -0.6453222861131571 
2.7200000000013156, -0.6533851089749566 
2.7300000000013367, -0.6618375488374338 
2.740000000001358, -0.6698314587467185 
2.750000000001379, -0.6766007116200464 
2.7600000000014, -0.6817596204449765 
2.770000000001421, -0.6853528545905188 
2.780000000001442, -0.6876784563791138 
2.7900000000014633, -0.6890837656138539 
2.8000000000014844, -0.6898537443469935 
2.8100000000015055, -0.6901835960394046 
2.8200000000015266, -0.6901889822066136 
2.8300000000015477, -0.6899222976675544 
2.840000000001569, -0.689382122391933 
2.85000000000159, -0.6885117064995767 
2.860000000001611, -0.6871842827411496 
2.870000000001632, -0.6851730811082158 
2.8800000000016532, -0.6821079700518429 
2.8900000000016743, -0.6774397006583984 
2.9000000000016954, -0.6704812489773844 
2.9100000000017165, -0.6606517911943717 
2.9200000000017377, -0.6479667718302141 
2.9300000000017588, -0.6334455231203306 
2.94000000000178, -0.6188669901367607 
2.950000000001801, -0.6059155178769491 
2.960000000001822, -0.5955078628013291 
2.970000000001843, -0.5877566863865606 
2.9800000000018643, -0.582302007178486 
2.9900000000018854, -0.5786316570447914 
3.0000000000019065, -0.57625962594888 
3.0100000000019276, -0.5747911765676057 
3.0200000000019487, -0.5739302090077881 
3.03000000000197, -0.573464913016629 
3.040000000001991, -0.5732485925464104 
3.050000000002012, -0.5731820781267393 
3.060000000002033, -0.573199638513718 
3.070000000002054, -0.5732586664348371 
3.0800000000020753, -0.5733329083020158 
3.0900000000020964, -0.5734087820238506 
3.1000000000021175, -0.5734839099337734 
3.1100000000021386, -0.5735662340977157 
3.1200000000021597, -0.5736714304208647 
3.130000000002181, -0.5738168244371669 
3.140000000002202, -0.5740122208655534 
3.150000000002223, -0.5742509977514075 
3.160000000002244, -0.5745064071023591 
3.1700000000022652, -0.5747365666066353 
3.1800000000022863, -0.5748968808558574 
3.1900000000023074, -0.5749533680251637 
3.2000000000023285, -0.5748896848551979 
3.2100000000023496, -0.5747058176488272 
3.2200000000023707, -0.5744121249315338 
3.230000000002392, -0.5740238121728553 
3.240000000002413, -0.5735589523053253 
3.250000000002434, -0.5730412334822657 
3.260000000002455, -0.5725082967239119 
3.2700000000024763, -0.5720274742418191 
3.2800000000024974, -0.5717219181967924 
3.2900000000025185, -0.5718096896478964 
3.3000000000025396, -0.5726518453780328 
3.3100000000025607, -0.5747828599342644 
3.3200000000025818, -0.5788455803315425 
3.330000000002603, -0.585297241003127 
3.340000000002624, -0.5938537616732521 
3.350000000002645, -0.6031239125575041 
3.360000000002666, -0.611236269705499 
3.3700000000026873, -0.6171551595187684 
3.3800000000027084, -0.6210928359775376 
3.3900000000027295, -0.6237598316804409 
3.4000000000027506, -0.6256929578656859 
3.4100000000027717, -0.6271522535309149 
3.420000000002793, -0.6282490698045391 
3.430000000002814, -0.62904468397016 
3.440000000002835, -0.6295863506655733 
3.450000000002856, -0.6299129287730023 
3.460000000002877, -0.6300523399482388 
3.4700000000028983, -0.6300185639670053 
3.4800000000029194, -0.6298095535284955 
3.4900000000029405, -0.6294062656346509 
3.5000000000029616, -0.6287740104447342 
3.5100000000029827, -0.6278690171809022 
3.520000000003004, -0.6266536371188483 
3.530000000003025, -0.62511967947211 
3.540000000003046, -0.6233097569806337 
3.550000000003067, -0.6213194426267844 
3.5600000000030882, -0.619272441027503 
3.5700000000031094, -0.6172830668527854 
3.5800000000031305, -0.6154298350755905 
3.5900000000031516, -0.6137509142940619 
3.6000000000031727, -0.6122551700520339 
3.6100000000031938, -0.6109373606755573 
3.620000000003215, -0.6097901676079163 
3.630000000003236, -0.6088110861327874 
3.640000000003257, -0.6080051468122648 
3.650000000003278, -0.6073851396748481 
3.6600000000032993, -0.6069706605436281 
3.6700000000033204, -0.6067867977545387 
3.6800000000033415, -0.6068629779234008 
3.6900000000033626, -0.6072323504339465 
3.7000000000033837, -0.6079319286556382 
3.710000000003405, -0.6090033459076875 
3.720000000003426, -0.6104933873798244 
3.730000000003447, -0.6124523142757685 
3.740000000003468, -0.6149264359466152 
3.750000000003489, -0.6179400954980724 
3.7600000000035103, -0.6214636415989284 
3.7700000000035314, -0.6253728633671694 
3.7800000000035525, -0.6294243071003074 
3.7900000000035736, -0.63328538990258 
3.8000000000035947, -0.6366329178357883 
3.810000000003616, -0.6392661045711324 
3.820000000003637, -0.6411512062103005 
3.830000000003658, -0.6423785514158177 
3.840000000003679, -0.6430857267421131 
3.8500000000037002, -0.6434001202934148 
3.8600000000037213, -0.6434134858578743 
3.8700000000037424, -0.6431765941425933 
3.8800000000037635, -0.6427000070860566 
3.8900000000037847, -0.6419522749888673 
3.9000000000038058, -0.6408504400503051 
3.910000000003827, -0.6392382962504308 
3.920000000003848, -0.6368472058721644 
3.930000000003869, -0.6332377869563479 
3.94000000000389, -0.6277439576593082 
3.9500000000039113, -0.6195116161566209 
3.9600000000039324, -0.6078241686073543 
3.9700000000039535, -0.592799013299944 
3.9800000000039746, -0.5759301574680513 
3.9900000000039957, -0.559593253423065 
4.000000000004016, -0.5457543299164835 
4.010000000003993, -0.5351973300282319 
4.02000000000397, -0.527720958641434 
4.030000000003946, -0.5226902326398848 
4.040000000003923, -0.5194292335333681 
4.0500000000039, -0.5173824513665981 
4.0600000000038765, -0.5161422927429599 
4.070000000003853, -0.5154264951163573 
4.08000000000383, -0.5150458200657408 
4.090000000003807, -0.5148759864828893 
4.100000000003783, -0.5148367334639599 
4.11000000000376, -0.5148773618137745 
4.120000000003737, -0.5149674211738711 
4.130000000003713, -0.5150913322441243 
4.14000000000369, -0.5152458167999858 
4.150000000003667, -0.5154387184598422 
4.1600000000036434, -0.5156872304839861 
4.17000000000362, -0.5160133383189203 
4.180000000003597, -0.5164352699067453 
4.1900000000035735, -0.5169561223568416 
4.20000000000355, -0.5175538100692647 
4.210000000003527, -0.5181785102237194 
4.220000000003504, -0.5187622791800904 
4.23000000000348, -0.5192385212471492 
4.240000000003457, -0.5195607503832036 
4.250000000003434, -0.5197099384914292 
4.26000000000341, -0.5196889508017302 
4.270000000003387, -0.5195108503223274 
4.280000000003364, -0.5191881576359705 
4.2900000000033405, -0.5187257971275364 
4.300000000003317, -0.5181168941986237 
4.310000000003294, -0.51733918017878 
4.320000000003271, -0.5163490625870831 
4.330000000003247, -0.5150684122997948 
4.340000000003224, -0.5133536419145376 
4.350000000003201, -0.5109267567852595 
4.360000000003177, -0.507245323941576 
4.370000000003154, -0.50135178476663 
4.380000000003131, -0.49197988516625246 
4.390000000003107, -0.47841134047785294 
4.400000000003084, -0.46177544381812163 
4.410000000003061, -0.44496824734744916 
4.4200000000030375, -0.4306992535909034 
4.430000000003014, -0.4200455526394216 
4.440000000002991, -0.41271372102960474 
4.450000000002968, -0.4078970107746046 
4.460000000002944, -0.40481262539745966 
4.470000000002921, -0.40287019783552996 
4.480000000002898, -0.4016685920598979 
4.490000000002874, -0.40094795865861865 
4.500000000002851, -0.40054399406552177 
4.510000000002828, -0.4003547832362531 
4.520000000002804, -0.4003191894167479 
4.530000000002781, -0.40040367375936975 
4.540000000002758, -0.4005948900901187 
4.5500000000027345, -0.40089613436629346 
4.560000000002711, -0.4013260792826121 
4.570000000002688, -0.40191805986249307 
4.580000000002665, -0.40271761277101953 
4.590000000002641, -0.40377532264114 
4.600000000002618, -0.4051318604918598 
4.610000000002595, -0.4067938537628305 
4.620000000002571, -0.40870582653437265 
4.630000000002548, -0.41073552560033405 
4.640000000002525, -0.41269567451037015 
4.6500000000025015, -0.4144039882113213 
4.660000000002478, -0.41574466211132605 
4.670000000002455, -0.41668861959907766 
4.6800000000024315, -0.41726945154454204 
4.690000000002408, -0.41754445327023965 
4.700000000002385, -0.4175650374161325 
4.710000000002362, -0.4173612520309871 
4.720000000002338, -0.41693449985470565 
4.730000000002315, -0.4162517294652545 
4.740000000002292, -0.41523717902468293 
4.750000000002268, -0.41376200825451165 
4.760000000002245, -0.4116401329244764 
4.770000000002222, -0.40865277642170683 
4.7800000000021985, -0.40463459580762456 
4.790000000002175, -0.3996214792923477 
4.800000000002152, -0.39395887192475376 
4.810000000002129, -0.38822002254875904 
4.820000000002105, -0.38295366486208404 
4.830000000002082, -0.3784798084231896 
4.840000000002059, -0.3748683844618674 
4.850000000002035, -0.372033771655692 
4.860000000002012, -0.3698340366000412 
4.870000000001989, -0.3681299652796887 
4.880000000001965, -0.36680894737582154 
4.890000000001942, -0.3657899460444311 
4.900000000001919, -0.3650212071291842 
4.9100000000018955, -0.3644767336495 
4.920000000001872, -0.36415423534762015 
