t, s[1].omega / s[0].omega 
0, -1.2800063643170174 
0.009999999999999995, -1.2804710210940624 
0.019999999999999934, -1.2806091068345025 
0.029999999999999874, -1.2804505884830726 
0.04000000000000012, -1.2800360410321532 
0.050000000000000405, -1.2794155688846374 
0.06000000000000069, -1.2786509570007922 
0.07000000000000098, -1.277818774319147 
0.08000000000000126, -1.2770079625570712 
0.09000000000000155, -1.276307788494528 
0.10000000000000184, -1.2757898930150966 
0.11000000000000212, -1.2754895153972512 
0.12000000000000241, -1.2753893227088668 
0.130000000000002, -1.275417882916067 
0.1400000000000009, -1.275472116794278 
0.1499999999999998, -1.2754473004960523 
0.1599999999999987, -1.2752502883295915 
0.1699999999999976, -1.2747932958829773 
0.1799999999999965, -1.2739823195138116 
0.1899999999999954, -1.2727131864423258 
0.1999999999999943, -1.2708804822607578 
0.2099999999999932, -1.2683976356429238 
0.2199999999999921, -1.2652235211469955 
0.229999999999991, -1.2613950149816873 
0.2399999999999899, -1.2570710413080626 
0.2499999999999888, -1.2525837992159774 
0.2599999999999877, -1.2484481981017241 
0.2699999999999866, -1.2452311079521028 
0.2799999999999855, -1.2432635937177339 
0.2899999999999844, -1.2424309975050793 
0.2999999999999833, -1.2422967811346204 
0.3099999999999822, -1.2424126957091253 
0.3199999999999811, -1.242491997943188 
0.32999999999998, -1.2423904189369064 
0.3399999999999789, -1.2420187909236384 
0.3499999999999778, -1.241263352218415 
0.35999999999997667, -1.239915422786698 
0.36999999999997557, -1.2375891214665664 
0.37999999999997447, -1.2336213105847285 
0.38999999999997337, -1.2270136881012028 
0.39999999999997227, -1.2166325300157652 
0.40999999999997117, -1.2020380235872252 
0.41999999999997006, -1.1849059400203958 
0.42999999999996896, -1.1694742665467412 
0.43999999999996786, -1.1600215362894464 
0.44999999999996676, -1.1573815269064123 
0.45999999999996566, -1.1590061512676073 
0.46999999999996456, -1.1618981290013752 
0.47999999999996346, -1.1644132699918326 
0.48999999999996235, -1.1661123392989432 
0.49999999999996125, -1.1670790764573615 
0.5099999999999602, -1.1674996576132535 
0.519999999999959, -1.1675136464868936 
0.529999999999958, -1.1671842594332351 
0.5399999999999568, -1.166499625834488 
0.5499999999999557, -1.1653781153911627 
0.5599999999999546, -1.163689778094823 
0.5699999999999535, -1.1613516460711515 
0.5799999999999524, -1.1586139265240671 
0.5899999999999513, -1.1566070114327105 
0.5999999999999502, -1.1577345029056452 
0.6099999999999491, -1.1647283086597189 
0.619999999999948, -1.178088120714512 
0.6299999999999469, -1.1947425360021975 
0.6399999999999458, -1.2102895030659615 
0.6499999999999447, -1.222068695061528 
0.6599999999999436, -1.2297857400051821 
0.6699999999999425, -1.23436431640908 
0.6799999999999414, -1.2368807152192427 
0.6899999999999403, -1.2381403586261823 
0.6999999999999392, -1.2386454438802725 
0.7099999999999381, -1.2386804901058504 
0.719999999999937, -1.2384007209202044 
0.7299999999999359, -1.23790404551368 
0.7399999999999348, -1.2373010092009689 
0.7499999999999337, -1.236793201187458 
0.7599999999999326, -1.2367249935694828 
0.7699999999999315, -1.2375101730211129 
0.7799999999999304, -1.239396014171647 
0.7899999999999293, -1.2422623240251507 
0.7999999999999282, -1.24568732289219 
0.8099999999999271, -1.2491901086725887 
0.819999999999926, -1.2524056607969694 
0.8299999999999249, -1.2551215931551083 
0.8399999999999238, -1.2572461592381614 
0.8499999999999227, -1.2587697224100207 
0.8599999999999216, -1.2597368178736867 
0.8699999999999205, -1.2602244551132291 
0.8799999999999194, -1.2603227622300477 
0.8899999999999183, -1.2601207586578163 
0.8999999999999172, -1.259702053305332 
0.9099999999999161, -1.2591509180924851 
0.919999999999915, -1.2585615923869018 
0.9299999999999139, -1.2580373474051556 
0.9399999999999128, -1.2576703884167926 
0.9499999999999117, -1.2575135088081122 
0.9599999999999106, -1.2575662609323823 
0.9699999999999095, -1.2577817013704453 
0.9799999999999084, -1.258082579271161 
0.9899999999999073, -1.2583797345847028 
0.9999999999999062, -1.2585889135747603 
1.0099999999999052, -1.258639909910554 
1.019999999999904, -1.258476898414753 
1.029999999999903, -1.2580556023086775 
1.039999999999902, -1.2573423980889462 
1.0499999999999008, -1.2563159303645455 
1.0599999999998997, -1.2549696394009537 
1.0699999999998986, -1.2533151079143359 
1.0799999999998975, -1.2513883980284957 
1.0899999999998964, -1.2492615403849952 
1.0999999999998953, -1.2470578012269533 
1.1099999999998942, -1.2449605792268492 
1.119999999999893, -1.243191636178471 
1.129999999999892, -1.2419348300926407 
1.1399999999998909, -1.2412347839800653 
1.1499999999998898, -1.2409658562555876 
1.1599999999998887, -1.2409131751606441 
1.1699999999998876, -1.2408785425845894 
1.1799999999998865, -1.2407202552500745 
1.1899999999998854, -1.2403287572486932 
1.1999999999998843, -1.2395786848619719 
1.2099999999998832, -1.238278878246948 
1.219999999999882, -1.2361257183854575 
1.229999999999881, -1.2326732959956037 
1.2399999999998799, -1.2273620144497481 
1.2499999999998788, -1.2196757988702565 
1.2599999999998777, -1.2094805929101116 
1.2699999999998766, -1.1974684818877956 
1.2799999999998755, -1.1853745908400914 
1.2899999999998744, -1.1754634714647678 
1.2999999999998733, -1.1692713738931382 
1.3099999999998722, -1.1666876605406613 
1.319999999999871, -1.1663946638750056 
1.32999999999987, -1.1670119219571424 
1.3399999999998689, -1.1677172643518576 
1.3499999999998678, -1.1681918096810955 
1.3599999999998666, -1.1683649705152452 
1.3699999999998655, -1.1682337129467653 
1.3799999999998644, -1.167774394592978 
1.3899999999998633, -1.1668965405887746 
1.3999999999998622, -1.165400237312498 
1.4099999999998611, -1.1629226200078713 
1.41999999999986, -1.1588969867560075 
1.429999999999859, -1.152637719777515 
1.4399999999998578, -1.1438058216513158 
1.4499999999998567, -1.1334244672753582 
1.4599999999998556, -1.124652605582963 
1.4699999999998545, -1.121368871360812 
1.4799999999998534, -1.1247650631832922 
1.4899999999998523, -1.13221032499355 
1.4999999999998512, -1.1400092776078252 
1.5099999999998501, -1.1460672294870728 
1.519999999999849, -1.1500480395775174 
1.529999999999848, -1.1523988835934813 
1.5399999999998468, -1.1536565779674663 
1.5499999999998457, -1.1542138582129173 
1.5599999999998446, -1.1543048492816104 
1.5699999999998435, -1.1540445178608547 
1.5799999999998424, -1.153465996669806 
1.5899999999998413, -1.152553022935182 
1.5999999999998402, -1.1512925663027636 
1.6099999999998391, -1.1498000563210584 
1.619999999999838, -1.1485748348957947 
1.629999999999837, -1.1488091835297753 
1.6399999999998358, -1.1523023457151134 
1.6499999999998347, -1.1604257755425145 
1.6599999999998336, -1.1726979213569277 
1.6699999999998325, -1.186683468689171 
1.6799999999998314, -1.199556861879052 
1.6899999999998303, -1.2096143834626227 
1.6999999999998292, -1.2165501467925677 
1.709999999999828, -1.220894846681849 
1.719999999999827, -1.223401262288189 
1.729999999999826, -1.2247119668415947 
1.7399999999998248, -1.2252717913728597 
1.7499999999998237, -1.225355723376802 
1.7599999999998226, -1.2251268037140632 
1.7699999999998215, -1.2246941316629212 
1.7799999999998204, -1.2241701874749464 
1.7899999999998193, -1.2237265161082127 
1.7999999999998182, -1.2236179199156159 
1.809999999999817, -1.2241186927080825 
1.819999999999816, -1.2253735682348768 
1.8299999999998149, -1.2272943348679561 
1.8399999999998138, -1.229614284838509 
1.8499999999998127, -1.232030607792747 
1.8599999999998116, -1.2343037204402112 
1.8699999999998105, -1.2362802120226126 
1.8799999999998094, -1.2378767704849865 
1.8899999999998083, -1.2390593391455025 
1.8999999999998072, -1.2398292157337238 
1.909999999999806, -1.2402144619510247 
1.919999999999805, -1.2402620869995291 
1.9299999999998039, -1.240029938630433 
1.9399999999998028, -1.2395814711936992 
1.9499999999998017, -1.238986493242894 
1.9599999999998006, -1.2383257999041113 
1.9699999999997995, -1.237691152609433 
1.9799999999997984, -1.237172331441284 
1.9899999999997973, -1.2368348853118218 
1.9999999999997962, -1.2367030179543135 
2.0099999999998173, -1.236755522360268 
2.0199999999998384, -1.2369321718485295 
2.0299999999998595, -1.2371486901876747 
2.0399999999998806, -1.2373164824205838 
2.0499999999999017, -1.237356948015032 
2.059999999999923, -1.2372048149839978 
2.069999999999944, -1.2368053797615106 
2.079999999999965, -1.2361130698790608 
2.089999999999986, -1.235093909279044 
2.100000000000007, -1.2337298725547763 
2.1100000000000283, -1.232022962563651 
2.1200000000000494, -1.2299999945208215 
2.1300000000000705, -1.2277213455374278 
2.1400000000000916, -1.2252951786944486 
2.1500000000001127, -1.2228914921402043 
2.160000000000134, -1.220736828976595 
2.170000000000155, -1.2190603732816405 
2.180000000000176, -1.2179907105505152 
2.190000000000197, -1.2174775554267794 
2.2000000000002182, -1.2173253603366248 
2.2100000000002393, -1.2173070215539723 
2.2200000000002604, -1.2172457683005333 
2.2300000000002815, -1.2170202472140779 
2.2400000000003026, -1.2165252445909358 
2.2500000000003237, -1.2156231358329124 
2.260000000000345, -1.2140973789094345 
2.270000000000366, -1.2116128589701503 
2.280000000000387, -1.207703710464587 
2.290000000000408, -1.2018371252166093 
2.3000000000004293, -1.193614073410941 
2.3100000000004504, -1.183117093648244 
2.3200000000004715, -1.1712669513245701 
2.3300000000004926, -1.1598501927910152 
2.3400000000005137, -1.1508716580614016 
2.3500000000005348, -1.1454494829874542 
2.360000000000556, -1.1432415413231882 
2.370000000000577, -1.1430000364077717 
2.380000000000598, -1.1435273301359723 
2.390000000000619, -1.144124903824093 
2.4000000000006403, -1.1445165357529592 
2.4100000000006614, -1.1446326568129286 
2.4200000000006825, -1.144458919039407 
2.4300000000007036, -1.1439584894374273 
2.4400000000007247, -1.1430261840929248 
2.450000000000746, -1.141441265053033 
2.460000000000767, -1.1388035590219536 
2.470000000000788, -1.1344686244900521 
2.480000000000809, -1.1275764682399345 
2.49000000000083, -1.1174088142309926 
2.5000000000008513, -1.1043120924110992 
2.5100000000008724, -1.0907171586879043 
2.5200000000008935, -1.0805819705465345 
2.5300000000009146, -1.0765920246793628 
2.5400000000009357, -1.07806261183757 
2.550000000000957, -1.0821571075800622 
2.560000000000978, -1.0863903934289607 
2.570000000000999, -1.089644143620374 
2.58000000000102, -1.091779001720423 
2.5900000000010412, -1.0930229537959861 
2.6000000000010624, -1.0936357125483929 
2.6100000000010835, -1.0938016339171652 
2.6200000000011046, -1.0936178479882162 
2.6300000000011257, -1.093103765893681 
2.6400000000011468, -1.0922067487362175 
2.650000000001168, -1.0908035056310588 
2.660000000001189, -1.0887182662312067 
2.67000000000121, -1.085816753378939 
2.680000000001231, -1.082283942826478 
2.6900000000012523, -1.07914130428563 
2.7000000000012734, -1.0786407367546 
2.7100000000012945, -1.0835195953558576 
2.7200000000013156, -1.0947286230293798 
2.7300000000013367, -1.1098511568211946 
2.740000000001358, -1.124709471908313 
2.750000000001379, -1.1363781986312755 
2.7600000000014, -1.1442263530643126 
2.770000000001421, -1.1489888202676757 
2.780000000001442, -1.1516742961261857 
2.7900000000014633, -1.1530740598098035 
2.8000000000014844, -1.153692101570859 
2.8100000000015055, -1.1538147057112234 
2.8200000000015266, -1.1535890245851683 
2.8300000000015477, -1.1530820502341137 
2.840000000001569, -1.1523315345054033 
2.85000000000159, -1.1514168492294101 
2.860000000001611, -1.1505808717845407 
2.870000000001632, -1.1503883178684247 
2.8800000000016532, -1.151762610530079 
2.8900000000016743, -1.1556363917664456 
2.9000000000016954, -1.1622732160250488 
2.9100000000017165, -1.1709012100258622 
2.9200000000017377, -1.1801011984500667 
2.9300000000017588, -1.188530666261651 
2.94000000000178, -1.1953747671070625 
2.950000000001801, -1.2003958085989503 
2.960000000001822, -1.2037599290630794 
2.970000000001843, -1.2058179017775161 
2.9800000000018643, -1.2069375160557796 
2.9900000000018854, -1.2074178094119623 
3.0000000000019065, -1.2074701476504297 
3.0100000000019276, -1.2072364022585271 
3.0200000000019487, -1.2068228160758152 
3.03000000000197, -1.206339560442363 
3.040000000001991, -1.2059348394097977 
3.050000000002012, -1.2057974427695852 
3.060000000002033, -1.2061011352922055 
3.070000000002054, -1.2069159581503461 
3.0800000000020753, -1.2081679175287205 
3.0900000000020964, -1.2096856732963928 
3.1000000000021175, -1.2112807661531848 
3.1100000000021386, -1.2127991884982945 
3.1200000000021597, -1.2141343729084173 
3.130000000002181, -1.2152202502587284 
3.140000000002202, -1.216020332970555 
3.150000000002223, -1.216519782914266 
3.160000000002244, -1.2167214564235205 
3.1700000000022652, -1.2166438896938285 
3.1800000000022863, -1.2163191400719182 
3.1900000000023074, -1.2157907443635196 
3.2000000000023285, -1.215113751274322 
3.2100000000023496, -1.2143568221004224 
3.2200000000023707, -1.2136017900255336 
3.230000000002392, -1.2129346513833037 
3.240000000002413, -1.2124283155890334 
3.250000000002434, -1.2121249406444812 
3.260000000002455, -1.2120243409089757 
3.2700000000024763, -1.212081524133323 
3.2800000000024974, -1.212217434004828 
3.2900000000025185, -1.2123404670654532 
3.3000000000025396, -1.2123653213056105 
3.3100000000025607, -1.2122192631037572 
3.3200000000025818, -1.211839274785346 
3.330000000002603, -1.2111692934805929 
3.340000000002624, -1.2101626735446778 
3.350000000002645, -1.2087886708212752 
3.360000000002666, -1.2070389738833631 
3.3700000000026873, -1.2049326639421136 
3.3800000000027084, -1.2025222911675495 
3.3900000000027295, -1.199904771965103 
3.4000000000027506, -1.1972356683742487 
3.4100000000027717, -1.1947336166655829 
3.420000000002793, -1.19264796385574 
3.430000000002814, -1.1911713610575734 
3.440000000002835, -1.1903383044201514 
3.450000000002856, -1.1900046329778484 
3.460000000002877, -1.1899373943878904 
3.4700000000028983, -1.1899245448663287 
3.4800000000029194, -1.189817937120983 
3.4900000000029405, -1.189512451078263 
3.5000000000029616, -1.1889017549231529 
3.5100000000029827, -1.1878336457943068 
3.520000000003004, -1.1860703841230742 
3.530000000003025, -1.183262411541186 
3.540000000003046, -1.1789626913594042 
3.550000000003067, -1.1727272709574668 
3.5600000000030882, -1.1643340964409874 
3.5700000000031094, -1.154078680851085 
3.5800000000031305, -1.1429859977846821 
3.5900000000031516, -1.1326845088629738 
3.6000000000031727, -1.1247826297034393 
3.6100000000031938, -1.1200384798745406 
3.620000000003215, -1.118045694621749 
3.630000000003236, -1.11773679046954 
3.640000000003257, -1.1181136148229731 
3.650000000003278, -1.1185800032413158 
3.6600000000032993, -1.11888284341843 
3.6700000000033204, -1.1189433286335453 
3.6800000000033415, -1.1187316898396247 
3.6900000000033626, -1.1181970430797434 
3.7000000000033837, -1.117221063878106 
3.710000000003405, -1.11556765691316 
3.720000000003426, -1.1128139804333022 
3.730000000003447, -1.1082747176790773 
3.740000000003468, -1.1010000634785673 
3.750000000003489, -1.0900516809245175 
3.7600000000035103, -1.0752904983884322 
3.7700000000035314, -1.058408956065111 
3.7800000000035525, -1.0429375713476268 
3.7900000000035736, -1.0322803116733952 
3.8000000000035947, -1.027431550242635 
3.810000000003616, -1.026888013890593 
3.820000000003637, -1.0283817468575145 
3.830000000003658, -1.0302816489499285 
3.840000000003679, -1.0318482288965443 
3.8500000000037002, -1.0329030836240225 
3.8600000000037213, -1.0334918432716307 
3.8700000000037424, -1.0337020529913785 
3.8800000000037635, -1.0335922476433899 
3.8900000000037847, -1.0331679729567564 
3.9000000000038058, -1.0323667841838486 
3.910000000003827, -1.0310340607033994 
3.920000000003848, -1.028882005002537 
3.930000000003869, -1.0254373353406847 
3.94000000000389, -1.0200182052906746 
3.9500000000039113, -1.0118553557933854 
3.9600000000039324, -1.0005391400974537 
3.9700000000039535, -0.9867990466161046 
3.9800000000039746, -0.9729750922998454 
3.9900000000039957, -0.9621485964599611 
4.000000000004016, -0.9561972714359628 
4.010000000003993, -0.9547496496219953 
4.02000000000397, -0.9560135326027839 
4.030000000003946, -0.9582123754737204 
4.040000000003923, -0.960293435874447 
4.0500000000039, -0.961866273737687 
4.0600000000038765, -0.9628964838309557 
4.070000000003853, -0.9634710789564489 
4.08000000000383, -0.9636832871196688 
4.090000000003807, -0.9635900654542466 
4.100000000003783, -0.9631976621594387 
4.11000000000376, -0.9624499757452659 
4.120000000003737, -0.9612067196799587 
4.130000000003713, -0.9592041904612809 
4.14000000000369, -0.9559989539527306 
4.150000000003667, -0.9509182484741064 
4.1600000000036434, -0.9430981812504978 
4.17000000000362, -0.9317654606167783 
4.180000000003597, -0.9168640219818279 
4.1900000000035735, -0.899714911261268 
4.20000000000355, -0.8829073204190289 
4.210000000003527, -0.8690873341392423 
4.220000000003504, -0.859621617822467 
4.23000000000348, -0.8542939845112363 
4.240000000003457, -0.8519651840060518 
4.250000000003434, -0.8513757057899458 
4.26000000000341, -0.8515816712395343 
4.270000000003387, -0.852025454463651 
4.280000000003364, -0.8524350769232315 
4.2900000000033405, -0.8527005687891535 
4.300000000003317, -0.8527841400997109 
4.310000000003294, -0.8526672418900967 
4.320000000003271, -0.8523211783756295 
4.330000000003247, -0.8516888844127084 
4.340000000003224, -0.8506713982357625 
4.350000000003201, -0.8491201189934332 
4.360000000003177, -0.8468452018828279 
4.370000000003154, -0.8436572863812035 
4.380000000003131, -0.8394497928248613 
4.390000000003107, -0.8342905862613017 
4.400000000003084, -0.8284550519733797 
4.410000000003061, -0.8223606442723808 
4.4200000000030375, -0.8164450801997603 
4.430000000003014, -0.811066589252796 
4.440000000002991, -0.806462022561543 
4.450000000002968, -0.8027475701978697 
4.460000000002944, -0.7999356459047647 
4.470000000002921, -0.7979553594090234 
4.480000000002898, -0.7966762191689244 
4.490000000002874, -0.7959361499289388 
4.500000000002851, -0.7955700804417155 
4.510000000002828, -0.7954321497586605 
4.520000000002804, -0.7954067302074771 
4.530000000002781, -0.795408640234451 
4.540000000002758, -0.7953768164566067 
4.5500000000027345, -0.7952665596163262 
4.560000000002711, -0.795044250791379 
4.570000000002688, -0.794686460843259 
4.580000000002665, -0.7941829001051 
4.590000000002641, -0.79353986540081 
4.600000000002618, -0.7927795791587002 
4.610000000002595, -0.7919334543779893 
4.620000000002571, -0.7910325419017921 
4.630000000002548, -0.7901009910960146 
4.640000000002525, -0.7891556874293794 
4.6500000000025015, -0.788210644341824 
4.660000000002478, -0.787282553000463 
4.670000000002455, -0.7863947792534252 
4.6800000000024315, -0.7855788918823914 
4.690000000002408, -0.7848737401567474 
4.700000000002385, -0.7843221976075901 
4.710000000002362, -0.7839658803126236 
4.720000000002338, -0.7838388714927926 
4.730000000002315, -0.7839622642985679 
4.740000000002292, -0.7843413737552686 
4.750000000002268, -0.7849664918979461 
4.760000000002245, -0.7858165707294031 
4.770000000002222, -0.78686400515881 
4.7800000000021985, -0.7880782148885339 
4.790000000002175, -0.7894260179067445 
4.800000000002152, -0.7908678472505118 
4.810000000002129, -0.7923509884476598 
4.820000000002105, -0.7938042281595623 
4.830000000002082, -0.7951407213856962 
4.840000000002059, -0.7962733081139473 
4.850000000002035, -0.7971371726637998 
4.860000000002012, -0.7977061744541684 
4.870000000001989, -0.7979926045559828 
4.880000000001965, -0.7980333071215043 
4.890000000001942, -0.7978735260084928 
4.900000000001919, -0.7975574328883834 
4.9100000000018955, -0.797128092783736 
4.920000000001872, -0.7966364269590966 
4.930000000001849, -0.796158742880593 
4.940000000001826, -0.7958225878654327 
