t, s[1].omega / s[0].omega 
0, -0.649997710466101 
0.009999999999999995, -0.6497671669328079 
0.019999999999999934, -0.6495277518838747 
0.029999999999999874, -0.649265297011645 
0.04000000000000012, -0.6489641102083331 
0.050000000000000405, -0.6486138359759116 
0.06000000000000069, -0.6482132342768636 
0.07000000000000098, -0.6477708090345887 
0.08000000000000126, -0.6473044028740824 
0.09000000000000155, -0.6468420545267496 
0.10000000000000184, -0.6464254207413996 
0.11000000000000212, -0.6461160548108562 
0.12000000000000241, -0.6460041517445525 
0.130000000000002, -0.6462187664132991 
0.1400000000000009, -0.6469376449717629 
0.1499999999999998, -0.648393347859533 
0.1599999999999987, -0.6508697321148611 
0.1699999999999976, -0.6546783119958759 
0.1799999999999965, -0.6600979458987322 
0.1899999999999954, -0.6672602510646489 
0.1999999999999943, -0.6759869706067589 
0.2099999999999932, -0.6856575288123079 
0.2199999999999921, -0.6952666672291932 
0.229999999999991, -0.7037637322686383 
0.2399999999999899, -0.7104812074880578 
0.2499999999999888, -0.7153074855330017 
0.2599999999999877, -0.7185263948618981 
0.2699999999999866, -0.7205512276250524 
0.2799999999999855, -0.7217510634466565 
0.2899999999999844, -0.7223937617453522 
0.2999999999999833, -0.7226510396010364 
0.3099999999999822, -0.7226200690361564 
0.3199999999999811, -0.7223414200733674 
0.32999999999998, -0.7218076344157834 
0.3399999999999789, -0.7209614316459797 
0.3499999999999778, -0.7196832021604315 
0.35999999999997667, -0.7177683578208269 
0.36999999999997557, -0.7149011513441589 
0.37999999999997447, -0.7106499394135871 
0.38999999999997337, -0.7045411718800999 
0.39999999999997227, -0.6962791297473904 
0.40999999999997117, -0.686070510057732 
0.41999999999997006, -0.6747889178430444 
0.42999999999996896, -0.6637067127859184 
0.43999999999996786, -0.6539472364320169 
0.44999999999996676, -0.6461124492522543 
0.45999999999996566, -0.6402784743518131 
0.46999999999996456, -0.6361959291581658 
0.47999999999996346, -0.6334921245048382 
0.48999999999996235, -0.631796508991451 
0.49999999999996125, -0.6307964762290712 
0.5099999999999602, -0.630251544704614 
0.519999999999959, -0.6299877366026755 
0.529999999999958, -0.629884633704885 
0.5399999999999568, -0.6298613562221627 
0.5499999999999557, -0.6298643342634896 
0.5599999999999546, -0.6298580514482602 
0.5699999999999535, -0.6298191331027799 
0.5799999999999524, -0.6297336752757767 
0.5899999999999513, -0.6295970807839198 
0.5999999999999502, -0.6294146671056954 
0.6099999999999491, -0.629200506173581 
0.619999999999948, -0.6289726433737179 
0.6299999999999469, -0.6287455031265733 
0.6399999999999458, -0.6285231141716453 
0.6499999999999447, -0.6282971160222257 
0.6599999999999436, -0.6280507798006989 
0.6699999999999425, -0.6277665860719608 
0.6799999999999414, -0.6274331200472225 
0.6899999999999403, -0.627048473688476 
0.6999999999999392, -0.626620444390476 
0.7099999999999381, -0.6261658722215178 
0.719999999999937, -0.6257114808796895 
0.7299999999999359, -0.6252975993366034 
0.7399999999999348, -0.6249852883047458 
0.7499999999999337, -0.6248669233209511 
0.7599999999999326, -0.6250798243376074 
0.7699999999999315, -0.6258215295384961 
0.7799999999999304, -0.6273630934281516 
0.7899999999999293, -0.6300522221439159 
0.7999999999999282, -0.6342897114170275 
0.8099999999999271, -0.6404513480239581 
0.819999999999926, -0.6487250808842737 
0.8299999999999249, -0.658875280528963 
0.8399999999999238, -0.6700678037391568 
0.8499999999999227, -0.6810020022661473 
0.8599999999999216, -0.6904262884248045 
0.8699999999999205, -0.6976710059665547 
0.8799999999999194, -0.7027526019603952 
0.8899999999999183, -0.7060884510644396 
0.8999999999999172, -0.7081740538727436 
0.9099999999999161, -0.7094156428248739 
0.919999999999915, -0.7100945977992523 
0.9299999999999139, -0.7103869663432906 
0.9399999999999128, -0.7103915880428634 
0.9499999999999117, -0.7101504550066848 
0.9599999999999106, -0.7096582943832997 
0.9699999999999095, -0.708861863178744 
0.9799999999999084, -0.7076499308491478 
0.9899999999999073, -0.7058367378098962 
0.9999999999999062, -0.7031491820548583 
1.0099999999999052, -0.6992448449386566 
1.019999999999904, -0.6938058016534417 
1.029999999999903, -0.6867299867209229 
1.039999999999902, -0.6783304309078959 
1.0499999999999008, -0.669343340730703 
1.0599999999998997, -0.6606633628528193 
1.0699999999998986, -0.6530034618912492 
1.0799999999998975, -0.6467262868347178 
1.0899999999998964, -0.6418798492865292 
1.0999999999998953, -0.6383200980547142 
1.1099999999998942, -0.6358220988898863 
1.119999999999893, -0.6341494621557552 
1.129999999999892, -0.6330887291231876 
1.1399999999998909, -0.6324625234498275 
1.1499999999998898, -0.6321315378229924 
1.1599999999998887, -0.6319910605681167 
1.1699999999998876, -0.6319651429579438 
1.1799999999998865, -0.6320002589215592 
1.1899999999998854, -0.6320596876640369 
1.1999999999998843, -0.6321194132247331 
1.2099999999998832, -0.6321658326675813 
1.219999999999882, -0.6321948183363979 
1.229999999999881, -0.6322107503735123 
1.2399999999998799, -0.6322236482698796 
1.2499999999998788, -0.632243434827462 
1.2599999999998777, -0.632272731780809 
1.2699999999998766, -0.632301783399454 
1.2799999999998755, -0.6323089846398936 
1.2899999999998744, -0.6322674760888118 
1.2999999999998733, -0.6321542968210403 
1.3099999999998722, -0.6319570525518149 
1.319999999999871, -0.6316755116717436 
1.32999999999987, -0.6313195161246594 
1.3399999999998689, -0.6309065688994246 
1.3499999999998678, -0.6304618781518159 
1.3599999999998666, -0.6300223032116679 
1.3699999999998655, -0.6296449247598275 
1.3799999999998644, -0.6294208628413885 
1.3899999999998633, -0.6294947906789519 
1.3999999999998622, -0.6300893888398839 
1.4099999999998611, -0.6315303838745389 
1.41999999999986, -0.6342596107016 
1.429999999999859, -0.6388082343979886 
1.4399999999998578, -0.6456825866404807 
1.4499999999998567, -0.6551163100196608 
1.4599999999998556, -0.6667300959496761 
1.4699999999998545, -0.6793482239620732 
1.4799999999998534, -0.6913192684781057 
1.4899999999998523, -0.7012746273032701 
1.4999999999998512, -0.7086795567037671 
1.5099999999998501, -0.7137525922287822 
1.519999999999849, -0.7170423170165376 
1.529999999999848, -0.7190942256167532 
1.5399999999998468, -0.7203223122836527 
1.5499999999998457, -0.7210028279512922 
1.5599999999998446, -0.7213058111523407 
1.5699999999998435, -0.7213261105813122 
1.5799999999998424, -0.7211036883808983 
1.5899999999998413, -0.720632753796768 
1.5999999999998402, -0.7198611405133282 
1.6099999999998391, -0.7186815946252912 
1.619999999999838, -0.7169189424609541 
1.629999999999837, -0.7143249263253576 
1.6399999999998358, -0.7106070210543945 
1.6499999999998347, -0.7055259899680115 
1.6599999999998336, -0.6990615073380295 
1.6699999999998325, -0.6915484192798238 
1.6799999999998314, -0.6836347147986006 
1.6899999999998303, -0.6760473754587235 
1.6999999999998292, -0.6693427879537849 
1.709999999999828, -0.6638019851434083 
1.719999999999827, -0.6594677619566153 
1.729999999999826, -0.6562352787474056 
1.7399999999998248, -0.6539319780504197 
1.7499999999998237, -0.6523687983555677 
1.7599999999998226, -0.6513677483361393 
1.7699999999998215, -0.6507747924102498 
1.7799999999998204, -0.6504643301848982 
1.7899999999998193, -0.6503387839321905 
1.7999999999998182, -0.6503253695535542 
1.809999999999817, -0.6503715915910113 
1.819999999999816, -0.6504407568584786 
1.8299999999998149, -0.6505084978780344 
1.8399999999998138, -0.6505607729798086 
1.8499999999998127, -0.6505929742846301 
1.8599999999998116, -0.65060879045857 
1.8699999999998105, -0.6506170550956062 
1.8799999999998094, -0.6506258873445188 
1.8899999999998083, -0.6506358571347011 
1.8999999999998072, -0.6506358415094448 
1.909999999999806, -0.6506046096447389 
1.919999999999805, -0.6505178367954102 
1.9299999999998039, -0.6503566211184983 
1.9399999999998028, -0.6501129160927166 
1.9499999999998017, -0.6497902485343211 
1.9599999999998006, -0.6494016852841 
1.9699999999997995, -0.6489682955258383 
1.9799999999997984, -0.6485204670402134 
1.9899999999997973, -0.6481031524224746 
1.9999999999997962, -0.6477854189230265 
2.0099999999998173, -0.6476743302555371 
2.0199999999998384, -0.6479325085643359 
2.0299999999998595, -0.6487969672362296 
2.0399999999998806, -0.6505930833736564 
2.0499999999999017, -0.6537306633789974 
2.059999999999923, -0.6586582111301109 
2.069999999999944, -0.6657414520860407 
2.079999999999965, -0.6750453720642964 
2.089999999999986, -0.6860804139531251 
2.100000000000007, -0.6977230103262142 
2.1100000000000283, -0.7085441239305912 
2.1200000000000494, -0.7174302822072384 
2.1300000000000705, -0.7239891942800945 
2.1400000000000916, -0.7284521232070416 
2.1500000000001127, -0.731317671549893 
2.160000000000134, -0.7330741221047966 
2.170000000000155, -0.7340907301591881 
2.180000000000176, -0.7346122041645907 
2.190000000000197, -0.7347861271747831 
2.2000000000002182, -0.7346898667607761 
2.2100000000002393, -0.7343473243562056 
2.2200000000002604, -0.7337344784982385 
2.2300000000002815, -0.7327742483652866 
2.2400000000003026, -0.7313213557332032 
2.2500000000003237, -0.7291406639393376 
2.260000000000345, -0.7258931301306288 
2.270000000000366, -0.7211661939992868 
2.280000000000387, -0.7146057224504482 
2.290000000000408, -0.7061646927727285 
2.3000000000004293, -0.6963289695430215 
2.3100000000004504, -0.6860666147578024 
2.3200000000004715, -0.6764517790696647 
2.3300000000004926, -0.6682582612430605 
2.3400000000005137, -0.6618052411335327 
2.3500000000005348, -0.6570443877945186 
2.360000000000556, -0.6537263866990123 
2.370000000000577, -0.6515362925432979 
2.380000000000598, -0.650172046885473 
2.390000000000619, -0.6493792783858847 
2.4000000000006403, -0.6489603674801366 
2.4100000000006614, -0.6487704436409922 
2.4200000000006825, -0.6487078219207928 
2.4300000000007036, -0.648703154399745 
2.4400000000007247, -0.6487096932049659 
2.450000000000746, -0.6486959423934744 
2.460000000000767, -0.6486412662690568 
2.470000000000788, -0.6485343786463189 
2.480000000000809, -0.6483737122427348 
2.49000000000083, -0.6481675421267251 
2.5000000000008513, -0.6479313908623191 
2.5100000000008724, -0.6476818642525223 
2.5200000000008935, -0.6474291382593054 
2.5300000000009146, -0.6471722299487407 
2.5400000000009357, -0.6468999274644134 
2.550000000000957, -0.646596714421997 
2.560000000000978, -0.6462500758383991 
2.570000000000999, -0.6458555206430857 
2.58000000000102, -0.6454182103993724 
2.5900000000010412, -0.6449527404997549 
2.6000000000010624, -0.6444834536066664 
2.6100000000010835, -0.6440469375850364 
2.6200000000011046, -0.6436972930764343 
2.6300000000011257, -0.6435139843452686 
2.6400000000011468, -0.6436115088668082 
2.650000000001168, -0.6441494045233557 
2.660000000001189, -0.6453399364137671 
2.67000000000121, -0.6474487005011261 
2.680000000001231, -0.6507795619770183 
2.6900000000012523, -0.6556294635105175 
2.7000000000012734, -0.6621943297889066 
2.7100000000012945, -0.6704194219080726 
2.7200000000013156, -0.6798421799356709 
2.7300000000013367, -0.6895663556220868 
2.740000000001358, -0.6985100080671874 
2.750000000001379, -0.7058420780079662 
2.7600000000014, -0.7112695262381827 
2.770000000001421, -0.7149729761383372 
2.780000000001442, -0.7173469005029228 
2.7900000000014633, -0.7187851177929092 
2.8000000000014844, -0.719589715514469 
2.8100000000015055, -0.7199617489625425 
2.8200000000015266, -0.7200205865804723 
2.8300000000015477, -0.719824093450874 
2.840000000001569, -0.7193805020490516 
2.85000000000159, -0.7186501140519512 
2.860000000001611, -0.717536461242866 
2.870000000001632, -0.7158669824294954 
2.8800000000016532, -0.7133670188006284 
2.8900000000016743, -0.7096444556026155 
2.9000000000016954, -0.7042309073625053 
2.9100000000017165, -0.6967492675416393 
2.9200000000017377, -0.6872170701210549 
2.9300000000017588, -0.676292686379914 
2.94000000000178, -0.665153090534062 
2.950000000001801, -0.6549997826835139 
2.960000000001822, -0.6466020432562776 
2.970000000001843, -0.6401857347807927 
2.9800000000018643, -0.6355897171473814 
2.9900000000018854, -0.632475323963191 
3.0000000000019065, -0.6304734273101157 
3.0100000000019276, -0.6292577120440653 
3.0200000000019487, -0.6285692367928404 
3.03000000000197, -0.6282161148821686 
3.040000000001991, -0.6280629061977642 
3.050000000002012, -0.628017286602605 
3.060000000002033, -0.6280176074474739 
3.070000000002054, -0.628022942735173 
3.0800000000020753, -0.6280062367726456 
3.0900000000020964, -0.6279506366617809 
3.1000000000021175, -0.627848548425781 
3.1100000000021386, -0.6277020683857399 
3.1200000000021597, -0.6275224834412151 
3.130000000002181, -0.6273266214932967 
3.140000000002202, -0.6271298932445712 
3.150000000002223, -0.6269388746747239 
3.160000000002244, -0.6267476011470248 
3.1700000000022652, -0.626539919474854 
3.1800000000022863, -0.6262965434372264 
3.1900000000023074, -0.6260027349886554 
3.2000000000023285, -0.6256529379971462 
3.2100000000023496, -0.6252516389315638 
3.2200000000023707, -0.6248124440936587 
3.230000000002392, -0.624358015092156 
3.240000000002413, -0.6239226596600534 
3.250000000002434, -0.623558399251226 
3.260000000002455, -0.6233447987615862 
3.2700000000024763, -0.6234024888823778 
3.2800000000024974, -0.6239095745221523 
3.2900000000025185, -0.6251182981953465 
3.3000000000025396, -0.6273653262041317 
3.3100000000025607, -0.6310612192553406 
3.3200000000025818, -0.6366323969750652 
3.330000000002603, -0.6443796624199412 
3.340000000002624, -0.65424135770877 
3.350000000002645, -0.6655553905420206 
3.360000000002666, -0.6770680007701804 
3.3700000000026873, -0.6873777453618941 
3.3800000000027084, -0.6955603588664617 
3.3900000000027295, -0.7014384696783217 
3.4000000000027506, -0.7053639893171487 
3.4100000000027717, -0.7078545363075227 
3.420000000002793, -0.7093666932569428 
3.430000000002814, -0.7102286193000528 
3.440000000002835, -0.7106513363526628 
3.450000000002856, -0.7107585629811775 
3.460000000002877, -0.7106111505398234 
3.4700000000028983, -0.7102207090958595 
3.4800000000029194, -0.7095526564914517 
3.4900000000029405, -0.7085197687142568 
3.5000000000029616, -0.7069682584293611 
3.5100000000029827, -0.7046634165334097 
3.520000000003004, -0.7012949534907806 
3.530000000003025, -0.6965405188641817 
3.540000000003046, -0.6902206895137356 
3.550000000003067, -0.682499301191291 
3.5600000000030882, -0.6739621255546338 
3.5700000000031094, -0.6654397635440398 
3.5800000000031305, -0.6576854713142074 
3.5900000000031516, -0.651155182443938 
3.6000000000031727, -0.6459877621787061 
3.6100000000031938, -0.6421032260148385 
3.620000000003215, -0.6393133420862679 
3.630000000003236, -0.6373984624543009 
3.640000000003257, -0.6361491759866799 
3.650000000003278, -0.635384752226759 
3.6600000000032993, -0.6349587744894287 
3.6700000000033204, -0.634758165996846 
3.6800000000033415, -0.6346989657151052 
3.6900000000033626, -0.6347208298037754 
3.7000000000033837, -0.634781612740824 
3.710000000003405, -0.6348529954661448 
3.720000000003426, -0.6349176992015881 
3.730000000003447, -0.6349681733576974 
3.740000000003468, -0.6350057411879924 
3.750000000003489, -0.6350384502650951 
3.7600000000035103, -0.6350762257327316 
3.7700000000035314, -0.6351238710194086 
3.7800000000035525, -0.6351749384554313 
3.7900000000035736, -0.6352103093661199 
3.8000000000035947, -0.635203165283448 
3.810000000003616, -0.635127985016457 
3.820000000003637, -0.6349685099897168 
3.830000000003658, -0.6347209135912568 
3.840000000003679, -0.6343924147534994 
3.8500000000037002, -0.6339984660030098 
3.8600000000037213, -0.6335617118034402 
3.8700000000037424, -0.6331145663244899 
3.8800000000037635, -0.6327062648121398 
3.8900000000037847, -0.6324150033274497 
3.9000000000038058, -0.6323657231929674 
3.910000000003827, -0.6327533243478167 
3.920000000003848, -0.6338684154654965 
3.930000000003869, -0.6361162448491248 
3.94000000000389, -0.6400066442808383 
3.9500000000039113, -0.646073625695404 
3.9600000000039324, -0.6546730478215428 
3.9700000000039535, -0.6656580096220328 
3.9800000000039746, -0.6781064205151086 
3.9900000000039957, -0.6904539760295434 
4.000000000004016, -0.7011584748596695 
4.010000000003993, -0.7093928901086434 
4.02000000000397, -0.7151691318577406 
4.030000000003946, -0.7189726605850654 
4.040000000003923, -0.7213720782441284 
4.0500000000039, -0.7228285563722372 
4.0600000000038765, -0.7236605672528968 
4.070000000003853, -0.7240690407270798 
4.08000000000383, -0.7241704494699531 
4.090000000003807, -0.7240208480673609 
4.100000000003783, -0.7236284433026804 
4.11000000000376, -0.7229558301123891 
4.120000000003737, -0.7219133319120743 
4.130000000003713, -0.7203461152644212 
4.14000000000369, -0.7180234358846056 
4.150000000003667, -0.7146514511426921 
4.1600000000036434, -0.7099455340864775 
4.17000000000362, -0.7037830482886852 
4.180000000003597, -0.6963748272150112 
4.1900000000035735, -0.688300538458518 
4.20000000000355, -0.6803210443462482 
4.210000000003527, -0.6730970364417155 
4.220000000003504, -0.6670181079355986 
4.23000000000348, -0.6621996232692307 
4.240000000003457, -0.6585692053173248 
4.250000000003434, -0.6559591520383388 
4.26000000000341, -0.654170901562672 
4.270000000003387, -0.6530114645011909 
4.280000000003364, -0.6523111360074556 
4.2900000000033405, -0.6519302790934098 
4.300000000003317, -0.6517598199004297 
4.310000000003294, -0.6517181477531109 
4.320000000003271, -0.6517462800793996 
4.330000000003247, -0.651802780136675 
4.340000000003224, -0.6518595823539736 
4.350000000003201, -0.6518993970740569 
4.360000000003177, -0.6519146088398088 
4.370000000003154, -0.6519065709438618 
4.380000000003131, -0.651883454366571 
4.390000000003107, -0.6518553261247705 
4.400000000003084, -0.6518272872863923 
4.410000000003061, -0.6517939080595587 
4.4200000000030375, -0.6517385546774224 
4.430000000003014, -0.6516386129007399 
4.440000000002991, -0.6514737828034203 
4.450000000002968, -0.6512327834101757 
4.460000000002944, -0.6509156856194913 
4.470000000002921, -0.6505327425219443 
4.480000000002898, -0.6501026991860258 
4.490000000002874, -0.6496532502353054 
4.500000000002851, -0.6492250350420048 
4.510000000002828, -0.6488796321977532 
4.520000000002804, -0.6487115474270355 
4.530000000002781, -0.6488636231375841 
4.540000000002758, -0.6495439853182279 
4.5500000000027345, -0.6510399057209594 
4.560000000002711, -0.6537188571972797 
4.570000000002688, -0.6579986113095961 
4.580000000002665, -0.6642582778558073 
4.590000000002641, -0.6726641584707045 
4.600000000002618, -0.6829333355908398 
4.610000000002595, -0.6941806097085954 
4.620000000002571, -0.7050858895865473 
4.630000000002548, -0.7144222084107443 
4.640000000002525, -0.7215619666454708 
4.6500000000025015, -0.7265498127728496 
4.660000000002478, -0.7298112925340329 
4.670000000002455, -0.7318394743826897 
4.6800000000024315, -0.7330356954432188 
4.690000000002408, -0.7336769728953125 
4.700000000002385, -0.7339357995626845 
4.710000000002362, -0.7339077689810226 
4.720000000002338, -0.7336312611816863 
4.730000000002315, -0.7330961234939384 
4.740000000002292, -0.7322414957417017 
4.750000000002268, -0.730943115992458 
4.760000000002245, -0.7289918544976653 
4.770000000002222, -0.7260727028418638 
4.7800000000021985, -0.7217729733285998 
4.790000000002175, -0.7156758354908408 
4.800000000002152, -0.7075855258974527 
4.810000000002129, -0.6978055923265349 
4.820000000002105, -0.6872140402536566 
4.830000000002082, -0.6769606943403329 
4.840000000002059, -0.6679971557927941 
4.850000000002035, -0.6608068649485337 
4.860000000002012, -0.6554331230503261 
4.870000000001989, -0.6516513533119137 
4.880000000001965, -0.6491331236846298 
4.890000000001942, -0.647548608112662 
4.900000000001919, -0.6466146612175134 
4.9100000000018955, -0.6461093813739078 
4.920000000001872, -0.6458694803743757 
