t, s[1].omega / s[0].omega 
0, -1.3799974862824234 
0.009999999999999995, -1.3795336414417465 
0.019999999999999934, -1.3786502854905767 
0.029999999999999874, -1.377354699669557 
0.04000000000000012, -1.3756701070753714 
0.050000000000000405, -1.3736503034688419 
0.06000000000000069, -1.3714119389616826 
0.07000000000000098, -1.3692105261125602 
0.08000000000000126, -1.3674735522399561 
0.09000000000000155, -1.366544207836359 
0.10000000000000184, -1.3663062533046897 
0.11000000000000212, -1.3663005500236696 
0.12000000000000241, -1.366104459432893 
0.130000000000002, -1.3653831137525005 
0.1400000000000009, -1.3636535725737746 
0.1499999999999998, -1.3598941088984262 
0.1599999999999987, -1.3519094074108615 
0.1699999999999976, -1.3354393529829334 
0.1799999999999965, -1.3037897061023993 
0.1899999999999954, -1.2506312574575789 
0.1999999999999943, -1.179110413152025 
0.2099999999999932, -1.1094780006082 
0.2199999999999921, -1.0643078108022361 
0.229999999999991, -1.0461110174416444 
0.2399999999999899, -1.0428935407749635 
0.2499999999999888, -1.0443653521139262 
0.2599999999999877, -1.0462014262764583 
0.2699999999999866, -1.0473745494015534 
0.2799999999999855, -1.0478568792095087 
0.2899999999999844, -1.04773164295481 
0.2999999999999833, -1.046931495585204 
0.3099999999999822, -1.0450833126374577 
0.3199999999999811, -1.0411931577654379 
0.32999999999998, -1.0328876617668898 
0.3399999999999789, -1.014834975332343 
0.3499999999999778, -0.9767287507402241 
0.35999999999997667, -0.9055349474365276 
0.36999999999997557, -0.8012179149162413 
0.37999999999997447, -0.6914556306543359 
0.38999999999997337, -0.6074267616028132 
0.39999999999997227, -0.5556412088804952 
0.40999999999997117, -0.5270409228218188 
0.41999999999997006, -0.5119515646810395 
0.42999999999996896, -0.5041626078111172 
0.43999999999996786, -0.5002297489119153 
0.44999999999996676, -0.49831937213926975 
0.45999999999996566, -0.4974608775261598 
0.46999999999996456, -0.4971383344037176 
0.47999999999996346, -0.4970759766010357 
0.48999999999996235, -0.4971261790613821 
0.49999999999996125, -0.4972121824026163 
0.5099999999999602, -0.4973017009197633 
0.519999999999959, -0.497398233809445 
0.529999999999958, -0.4975392348736 
0.5399999999999568, -0.4977897396574483 
0.5499999999999557, -0.4982237077083469 
0.5599999999999546, -0.49889393604543314 
0.5699999999999535, -0.4997979267680912 
0.5799999999999524, -0.500853216278702 
0.5899999999999513, -0.5019060235360538 
0.5999999999999502, -0.5027871193701556 
0.6099999999999491, -0.503381109599918 
0.619999999999948, -0.5036522892438776 
0.6299999999999469, -0.5036179895650976 
0.6399999999999458, -0.5033062407838578 
0.6499999999999447, -0.5027255435228973 
0.6599999999999436, -0.5018477668836847 
0.6699999999999425, -0.50059193105503 
0.6799999999999414, -0.49878609982936806 
0.6899999999999403, -0.4960342440488436 
0.6999999999999392, -0.4911777419311809 
0.7099999999999381, -0.48011349759069366 
0.719999999999937, -0.44885727685276194 
0.7299999999999359, -0.36747358363544136 
0.7399999999999348, -0.2353933732684655 
0.7499999999999337, -0.12545077540401858 
0.7599999999999326, -0.06853978734187449 
0.7699999999999315, -0.042954310927861075 
0.7799999999999304, -0.03100729116570789 
0.7899999999999293, -0.02495079866186923 
0.7999999999999282, -0.02163891522604586 
0.8099999999999271, -0.019735584755817045 
0.819999999999926, -0.01864399710997088 
0.8299999999999249, -0.01810371695791155 
0.8399999999999238, -0.018041163417633285 
0.8499999999999227, -0.018534465395633387 
0.8599999999999216, -0.019864072693912993 
0.8699999999999205, -0.02269605048687486 
0.8799999999999194, -0.02857074723472634 
0.8899999999999183, -0.04113397703021251 
0.8999999999999172, -0.06850093505100645 
0.9099999999999161, -0.12005611201637942 
0.919999999999915, -0.1563706094219298 
0.9299999999999139, -0.05713202072429535 
0.9399999999999128, 0.0930044787162679 
0.9499999999999117, 0.16515769510289957 
0.9599999999999106, 0.1913640148256033 
0.9699999999999095, 0.2015372624215991 
0.9799999999999084, 0.20593764918167926 
0.9899999999999073, 0.20796422424759053 
0.9999999999999062, 0.20886726124571836 
1.0099999999999052, 0.20914901773007027 
1.019999999999904, 0.20900691687139164 
1.029999999999903, 0.20848284772785927 
1.039999999999902, 0.20751446584425828 
1.0499999999999008, 0.2059920987922285 
1.0599999999998997, 0.2040972568062862 
1.0699999999998986, 0.20406742202925165 
1.0799999999998975, 0.2153280985673499 
1.0899999999998964, 0.25046570163496834 
1.0999999999998953, 0.29272130229737936 
1.1099999999998942, 0.3183685951028599 
1.119999999999893, 0.3299909024605948 
1.129999999999892, 0.33501684141869476 
1.1399999999998909, 0.33719778867452477 
1.1499999999998898, 0.33807195838093873 
1.1599999999998887, 0.33829229602132843 
1.1699999999998876, 0.33817764889353014 
1.1799999999998865, 0.3379201075058198 
1.1899999999998854, 0.3376601271232925 
1.1999999999998843, 0.33751311491127794 
1.2099999999998832, 0.3375814810394507 
1.219999999999882, 0.337958775063222 
1.229999999999881, 0.3387140661163489 
1.2399999999998799, 0.33984408322648835 
1.2499999999998788, 0.3412160448095069 
1.2599999999998777, 0.34257393841601086 
1.2699999999998766, 0.34364180236346487 
1.2799999999998755, 0.3442275291953016 
1.2899999999998744, 0.3442179482976933 
1.2999999999998733, 0.3434779772507287 
1.3099999999998722, 0.34171695480153735 
1.319999999999871, 0.33837077552313194 
1.32999999999987, 0.3326731562643476 
1.3399999999998689, 0.3244030222734888 
1.3499999999998678, 0.3151896295586857 
1.3599999999998666, 0.3078425174722626 
1.3699999999998655, 0.3035102710927079 
1.3799999999998644, 0.30138719298560385 
1.3899999999998633, 0.3003852191582061 
1.3999999999998622, 0.29984262799849254 
1.4099999999998611, 0.29943292696001605 
1.41999999999986, 0.2989765925157255 
1.429999999999859, 0.29831794987419 
1.4399999999998578, 0.29722821311177094 
1.4499999999998567, 0.29525285117963834 
1.4599999999998556, 0.2913215717561073 
1.4699999999998545, 0.2825296536621263 
1.4799999999998534, 0.2599933571258439 
1.4899999999998523, 0.19769128544314335 
1.4999999999998512, 0.0705232762329503 
1.5099999999998501, -0.015140466774526505 
1.519999999999849, -0.008657047637934706 
1.529999999999848, 0.011846955552271677 
1.5399999999998468, 0.023802523706560105 
1.5499999999998457, 0.029717586561724334 
1.5599999999998446, 0.03259503360045379 
1.5699999999998435, 0.03394932546321422 
1.5799999999998424, 0.03446674053605407 
1.5899999999998413, 0.03444145094254696 
1.5999999999998402, 0.033960869725194825 
1.6099999999998391, 0.0329605824972152 
1.619999999999838, 0.031191385805585947 
1.629999999999837, 0.028067304350659 
1.6399999999998358, 0.022241002780346998 
1.6499999999998347, 0.01042345772160616 
1.6599999999998336, -0.01569697894997487 
1.6699999999998325, -0.07664913131555726 
1.6799999999998314, -0.1975292928327157 
1.6899999999998303, -0.33383242021948956 
1.6999999999998292, -0.4035212209795583 
1.709999999999828, -0.4224763545990956 
1.719999999999827, -0.4262693111657587 
1.729999999999826, -0.4272775981843539 
1.7399999999998248, -0.42792153407889083 
1.7499999999998237, -0.42847678119569127 
1.7599999999998226, -0.4289203325362937 
1.7699999999998215, -0.4292259410069191 
1.7799999999998204, -0.4293832304934731 
1.7899999999998193, -0.42938600260172105 
1.7999999999998182, -0.42922683618326235 
1.809999999999817, -0.42890215267455256 
1.819999999999816, -0.42842712688044954 
1.8299999999998149, -0.427853172148709 
1.8399999999998138, -0.42727173904212357 
1.8499999999998127, -0.4267924073618561 
1.8599999999998116, -0.42650537558405105 
1.8699999999998105, -0.4264509087022441 
1.8799999999998094, -0.42660626431349713 
1.8899999999998083, -0.4268903222536829 
1.8999999999998072, -0.4271887535476522 
1.909999999999806, -0.42739453137723965 
1.919999999999805, -0.42743979463963944 
1.9299999999998039, -0.42729935369713706 
1.9399999999998028, -0.42697250628895395 
1.9499999999998017, -0.4264619495784038 
1.9599999999998006, -0.425759597836613 
1.9699999999997995, -0.4248372566939247 
1.9799999999997984, -0.42362921000854153 
1.9899999999997973, -0.4219568769750365 
1.9999999999997962, -0.4191682366397281 
2.0099999999998173, -0.41250953835972254 
2.0199999999998384, -0.3912187839359654 
2.0299999999998595, -0.3275629549834284 
2.0399999999998806, -0.20902497073312898 
2.0499999999999017, -0.09948595623548115 
2.059999999999923, -0.04040458501259921 
2.069999999999944, -0.013890450120211487 
2.079999999999965, -0.0016811759501695047 
2.089999999999986, 0.00412367771239668 
2.100000000000007, 0.0070475860032384605 
2.1100000000000283, 0.008561910814931814 
2.1200000000000494, 0.009282276872464131 
2.1300000000000705, 0.009481227179209033 
2.1400000000000916, 0.00924792711842041 
2.1500000000001127, 0.00853240467287192 
2.160000000000134, 0.00711255954298978 
2.170000000000155, 0.004458101832807578 
2.180000000000176, -0.0005704498749508981 
2.190000000000197, -0.010104981998491185 
2.2000000000002182, -0.027961526604394157 
2.2100000000002393, -0.04596648322205853 
2.2200000000002604, -0.00029199892713175 
2.2300000000002815, 0.13361867021252924 
2.2400000000003026, 0.22384182231064598 
2.2500000000003237, 0.2579412620732516 
2.260000000000345, 0.27046494918179725 
2.270000000000366, 0.27557722195671935 
2.280000000000387, 0.27784580691125177 
2.290000000000408, 0.278874175020669 
2.3000000000004293, 0.2793048030074315 
2.3100000000004504, 0.27943372758531937 
2.3200000000004715, 0.2794281501005737 
2.3300000000004926, 0.27943410101693045 
2.3400000000005137, 0.2796859959529309 
2.3500000000005348, 0.2807009935349053 
2.360000000000556, 0.2835754955532873 
2.370000000000577, 0.2898960034347905 
2.380000000000598, 0.2999710286125938 
2.390000000000619, 0.3108521622025536 
2.4000000000006403, 0.31908538350665794 
2.4100000000006614, 0.32398063344198647 
2.4200000000006825, 0.3264861448402743 
2.4300000000007036, 0.3275428716759213 
2.4400000000007247, 0.3277000274382001 
2.450000000000746, 0.32723156914496376 
2.460000000000767, 0.3262958630596286 
2.470000000000788, 0.3250504519229382 
2.480000000000809, 0.32369708145320947 
2.49000000000083, 0.32244549266087075 
2.5000000000008513, 0.32144418384491563 
2.5100000000008724, 0.3207505790132205 
2.5200000000008935, 0.3203518768052652 
2.5300000000009146, 0.32019678423104225 
2.5400000000009357, 0.3202103465930027 
2.550000000000957, 0.32029375876551264 
2.560000000000978, 0.3203221477525772 
2.570000000000999, 0.32014322755538616 
2.58000000000102, 0.31955835801637017 
2.5900000000010412, 0.31824669936951144 
2.6000000000010624, 0.3155640910541555 
2.6100000000010835, 0.3100871860228962 
2.6200000000011046, 0.2988553092906859 
2.6300000000011257, 0.27788606596993987 
2.6400000000011468, 0.2496105233448191 
2.650000000001168, 0.22822333939248488 
2.660000000001189, 0.21970639661882044 
2.67000000000121, 0.21785406386946674 
2.680000000001231, 0.2178363572747958 
2.6900000000012523, 0.2180455264279738 
2.7000000000012734, 0.21810518825911168 
2.7100000000012945, 0.21793856759666852 
2.7200000000013156, 0.21749577000434767 
2.7300000000013367, 0.2166615747370532 
2.740000000001358, 0.21516730630133543 
2.750000000001379, 0.2123912573918516 
2.7600000000014, 0.20678965411901712 
2.770000000001421, 0.1940842387494694 
2.780000000001442, 0.1612749260734795 
2.7900000000014633, 0.07390391833175255 
2.8000000000014844, -0.07909037266617906 
2.8100000000015055, -0.15789463653494687 
2.8200000000015266, -0.140409610896146 
2.8300000000015477, -0.11346934609883366 
2.840000000001569, -0.09806895178685096 
2.85000000000159, -0.09034726892387329 
2.860000000001611, -0.08642483209532935 
2.870000000001632, -0.08436350991987307 
2.8800000000016532, -0.0832751670768651 
2.8900000000016743, -0.08275550865133376 
2.9000000000016954, -0.08263257322329157 
2.9100000000017165, -0.08286587635593136 
2.9200000000017377, -0.08351854397750157 
2.9300000000017588, -0.08477863366392167 
2.94000000000178, -0.0870404967637428 
2.950000000001801, -0.09109964966483124 
2.960000000001822, -0.09859184093251405 
2.970000000001843, -0.112895588495707 
2.9800000000018643, -0.14029177591790976 
2.9900000000018854, -0.18768799166320832 
3.0000000000019065, -0.2485807585196265 
3.0100000000019276, -0.29773481388483275 
3.0200000000019487, -0.32372771158324215 
3.03000000000197, -0.3349135390064036 
3.040000000001991, -0.33971342205575655 
3.050000000002012, -0.34196727764074236 
3.060000000002033, -0.3431206965007878 
3.070000000002054, -0.34372123828945517 
3.0800000000020753, -0.3439896340187864 
3.0900000000020964, -0.3440175047178007 
3.1000000000021175, -0.34384096926570734 
3.1100000000021386, -0.34347692749199416 
3.1200000000021597, -0.3429512954475429 
3.130000000002181, -0.34232317605200263 
3.140000000002202, -0.341692798730283 
3.150000000002223, -0.3411819796342751 
3.160000000002244, -0.34089751053158973 
3.1700000000022652, -0.3409006942122339 
3.1800000000022863, -0.341191207807784 
3.1900000000023074, -0.3417007016215807 
3.2000000000023285, -0.3423025920979792 
3.2100000000023496, -0.3428499943857598 
3.2200000000023707, -0.343226408745918 
3.230000000002392, -0.3433710325270439 
3.240000000002413, -0.34326442370701277 
3.250000000002434, -0.34289345347760036 
3.260000000002455, -0.3422128064693238 
3.2700000000024763, -0.3410963172571641 
3.2800000000024974, -0.33924192870310504 
3.2900000000025185, -0.3359432401997185 
3.3000000000025396, -0.32955219534494173 
3.3100000000025607, -0.31655364877101094 
3.3200000000025818, -0.29176026134829414 
3.330000000002603, -0.25439670496282785 
3.340000000002624, -0.21523266570363342 
3.350000000002645, -0.1859720825013877 
3.360000000002666, -0.16803447259242207 
3.3700000000026873, -0.15771423589323305 
3.3800000000027084, -0.1517164758006355 
3.3900000000027295, -0.14809771302858238 
3.4000000000027506, -0.14582143890240912 
3.4100000000027717, -0.1443422914294818 
3.420000000002793, -0.1433757893137094 
3.430000000002814, -0.14278629806225923 
3.440000000002835, -0.14253932051988705 
3.450000000002856, -0.14269524864264208 
3.460000000002877, -0.1434459721088631 
3.4700000000028983, -0.14522489378905934 
3.4800000000029194, -0.14898034371603602 
3.4900000000029405, -0.15684001067656203 
3.5000000000029616, -0.17360320984625102 
3.5100000000029827, -0.208597512751801 
3.520000000003004, -0.266780374573037 
3.530000000003025, -0.2961869111966466 
3.540000000003046, -0.1981965868809952 
3.550000000003067, -0.05390280417894541 
3.5600000000030882, 0.02452134513561539 
3.5700000000031094, 0.05610127757068288 
3.5800000000031305, 0.06914525243977543 
3.5900000000031516, 0.07502326081856374 
3.6000000000031727, 0.07784071021692897 
3.6100000000031938, 0.07917649729935196 
3.620000000003215, 0.0796774757559625 
3.630000000003236, 0.07959339609789125 
3.640000000003257, 0.07895166268966979 
3.650000000003278, 0.07757375368669955 
3.6600000000032993, 0.07495265953648413 
3.6700000000033204, 0.06986774482726683 
3.6800000000033415, 0.059354581924067805 
3.6900000000033626, 0.03648999847640696 
3.7000000000033837, -0.007839548431932141 
3.710000000003405, -0.03645583046604908 
3.720000000003426, 0.07173266030336348 
3.730000000003447, 0.2108367767685391 
3.740000000003468, 0.26926803095418134 
3.750000000003489, 0.28921636444808346 
3.7600000000035103, 0.2967592341663838 
3.7700000000035314, 0.2999499586561991 
3.7800000000035525, 0.30137031654961993 
3.7900000000035736, 0.301968924537149 
3.8000000000035947, 0.3021437667581892 
3.810000000003616, 0.30208853506143546 
3.820000000003637, 0.3019369762356468 
3.830000000003658, 0.3018847215087809 
3.840000000003679, 0.3024206020996744 
3.8500000000037002, 0.3048023170222144 
3.8600000000037213, 0.31137125835504875 
3.8700000000037424, 0.32346102244093944 
3.8800000000037635, 0.33741184831055393 
3.8900000000037847, 0.347953694316814 
3.9000000000038058, 0.3540202394119406 
3.910000000003827, 0.357042872377201 
3.920000000003848, 0.35834078017139454 
3.930000000003869, 0.35863918621911905 
3.94000000000389, 0.3582843895640565 
3.9500000000039113, 0.35746102952952297 
3.9600000000039324, 0.3563285296190222 
3.9700000000039535, 0.35507775938070274 
3.9800000000039746, 0.35390749184461495 
3.9900000000039957, 0.3529637376696377 
4.000000000004016, 0.35230848214656757 
4.010000000003993, 0.3519340663327892 
4.02000000000397, 0.35179064791656284 
4.030000000003946, 0.3518007325478693 
4.040000000003923, 0.35186116895406677 
4.0500000000039, 0.35184283547882406 
4.0600000000038765, 0.35158688752848694 
4.070000000003853, 0.350874591371116 
4.08000000000383, 0.34932311994328413 
4.090000000003807, 0.3461097550233945 
4.100000000003783, 0.33931236873166176 
4.11000000000376, 0.3247743089609762 
4.120000000003737, 0.2973775254031373 
4.130000000003713, 0.2636793949877862 
4.14000000000369, 0.2434624388622432 
4.150000000003667, 0.2381293742534628 
4.1600000000036434, 0.23810598668650446 
4.17000000000362, 0.23887655598924876 
4.180000000003597, 0.23941022713530008 
4.1900000000035735, 0.239591785648635 
4.20000000000355, 0.23943700057882955 
4.210000000003527, 0.2389133290280481 
4.220000000003504, 0.2378702400451089 
4.23000000000348, 0.23592034061877148 
4.240000000003457, 0.23210874526122222 
4.250000000003434, 0.22388408413011057 
4.26000000000341, 0.20359463301857897 
4.270000000003387, 0.14740819689718107 
4.280000000003364, 0.012839728928081722 
4.2900000000033405, -0.11138831525408656 
4.300000000003317, -0.08281901218290023 
4.310000000003294, -0.021024532165594193 
4.320000000003271, 0.012191363518164307 
4.330000000003247, 0.02688690005782896 
4.340000000003224, 0.033583648467150895 
4.350000000003201, 0.036773501034313136 
4.360000000003177, 0.03827989096389739 
4.370000000003154, 0.03886568832337575 
4.380000000003131, 0.038841682078628426 
4.390000000003107, 0.03828377626374754 
4.400000000003084, 0.037083812031445625 
4.410000000003061, 0.034884357818545604 
4.4200000000030375, 0.03083150712413477 
4.430000000003014, 0.02286695563650614 
4.440000000002991, 0.0056674071119659705 
4.450000000002968, -0.03478425894438413 
4.460000000002944, -0.1301656654349301 
4.470000000002921, -0.2888991980744149 
4.480000000002898, -0.40389809134772486 
4.490000000002874, -0.42457738746500695 
4.500000000002851, -0.41246820032238574 
4.510000000002828, -0.40171629543256654 
4.520000000002804, -0.39622022452934164 
4.530000000002781, -0.39386634172077 
4.540000000002758, -0.3929896004069914 
4.5500000000027345, -0.39274388615958505 
4.560000000002711, -0.3927395360102883 
4.570000000002688, -0.39280047624007125 
4.580000000002665, -0.39284619502747176 
4.590000000002641, -0.3928401260031454 
4.600000000002618, -0.3927711852351731 
4.610000000002595, -0.3926527454327675 
4.620000000002571, -0.39252857247971296 
4.630000000002548, -0.39247427297929566 
4.640000000002525, -0.39258525168520536 
4.6500000000025015, -0.39295192828614234 
4.660000000002478, -0.39362920045392646 
4.670000000002455, -0.39460429886813914 
4.6800000000024315, -0.39577293750235304 
4.690000000002408, -0.39695261591780745 
4.700000000002385, -0.39794994172559867 
4.710000000002362, -0.3986378448061899 
4.720000000002338, -0.3989774053210452 
4.730000000002315, -0.3989810776556904 
4.740000000002292, -0.39866021451611555 
4.750000000002268, -0.39798042906009734 
4.760000000002245, -0.3968121288293481 
4.770000000002222, -0.39483485829925696 
4.7800000000021985, -0.39130913057395034 
4.790000000002175, -0.3845516934983441 
4.800000000002152, -0.3710532640084424 
4.810000000002129, -0.345656818125822 
4.820000000002105, -0.307285784001507 
4.830000000002082, -0.26621768920623606 
4.840000000002059, -0.2346421850852414 
4.850000000002035, -0.21479162969909177 
4.860000000002012, -0.20316162553635672 
4.870000000001989, -0.19631918610429466 
4.880000000001965, -0.19215778133280312 
4.890000000001942, -0.18952960672404148 
4.900000000001919, -0.18782320537739067 
