t, s[1].omega / s[0].omega 
0, -0.36000888231468736 
0.009999999999999995, -0.36099240358183843 
0.019999999999999934, -0.3621184792769818 
0.029999999999999874, -0.36328549860827797 
0.04000000000000012, -0.36437170535529567 
0.050000000000000405, -0.36527363036435956 
0.06000000000000069, -0.3659334567880125 
0.07000000000000098, -0.3663401295196872 
0.08000000000000126, -0.3665110167964963 
0.09000000000000155, -0.3664700152813705 
0.10000000000000184, -0.3662312365930119 
0.11000000000000212, -0.3657883606407278 
0.12000000000000241, -0.36510577846107245 
0.130000000000002, -0.36410788006230177 
0.1400000000000009, -0.3626657625161331 
0.1499999999999998, -0.3605880391346286 
0.1599999999999987, -0.3576378465922168 
0.1699999999999976, -0.35361458033373144 
0.1799999999999965, -0.34851482766841546 
0.1899999999999954, -0.3426754429361222 
0.1999999999999943, -0.336713137982831 
0.2099999999999932, -0.33124404674280566 
0.2199999999999921, -0.32663274488063754 
0.229999999999991, -0.3229557437152657 
0.2399999999999899, -0.320110666081969 
0.2499999999999888, -0.317933154207961 
0.2599999999999877, -0.31626477269724584 
0.2699999999999866, -0.3149788827116041 
0.2799999999999855, -0.31398483664732973 
0.2899999999999844, -0.313224404378278 
0.2999999999999833, -0.31266724425706 
0.3099999999999822, -0.3123083657630422 
0.3199999999999811, -0.31216902173389693 
0.32999999999998, -0.3123022620936639 
0.3399999999999789, -0.3128049441396924 
0.3499999999999778, -0.31383903144678416 
0.35999999999997667, -0.3156658900918413 
0.36999999999997557, -0.31869557560636524 
0.37999999999997447, -0.32354067274365333 
0.38999999999997337, -0.33102018005534506 
0.39999999999997227, -0.34195510017329683 
0.40999999999997117, -0.35650210620363226 
0.41999999999997006, -0.3731291655244739 
0.42999999999996896, -0.3885406877175575 
0.43999999999996786, -0.3997974143693712 
0.44999999999996676, -0.40643081832333927 
0.45999999999996566, -0.40983362332188866 
0.46999999999996456, -0.4115291800796257 
0.47999999999996346, -0.4124417447895105 
0.48999999999996235, -0.41299803326002954 
0.49999999999996125, -0.4133702390743168 
0.5099999999999602, -0.41362517481783867 
0.519999999999959, -0.4137898892841518 
0.529999999999958, -0.4138762472952471 
0.5399999999999568, -0.413889411480216 
0.5499999999999557, -0.413831064212357 
0.5599999999999546, -0.4137017131882372 
0.5699999999999535, -0.4135038444674521 
0.5799999999999524, -0.4132462849733754 
0.5899999999999513, -0.41294859715264043 
0.5999999999999502, -0.4126427680353218 
0.6099999999999491, -0.4123693690638423 
0.619999999999948, -0.41216791580085993 
0.6299999999999469, -0.4120647813453167 
0.6399999999999458, -0.41206363420763026 
0.6499999999999447, -0.4121423621714452 
0.6599999999999436, -0.4122583224767256 
0.6699999999999425, -0.4123606509050374 
0.6799999999999414, -0.4124043660856735 
0.6899999999999403, -0.412359447301634 
0.6999999999999392, -0.4122115912604757 
0.7099999999999381, -0.4119567160148444 
0.719999999999937, -0.41159344035436546 
0.7299999999999359, -0.41111618947925327 
0.7399999999999348, -0.4105089072509645 
0.7499999999999337, -0.40973716546542216 
0.7599999999999326, -0.4087341918893773 
0.7699999999999315, -0.40737238513772284 
0.7799999999999304, -0.4054053917610868 
0.7899999999999293, -0.4023633460780083 
0.7999999999999282, -0.3974212917281305 
0.8099999999999271, -0.389421875110994 
0.819999999999926, -0.3774693727512914 
0.8299999999999249, -0.36212435739044674 
0.8399999999999238, -0.34580430465183226 
0.8499999999999227, -0.3312664910116841 
0.8599999999999216, -0.3199278739114194 
0.8699999999999205, -0.31177436076100706 
0.8799999999999194, -0.3061417946195836 
0.8899999999999183, -0.30230611222609377 
0.8999999999999172, -0.2996987433075552 
0.9099999999999161, -0.2979259242135337 
0.919999999999915, -0.2967302809667926 
0.9299999999999139, -0.2959495963885226 
0.9399999999999128, -0.29548643312627076 
0.9499999999999117, -0.295288873903659 
0.9599999999999106, -0.29533994177203654 
0.9699999999999095, -0.2956536526423852 
0.9799999999999084, -0.29627659898270553 
0.9899999999999073, -0.2972947162060559 
0.9999999999999062, -0.2988449937760616 
1.0099999999999052, -0.3011303585538775 
1.019999999999904, -0.3044302254095016 
1.029999999999903, -0.3090845397167022 
1.039999999999902, -0.3154036438792745 
1.0499999999999008, -0.32344678110018743 
1.0599999999998997, -0.33271348580709026 
1.0699999999998986, -0.3420560931911748 
1.0799999999998975, -0.35015885627919463 
1.0899999999998964, -0.3562672775708261 
1.0999999999998953, -0.3604068619719544 
1.1099999999998942, -0.36303206023260925 
1.119999999999893, -0.36463653397461776 
1.129999999999892, -0.36558854642592675 
1.1399999999998909, -0.3661221394137738 
1.1499999999998898, -0.3663745672348238 
1.1599999999998887, -0.3664214686651861 
1.1699999999998876, -0.36630031676431163 
1.1799999999998865, -0.36602506851231187 
1.1899999999998854, -0.3655967646195327 
1.1999999999998843, -0.3650139512691741 
1.2099999999998832, -0.3642846407730488 
1.219999999999882, -0.36343763341239765 
1.229999999999881, -0.36252689420573564 
1.2399999999998799, -0.3616232545138427 
1.2499999999998788, -0.3607955777923453 
1.2599999999998777, -0.3600916863189475 
1.2699999999998766, -0.3595285366894524 
1.2799999999998755, -0.3590935271684307 
1.2899999999998744, -0.35875334660533725 
1.2999999999998733, -0.3584658926976515 
1.3099999999998722, -0.35819132569633944 
1.319999999999871, -0.35789908669916815 
1.32999999999987, -0.35756964466868346 
1.3399999999998689, -0.35719219698595045 
1.3499999999998678, -0.3567606751871269 
1.3599999999998666, -0.3562697464437866 
1.3699999999998655, -0.35571100866363425 
1.3799999999998644, -0.35506786318364303 
1.3899999999998633, -0.35430492568823857 
1.3999999999998622, -0.3533421899110429 
1.4099999999998611, -0.3519925762018895 
1.41999999999986, -0.3498272620199431 
1.429999999999859, -0.34595882992460447 
1.4399999999998578, -0.33893866329611866 
1.4499999999998567, -0.3273930306560614 
1.4599999999998556, -0.3116717734520363 
1.4699999999998545, -0.2946007147619444 
1.4799999999998534, -0.2795003538716166 
1.4899999999998523, -0.2679687037113618 
1.4999999999998512, -0.2598765875577075 
1.5099999999998501, -0.2544082836708937 
1.519999999999849, -0.2507491641789688 
1.529999999999848, -0.24829367145834644 
1.5399999999998468, -0.24663956056192834 
1.5499999999998457, -0.24553303682821648 
1.5599999999998446, -0.24481984201246682 
1.5699999999998435, -0.24441218218086425 
1.5799999999998424, -0.24426928467731987 
1.5899999999998413, -0.24438809099965947 
1.5999999999998402, -0.24480188067013917 
1.6099999999998391, -0.2455861730952084 
1.619999999999838, -0.24687250495821939 
1.629999999999837, -0.24887103726881107 
1.6399999999998358, -0.251900313566636 
1.6499999999998347, -0.2564106952976809 
1.6599999999998336, -0.26295440682017246 
1.6699999999998325, -0.27199454978585774 
1.6799999999998314, -0.28343937449256745 
1.6899999999998303, -0.296101575941147 
1.6999999999998292, -0.30787881529032834 
1.709999999999828, -0.3170181004138182 
1.719999999999827, -0.3231266852263667 
1.729999999999826, -0.32684634761992004 
1.7399999999998248, -0.3290256380889668 
1.7499999999998237, -0.3302969065148377 
1.7599999999998226, -0.33104010181207455 
1.7699999999998215, -0.33146457619366865 
1.7799999999998204, -0.3316825808924077 
1.7899999999998193, -0.3317537736774436 
1.7999999999998182, -0.33170931382854213 
1.809999999999817, -0.3315652697425756 
1.819999999999816, -0.3313315345038756 
1.8299999999998149, -0.33101946235413016 
1.8399999999998138, -0.33064890814784065 
1.8499999999998127, -0.3302529112028322 
1.8599999999998116, -0.3298769656874384 
1.8699999999998105, -0.32957137779966855 
1.8799999999998094, -0.3293790234907311 
1.8899999999998083, -0.32932330834730494 
1.8999999999998072, -0.3294003788113762 
1.909999999999806, -0.3295779632328671 
1.919999999999805, -0.3298023156895332 
1.9299999999998039, -0.33001234572684907 
1.9399999999998028, -0.3301553153358265 
1.9499999999998017, -0.33019634852851915 
1.9599999999998006, -0.3301181605689839 
1.9699999999997995, -0.32991361833993377 
1.9799999999997984, -0.3295758615397334 
1.9899999999997973, -0.32908847010417436 
1.9999999999997962, -0.32841485615450733 
2.0099999999998173, -0.3274835859145846 
2.0199999999998384, -0.32616485673555373 
2.0299999999998595, -0.3242343244527612 
2.0399999999998806, -0.3213315890194595 
2.0499999999999017, -0.31695946425598576 
2.059999999999923, -0.31063782668054 
2.069999999999944, -0.30230108551625473 
2.079999999999965, -0.2926859531505461 
2.089999999999986, -0.2831318355344682 
2.100000000000007, -0.2748159810420628 
2.1100000000000283, -0.2682405910649429 
2.1200000000000494, -0.2633284851439478 
2.1300000000000705, -0.25975170542693193 
2.1400000000000916, -0.2571609118612369 
2.1500000000001127, -0.2552742011810571 
2.160000000000134, -0.2538898285751812 
2.170000000000155, -0.25287341449861395 
2.180000000000176, -0.2521420381944885 
2.190000000000197, -0.25165235108842665 
2.2000000000002182, -0.25139426917852015 
2.2100000000002393, -0.25139056871935084 
2.2200000000002604, -0.2517031661945732 
2.2300000000002815, -0.25244808973764105 
2.2400000000003026, -0.25382275042715763 
2.2500000000003237, -0.25614999004253536 
2.260000000000345, -0.259938828045632 
2.270000000000366, -0.26593614646610064 
2.280000000000387, -0.2750596643943793 
2.290000000000408, -0.28793921514897935 
2.3000000000004293, -0.303817501106541 
2.3100000000004504, -0.31962634870069945 
2.3200000000004715, -0.33146440469948135 
2.3300000000004926, -0.3378594243298795 
2.3400000000005137, -0.3402665550893184 
2.3500000000005348, -0.3407781918246074 
2.360000000000556, -0.34068657019407883 
2.370000000000577, -0.3405122405849961 
2.380000000000598, -0.3403950258281735 
2.390000000000619, -0.3403424791963738 
2.4000000000006403, -0.3403313708232592 
2.4100000000006614, -0.34033914091783596 
2.4200000000006825, -0.34035048113672384 
2.4300000000007036, -0.3403571781647788 
2.4400000000007247, -0.34035731861845836 
2.450000000000746, -0.3403556020081361 
2.460000000000767, -0.34036490816068604 
2.470000000000788, -0.3404083123875735 
2.480000000000809, -0.34051990156658035 
2.49000000000083, -0.3407423746699036 
2.5000000000008513, -0.341119977804604 
2.5100000000008724, -0.3416865930501336 
2.5200000000008935, -0.3424504026678087 
2.5300000000009146, -0.3433794124356867 
2.5400000000009357, -0.3443966080987945 
2.550000000000957, -0.3453942344222203 
2.560000000000978, -0.34626567670372 
2.570000000000999, -0.3469369042377569 
2.58000000000102, -0.3473780562511091 
2.5900000000010412, -0.34759309027882035 
2.6000000000010624, -0.347600015988219 
2.6100000000010835, -0.34741326956551477 
2.6200000000011046, -0.3470314396485994 
2.6300000000011257, -0.34642789676724806 
2.6400000000011468, -0.3455407230063223 
2.650000000001168, -0.34426025915837494 
2.660000000001189, -0.3424183013477494 
2.67000000000121, -0.3397957499823481 
2.680000000001231, -0.33618284583936286 
2.6900000000012523, -0.331517789591947 
2.7000000000012734, -0.32604254115212544 
2.7100000000012945, -0.3203034053346569 
2.7200000000013156, -0.31491779994813773 
2.7300000000013367, -0.3103024781531857 
2.740000000001358, -0.3065877647187981 
2.750000000001379, -0.3037025728124203 
2.7600000000014, -0.3014934780829242 
2.770000000001421, -0.2998019425126973 
2.780000000001442, -0.29849694115418035 
2.7900000000014633, -0.29748240543488613 
2.8000000000014844, -0.29669475147171387 
2.8100000000015055, -0.29609838874682437 
2.8200000000015266, -0.29568271678467334 
2.8300000000015477, -0.29546229349774 
2.840000000001569, -0.29548148755274756 
2.85000000000159, -0.2958254195365676 
2.860000000001611, -0.296640068229231 
2.870000000001632, -0.29816551415535847 
2.8800000000016532, -0.30078512906525423 
2.8900000000016743, -0.30508193923747534 
2.9000000000016954, -0.3118487569676161 
2.9100000000017165, -0.3218852245770496 
2.9200000000017377, -0.33529108884209846 
2.9300000000017588, -0.3503331918282095 
2.94000000000178, -0.3633949179086077 
2.950000000001801, -0.37153663452573016 
2.960000000001822, -0.37488006397969786 
2.970000000001843, -0.37548730353511206 
2.9800000000018643, -0.37514482180675374 
2.9900000000018854, -0.37470007882258516 
3.0000000000019065, -0.3743960812795581 
3.0100000000019276, -0.374240318806481 
3.0200000000019487, -0.37418350787855875 
3.03000000000197, -0.3741786710432474 
3.040000000001991, -0.3741931046812866 
3.050000000002012, -0.3742067553349223 
3.060000000002033, -0.37420865759619815 
3.070000000002054, -0.37419472434933604 
3.0800000000020753, -0.3741675113735518 
3.0900000000020964, -0.37413762653767424 
3.1000000000021175, -0.37412567776034317 
3.1100000000021386, -0.37416282882898194 
3.1200000000021597, -0.3742877886802062 
3.130000000002181, -0.3745390560082912 
3.140000000002202, -0.37494313473575674 
3.150000000002223, -0.375501374439358 
3.160000000002244, -0.3761802183017373 
3.1700000000022652, -0.3769116711821869 
3.1800000000022863, -0.3776087267308577 
3.1900000000023074, -0.3781908856295757 
3.2000000000023285, -0.378605226733013 
3.2100000000023496, -0.3788313705646417 
3.2200000000023707, -0.3788716230861027 
3.230000000002392, -0.37873568505722094 
3.240000000002413, -0.3784270850794999 
3.250000000002434, -0.3779325053150397 
3.260000000002455, -0.3772112191062068 
3.2700000000024763, -0.37618050024733246 
3.2800000000024974, -0.374693313557367 
3.2900000000025185, -0.37250906451454857 
3.3000000000025396, -0.3692748919666063 
3.3100000000025607, -0.36457336735455736 
3.3200000000025818, -0.3581233934309894 
3.330000000002603, -0.35011601844258017 
3.340000000002624, -0.3413744296427235 
3.350000000002645, -0.33301110707103504 
3.360000000002666, -0.3258502478721875 
3.3700000000026873, -0.320176910367319 
3.3800000000027084, -0.3158796182715242 
3.3900000000027295, -0.31268926474627706 
3.4000000000027506, -0.31033128378590286 
3.4100000000027717, -0.30858392987822825 
3.420000000002793, -0.30728694398921064 
3.430000000002814, -0.30633298392922825 
3.440000000002835, -0.3056566364830123 
3.450000000002856, -0.30522619967260767 
3.460000000002877, -0.30503968222845323 
3.4700000000028983, -0.30512552638634977 
3.4800000000029194, -0.30554880708126475 
3.4900000000029405, -0.30642443662799185 
3.5000000000029616, -0.3079397867009129 
3.5100000000029827, -0.31038908649997843 
3.520000000003004, -0.31421745367360504 
3.530000000003025, -0.32005345781191713 
3.540000000003046, -0.3286558199889922 
3.550000000003067, -0.3406081250436665 
3.5600000000030882, -0.3556126007351549 
3.5700000000031094, -0.3717822944975179 
3.5800000000031305, -0.386171663999859 
3.5900000000031516, -0.39673056286748454 
3.6000000000031727, -0.40340397233560454 
3.6100000000031938, -0.40729964997870605 
3.620000000003215, -0.4095424735324119 
3.630000000003236, -0.41086574219266875 
3.640000000003257, -0.411669819385805 
3.650000000003278, -0.412160964130306 
3.6600000000032993, -0.41244555573359365 
3.6700000000033204, -0.4125791990152138 
3.6800000000033415, -0.41259028417562443 
3.6900000000033626, -0.41249159847572275 
3.7000000000033837, -0.41228726512770086 
3.710000000003405, -0.4119788113269346 
3.720000000003426, -0.4115720727330216 
3.730000000003447, -0.4110844012112427 
3.740000000003468, -0.41054906992604 
3.750000000003489, -0.4100128155309191 
3.7600000000035103, -0.4095254278478174 
3.7700000000035314, -0.40912562051648715 
3.7800000000035525, -0.4088299215647521 
3.7900000000035736, -0.4086290367547881 
3.8000000000035947, -0.4084923269950102 
3.810000000003616, -0.40837824315685073 
3.820000000003637, -0.4082464615995434 
3.830000000003658, -0.4080667014876983 
3.840000000003679, -0.4078213540837828 
3.8500000000037002, -0.407502828124509 
3.8600000000037213, -0.4071086547649497 
3.8700000000037424, -0.40663684652379395 
3.8800000000037635, -0.406082246589611 
3.8900000000037847, -0.40543296028707 
3.9000000000038058, -0.40466421024749877 
3.910000000003827, -0.40372347044219925 
3.920000000003848, -0.40249267336362965 
3.930000000003869, -0.40069878376180146 
3.94000000000389, -0.3977380641034976 
3.9500000000039113, -0.3924651225634397 
3.9600000000039324, -0.3833308785477111 
3.9700000000039535, -0.3695256805770689 
3.9800000000039746, -0.35255337316580876 
3.9900000000039957, -0.33577703601732845 
4.000000000004016, -0.32191992148108123 
4.010000000003993, -0.3117635753229718 
4.02000000000397, -0.3047899792413087 
4.030000000003946, -0.3001352053981226 
4.040000000003923, -0.2970530855714036 
4.0500000000039, -0.29501381332434223 
4.0600000000038765, -0.29367043422499195 
4.070000000003853, -0.29280441409762853 
4.08000000000383, -0.2922823880451574 
4.090000000003807, -0.2920276957289293 
4.100000000003783, -0.29200355444184656 
4.11000000000376, -0.2922045344280488 
4.120000000003737, -0.2926541372507495 
4.130000000003713, -0.29340728263154003 
4.14000000000369, -0.2945569491470897 
4.150000000003667, -0.29624358490870817 
4.1600000000036434, -0.2986629285729897 
4.17000000000362, -0.3020599823476714 
4.180000000003597, -0.3066819803553945 
4.1900000000035735, -0.3126512379603565 
4.20000000000355, -0.3197562765616407 
4.210000000003527, -0.32730505030803586 
4.220000000003504, -0.3343049751074343 
4.23000000000348, -0.3399628470408547 
4.240000000003457, -0.34403543996222563 
4.250000000003434, -0.3467339870349121 
4.26000000000341, -0.3484277909608059 
4.270000000003387, -0.3494452827259997 
4.280000000003364, -0.3500164588867856 
4.2900000000033405, -0.35028410888545036 
4.300000000003317, -0.35032950857708756 
4.310000000003294, -0.35019347304307646 
4.320000000003271, -0.3498907733593433 
4.330000000003247, -0.3494209952131362 
4.340000000003224, -0.3487795146794216 
4.350000000003201, -0.347970704961026 
4.360000000003177, -0.34702146849370463 
4.370000000003154, -0.3459880516285442 
4.380000000003131, -0.3449485844574569 
4.390000000003107, -0.34398235084746376 
4.400000000003084, -0.34314738217977925 
4.410000000003061, -0.3424682716427342 
4.4200000000030375, -0.34193694576678846 
4.430000000003014, -0.34152189956819984 
4.440000000002991, -0.34118052626866924 
4.450000000002968, -0.3408706114271969 
4.460000000002944, -0.3405581173285591 
4.470000000002921, -0.34021989874285646 
4.480000000002898, -0.339842154876553 
4.490000000002874, -0.33941673098873804 
4.500000000002851, -0.3389370338425136 
4.510000000002828, -0.3383939606427252 
4.520000000002804, -0.3377705149293121 
4.530000000002781, -0.33703121091185567 
4.540000000002758, -0.33609706058722755 
4.5500000000027345, -0.3347861654009339 
4.560000000002711, -0.3326863435534239 
4.570000000002688, -0.32894773109509107 
4.580000000002665, -0.32217097908939163 
4.590000000002641, -0.3109814299578332 
4.600000000002618, -0.2956186618552409 
4.610000000002595, -0.2787804286653083 
4.620000000002571, -0.26377326477829055 
4.630000000002548, -0.25225601797474284 
4.640000000002525, -0.24414820409452448 
4.6500000000025015, -0.2386543532068925 
4.660000000002478, -0.2349659477362302 
4.670000000002455, -0.23247927037375113 
4.6800000000024315, -0.23079303497516118 
4.690000000002408, -0.22965436941276707 
4.700000000002385, -0.2289101460333728 
4.710000000002362, -0.22847413235461764 
4.720000000002338, -0.22830792006110512 
4.730000000002315, -0.22841227126740754 
4.740000000002292, -0.22882690406105258 
4.750000000002268, -0.22963848749019083 
4.760000000002245, -0.23099819127224244 
4.770000000002222, -0.23315089799045655 
4.7800000000021985, -0.23647552792421972 
4.790000000002175, -0.24152144352639646 
4.800000000002152, -0.24898045145561026 
4.810000000002129, -0.25944403919011616 
4.820000000002105, -0.2727731910512493 
4.830000000002082, -0.28736640962686316 
4.840000000002059, -0.30050186260302436 
4.850000000002035, -0.31015690481034325 
4.860000000002012, -0.3161896668382001 
