t, s[1].omega / s[0].omega 
0, -0.6699977043227971 
0.009999999999999995, -0.6697732459214017 
0.019999999999999934, -0.6695497303007397 
0.029999999999999874, -0.6693043499273238 
0.04000000000000012, -0.6690115969746395 
0.050000000000000405, -0.6686542500072508 
0.06000000000000069, -0.6682295117055286 
0.07000000000000098, -0.667750109755203 
0.08000000000000126, -0.6672438494865581 
0.09000000000000155, -0.6667553310400078 
0.10000000000000184, -0.6663516637393575 
0.11000000000000212, -0.6661320718758332 
0.12000000000000241, -0.6662399244173083 
0.130000000000002, -0.6668747240630185 
0.1400000000000009, -0.6683008561355643 
0.1499999999999998, -0.670849368567502 
0.1599999999999987, -0.6749078587721552 
0.1699999999999976, -0.680889423343091 
0.1799999999999965, -0.689162461514529 
0.1899999999999954, -0.6999133492875598 
0.1999999999999943, -0.7129280912257849 
0.2099999999999932, -0.7273660617190458 
0.2199999999999921, -0.7417569860071492 
0.229999999999991, -0.7544560313234688 
0.2399999999999899, -0.7643645098528391 
0.2499999999999888, -0.7713008161279722 
0.2599999999999877, -0.7757604329208354 
0.2699999999999866, -0.778444695294426 
0.2799999999999855, -0.7799549609749007 
0.2899999999999844, -0.7807057145998019 
0.2999999999999833, -0.7809465770458791 
0.3099999999999822, -0.7808062450350117 
0.3199999999999811, -0.7803241442837179 
0.32999999999998, -0.7794622293398067 
0.3399999999999789, -0.7780957307230439 
0.3499999999999778, -0.7759795442577492 
0.35999999999997667, -0.7726825056752169 
0.36999999999997557, -0.7674803386189801 
0.37999999999997447, -0.7592163708071881 
0.38999999999997337, -0.7462300747538881 
0.39999999999997227, -0.7266985764527556 
0.40999999999997117, -0.6999356756846737 
0.41999999999997006, -0.6682736062863578 
0.42999999999996896, -0.6370311718231834 
0.43999999999996786, -0.611293147565746 
0.44999999999996676, -0.5930492539813589 
0.45999999999996566, -0.5814853333704001 
0.46999999999996456, -0.5747313643517513 
0.47999999999996346, -0.5710427629296452 
0.48999999999996235, -0.569163709043964 
0.49999999999996125, -0.5682931208505753 
0.5099999999999602, -0.5679523989290008 
0.519999999999959, -0.5678664969262627 
0.529999999999958, -0.5678806788838509 
0.5399999999999568, -0.5679078989247743 
0.5499999999999557, -0.567897482066704 
0.5599999999999546, -0.5678178408753155 
0.5699999999999535, -0.5676487766167645 
0.5799999999999524, -0.5673807377627261 
0.5899999999999513, -0.5670184395223921 
0.5999999999999502, -0.5665845675940753 
0.6099999999999491, -0.5661180584392632 
0.619999999999948, -0.5656640289991467 
0.6299999999999469, -0.5652586523838784 
0.6399999999999458, -0.5649166701100461 
0.6499999999999447, -0.5646277782702278 
0.6599999999999436, -0.5643630221427763 
0.6699999999999425, -0.5640874389187818 
0.6799999999999414, -0.5637725995676999 
0.6899999999999403, -0.5634039019476805 
0.6999999999999392, -0.5629818886768113 
0.7099999999999381, -0.5625208728400539 
0.719999999999937, -0.5620491130641001 
0.7299999999999359, -0.5616136860796898 
0.7399999999999348, -0.5612923141575632 
0.7499999999999337, -0.5612147205991189 
0.7599999999999326, -0.5615973615149532 
0.7699999999999315, -0.56279675155202 
0.7799999999999304, -0.5653860094631448 
0.7899999999999293, -0.5702506339347281 
0.7999999999999282, -0.578666739367665 
0.8099999999999271, -0.5922375660979865 
0.819999999999926, -0.6124153523012129 
0.8299999999999249, -0.6393307797787233 
0.8399999999999238, -0.6704010215583708 
0.8499999999999227, -0.7005733714527991 
0.8599999999999216, -0.7251729436809403 
0.8699999999999205, -0.7425187344692383 
0.8799999999999194, -0.7536090013740441 
0.8899999999999183, -0.7603267552463782 
0.8999999999999172, -0.7642888914321573 
0.9099999999999161, -0.7665795648104128 
0.919999999999915, -0.7678521652675833 
0.9299999999999139, -0.7684792102735657 
0.9399999999999128, -0.7686597967926211 
0.9499999999999117, -0.768480804186757 
0.9599999999999106, -0.7679436507775568 
0.9699999999999095, -0.7669646910196755 
0.9799999999999084, -0.7653516302050347 
0.9899999999999073, -0.7627570400200921 
0.9999999999999062, -0.7586227221566597 
1.0099999999999052, -0.7521727513551816 
1.019999999999904, -0.7425872340791809 
1.029999999999903, -0.7294787785963456 
1.039999999999902, -0.7134749436622029 
1.0499999999999008, -0.696281763082949 
1.0599999999998997, -0.6799381082709927 
1.0699999999998986, -0.6659189848318999 
1.0799999999998975, -0.6548136678575609 
1.0899999999998964, -0.6465359677899645 
1.0999999999998953, -0.6406646128207938 
1.1099999999998942, -0.63668603063911 
1.119999999999893, -0.6341168538770272 
1.129999999999892, -0.6325506175834966 
1.1399999999998909, -0.6316674015107567 
1.1499999999998898, -0.6312274271918561 
1.1599999999998887, -0.6310582407156369 
1.1699999999998876, -0.6310400581932105 
1.1799999999998865, -0.6310919126767 
1.1899999999998854, -0.6311603454106584 
1.1999999999998843, -0.6312117099037617 
1.2099999999998832, -0.6312283538290583 
1.219999999999882, -0.6312076848368918 
1.229999999999881, -0.6311614674002725 
1.2399999999998799, -0.6311118278590441 
1.2499999999998788, -0.631082144377159 
1.2599999999998777, -0.6310851162619476 
1.2699999999998766, -0.6311137392312254 
1.2799999999998755, -0.6311406526964072 
1.2899999999998744, -0.631127137403514 
1.2999999999998733, -0.6310371985516566 
1.3099999999998722, -0.6308489952278882 
1.319999999999871, -0.6305587449748793 
1.32999999999987, -0.6301785546376366 
1.3399999999998689, -0.6297334238743316 
1.3499999999998678, -0.629262128320831 
1.3599999999998666, -0.6288246233231672 
1.3699999999998655, -0.6285175104781946 
1.3799999999998644, -0.6284991331779624 
1.3899999999998633, -0.629025942948897 
1.3999999999998622, -0.6305005313255283 
1.4099999999998611, -0.6335270398231302 
1.41999999999986, -0.6389569699253916 
1.429999999999859, -0.6478785916326213 
1.4399999999998578, -0.6614473640207845 
1.4499999999998567, -0.6804023626586282 
1.4599999999998556, -0.7042274348540555 
1.4699999999998545, -0.7304559416546097 
1.4799999999998534, -0.7552115902926956 
1.4899999999998523, -0.7751978688693022 
1.4999999999998512, -0.7893014640639804 
1.5099999999998501, -0.7983261985101107 
1.519999999999849, -0.8037556690519289 
1.529999999999848, -0.8068965114531388 
1.5399999999998468, -0.8086413426325676 
1.5499999999998457, -0.8095294766870786 
1.5599999999998446, -0.8098618814704762 
1.5699999999998435, -0.8097873720088964 
1.5799999999998424, -0.809349969330394 
1.5899999999998413, -0.808503672444802 
1.5999999999998402, -0.8070978942602081 
1.6099999999998391, -0.8048294873068341 
1.619999999999838, -0.8011517359876319 
1.629999999999837, -0.7951392784108819 
1.6399999999998358, -0.7853682268553928 
1.6499999999998347, -0.7700456544337981 
1.6599999999998336, -0.7478359665362746 
1.6699999999998325, -0.7194542751193973 
1.6799999999998314, -0.6885711996539203 
1.6899999999998303, -0.6601733167139064 
1.6999999999998292, -0.6376716361076642 
1.709999999999828, -0.6217980481640635 
1.719999999999827, -0.6115224971694435 
1.729999999999826, -0.605296519423631 
1.7399999999998248, -0.6017383194934726 
1.7499999999998237, -0.599829059347138 
1.7599999999998226, -0.598886941640261 
1.7699999999998215, -0.5984813895546276 
1.7799999999998204, -0.5983507081658336 
1.7899999999998193, -0.5983395952132607 
1.7999999999998182, -0.5983563439523538 
1.809999999999817, -0.5983455256325106 
1.819999999999816, -0.598272123496922 
1.8299999999998149, -0.5981142946135981 
1.8399999999998138, -0.5978626546223677 
1.8499999999998127, -0.5975232974070851 
1.8599999999998116, -0.5971199430848094 
1.8699999999998105, -0.5966900933882512 
1.8799999999998094, -0.5962736389324707 
1.8899999999998083, -0.5958984677050295 
1.8999999999998072, -0.5955706580579295 
1.909999999999806, -0.5952742063230503 
1.919999999999805, -0.5949798080751643 
1.9299999999998039, -0.5946576664995195 
1.9399999999998028, -0.5942879974248128 
1.9499999999998017, -0.5938657370236912 
1.9599999999998006, -0.5934006566182818 
1.9699999999997995, -0.5929168293574751 
1.9799999999997984, -0.59245513286219 
1.9899999999997973, -0.5920810792118034 
1.9999999999997962, -0.5918994549140695 
2.0099999999998173, -0.5920772564071936 
2.0199999999998384, -0.5928765814422863 
2.0299999999998595, -0.5946984465351572 
2.0399999999998806, -0.5981348428940221 
2.0499999999999017, -0.6040145272578779 
2.059999999999923, -0.6133972406388911 
2.069999999999944, -0.6274095925238676 
2.079999999999965, -0.6467533412999439 
2.089999999999986, -0.6708353623944907 
2.100000000000007, -0.697065087567203 
2.1100000000000283, -0.7214965368643583 
2.1200000000000494, -0.740939387974976 
2.1300000000000705, -0.7544912695721216 
2.1400000000000916, -0.7630975888374192 
2.1500000000001127, -0.7682651320090019 
2.160000000000134, -0.7712628999495836 
2.170000000000155, -0.772938711150658 
2.180000000000176, -0.7737993862046373 
2.190000000000197, -0.7741263911015569 
2.2000000000002182, -0.7740579209417631 
2.2100000000002393, -0.7736325680062502 
2.2200000000002604, -0.7728017732333228 
2.2300000000002815, -0.7714143552513187 
2.2400000000003026, -0.7691702073938643 
2.2500000000003237, -0.7655391505713889 
2.260000000000345, -0.7596614054260165 
2.270000000000366, -0.7503241219478378 
2.280000000000387, -0.7362554046416155 
2.290000000000408, -0.7169783659757485 
2.3000000000004293, -0.6938303056344599 
2.3100000000004504, -0.669888083273616 
2.3200000000004715, -0.6483879891499202 
2.3300000000004926, -0.6311946891177621 
2.3400000000005137, -0.6185892063142149 
2.3500000000005348, -0.6099188979483153 
2.360000000000556, -0.604247170966102 
2.370000000000577, -0.6007016342365559 
2.380000000000598, -0.5985904819176382 
2.390000000000619, -0.5974082205910688 
2.4000000000006403, -0.5968035620199451 
2.4100000000006614, -0.5965409375576255 
2.4200000000006825, -0.596466560342984 
2.4300000000007036, -0.5964818413289887 
2.4400000000007247, -0.5965242060612782 
2.450000000000746, -0.5965546068595486 
2.460000000000767, -0.5965508602120584 
2.470000000000788, -0.5965055557945087 
2.480000000000809, -0.5964262056295346 
2.49000000000083, -0.5963339878570687 
2.5000000000008513, -0.5962576506291914 
2.5100000000008724, -0.5962222520504582 
2.5200000000008935, -0.5962368203995536 
2.5300000000009146, -0.596287188102709 
2.5400000000009357, -0.5963384938056292 
2.550000000000957, -0.5963469532951964 
2.560000000000978, -0.5962748835024624 
2.570000000000999, -0.596101023191029 
2.58000000000102, -0.5958224802226643 
2.5900000000010412, -0.5954511194559915 
2.6000000000010624, -0.595010047367471 
2.6100000000010835, -0.594534629784608 
2.6200000000011046, -0.5940806198709268 
2.6300000000011257, -0.5937417099548887 
2.6400000000011468, -0.5936801275787729 
2.650000000001168, -0.5941757688163312 
2.660000000001189, -0.5957000806543553 
2.67000000000121, -0.5990161285045168 
2.680000000001231, -0.6052841619037597 
2.6900000000012523, -0.6160865351922485 
2.7000000000012734, -0.6331504372610299 
2.7100000000012945, -0.6574334263816528 
2.7200000000013156, -0.6876190916825071 
2.7300000000013367, -0.719399289532539 
2.740000000001358, -0.7473888331042564 
2.750000000001379, -0.768379897143919 
2.7600000000014, -0.7823512251319081 
2.770000000001421, -0.7909919982727417 
2.780000000001442, -0.7961310688525681 
2.7900000000014633, -0.799117014820846 
2.8000000000014844, -0.8008002881156543 
2.8100000000015055, -0.801678396106737 
2.8200000000015266, -0.8020262939825743 
2.8300000000015477, -0.8019788402578276 
2.840000000001569, -0.8015725683400365 
2.85000000000159, -0.8007564672659276 
2.860000000001611, -0.7993752559271512 
2.870000000001632, -0.797122812796208 
2.8800000000016532, -0.7934647152303151 
2.8900000000016743, -0.7875543502129398 
2.9000000000016954, -0.778247582444495 
2.9100000000017165, -0.7644421435522881 
2.9200000000017377, -0.7458925552616934 
2.9300000000017588, -0.7240210861007229 
2.94000000000178, -0.7016672657836054 
2.950000000001801, -0.6816706778949491 
2.960000000001822, -0.6656474907959875 
2.970000000001843, -0.6538581325603943 
2.9800000000018643, -0.6457436544526124 
2.9900000000018854, -0.6404661426185945 
3.0000000000019065, -0.6372168529743532 
3.0100000000019276, -0.6353352071875465 
3.0200000000019487, -0.6343284556922735 
3.03000000000197, -0.6338507466902347 
3.040000000001991, -0.6336702893226455 
3.050000000002012, -0.6336370004291949 
3.060000000002033, -0.6336555335122247 
3.070000000002054, -0.6336652357703585 
3.0800000000020753, -0.6336271431818536 
3.0900000000020964, -0.6335175314380768 
3.1000000000021175, -0.6333268718836598 
3.1100000000021386, -0.6330615591988843 
3.1200000000021597, -0.6327439780702964 
3.130000000002181, -0.6324067153064117 
3.140000000002202, -0.6320807811124277 
3.150000000002223, -0.6317830484663055 
3.160000000002244, -0.6315097722351981 
3.1700000000022652, -0.6312396437554688 
3.1800000000022863, -0.6309443342271195 
3.1900000000023074, -0.6306005709521556 
3.2000000000023285, -0.6301980753744 
3.2100000000023496, -0.6297418720045471 
3.2200000000023707, -0.6292517758323963 
3.230000000002392, -0.6287631123830528 
3.240000000002413, -0.6283314583907478 
3.250000000002434, -0.6280425610110889 
3.260000000002455, -0.6280275994317662 
3.2700000000024763, -0.6284833162683948 
3.2800000000024974, -0.6296956609094667 
3.2900000000025185, -0.6320637955294296 
3.3000000000025396, -0.6361172317082732 
3.3100000000025607, -0.642509216452354 
3.3200000000025818, -0.6519493894647231 
3.330000000002603, -0.6650101419592854 
3.340000000002624, -0.6817425732800537 
3.350000000002645, -0.701181118811307 
3.360000000002666, -0.7211655311489198 
3.3700000000026873, -0.739037786444761 
3.3800000000027084, -0.752951762732434 
3.3900000000027295, -0.7625809008486508 
3.4000000000027506, -0.7686960043228932 
3.4100000000027717, -0.7723614294511392 
3.420000000002793, -0.7744581636681361 
3.430000000002814, -0.7755763125546853 
3.440000000002835, -0.7760678094246916 
3.450000000002856, -0.7761213657226926 
3.460000000002877, -0.7758145766486285 
3.4700000000028983, -0.7751375941500942 
3.4800000000029194, -0.7739901683029969 
3.4900000000029405, -0.7721499261590384 
3.5000000000029616, -0.7692034575150389 
3.5100000000029827, -0.764431006938546 
3.520000000003004, -0.75666406808778 
3.530000000003025, -0.7442514780722486 
3.540000000003046, -0.7255073553604212 
3.550000000003067, -0.7000297943901067 
3.5600000000030882, -0.6701913928004584 
3.5700000000031094, -0.6406798354852035 
3.5800000000031305, -0.6157586077800504 
3.5900000000031516, -0.5972087736695858 
3.6000000000031727, -0.5846021867884129 
3.6100000000031938, -0.5765677184132463 
3.620000000003215, -0.5716934788493198 
3.630000000003236, -0.5688674619169707 
3.640000000003257, -0.5673117009631736 
3.650000000003278, -0.5665148402100504 
3.6600000000032993, -0.5661530302772516 
3.6700000000033204, -0.5660260209549787 
3.6800000000033415, -0.5660116904598056 
3.6900000000033626, -0.5660357890029952 
3.7000000000033837, -0.5660530595310502 
3.710000000003405, -0.566036794266233 
3.720000000003426, -0.5659746810045279 
3.730000000003447, -0.5658687159337645 
3.740000000003468, -0.5657359034875019 
3.750000000003489, -0.565605633784682 
3.7600000000035103, -0.5655111327053169 
3.7700000000035314, -0.5654765579634253 
3.7800000000035525, -0.5655052191593095 
3.7900000000035736, -0.5655749956966568 
3.8000000000035947, -0.5656441177679586 
3.810000000003616, -0.5656652395893764 
3.820000000003637, -0.5656006067428232 
3.830000000003658, -0.565430638001812 
3.840000000003679, -0.565153778156023 
3.8500000000037002, -0.5647816581451202 
3.8600000000037213, -0.5643352828927221 
3.8700000000037424, -0.5638461758637884 
3.8800000000037635, -0.5633648282604271 
3.8900000000037847, -0.5629792362997343 
3.9000000000038058, -0.5628485930658924 
3.910000000003827, -0.5632604550633449 
3.920000000003848, -0.5647217788748866 
3.930000000003869, -0.5680876749961115 
3.94000000000389, -0.5746940313634392 
3.9500000000039113, -0.5863433547865717 
3.9600000000039324, -0.6047749420435553 
3.9700000000039535, -0.6302299687472014 
3.9800000000039746, -0.6598078512572617 
3.9900000000039957, -0.6880928828665077 
4.000000000004016, -0.7106734331537254 
4.010000000003993, -0.7264836660267451 
4.02000000000397, -0.7367742567362476 
4.030000000003946, -0.7432620842775267 
4.040000000003923, -0.7472966054193834 
4.0500000000039, -0.7497743250395954 
4.0600000000038765, -0.7512568823125669 
4.070000000003853, -0.7520858123855146 
4.08000000000383, -0.7524601330451482 
4.090000000003807, -0.7524826832290824 
4.100000000003783, -0.752183676387639 
4.11000000000376, -0.7515267733551895 
4.120000000003737, -0.75040060224127 
4.130000000003713, -0.7485997627377201 
4.14000000000369, -0.7458086143553126 
4.150000000003667, -0.7416232216533324 
4.1600000000036434, -0.735668670524187 
4.17000000000362, -0.7278314734609587 
4.180000000003597, -0.7184784607260895 
4.1900000000035735, -0.7084258949017289 
4.20000000000355, -0.6986181257132711 
4.210000000003527, -0.6897826656542813 
4.220000000003504, -0.6822978615641101 
4.23000000000348, -0.676252257554603 
4.240000000003457, -0.6715617805108297 
4.250000000003434, -0.668062177078278 
4.26000000000341, -0.6655618984340298 
4.270000000003387, -0.6638681527664264 
4.280000000003364, -0.6627999832134999 
4.2900000000033405, -0.6621960148997691 
4.300000000003317, -0.6619193084456715 
4.310000000003294, -0.6618594115941427 
4.320000000003271, -0.6619315821470806 
4.330000000003247, -0.6620739644026917 
4.340000000003224, -0.6622441517979377 
4.350000000003201, -0.6624164955009819 
4.360000000003177, -0.6625805658832113 
4.370000000003154, -0.6627395813523739 
4.380000000003131, -0.6629063769502915 
4.390000000003107, -0.6630951696824245 
4.400000000003084, -0.6633104997881509 
4.410000000003061, -0.6635382947546254 
4.4200000000030375, -0.6637448687983081 
4.430000000003014, -0.6638861128161178 
4.440000000002991, -0.6639225498702219 
4.450000000002968, -0.6638315917334003 
4.460000000002944, -0.663611153884406 
4.470000000002921, -0.6632761757929388 
4.480000000002898, -0.6628541521809163 
4.490000000002874, -0.662385049051131 
4.500000000002851, -0.6619283421381028 
4.510000000002828, -0.6615783973474634 
4.520000000002804, -0.6614890786076065 
4.530000000002781, -0.6619079243643892 
4.540000000002758, -0.6632180379856991 
4.5500000000027345, -0.6659805541797358 
4.560000000002711, -0.6709597593890535 
4.570000000002688, -0.6790920303698844 
4.580000000002665, -0.6913253658681314 
4.590000000002641, -0.7082302832394463 
4.600000000002618, -0.7293678077981186 
4.610000000002595, -0.7527567059971669 
4.620000000002571, -0.7752038755102151 
4.630000000002548, -0.7937758954951817 
4.640000000002525, -0.8072168082860889 
4.6500000000025015, -0.8159896075187293 
4.660000000002478, -0.8213287170910103 
4.670000000002455, -0.8244272476217465 
4.6800000000024315, -0.8261404858319554 
4.690000000002408, -0.826998768694897 
4.700000000002385, -0.8273018261948382 
4.710000000002362, -0.827198776659167 
4.720000000002338, -0.8267346228575553 
4.730000000002315, -0.8258662886964669 
4.740000000002292, -0.8244513744205092 
4.750000000002268, -0.8222071674996003 
4.760000000002245, -0.8186322787697049 
4.770000000002222, -0.8128864724920104 
4.7800000000021985, -0.8036600018399213 
4.790000000002175, -0.7891883456609999 
4.800000000002152, -0.7678095837347377 
4.810000000002129, -0.7394551405173386 
4.820000000002105, -0.7072393800971937 
4.830000000002082, -0.6766987857604652 
4.840000000002059, -0.6524219028666893 
4.850000000002035, -0.6357825913412312 
4.860000000002012, -0.6256274210733195 
4.870000000001989, -0.6199874216993059 
4.880000000001965, -0.6171272773905757 
4.890000000001942, -0.6158348657385398 
4.900000000001919, -0.6153590742904292 
4.9100000000018955, -0.6152671120555732 
4.920000000001872, -0.6153213400298834 
