t, s[1].omega / s[0].omega 
0, -1.199998037579183 
0.009999999999999995, -1.1996524334053336 
0.019999999999999934, -1.1990181021417026 
0.029999999999999874, -1.1981340695634086 
0.04000000000000012, -1.1971006906568595 
0.050000000000000405, -1.196083868757412 
0.06000000000000069, -1.1952999487087772 
0.07000000000000098, -1.1949226751926545 
0.08000000000000126, -1.194859453350152 
0.09000000000000155, -1.1947926958643709 
0.10000000000000184, -1.1944142541487783 
0.11000000000000212, -1.1934220715097759 
0.12000000000000241, -1.1914798864254343 
0.130000000000002, -1.1883546194963368 
0.1400000000000009, -1.184039713417648 
0.1499999999999998, -1.1787421220139835 
0.1599999999999987, -1.1731006708617449 
0.1699999999999976, -1.1685910211981019 
0.1799999999999965, -1.1665316594787694 
0.1899999999999954, -1.1662531065447848 
0.1999999999999943, -1.1663488199783763 
0.2099999999999932, -1.166149390353365 
0.2199999999999921, -1.1652543198762473 
0.229999999999991, -1.1626713467580425 
0.2399999999999899, -1.1555946544535898 
0.2499999999999888, -1.1381883859359316 
0.2599999999999877, -1.1049214087401427 
0.2699999999999866, -1.0615344308482721 
0.2799999999999855, -1.0272561589785518 
0.2899999999999844, -1.013067607023747 
0.2999999999999833, -1.0109736920527568 
0.3099999999999822, -1.0116984809256213 
0.3199999999999811, -1.0122640650218246 
0.32999999999998, -1.0123077337096582 
0.3399999999999789, -1.011740451293607 
0.3499999999999778, -1.0100053323890954 
0.35999999999997667, -1.005184400027327 
0.36999999999997557, -0.9921429068983691 
0.37999999999997447, -0.9626362616104539 
0.38999999999997337, -0.916515836248161 
0.39999999999997227, -0.8708298054951226 
0.40999999999997117, -0.8413278867275634 
0.41999999999997006, -0.8284082935569758 
0.42999999999996896, -0.8247082718701862 
0.43999999999996786, -0.8242713152415908 
0.44999999999996676, -0.8244890055622156 
0.45999999999996566, -0.8245955955167236 
0.46999999999996456, -0.824384681322607 
0.47999999999996346, -0.8236730233613329 
0.48999999999996235, -0.8221345749042125 
0.49999999999996125, -0.8194257400859748 
0.5099999999999602, -0.8156312522122218 
0.519999999999959, -0.8114028038216279 
0.529999999999958, -0.8074051645744917 
0.5399999999999568, -0.8039602439670704 
0.5499999999999557, -0.8011790922789276 
0.5599999999999546, -0.7991240794878721 
0.5699999999999535, -0.7978189096634651 
0.5799999999999524, -0.7971813866007191 
0.5899999999999513, -0.7970077951199065 
0.5999999999999502, -0.797054143603477 
0.6099999999999491, -0.7971264369037391 
0.619999999999948, -0.7971106846687499 
0.6299999999999469, -0.7969726145879206 
0.6399999999999458, -0.7967472939240371 
0.6499999999999447, -0.7964880020838049 
0.6599999999999436, -0.7962021158843339 
0.6699999999999425, -0.795853453883767 
0.6799999999999414, -0.7954243875292308 
0.6899999999999403, -0.7949624371383442 
0.6999999999999392, -0.794589303959186 
0.7099999999999381, -0.7944862239017059 
0.719999999999937, -0.79484019831084 
0.7299999999999359, -0.7957654324851092 
0.7399999999999348, -0.7972735327428673 
0.7499999999999337, -0.7993179520241342 
0.7599999999999326, -0.8018460897338109 
0.7699999999999315, -0.8047713914413732 
0.7799999999999304, -0.8078306587000166 
0.7899999999999293, -0.8104980819208879 
0.7999999999999282, -0.8122890453506034 
0.8099999999999271, -0.8131587566802987 
0.819999999999926, -0.8133696245435824 
0.8299999999999249, -0.8131684175997614 
0.8399999999999238, -0.8127213032211041 
0.8499999999999227, -0.8123175540371927 
0.8599999999999216, -0.8129618639736205 
0.8699999999999205, -0.8175174177573821 
0.8799999999999194, -0.8314131308096868 
0.8899999999999183, -0.8599787434100625 
0.8999999999999172, -0.9011426653481631 
0.9099999999999161, -0.9409731646514009 
0.919999999999915, -0.965883395005469 
0.9299999999999139, -0.9767214785675167 
0.9399999999999128, -0.9805740490308918 
0.9499999999999117, -0.9817616206428385 
0.9599999999999106, -0.981901199618229 
0.9699999999999095, -0.9814488091438879 
0.9799999999999084, -0.9804319798567585 
0.9899999999999073, -0.979105595407902 
0.9999999999999062, -0.9804269398199732 
1.0099999999999052, -0.9956392278680553 
1.019999999999904, -1.039018243849334 
1.029999999999903, -1.0987618507135584 
1.039999999999902, -1.143565240217761 
1.0499999999999008, -1.1647822786798243 
1.0599999999998997, -1.1723881830543772 
1.0699999999998986, -1.1747441264266116 
1.0799999999998975, -1.1752795881162437 
1.0899999999998964, -1.1750856794639315 
1.0999999999998953, -1.1745564225692493 
1.1099999999998942, -1.1743849299330442 
1.119999999999893, -1.1762621543069651 
1.129999999999892, -1.1812026885738989 
1.1399999999998909, -1.1876102555680084 
1.1499999999998898, -1.1935447409378506 
1.1599999999998887, -1.198181349061615 
1.1699999999998876, -1.2013047955849698 
1.1799999999998865, -1.203008966133735 
1.1899999999998854, -1.2036498902579207 
1.1999999999998843, -1.2036440514274016 
1.2099999999998832, -1.2033249349453068 
1.219999999999882, -1.203021662997546 
1.229999999999881, -1.2030720052751882 
1.2399999999998799, -1.2035570124551598 
1.2499999999998788, -1.2042696571184588 
1.2599999999998777, -1.204976854901507 
1.2699999999998766, -1.2055152362023787 
1.2799999999998755, -1.2057931349464934 
1.2899999999998744, -1.2057769458362997 
1.2999999999998733, -1.2054600627724188 
1.3099999999998722, -1.204850353854864 
1.319999999999871, -1.2039925692145568 
1.32999999999987, -1.2029951370696732 
1.3399999999998689, -1.2020278634915567 
1.3499999999998678, -1.201301755696491 
1.3599999999998666, -1.2009720225783644 
1.3699999999998655, -1.20092590916794 
1.3799999999998644, -1.200845992091461 
1.3899999999998633, -1.2004297444350058 
1.3999999999998622, -1.1993736997363766 
1.4099999999998611, -1.1973477182581818 
1.41999999999986, -1.1941380900911822 
1.429999999999859, -1.1897499565274825 
1.4399999999998578, -1.1844023373535795 
1.4499999999998567, -1.178804708408867 
1.4599999999998556, -1.1745277011481678 
1.4699999999998545, -1.1727509583138038 
1.4799999999998534, -1.1725873133832996 
1.4899999999998523, -1.1726717567038376 
1.4999999999998512, -1.1724081424701776 
1.5099999999998501, -1.171364741073637 
1.519999999999849, -1.168364205468339 
1.529999999999848, -1.1600816389932256 
1.5399999999998468, -1.1397892309260154 
1.5499999999998457, -1.1019705257027332 
1.5599999999998446, -1.0553793480307756 
1.5699999999998435, -1.022071836458329 
1.5799999999998424, -1.0102106457627893 
1.5899999999998413, -1.0090879033122087 
1.5999999999998402, -1.0099408293938799 
1.6099999999998391, -1.0104555642891568 
1.619999999999838, -1.010428059981554 
1.629999999999837, -1.0097492331375688 
1.6399999999998358, -1.0077442150731004 
1.6499999999998347, -1.002149978562258 
1.6599999999998336, -0.987065959441439 
1.6699999999998325, -0.9538549334544524 
1.6799999999998314, -0.9045603984506972 
1.6899999999998303, -0.8587254226263037 
1.6999999999998292, -0.8309326026408234 
1.709999999999828, -0.8194566117746979 
1.719999999999827, -0.8163766921764641 
1.729999999999826, -0.8160916130066502 
1.7399999999998248, -0.8163124196442154 
1.7499999999998237, -0.8163910515471422 
1.7599999999998226, -0.8161423634613492 
1.7699999999998215, -0.8153777216644168 
1.7799999999998204, -0.8137765250640604 
1.7899999999998193, -0.8110523698008437 
1.7999999999998182, -0.8073780550632094 
1.809999999999817, -0.8034076109509684 
1.819999999999816, -0.7997219455074993 
1.8299999999998149, -0.796573700827811 
1.8399999999998138, -0.7940437751532027 
1.8499999999998127, -0.7921817090240456 
1.8599999999998116, -0.7910058417346122 
1.8699999999998105, -0.790441166445689 
1.8799999999998094, -0.7903047833685903 
1.8899999999998083, -0.790375997209895 
1.8999999999998072, -0.7904773571371938 
1.909999999999806, -0.7905062283761383 
1.919999999999805, -0.7904371592013535 
1.9299999999998039, -0.790305841866478 
1.9399999999998028, -0.790152589321205 
1.9499999999998017, -0.7899654198057011 
1.9599999999998006, -0.7896954669344411 
1.9699999999997995, -0.7893239448201965 
1.9799999999997984, -0.7889034222769751 
1.9899999999997973, -0.7885646984761868 
1.9999999999997962, -0.7885100669953582 
2.0099999999998173, -0.7889659235177314 
2.0199999999998384, -0.7900934403364039 
2.0299999999998595, -0.7919396882218839 
2.0399999999998806, -0.7944767332861169 
2.0499999999999017, -0.7976548567374738 
2.059999999999923, -0.8013523479621147 
2.069999999999944, -0.8051832440327852 
2.079999999999965, -0.8084326431385542 
2.089999999999986, -0.8105343490303283 
2.100000000000007, -0.8115297357787692 
2.1100000000000283, -0.8117846535231652 
2.1200000000000494, -0.8115876590182858 
2.1300000000000705, -0.8110943702198335 
2.1400000000000916, -0.8105390176029019 
2.1500000000001127, -0.8108956459251434 
2.160000000000134, -0.815511283361416 
2.170000000000155, -0.832101899870841 
2.180000000000176, -0.8700164669301925 
2.190000000000197, -0.9264536581665057 
2.2000000000002182, -0.9778623435458984 
2.2100000000002393, -1.006436507038712 
2.2200000000002604, -1.0175966886599295 
2.2300000000002815, -1.0213005481213164 
2.2400000000003026, -1.0223793520982543 
2.2500000000003237, -1.0224492628960054 
2.260000000000345, -1.021930935558695 
2.270000000000366, -1.0208657412515576 
2.280000000000387, -1.0198274370621152 
2.290000000000408, -1.023010632506292 
2.3000000000004293, -1.0415828384011854 
2.3100000000004504, -1.0811039020178461 
2.3200000000004715, -1.1250969492541 
2.3300000000004926, -1.1549689017575409 
2.3400000000005137, -1.1690173205674215 
2.3500000000005348, -1.1742016729732934 
2.360000000000556, -1.1758112883864233 
2.370000000000577, -1.1760889810734154 
2.380000000000598, -1.175794662523149 
2.390000000000619, -1.1753271184992249 
2.4000000000006403, -1.1755567019382507 
2.4100000000006614, -1.177862911613866 
2.4200000000006825, -1.1822620273233762 
2.4300000000007036, -1.187213371987883 
2.4400000000007247, -1.191571736799355 
2.450000000000746, -1.1949249886044258 
2.460000000000767, -1.1971521661972464 
2.470000000000788, -1.198316246877817 
2.480000000000809, -1.1986695913191094 
2.49000000000083, -1.1985210065269603 
2.5000000000008513, -1.1981542168939392 
2.5100000000008724, -1.1978820299671007 
2.5200000000008935, -1.1979646328295062 
2.5300000000009146, -1.1983948189199187 
2.5400000000009357, -1.1989816027779636 
2.550000000000957, -1.1995312248416372 
2.560000000000978, -1.1998953056217572 
2.570000000000999, -1.1999906620722003 
2.58000000000102, -1.1997906503655527 
2.5900000000010412, -1.1992947677335135 
2.6000000000010624, -1.1985168464288187 
2.6100000000010835, -1.1975086219776934 
2.6200000000011046, -1.1963875239636415 
2.6300000000011257, -1.1953422425450146 
2.6400000000011468, -1.1946144634557032 
2.650000000001168, -1.1943312337499805 
2.660000000001189, -1.1942941414349766 
2.67000000000121, -1.1941555655768574 
2.680000000001231, -1.193607957471737 
2.6900000000012523, -1.1923108446757589 
2.7000000000012734, -1.1898882309289132 
2.7100000000012945, -1.1861195249564889 
2.7200000000013156, -1.181051057517612 
2.7300000000013367, -1.1750163659514306 
2.740000000001358, -1.1690086439082739 
2.750000000001379, -1.1648636227617721 
2.7600000000014, -1.1634294049532408 
2.770000000001421, -1.1634009099709188 
2.780000000001442, -1.1634679350993662 
2.7900000000014633, -1.1631258208665645 
2.8000000000014844, -1.1619026309304141 
2.8100000000015055, -1.1584161706677003 
2.8200000000015266, -1.1488625977603402 
2.8300000000015477, -1.1260844854215628 
2.840000000001569, -1.0857363183301931 
2.85000000000159, -1.0393471629414652 
2.860000000001611, -1.008656672238291 
2.870000000001632, -0.9985469776982858 
2.8800000000016532, -0.9977894049924156 
2.8900000000016743, -0.9985998150340755 
2.9000000000016954, -0.9990513537448626 
2.9100000000017165, -0.998976267816444 
2.9200000000017377, -0.9982358015599311 
2.9300000000017588, -0.9961033037080949 
2.94000000000178, -0.9902722052367571 
2.950000000001801, -0.9752377160004353 
2.960000000001822, -0.9443990182359903 
2.970000000001843, -0.9015840075422463 
2.9800000000018643, -0.8628788391517288 
2.9900000000018854, -0.8391138152586203 
3.0000000000019065, -0.8289873834413013 
3.0100000000019276, -0.8261766165304266 
3.0200000000019487, -0.8258978674785623 
3.03000000000197, -0.8260892150383177 
3.040000000001991, -0.8261390682996483 
3.050000000002012, -0.8258569774306679 
3.060000000002033, -0.825040601407825 
3.070000000002054, -0.8233625212901848 
3.0800000000020753, -0.8205622441731303 
3.0900000000020964, -0.8168592594760731 
3.1000000000021175, -0.8129082710572377 
3.1100000000021386, -0.8092535474340384 
3.1200000000021597, -0.8061301490650437 
3.130000000002181, -0.8036268577687943 
3.140000000002202, -0.8018064171084031 
3.150000000002223, -0.8006879116517547 
3.160000000002244, -0.8001793491482623 
3.1700000000022652, -0.8000763395137024 
3.1800000000022863, -0.8001484859982366 
3.1900000000023074, -0.8002204019686037 
3.2000000000023285, -0.8001953947461597 
3.2100000000023496, -0.8000552518915571 
3.2200000000023707, -0.7998427103214734 
3.230000000002392, -0.7996017054108978 
3.240000000002413, -0.7993238282570413 
3.250000000002434, -0.7989698941762712 
3.260000000002455, -0.7985347306565767 
3.2700000000024763, -0.7980837193751099 
3.2800000000024974, -0.7977558955478653 
3.2900000000025185, -0.7977426662415381 
3.3000000000025396, -0.7982233834507182 
3.3100000000025607, -0.7992889026543244 
3.3200000000025818, -0.8009296686058042 
3.330000000002603, -0.8030910860972919 
3.340000000002624, -0.8057157087274626 
3.350000000002645, -0.808689222578469 
3.360000000002666, -0.8116867873870978 
3.3700000000026873, -0.8141563404684935 
3.3800000000027084, -0.8157015977945534 
3.3900000000027295, -0.8163807285036044 
3.4000000000027506, -0.8164719462448968 
3.4100000000027717, -0.8161976615963282 
3.420000000002793, -0.8157281946860921 
3.430000000002814, -0.8154588685622809 
3.440000000002835, -0.8167208945147794 
3.450000000002856, -0.8228978781341386 
3.460000000002877, -0.8394452838558115 
3.4700000000028983, -0.8701416464363451 
3.4800000000029194, -0.9102446444554669 
3.4900000000029405, -0.9454139522831857 
3.5000000000029616, -0.9656365518992576 
3.5100000000029827, -0.9740205962035486 
3.520000000003004, -0.9769388800347371 
3.530000000003025, -0.9777838953140017 
3.540000000003046, -0.9777634853052745 
3.550000000003067, -0.9771841534940072 
3.5600000000030882, -0.976048033017176 
3.5700000000031094, -0.9749042006261639 
3.5800000000031305, -0.9780963551274524 
3.5900000000031516, -0.9989332691583557 
3.6000000000031727, -1.0484418410344516 
3.6100000000031938, -1.107407935781031 
3.620000000003215, -1.1468125547505097 
3.630000000003236, -1.1640874267559476 
3.640000000003257, -1.170040645756732 
3.650000000003278, -1.1718260207990925 
3.6600000000032993, -1.1721511664526187 
3.6700000000033204, -1.1718548249747163 
3.6800000000033415, -1.1713071418236312 
3.6900000000033626, -1.1713949647315 
3.7000000000033837, -1.173964173052296 
3.710000000003405, -1.1795651698294727 
3.720000000003426, -1.1862291717044897 
3.730000000003447, -1.1921531558600837 
3.740000000003468, -1.1966487069963612 
3.750000000003489, -1.1995607748700414 
3.7600000000035103, -1.2010582622779504 
3.7700000000035314, -1.2015541172456288 
3.7800000000035525, -1.2014676884228896 
3.7900000000035736, -1.2011267202961704 
3.8000000000035947, -1.2008759568145841 
3.810000000003616, -1.201036934932235 
3.820000000003637, -1.2016229944559103 
3.830000000003658, -1.2023931264870569 
3.840000000003679, -1.2031188079232265 
3.8500000000037002, -1.2036506310564767 
3.8600000000037213, -1.2039119024234641 
3.8700000000037424, -1.2038770347049317 
3.8800000000037635, -1.2035409104161068 
3.8900000000037847, -1.2029159426953588 
3.9000000000038058, -1.2020596948789213 
3.910000000003827, -1.201095834692394 
3.920000000003848, -1.2002012338278512 
3.930000000003869, -1.1995770026615904 
3.94000000000389, -1.1993344048313028 
3.9500000000039113, -1.1993146470016198 
3.9600000000039324, -1.1992038083905563 
3.9700000000039535, -1.198714748185269 
3.9800000000039746, -1.197555334762697 
3.9900000000039957, -1.1954395494303098 
4.000000000004016, -1.192227207743754 
4.010000000003993, -1.1879703155890735 
4.02000000000397, -1.1829145649369712 
4.030000000003946, -1.177815685014103 
4.040000000003923, -1.1741722771025005 
4.0500000000039, -1.1728236267589371 
4.0600000000038765, -1.1727572276053821 
4.070000000003853, -1.1727948455782935 
4.08000000000383, -1.1724314624807621 
4.090000000003807, -1.171175365322959 
4.100000000003783, -1.1676423213230165 
4.11000000000376, -1.1582110424861978 
4.120000000003737, -1.1365841790054003 
4.130000000003713, -1.099592256486364 
4.14000000000369, -1.0577751196500083 
4.150000000003667, -1.0303980906620682 
4.1600000000036434, -1.0217473345841463 
4.17000000000362, -1.021355254755237 
4.180000000003597, -1.0221681228380048 
4.1900000000035735, -1.0225575161536744 
4.20000000000355, -1.0224024586705636 
4.210000000003527, -1.0215092238135732 
4.220000000003504, -1.0189448213009988 
4.23000000000348, -1.0117021964443638 
4.240000000003457, -0.9923555723094055 
4.250000000003434, -0.952001576956968 
4.26000000000341, -0.8974498103706092 
4.270000000003387, -0.8521299802823052 
4.280000000003364, -0.8278112377382811 
4.2900000000033405, -0.8190789867565462 
4.300000000003317, -0.817198135510778 
4.310000000003294, -0.8172349625004705 
4.320000000003271, -0.8174733520044949 
4.330000000003247, -0.8174834026899558 
4.340000000003224, -0.8171143043363158 
4.350000000003201, -0.8161383453858466 
4.360000000003177, -0.8141838209896086 
4.370000000003154, -0.8110003826838437 
4.380000000003131, -0.8069141589952182 
4.390000000003107, -0.8026769409445215 
4.400000000003084, -0.7988468836215722 
4.410000000003061, -0.7956394338404363 
4.4200000000030375, -0.79312593835499 
4.430000000003014, -0.7913494154585148 
4.440000000002991, -0.7902984626797147 
4.450000000002968, -0.7898480781414488 
4.460000000002944, -0.789776858739185 
4.470000000002921, -0.7898574930646356 
4.480000000002898, -0.7899262235693214 
4.490000000002874, -0.7898986350306257 
4.500000000002851, -0.7897675862931665 
4.510000000002828, -0.7895801302018247 
4.520000000002804, -0.7893734454563684 
4.530000000002781, -0.7891282492534883 
4.540000000002758, -0.7888004898141976 
4.5500000000027345, -0.7883873718116918 
4.560000000002711, -0.7879593870385618 
4.570000000002688, -0.7876631578883011 
4.580000000002665, -0.7877045441720408 
4.590000000002641, -0.788286116956776 
4.600000000002618, -0.7895251485985847 
4.610000000002595, -0.7914345375384748 
4.620000000002571, -0.7939763861604584 
4.630000000002548, -0.7970985308869609 
4.640000000002525, -0.8006528166489911 
4.6500000000025015, -0.8042033761996219 
4.660000000002478, -0.8070569834994071 
4.670000000002455, -0.8087890637844002 
4.6800000000024315, -0.8095386862835386 
4.690000000002408, -0.8096520772595365 
4.700000000002385, -0.8093698359724352 
4.710000000002362, -0.8088402436216001 
4.720000000002338, -0.8084035216108468 
4.730000000002315, -0.8094239262387453 
4.740000000002292, -0.8160615399061397 
4.750000000002268, -0.8365594967860647 
4.760000000002245, -0.8783230365337953 
4.770000000002222, -0.9338328870624949 
4.7800000000021985, -0.9790833943554382 
4.790000000002175, -1.0021814529165842 
4.800000000002152, -1.0108418099777545 
4.810000000002129, -1.0136743848185565 
4.820000000002105, -1.0144467084726794 
4.830000000002082, -1.0143715364399712 
4.840000000002059, -1.013729501443015 
4.850000000002035, -1.0125459040967282 
4.860000000002012, -1.0117345190866547 
4.870000000001989, -1.0168975785962797 
4.880000000001965, -1.0407182181286425 
4.890000000001942, -1.0859077096621874 
4.900000000001919, -1.1314521118228813 
4.9100000000018955, -1.159601110872678 
4.920000000001872, -1.1718341683890456 
4.930000000001849, -1.1761157150861823 
