t, s[1].omega / s[0].omega 
0, -1.069998372010511 
0.009999999999999995, -1.0697307821192585 
0.019999999999999934, -1.0692847956072955 
0.029999999999999874, -1.068842753204964 
0.04000000000000012, -1.0686417518541114 
0.050000000000000405, -1.0686381497822783 
0.06000000000000069, -1.0685195304582233 
0.07000000000000098, -1.0681154924942347 
0.08000000000000126, -1.0674715862227444 
0.09000000000000155, -1.066702239645669 
0.10000000000000184, -1.0660628986282963 
0.11000000000000212, -1.0658285754365107 
0.12000000000000241, -1.065741846793814 
0.130000000000002, -1.0653611630298354 
0.1400000000000009, -1.0644776034541588 
0.1499999999999998, -1.063232006956012 
0.1599999999999987, -1.0619173060454001 
0.1699999999999976, -1.0610852058556404 
0.1799999999999965, -1.0609092882726257 
0.1899999999999954, -1.0607164511749918 
0.1999999999999943, -1.0599371345323938 
0.2099999999999932, -1.058181618421793 
0.2199999999999921, -1.0557927497027435 
0.229999999999991, -1.0536308031193957 
0.2399999999999899, -1.0528003545465567 
0.2499999999999888, -1.052708015246249 
0.2599999999999877, -1.0523470364104073 
0.2699999999999866, -1.0508824812101745 
0.2799999999999855, -1.047449075951118 
0.2899999999999844, -1.0429878472026677 
0.2999999999999833, -1.0399326320511362 
0.3099999999999822, -1.0393773843851586 
0.3199999999999811, -1.0393115208541912 
0.32999999999998, -1.038716778819571 
0.3399999999999789, -1.0361769121011333 
0.3499999999999778, -1.0300364168541363 
0.35999999999997667, -1.0228393648502194 
0.36999999999997557, -1.0194548735914328 
0.37999999999997447, -1.0192218734186018 
0.38999999999997337, -1.0191283366545636 
0.39999999999997227, -1.018290721275631 
0.40999999999997117, -1.0146231328187298 
0.41999999999997006, -1.00605713314766 
0.42999999999996896, -0.9973009671116418 
0.43999999999996786, -0.9942091306673112 
0.44999999999996676, -0.9941229076319112 
0.45999999999996566, -0.9939978499418084 
0.46999999999996456, -0.9930371108700284 
0.47999999999996346, -0.9890975342206721 
0.48999999999996235, -0.980889620759843 
0.49999999999996125, -0.9732109948453597 
0.5099999999999602, -0.9705239896631283 
0.519999999999959, -0.9704097207684848 
0.529999999999958, -0.9702798824711071 
0.5399999999999568, -0.9693971389161045 
0.5499999999999557, -0.9662879979681963 
0.5599999999999546, -0.9607345465494505 
0.5699999999999535, -0.9556147158084503 
0.5799999999999524, -0.9533849581480521 
0.5899999999999513, -0.9531515385259699 
0.5999999999999502, -0.9530388900109948 
0.6099999999999491, -0.9523654310437959 
0.619999999999948, -0.950377657470395 
0.6299999999999469, -0.9472944429393216 
0.6399999999999458, -0.9443959183442137 
0.6499999999999447, -0.9427490614573072 
0.6599999999999436, -0.9424057899302506 
0.6699999999999425, -0.9423148061885785 
0.6799999999999414, -0.9418676478379785 
0.6899999999999403, -0.940717746058088 
0.6999999999999392, -0.9391020407997077 
0.7099999999999381, -0.937541174205161 
0.719999999999937, -0.9364523516482867 
0.7299999999999359, -0.9360860493448556 
0.7399999999999348, -0.9360184577595054 
0.7499999999999337, -0.9357659453659815 
0.7599999999999326, -0.9351419303727858 
0.7699999999999315, -0.9342981503623663 
0.7799999999999304, -0.933441711101295 
0.7899999999999293, -0.9327622959296171 
0.7999999999999282, -0.9324675303314736 
0.8099999999999271, -0.9324460114171417 
0.819999999999926, -0.9323677353799632 
0.8299999999999249, -0.9320928628849269 
0.8399999999999238, -0.931684195490644 
0.8499999999999227, -0.93120182072799 
0.8599999999999216, -0.9307760038588535 
0.8699999999999205, -0.9306070416732468 
0.8799999999999194, -0.9306912478501618 
0.8899999999999183, -0.9308130268997564 
0.8999999999999172, -0.9308398831171951 
0.9099999999999161, -0.9307455478472467 
0.919999999999915, -0.9304923186871781 
0.9299999999999139, -0.9302037462162892 
0.9399999999999128, -0.9301661263545083 
0.9499999999999117, -0.9304605196130843 
0.9599999999999106, -0.9308970342316898 
0.9699999999999095, -0.9313113646857942 
0.9799999999999084, -0.9315536045048034 
0.9899999999999073, -0.9314885604723667 
0.9999999999999062, -0.9312650289947015 
1.0099999999999052, -0.931312891195907 
1.019999999999904, -0.9319696602389284 
1.029999999999903, -0.9330153921687705 
1.039999999999902, -0.9341217383416726 
1.0499999999999008, -0.93487612633059 
1.0599999999998997, -0.9350233700801319 
1.0699999999998986, -0.9348342812994715 
1.0799999999998975, -0.934867344471242 
1.0899999999998964, -0.9360506105865283 
1.0999999999998953, -0.9383637806921075 
1.1099999999998942, -0.9409273836358524 
1.119999999999893, -0.9425996611416664 
1.129999999999892, -0.9430237448082741 
1.1399999999998909, -0.9428685913807076 
1.1499999999998898, -0.9427719488470937 
1.1599999999998887, -0.9445063032942915 
1.1699999999998876, -0.9492852107519566 
1.1799999999998865, -0.9548747626429418 
1.1899999999998854, -0.9580971428885692 
1.1999999999998843, -0.9588431127563432 
1.2099999999998832, -0.958723226815485 
1.219999999999882, -0.9584572360646361 
1.229999999999881, -0.9605002952320907 
1.2399999999998799, -0.968846599833407 
1.2499999999998788, -0.9790324461172604 
1.2599999999998777, -0.9839827409746684 
1.2699999999998766, -0.9849408013629573 
1.2799999999998755, -0.984829482475505 
1.2899999999998744, -0.9844631319140523 
1.2999999999998733, -0.986725851266575 
1.3099999999998722, -0.9975431377916405 
1.319999999999871, -1.0100195923446231 
1.32999999999987, -1.0151958235188814 
1.3399999999998689, -1.0160601141009775 
1.3499999999998678, -1.01590701283061 
1.3599999999998666, -1.015593622217126 
1.3699999999998655, -1.0183901273263487 
1.3799999999998644, -1.0280126575423725 
1.3899999999998633, -1.0372276658765385 
1.3999999999998622, -1.0407518504624587 
1.4099999999998611, -1.0412782239971525 
1.41999999999986, -1.0410582190741704 
1.429999999999859, -1.041031756558021 
1.4399999999998578, -1.0439987059829592 
1.4499999999998567, -1.0498545868775027 
1.4599999999998556, -1.0545294325842376 
1.4699999999998545, -1.056292794342862 
1.4799999999998534, -1.0564747625794335 
1.4899999999998523, -1.0562305212497278 
1.4999999999998512, -1.0565903069024274 
1.5099999999998501, -1.0587842114261081 
1.519999999999849, -1.0615807907218346 
1.529999999999848, -1.0635970839758326 
1.5399999999998468, -1.064316185296324 
1.5499999999998457, -1.064258583310198 
1.5599999999998446, -1.064071419522219 
1.5699999999998435, -1.0645682814357884 
1.5799999999998424, -1.0657847216566723 
1.5899999999998413, -1.0669938501974783 
1.5999999999998402, -1.0677849933512416 
1.6099999999998391, -1.0679652220155782 
1.619999999999838, -1.0677630913669618 
1.629999999999837, -1.0676484108094249 
1.6399999999998358, -1.068003274953996 
1.6499999999998347, -1.068565583685133 
1.6599999999998336, -1.0690202475873363 
1.6699999999998325, -1.0692187703099325 
1.6799999999998314, -1.069088844085957 
1.6899999999998303, -1.0687909619458376 
1.6999999999998292, -1.06866948069145 
1.709999999999828, -1.0688220106348494 
1.719999999999827, -1.0690165282095943 
1.729999999999826, -1.0690549284642814 
1.7399999999998248, -1.0688856695390827 
1.7499999999998237, -1.068513544609417 
1.7599999999998226, -1.0681022576266153 
1.7699999999998215, -1.0679023846528988 
1.7799999999998204, -1.0679185690002027 
1.7899999999998193, -1.0678745570431476 
1.7999999999998182, -1.0675848522504103 
1.809999999999817, -1.0670671681954063 
1.819999999999816, -1.0664050139116965 
1.8299999999998149, -1.0658083872914985 
1.8399999999998138, -1.065548742618847 
1.8499999999998127, -1.0654875346054937 
1.8599999999998116, -1.0652143879810507 
1.8699999999998105, -1.0645204427634831 
1.8799999999998094, -1.063499812796546 
1.8899999999998083, -1.0623685282109625 
1.8999999999998072, -1.0615415535713344 
1.909999999999806, -1.0613140304654607 
1.919999999999805, -1.0611739414012982 
1.9299999999998039, -1.0605835536837651 
1.9399999999998028, -1.0592069086426574 
1.9499999999998017, -1.057270586437938 
1.9599999999998006, -1.055363648814985 
1.9699999999997995, -1.0544201467449283 
1.9799999999997984, -1.0542901584445394 
1.9899999999997973, -1.0540227264359368 
1.9999999999997962, -1.0529099805814 
2.0099999999998173, -1.050244217198669 
2.0199999999998384, -1.0466041864173978 
2.0299999999998595, -1.0436963882010062 
2.0399999999998806, -1.0429198823357961 
2.0499999999999017, -1.0428578211880064 
2.059999999999923, -1.042402838097991 
2.069999999999944, -1.0404495948803767 
2.079999999999965, -1.0355714112172716 
2.089999999999986, -1.0293621682722427 
2.100000000000007, -1.0257610339861565 
2.1100000000000283, -1.0253282031992847 
2.1200000000000494, -1.025267396619176 
2.1300000000000705, -1.0245963951727022 
2.1400000000000916, -1.021615890779845 
2.1500000000001127, -1.0142161815603687 
2.160000000000134, -1.0058474096781325 
2.170000000000155, -1.0022820572161426 
2.180000000000176, -1.0020853700719425 
2.190000000000197, -1.0019975387385875 
2.2000000000002182, -1.001174558287477 
2.2100000000002393, -0.9976347656090927 
2.2200000000002604, -0.989576427705221 
2.2300000000002815, -0.9813889803764495 
2.2400000000003026, -0.9782447868409062 
2.2500000000003237, -0.9780828678878748 
2.260000000000345, -0.9779802125138763 
2.270000000000366, -0.9771629144628163 
2.280000000000387, -0.974046366663829 
2.290000000000408, -0.9679162789439152 
2.3000000000004293, -0.9619738498036028 
2.3100000000004504, -0.9593590067840766 
2.3200000000004715, -0.9591009293451878 
2.3300000000004926, -0.9590029318748181 
2.3400000000005137, -0.9583336217669396 
2.3500000000005348, -0.9561716331605158 
2.360000000000556, -0.9525205523892236 
2.370000000000577, -0.9489922925584907 
2.380000000000598, -0.9470313272808795 
2.390000000000619, -0.9466569482853276 
2.4000000000006403, -0.9465700337673884 
2.4100000000006614, -0.9460978535804392 
2.4200000000006825, -0.9447828359553547 
2.4300000000007036, -0.942812016784751 
2.4400000000007247, -0.940882997293116 
2.450000000000746, -0.939566712131514 
2.460000000000767, -0.9391507881903631 
2.470000000000788, -0.9390754318578545 
2.480000000000809, -0.9387864444749467 
2.49000000000083, -0.9380399288165204 
2.5000000000008513, -0.9369930587595966 
2.5100000000008724, -0.9359374460095066 
2.5200000000008935, -0.9351103680057252 
2.5300000000009146, -0.9347515600327453 
2.5400000000009357, -0.9347034708263711 
2.550000000000957, -0.934576970662161 
2.560000000000978, -0.9342032567569828 
2.570000000000999, -0.9336664246134782 
2.58000000000102, -0.9330727358596115 
2.5900000000010412, -0.9325579023512224 
2.6000000000010624, -0.9323189364029639 
2.6100000000010835, -0.9323451108952043 
2.6200000000011046, -0.932390599928574 
2.6300000000011257, -0.9323098928352069 
2.6400000000011468, -0.9321086724436166 
2.650000000001168, -0.9317835870798246 
2.660000000001189, -0.931445964244415 
2.67000000000121, -0.9313406052873069 
2.680000000001231, -0.931525032404214 
2.6900000000012523, -0.9318161484375274 
2.7000000000012734, -0.9320625075314602 
2.7100000000012945, -0.9321727473011447 
2.7200000000013156, -0.9320464216812298 
2.7300000000013367, -0.9317999476321884 
2.740000000001358, -0.9317960159719554 
2.750000000001379, -0.932260816093385 
2.7600000000014, -0.9329969791570287 
2.770000000001421, -0.9337660136588908 
2.780000000001442, -0.9342994329206878 
2.7900000000014633, -0.9343767333384949 
2.8000000000014844, -0.9341789970332257 
2.8100000000015055, -0.934197241680209 
2.8200000000015266, -0.9350851305177977 
2.8300000000015477, -0.9367183370498972 
2.840000000001569, -0.9385274969121541 
2.85000000000159, -0.939788768502 
2.860000000001611, -0.9401261131309374 
2.870000000001632, -0.9399688254594495 
2.8800000000016532, -0.9399030869492627 
2.8900000000016743, -0.9412839545693978 
2.9000000000016954, -0.9446995938510476 
2.9100000000017165, -0.9487037566217313 
2.9200000000017377, -0.9512627940277371 
2.9300000000017588, -0.9519318204352966 
2.94000000000178, -0.9518186649452304 
2.950000000001801, -0.9516031352388751 
2.960000000001822, -0.9533235586400045 
2.970000000001843, -0.9596828319767023 
2.9800000000018643, -0.9676402251925577 
2.9900000000018854, -0.9720429725087116 
3.0000000000019065, -0.9730206903697118 
3.0100000000019276, -0.9729364201525715 
3.0200000000019487, -0.9725966572510721 
3.03000000000197, -0.9744502423507952 
3.040000000001991, -0.9838190425646453 
3.050000000002012, -0.9956411784058948 
3.060000000002033, -1.0011947841595177 
3.070000000002054, -1.0022339325737908 
3.0800000000020753, -1.002131293092732 
3.0900000000020964, -1.001765428045933 
3.1000000000021175, -1.0039722510798346 
3.1100000000021386, -1.0139422505850069 
3.1200000000021597, -1.0249513113531266 
3.130000000002181, -1.029537376293075 
3.140000000002202, -1.0303061375837184 
3.150000000002223, -1.0301378589034331 
3.160000000002244, -1.029920489361904 
3.1700000000022652, -1.0326227295120518 
3.1800000000022863, -1.0399422536464933 
3.1900000000023074, -1.046508615035914 
3.2000000000023285, -1.0491292734184996 
3.2100000000023496, -1.0495089756271503 
3.2200000000023707, -1.0492789947370615 
3.230000000002392, -1.049404030783867 
3.240000000002413, -1.0518675148934788 
3.250000000002434, -1.0558028747836259 
3.260000000002455, -1.0588543722399921 
3.2700000000024763, -1.060048602350739 
3.2800000000024974, -1.0601190123048547 
3.2900000000025185, -1.059893228165967 
3.3000000000025396, -1.060302615077655 
3.3100000000025607, -1.061898971103841 
3.3200000000025818, -1.0637081007630427 
3.330000000002603, -1.064993490723529 
3.340000000002624, -1.065425726086338 
3.350000000002645, -1.065298654355167 
3.360000000002666, -1.065138063453289 
3.3700000000026873, -1.065546411074654 
3.3800000000027084, -1.0663696344791036 
3.3900000000027295, -1.0671321422653044 
3.4000000000027506, -1.0675922299213276 
3.4100000000027717, -1.0676178409233452 
3.420000000002793, -1.067369264889628 
3.430000000002814, -1.0672457026939544 
3.440000000002835, -1.0674793135467364 
3.450000000002856, -1.0678322483497018 
3.460000000002877, -1.0680643926689737 
3.4700000000028983, -1.0680791695668121 
3.4800000000029194, -1.0678390426279236 
3.4900000000029405, -1.0674892209213347 
3.5000000000029616, -1.0673192433960998 
3.5100000000029827, -1.067387590876997 
3.520000000003004, -1.0674646511398629 
3.530000000003025, -1.0673544380945597 
3.540000000003046, -1.0670346015977696 
3.550000000003067, -1.0665423473363607 
3.5600000000030882, -1.0660456633563635 
3.5700000000031094, -1.0657934301469942 
3.5800000000031305, -1.0657661610383353 
3.5900000000031516, -1.0656321733039373 
3.6000000000031727, -1.0651889180128942 
3.6100000000031938, -1.0644792794401061 
3.620000000003215, -1.0636331714507323 
3.630000000003236, -1.0629132876238048 
3.640000000003257, -1.0626351853568656 
3.650000000003278, -1.0625465119006012 
3.6600000000032993, -1.062170524535508 
3.6700000000033204, -1.061247465137634 
3.6800000000033415, -1.059903545079831 
3.6900000000033626, -1.0584636023477232 
3.7000000000033837, -1.0575188439425183 
3.710000000003405, -1.0573122658397616 
3.720000000003426, -1.0571389830263775 
3.730000000003447, -1.0563990484167425 
3.740000000003468, -1.054620286086005 
3.750000000003489, -1.0520994140564248 
3.7600000000035103, -1.0497413318959545 
3.7700000000035314, -1.0487614151475837 
3.7800000000035525, -1.048660115679509 
3.7900000000035736, -1.0483488498683533 
3.8000000000035947, -1.0470154255513586 
3.810000000003616, -1.04367918163887 
3.820000000003637, -1.039121120933146 
3.830000000003658, -1.0357604459326812 
3.840000000003679, -1.0350327851404826 
3.8500000000037002, -1.0349835515922594 
3.8600000000037213, -1.0344873438366986 
3.8700000000037424, -1.032293699181099 
3.8800000000037635, -1.0266501861342652 
3.8900000000037847, -1.019556876480046 
3.9000000000038058, -1.0157149558459606 
3.910000000003827, -1.015317460299193 
3.920000000003848, -1.0152614870232957 
3.930000000003869, -1.0145852484059712 
3.94000000000389, -1.0115709670580286 
3.9500000000039113, -1.004095196086721 
3.9600000000039324, -0.9957062946716221 
3.9700000000039535, -0.9920731601722694 
3.9800000000039746, -0.9918399138763041 
3.9900000000039957, -0.9917626049243735 
4.000000000004016, -0.9910022569215943 
4.010000000003993, -0.9878343432236535 
4.02000000000397, -0.9808230289436879 
4.030000000003946, -0.9735950312333697 
4.040000000003923, -0.9704725881449942 
4.0500000000039, -0.9702173313410423 
4.0600000000038765, -0.970131664952293 
4.070000000003853, -0.9694315639661094 
4.08000000000383, -0.9668918190591168 
4.090000000003807, -0.9620707520930141 
4.100000000003783, -0.9572681001520648 
4.11000000000376, -0.9548056608701762 
4.120000000003737, -0.9544409704140007 
4.130000000003713, -0.9543578788792959 
4.14000000000369, -0.9538136662448614 
4.150000000003667, -0.9521264710653335 
4.1600000000036434, -0.9493503987563657 
4.17000000000362, -0.9465981396001489 
4.180000000003597, -0.9448609858867737 
4.1900000000035735, -0.9444155485093089 
4.20000000000355, -0.9443360039159857 
4.210000000003527, -0.9439669492993701 
4.220000000003504, -0.9429511234888656 
4.23000000000348, -0.9414422136877776 
4.240000000003457, -0.9399306592568509 
4.250000000003434, -0.9388080698651876 
4.26000000000341, -0.9383761306471369 
4.270000000003387, -0.9383055508335284 
4.280000000003364, -0.9380958269840934 
4.2900000000033405, -0.9375283995154802 
4.300000000003317, -0.9367196010740516 
4.310000000003294, -0.9358758400255589 
4.320000000003271, -0.9351766954083446 
4.330000000003247, -0.9348413776706956 
4.340000000003224, -0.9348081913109733 
4.350000000003201, -0.9347496915664713 
4.360000000003177, -0.9344974428116751 
4.370000000003154, -0.9341013443990673 
4.380000000003131, -0.9336235308775487 
4.390000000003107, -0.933180621286248 
4.400000000003084, -0.9329783783683155 
4.410000000003061, -0.9330427712939995 
4.4200000000030375, -0.9331655697636173 
4.430000000003014, -0.9331959519066092 
4.440000000002991, -0.9331074241199183 
4.450000000002968, -0.9328618687822978 
4.460000000002944, -0.9325602599309141 
4.470000000002921, -0.9324821494005318 
4.480000000002898, -0.9327370452018723 
4.490000000002874, -0.933147240438989 
4.500000000002851, -0.9335414383011597 
4.510000000002828, -0.9337844298150951 
4.520000000002804, -0.9337342886507387 
4.530000000002781, -0.9335071172711091 
4.540000000002758, -0.9335024010022361 
4.5500000000027345, -0.9340693380486841 
4.560000000002711, -0.9350222834069026 
4.570000000002688, -0.9360508457880469 
4.580000000002665, -0.9367922373031776 
4.590000000002641, -0.936963978920613 
4.600000000002618, -0.9367842970638396 
4.610000000002595, -0.9367644795366009 
4.620000000002571, -0.9377573735243367 
4.630000000002548, -0.9397938065091799 
4.640000000002525, -0.942115370976683 
4.6500000000025015, -0.9437389291381989 
4.660000000002478, -0.9442022281765022 
4.670000000002455, -0.9440690664121065 
4.6800000000024315, -0.9439426856057007 
4.690000000002408, -0.9453535819875737 
4.700000000002385, -0.9494168407182411 
4.710000000002362, -0.9543648632751615 
4.720000000002338, -0.957492814606895 
4.730000000002315, -0.9583075066162874 
4.740000000002292, -0.9582203648699876 
4.750000000002268, -0.9579557355150036 
4.760000000002245, -0.9595792615963139 
4.770000000002222, -0.9665756585875379 
4.7800000000021985, -0.9756472121964536 
4.790000000002175, -0.9805976094040476 
4.800000000002152, -0.9816783349153522 
4.810000000002129, -0.9816099916587132 
4.820000000002105, -0.9812535387000713 
4.830000000002082, -0.983004113413325 
4.840000000002059, -0.9923426924579731 
4.850000000002035, -1.0041496463853339 
4.860000000002012, -1.009687229363415 
4.870000000001989, -1.0107243403318558 
4.880000000001965, -1.0106209998410318 
4.890000000001942, -1.0102769895593426 
4.900000000001919, -1.0124604654114093 
4.9100000000018955, -1.0214635132235093 
4.920000000001872, -1.031089351983501 
4.930000000001849, -1.0351799862324307 
