t, s[1].omega / s[0].omega 
0, -0.6999976919682819 
0.009999999999999995, -0.699755181408247 
0.019999999999999934, -0.6994853131614158 
0.029999999999999874, -0.6991781026030639 
0.04000000000000012, -0.69882359161982 
0.050000000000000405, -0.6984174920287649 
0.06000000000000069, -0.6979642276794105 
0.07000000000000098, -0.6974775964055416 
0.08000000000000126, -0.6969809283014051 
0.09000000000000155, -0.6965084345219597 
0.10000000000000184, -0.6961082806104799 
0.11000000000000212, -0.695846773661273 
0.12000000000000241, -0.6958122783770079 
0.130000000000002, -0.6961171027202195 
0.1400000000000009, -0.6968956429297863 
0.1499999999999998, -0.6982974265378494 
0.1599999999999987, -0.7004738031688205 
0.1699999999999976, -0.7035561813050445 
0.1799999999999965, -0.7076221119045166 
0.1899999999999954, -0.7126461984274075 
0.1999999999999943, -0.7184425965361673 
0.2099999999999932, -0.7246299813860821 
0.2199999999999921, -0.7306730251906646 
0.229999999999991, -0.7360287689230915 
0.2399999999999899, -0.7403316182563471 
0.2499999999999888, -0.743486918542478 
0.2599999999999877, -0.7456197796208006 
0.2699999999999866, -0.7469520529726296 
0.2799999999999855, -0.7477018307166851 
0.2899999999999844, -0.7480373126213353 
0.2999999999999833, -0.7480690163554845 
0.3099999999999822, -0.7478569405285994 
0.3199999999999811, -0.7474186751527678 
0.32999999999998, -0.7467328087020485 
0.3399999999999789, -0.7457358436035479 
0.3499999999999778, -0.7443120164861547 
0.35999999999997667, -0.7422761897239524 
0.36999999999997557, -0.7393529307076393 
0.37999999999997447, -0.7351648658491754 
0.38999999999997337, -0.7292682501953098 
0.39999999999997227, -0.7213095961740057 
0.40999999999997117, -0.7113545430765547 
0.41999999999997006, -0.7002222875937982 
0.42999999999996896, -0.6893858925564432 
0.43999999999996786, -0.6802877852292413 
0.44999999999996676, -0.6736578333882736 
0.45999999999996566, -0.6694150752067654 
0.46999999999996456, -0.6670198166297218 
0.47999999999996346, -0.6658484098670409 
0.48999999999996235, -0.6653912296852613 
0.49999999999996125, -0.6652991954260068 
0.5099999999999602, -0.6653586264475264 
0.519999999999959, -0.6654485152389513 
0.529999999999958, -0.6655031891681433 
0.5399999999999568, -0.6654858584458961 
0.5499999999999557, -0.6653718540456527 
0.5599999999999546, -0.6651391118085301 
0.5699999999999535, -0.6647643332085562 
0.5799999999999524, -0.6642244830869041 
0.5899999999999513, -0.6635035312542019 
0.5999999999999502, -0.6626024295904371 
0.6099999999999491, -0.6615467571895184 
0.619999999999948, -0.660385219601593 
0.6299999999999469, -0.6591773485032768 
0.6399999999999458, -0.6579771275515093 
0.6499999999999447, -0.6568220459798626 
0.6599999999999436, -0.6557317991188492 
0.6699999999999425, -0.654714081591722 
0.6799999999999414, -0.6537724008996867 
0.6899999999999403, -0.6529123175876735 
0.6999999999999392, -0.6521450377159561 
0.7099999999999381, -0.6514888457637621 
0.719999999999937, -0.6509691868965055 
0.7299999999999359, -0.6506179186928973 
0.7399999999999348, -0.6504719831435277 
0.7499999999999337, -0.6505717253049513 
0.7599999999999326, -0.6509591896969019 
0.7699999999999315, -0.6516767103859823 
0.7799999999999304, -0.6527657601539617 
0.7899999999999293, -0.6542652445307859 
0.7999999999999282, -0.6562072974665639 
0.8099999999999271, -0.6586075661405111 
0.819999999999926, -0.6614471394598727 
0.8299999999999249, -0.664647086201994 
0.8399999999999238, -0.6680463769039748 
0.8499999999999227, -0.6714059116183347 
0.8599999999999216, -0.674458410287414 
0.8699999999999205, -0.6769905259645435 
0.8799999999999194, -0.6789053485272759 
0.8899999999999183, -0.6802241070550901 
0.8999999999999172, -0.6810391342752378 
0.9099999999999161, -0.6814600335597913 
0.919999999999915, -0.681579665168867 
0.9299999999999139, -0.6814610860052323 
0.9399999999999128, -0.6811358433298329 
0.9499999999999117, -0.6806051014343251 
0.9599999999999106, -0.6798388205159528 
0.9699999999999095, -0.6787705642580868 
0.9799999999999084, -0.6772862420840366 
0.9899999999999073, -0.67520517889843 
0.9999999999999062, -0.6722536351745311 
1.0099999999999052, -0.6680410686603386 
1.019999999999904, -0.66208248159018 
1.029999999999903, -0.6539658994809538 
1.039999999999902, -0.6437384454258106 
1.0499999999999008, -0.6322847002712044 
1.0599999999998997, -0.6211568942357613 
1.0699999999998986, -0.6117882942812283 
1.0799999999998975, -0.6048407772346306 
1.0899999999998964, -0.6002029256382906 
1.0999999999998953, -0.5973680573702996 
1.1099999999998942, -0.5957712997257398 
1.119999999999893, -0.5949501162526241 
1.129999999999892, -0.5945780278110425 
1.1399999999998909, -0.5944437241593671 
1.1499999999998898, -0.5944176495828495 
1.1599999999998887, -0.5944226359690424 
1.1699999999998876, -0.5944125331866172 
1.1799999999998865, -0.5943582367538288 
1.1899999999998854, -0.5942395987996714 
1.1999999999998843, -0.5940420397319277 
1.2099999999998832, -0.5937570169190983 
1.219999999999882, -0.5933850921903823 
1.229999999999881, -0.5929390465986398 
1.2399999999998799, -0.5924435209525127 
1.2499999999998788, -0.5919290741490475 
1.2599999999998777, -0.5914225143368507 
1.2699999999998766, -0.590938595240839 
1.2799999999998755, -0.5904774871843027 
1.2899999999998744, -0.5900286487250528 
1.2999999999998733, -0.5895781644486121 
1.3099999999998722, -0.589115587098128 
1.319999999999871, -0.5886379194497143 
1.32999999999987, -0.5881509295074039 
1.3399999999998689, -0.5876695889960758 
1.3499999999998678, -0.5872195009163856 
1.3599999999998666, -0.586840491846752 
1.3699999999998655, -0.5865929150970433 
1.3799999999998644, -0.586566859159737 
1.3899999999998633, -0.5868941351389394 
1.3999999999998622, -0.587762147265557 
1.4099999999998611, -0.5894267322940091 
1.41999999999986, -0.592216366677415 
1.429999999999859, -0.5965109387908779 
1.4399999999998578, -0.6026652828254508 
1.4499999999998567, -0.6108443809657467 
1.4599999999998556, -0.6207839208263737 
1.4699999999998545, -0.6316240687364075 
1.4799999999998534, -0.6420743556355573 
1.4899999999998523, -0.6509550744277383 
1.4999999999998512, -0.657699078349722 
1.5099999999998501, -0.6623933515202806 
1.519999999999849, -0.6654691239652466 
1.529999999999848, -0.6673992444752335 
1.5399999999998468, -0.6685582626550793 
1.5499999999998457, -0.6692013435359547 
1.5599999999998446, -0.6694871789703863 
1.5699999999998435, -0.6695050090550596 
1.5799999999998424, -0.6692933695302212 
1.5899999999998413, -0.6688491961779615 
1.5999999999998402, -0.6681286965568284 
1.6099999999998391, -0.6670422661138192 
1.619999999999838, -0.6654482931532836 
1.629999999999837, -0.6631573496063863 
1.6399999999998358, -0.6599675178713811 
1.6499999999998347, -0.65574961871618 
1.6599999999998336, -0.6505628152820203 
1.6699999999998325, -0.6447167433824454 
1.6799999999998314, -0.6386974157849931 
1.6899999999998303, -0.6329918717208389 
1.6999999999998292, -0.6279420308452763 
1.709999999999828, -0.6237054089385246 
1.719999999999827, -0.6202960854347552 
1.729999999999826, -0.6176461755202813 
1.7399999999998248, -0.6156533964641414 
1.7499999999998237, -0.6142085563433466 
1.7599999999998226, -0.6132086179506445 
1.7699999999998215, -0.612561960728894 
1.7799999999998204, -0.6121901113973915 
1.7899999999998193, -0.6120280010941076 
1.7999999999998182, -0.6120235365513206 
1.809999999999817, -0.6121367802000021 
1.819999999999816, -0.6123389481480009 
1.8299999999998149, -0.6126114182856846 
1.8399999999998138, -0.6129447495803718 
1.8499999999998127, -0.6133372528796532 
1.8599999999998116, -0.6137921111953047 
1.8699999999998105, -0.6143119958577037 
1.8799999999998094, -0.6148912520884994 
1.8899999999998083, -0.6155080831819963 
1.8999999999998072, -0.6161214260401274 
1.909999999999806, -0.6166767879943865 
1.919999999999805, -0.6171203820134602 
1.9299999999998039, -0.6174142270617776 
1.9399999999998028, -0.6175434379292943 
1.9499999999998017, -0.6175131296310197 
1.9599999999998006, -0.6173395534709174 
1.9699999999997995, -0.6170417026571887 
1.9799999999997984, -0.6166367993320244 
1.9899999999997973, -0.6161402591898658 
1.9999999999997962, -0.6155699343252425 
2.0099999999998173, -0.6149551369315756 
2.0199999999998384, -0.6143520025946709 
2.0299999999998595, -0.6138668722640751 
2.0399999999998806, -0.6136861426236225 
2.0499999999999017, -0.6140996523109662 
2.059999999999923, -0.6154799900944139 
2.069999999999944, -0.6181531096147439 
2.079999999999965, -0.6221320081413839 
2.089999999999986, -0.6268828395891541 
2.100000000000007, -0.6314928328045719 
2.1100000000000283, -0.6352618025603204 
2.1200000000000494, -0.6380709060194418 
2.1300000000000705, -0.6401644687336863 
2.1400000000000916, -0.6417899169348283 
2.1500000000001127, -0.6430760035728393 
2.160000000000134, -0.6440756504614821 
2.170000000000155, -0.6448198557721423 
2.180000000000176, -0.6453386278187836 
2.190000000000197, -0.6456615395971053 
2.2000000000002182, -0.6458127613264816 
2.2100000000002393, -0.6458065983909959 
2.2200000000002604, -0.645644501345602 
2.2300000000002815, -0.6453132721565926 
2.2400000000003026, -0.6447848477427885 
2.2500000000003237, -0.644019510115014 
2.260000000000345, -0.6429755931576656 
2.270000000000366, -0.641627492666277 
2.280000000000387, -0.6399875399068508 
2.290000000000408, -0.6381186617186139 
2.3000000000004293, -0.6361247719065078 
2.3100000000004504, -0.6341211587591347 
2.3200000000004715, -0.6322034951738846 
2.3300000000004926, -0.6304325300338626 
2.3400000000005137, -0.6288365192337355 
2.3500000000005348, -0.627422833946277 
2.360000000000556, -0.6261899867642303 
2.370000000000577, -0.6251358747608738 
2.380000000000598, -0.6242618276345111 
2.390000000000619, -0.6235736501889477 
2.4000000000006403, -0.6230810053949527 
2.4100000000006614, -0.622796151263596 
2.4200000000006825, -0.6227327170487787 
2.4300000000007036, -0.6229049680908868 
2.4400000000007247, -0.6233277782556034 
2.450000000000746, -0.6240172137468459 
2.460000000000767, -0.6249911801871973 
2.470000000000788, -0.6262689683428226 
2.480000000000809, -0.6278677950403784 
2.49000000000083, -0.6297939184573189 
2.5000000000008513, -0.6320266777650728 
2.5100000000008724, -0.6344977873377026 
2.5200000000008935, -0.6370764270063562 
2.5300000000009146, -0.6395780339946603 
2.5400000000009357, -0.641807458548684 
2.550000000000957, -0.6436193236221592 
2.560000000000978, -0.6449563304343278 
2.570000000000999, -0.6458427482041678 
2.58000000000102, -0.6463479139385261 
2.5900000000010412, -0.6465489221308877 
2.6000000000010624, -0.6465079659466902 
2.6100000000010835, -0.6462633973495617 
2.6200000000011046, -0.6458276337628138 
2.6300000000011257, -0.6451860785187508 
2.6400000000011468, -0.6442934737587234 
2.650000000001168, -0.6430652145672694 
2.660000000001189, -0.6413610461898596 
2.67000000000121, -0.63895844367245 
2.680000000001231, -0.6355172812759908 
2.6900000000012523, -0.6305591357695628 
2.7000000000012734, -0.6235411110031961 
2.7100000000012945, -0.6141531338870967 
2.7200000000013156, -0.602804069875747 
2.7300000000013367, -0.5908162029049824 
2.740000000001358, -0.5798607861227741 
2.750000000001379, -0.5710846746473812 
2.7600000000014, -0.5647678421126756 
2.770000000001421, -0.5605817707071777 
2.780000000001442, -0.5579836580897244 
2.7900000000014633, -0.5564620507237911 
2.8000000000014844, -0.5556238185726585 
2.8100000000015055, -0.5551966555307772 
2.8200000000015266, -0.5550029793063728 
2.8300000000015477, -0.5549310947752835 
2.840000000001569, -0.5549120203234562 
2.85000000000159, -0.5549031613596084 
2.860000000001611, -0.5548778439403109 
2.870000000001632, -0.5548194843739535 
2.8800000000016532, -0.5547193826239796 
2.8900000000016743, -0.5545770465966005 
2.9000000000016954, -0.5544013102995997 
2.9100000000017165, -0.5542097744255947 
2.9200000000017377, -0.5540245058548263 
2.9300000000017588, -0.553864232862528 
2.94000000000178, -0.5537362053066432 
2.950000000001801, -0.5536320165888826 
2.960000000001822, -0.5535299350263644 
2.970000000001843, -0.5534027170886635 
2.9800000000018643, -0.5532267399264397 
2.9900000000018854, -0.5529879608924746 
3.0000000000019065, -0.5526830224651322 
3.0100000000019276, -0.5523171753710618 
3.0200000000019487, -0.5519019888001403 
3.03000000000197, -0.5514551323327547 
3.040000000001991, -0.551003484056091 
3.050000000002012, -0.5505904766271106 
3.060000000002033, -0.5502889017806947 
3.070000000002054, -0.5502207034653432 
3.0800000000020753, -0.550584315919357 
3.0900000000020964, -0.5516850341784872 
3.1000000000021175, -0.5539492540245834 
3.1100000000021386, -0.5578736687253031 
3.1200000000021597, -0.5638302285309738 
3.130000000002181, -0.5716999166289604 
3.140000000002202, -0.5805681073989261 
3.150000000002223, -0.5889763259388137 
3.160000000002244, -0.5957669267745224 
3.1700000000022652, -0.6006569379045175 
3.1800000000022863, -0.6040029449426187 
3.1900000000023074, -0.6062889305834991 
3.2000000000023285, -0.6078732638335544 
3.2100000000023496, -0.6089756624814517 
3.2200000000023707, -0.609728909425044 
3.230000000002392, -0.61021765789847 
3.240000000002413, -0.6104975256363757 
3.250000000002434, -0.6106032324465325 
3.260000000002455, -0.6105519571948457 
3.2700000000024763, -0.6103447011497989 
3.2800000000024974, -0.6099671411811258 
3.2900000000025185, -0.6093916852920469 
3.3000000000025396, -0.608583341777565 
3.3100000000025607, -0.607512124818454 
3.3200000000025818, -0.6061716187851639 
3.330000000002603, -0.604596110509496 
3.340000000002624, -0.6028632043714649 
3.350000000002645, -0.6010752369104096 
3.360000000002666, -0.5993293487950324 
3.3700000000026873, -0.5976947110597236 
3.3800000000027084, -0.5962068441214938 
3.3900000000027295, -0.5948754541564302 
3.4000000000027506, -0.5936968402311056 
3.4100000000027717, -0.5926644152189865 
3.420000000002793, -0.5917751933676408 
3.430000000002814, -0.5910327952340337 
3.440000000002835, -0.5904483240513089 
3.450000000002856, -0.5900402456434355 
3.460000000002877, -0.5898339530432289 
3.4700000000028983, -0.589861386502094 
3.4800000000029194, -0.5901609298446917 
3.4900000000029405, -0.590777671309893 
3.5000000000029616, -0.5917638162688651 
3.5100000000029827, -0.5931783847706715 
3.520000000003004, -0.5950841605806301 
3.530000000003025, -0.5975382232187447 
3.540000000003046, -0.6005711295172518 
3.550000000003067, -0.6041517240022147 
3.5600000000030882, -0.6081447950137064 
3.5700000000031094, -0.6122889807342222 
3.5800000000031305, -0.6162348507030052 
3.5900000000031516, -0.6196516390596056 
3.6000000000031727, -0.6223412462135092 
3.6100000000031938, -0.6242769405639337 
3.620000000003215, -0.6255548791917008 
3.630000000003236, -0.6263161247150262 
3.640000000003257, -0.6266906131926336 
3.650000000003278, -0.6267733581877963 
3.6600000000032993, -0.6266203383983853 
3.6700000000033204, -0.6262505403220391 
3.6800000000033415, -0.6256461991429074 
3.6900000000033626, -0.6247472313288938 
3.7000000000033837, -0.6234374563157049 
3.710000000003405, -0.6215217313965092 
3.720000000003426, -0.618699240233137 
3.730000000003447, -0.614557003076496 
3.740000000003468, -0.6086426303403579 
3.750000000003489, -0.6006878301907792 
3.7600000000035103, -0.5909359510076249 
3.7700000000035314, -0.580282250137368 
3.7800000000035525, -0.5699553140718119 
3.7900000000035736, -0.5609584763377121 
3.8000000000035947, -0.5537572042886124 
3.810000000003616, -0.5483426986411122 
3.820000000003637, -0.5444530245313437 
3.830000000003658, -0.5417559576805955 
3.840000000003679, -0.5399444825266007 
3.8500000000037002, -0.5387696663325516 
3.8600000000037213, -0.5380427805809703 
3.8700000000037424, -0.5376262597586418 
3.8800000000037635, -0.5374225169546262 
3.8900000000037847, -0.5373639658540689 
3.9000000000038058, -0.537405175219956 
3.910000000003827, -0.537517218561862 
3.920000000003848, -0.5376839980588483 
3.930000000003869, -0.5379001088769185 
3.94000000000389, -0.5381694203639651 
3.9500000000039113, -0.5385030127176231 
3.9600000000039324, -0.5389148427321986 
3.9700000000039535, -0.5394141959982962 
3.9800000000039746, -0.5399959794991273 
3.9900000000039957, -0.540632682645135 
4.000000000004016, -0.5412736309747909 
4.010000000003993, -0.5418551825414811 
4.02000000000397, -0.5423186527861433 
4.030000000003946, -0.5426260088317583 
4.040000000003923, -0.5427646284768108 
4.0500000000039, -0.5427410217544029 
4.0600000000038765, -0.5425699900782748 
4.070000000003853, -0.5422652535111866 
4.08000000000383, -0.5418336491631364 
4.090000000003807, -0.5412721051162731 
4.100000000003783, -0.5405656569990278 
4.11000000000376, -0.5396845976424893 
4.120000000003737, -0.5385780266245295 
4.130000000003713, -0.5371583613687776 
4.14000000000369, -0.5352663800964652 
4.150000000003667, -0.5326048770982073 
4.1600000000036434, -0.5286583996019873 
4.17000000000362, -0.5227258787820193 
4.180000000003597, -0.5143106976578087 
4.1900000000035735, -0.5038170750544746 
4.20000000000355, -0.49274579918595657 
4.210000000003527, -0.4828414043092029 
4.220000000003504, -0.47510267922585614 
4.23000000000348, -0.4696198443624374 
4.240000000003457, -0.46598383757876427 
4.250000000003434, -0.463678868113284 
4.26000000000341, -0.4622674964004331 
4.270000000003387, -0.461432218199523 
4.280000000003364, -0.4609594553266218 
4.2900000000033405, -0.46071125565107457 
4.300000000003317, -0.460600664083928 
4.310000000003294, -0.4605740050743271 
4.320000000003271, -0.4605993076382964 
4.330000000003247, -0.4606593908161142 
4.340000000003224, -0.46074829997540095 
4.350000000003201, -0.4608699122469691 
4.360000000003177, -0.4610373176994037 
4.370000000003154, -0.46127117797704564 
4.380000000003131, -0.46159522573676914 
4.390000000003107, -0.4620280155928246 
4.400000000003084, -0.4625720906229639 
4.410000000003061, -0.4632044015947058 
4.4200000000030375, -0.4638739078095095 
4.430000000003014, -0.46451110992156697 
4.440000000002991, -0.46504747665813334 
4.450000000002968, -0.4654343930885002 
4.460000000002944, -0.4656508458968217 
4.470000000002921, -0.46569807375061306 
4.480000000002898, -0.46558771169585106 
4.490000000002874, -0.46533038017841954 
4.500000000002851, -0.4649273077219186 
4.510000000002828, -0.46436380480252043 
4.520000000002804, -0.4636016858510919 
4.530000000002781, -0.4625669061615138 
4.540000000002758, -0.46112775802532846 
4.5500000000027345, -0.4590591497638224 
4.560000000002711, -0.4559967095548453 
4.570000000002688, -0.451418148110332 
4.580000000002665, -0.4447590864078511 
4.590000000002641, -0.4357852509960115 
4.600000000002618, -0.425063301944779 
4.610000000002595, -0.4139514114640238 
4.620000000002571, -0.4038888418875105 
4.630000000002548, -0.39569603751105115 
4.640000000002525, -0.3894868296316313 
4.6500000000025015, -0.384975116495167 
4.660000000002478, -0.38176856270620074 
4.670000000002455, -0.3795157547387375 
4.6800000000024315, -0.37794776867871577 
4.690000000002408, -0.3768738284906391 
4.700000000002385, -0.37616453514522247 
4.710000000002362, -0.3757356965091957 
4.720000000002338, -0.37553626658426653 
4.730000000002315, -0.3755405417311368 
4.740000000002292, -0.37574392797534634 
4.750000000002268, -0.3761615612392884 
4.760000000002245, -0.3768291001966917 
4.770000000002222, -0.3778047325025956 
4.7800000000021985, -0.3791704687986608 
4.790000000002175, -0.3810286809142509 
4.800000000002152, -0.3834863618678465 
4.810000000002129, -0.3866165872547428 
4.820000000002105, -0.390392071233864 
4.830000000002082, -0.3946134542205934 
4.840000000002059, -0.39889942755481694 
4.850000000002035, -0.40280051986043564 
4.860000000002012, -0.4059846347563033 
4.870000000001989, -0.408344135756119 
4.880000000001965, -0.4099575477542392 
4.890000000001942, -0.4109831354911625 
4.900000000001919, -0.4115763685915537 
4.9100000000018955, -0.41185513218890213 
4.920000000001872, -0.41189506968221146 
