t, s[1].omega / s[0].omega 
0, -1.4000766854009095 
0.009999999999999995, -1.4064762734488228 
0.019999999999999934, -1.4106258740290465 
0.029999999999999874, -1.4130780933908755 
0.04000000000000012, -1.4143672747672706 
0.050000000000000405, -1.4148962822645141 
0.06000000000000069, -1.4149345284568784 
0.07000000000000098, -1.4146575613721353 
0.08000000000000126, -1.4141971204209962 
0.09000000000000155, -1.4136849780355265 
0.10000000000000184, -1.4132665419091048 
0.11000000000000212, -1.413063504604702 
0.12000000000000241, -1.4131174741838979 
0.130000000000002, -1.4133815386796007 
0.1400000000000009, -1.413760362076266 
0.1499999999999998, -1.4141469452613191 
0.1599999999999987, -1.4144408615015558 
0.1699999999999976, -1.4145571117721734 
0.1799999999999965, -1.414425811643519 
0.1899999999999954, -1.4139848899024643 
0.1999999999999943, -1.4131737731716838 
0.2099999999999932, -1.4119328283368364 
0.2199999999999921, -1.4102086258887199 
0.229999999999991, -1.407965864985438 
0.2399999999999899, -1.4052126692687286 
0.2499999999999888, -1.402051171869005 
0.2599999999999877, -1.3987527068953947 
0.2699999999999866, -1.3957917783035045 
0.2799999999999855, -1.3936872363739221 
0.2899999999999844, -1.3926462286842838 
0.2999999999999833, -1.3924031919117372 
0.3099999999999822, -1.3924912626960082 
0.3199999999999811, -1.3925593826866651 
0.32999999999998, -1.3924266788324622 
0.3399999999999789, -1.3919836202579483 
0.3499999999999778, -1.3910830871735154 
0.35999999999997667, -1.3894403914107818 
0.36999999999997557, -1.3865186750161536 
0.37999999999997447, -1.3814389294831002 
0.38999999999997337, -1.373204070464198 
0.39999999999997227, -1.3619676336128057 
0.40999999999997117, -1.351417124639582 
0.41999999999997006, -1.3482712117915023 
0.42999999999996896, -1.3551253134775316 
0.43999999999996786, -1.3667789531449255 
0.44999999999996676, -1.3770413506758326 
0.45999999999996566, -1.3837821404794988 
0.46999999999996456, -1.3875732670468337 
0.47999999999996346, -1.3894935454480968 
0.48999999999996235, -1.390329542424103 
0.49999999999996125, -1.3905314345118527 
0.5099999999999602, -1.3903323520866804 
0.519999999999959, -1.389859545711753 
0.529999999999958, -1.3892344904453855 
0.5399999999999568, -1.3886820077274198 
0.5499999999999557, -1.388595164718168 
0.5599999999999546, -1.3893975232422333 
0.5699999999999535, -1.391206480068779 
0.5799999999999524, -1.3936959895300154 
0.5899999999999513, -1.3963562374081333 
0.5999999999999502, -1.3987910142373243 
0.6099999999999491, -1.4007958263782214 
0.619999999999948, -1.4023030056523995 
0.6299999999999469, -1.4033168243287553 
0.6399999999999458, -1.4038746351006741 
0.6499999999999447, -1.4040280127394855 
0.6599999999999436, -1.403833730404561 
0.6699999999999425, -1.403350172709053 
0.6799999999999414, -1.4026393085259907 
0.6899999999999403, -1.4017735066154433 
0.6999999999999392, -1.4008413136177738 
0.7099999999999381, -1.399944978351254 
0.719999999999937, -1.3991891736893065 
0.7299999999999359, -1.3986592950143337 
0.7399999999999348, -1.3983826965818191 
0.7499999999999337, -1.3982977544059119 
0.7599999999999326, -1.3982757956741951 
0.7699999999999315, -1.3981765452395574 
0.7799999999999304, -1.3978742779707671 
0.7899999999999293, -1.397238007145512 
0.7999999999999282, -1.3960896536965974 
0.8099999999999271, -1.3941619815543216 
0.819999999999926, -1.3910733487617744 
0.8299999999999249, -1.386349579665999 
0.8399999999999238, -1.3795504731403372 
0.8499999999999227, -1.370582515260478 
0.8599999999999216, -1.3602119918159015 
0.8699999999999205, -1.3504014734852443 
0.8799999999999194, -1.3435438739696868 
0.8899999999999183, -1.340598599211908 
0.8999999999999172, -1.3404333490228815 
0.9099999999999161, -1.3413034174070075 
0.919999999999915, -1.3421542215082227 
0.9299999999999139, -1.3426477322077095 
0.9399999999999128, -1.3427571444546933 
0.9499999999999117, -1.3425077579364744 
0.9599999999999106, -1.3418773907101387 
0.9699999999999095, -1.3407650411941208 
0.9799999999999084, -1.3390046601382404 
0.9899999999999073, -1.3365100204732199 
0.9999999999999062, -1.3337669698507892 
1.0099999999999052, -1.3326912659266477 
1.019999999999904, -1.3365693268682386 
1.029999999999903, -1.3471855460216573 
1.039999999999902, -1.3619736364172166 
1.0499999999999008, -1.376225388568767 
1.0599999999998997, -1.3870505804049489 
1.0699999999998986, -1.3940994291751339 
1.0799999999998975, -1.3982352003558864 
1.0899999999998964, -1.4004562192565535 
1.0999999999998953, -1.4015067546041737 
1.1099999999998942, -1.4018535113127288 
1.119999999999893, -1.4017681660899368 
1.129999999999892, -1.4014164548537658 
1.1399999999998909, -1.400934518005747 
1.1499999999998898, -1.4004851500178042 
1.1599999999998887, -1.400260600178375 
1.1699999999998876, -1.4004036647545601 
1.1799999999998865, -1.4009163241516729 
1.1899999999998854, -1.401670389185278 
1.1999999999998843, -1.402498051676355 
1.2099999999998832, -1.403257996695381 
1.219999999999882, -1.4038507428176854 
1.229999999999881, -1.4042117497068 
1.2399999999998799, -1.4043003680889796 
1.2499999999998788, -1.4040901659232925 
1.2599999999998777, -1.4035630355980548 
1.2699999999998766, -1.4027073821796974 
1.2799999999998755, -1.4015200238668652 
1.2899999999998744, -1.4000128153748546 
1.2999999999998733, -1.3982265618554217 
1.3099999999998722, -1.3962546117107424 
1.319999999999871, -1.394271713722837 
1.32999999999987, -1.3925370793811631 
1.3399999999998689, -1.3913088880148017 
1.3499999999998678, -1.3906768883440637 
1.3599999999998666, -1.3904878353402412 
1.3699999999998655, -1.3904717437284644 
1.3799999999998644, -1.390400877172582 
1.3899999999998633, -1.3901234003290348 
1.3999999999998622, -1.3895033826717085 
1.4099999999998611, -1.3883340003786173 
1.41999999999986, -1.3862343186131885 
1.429999999999859, -1.3825189105180207 
1.4399999999998578, -1.3760892537032543 
1.4499999999998567, -1.3656080353903164 
1.4599999999998556, -1.3505574692313176 
1.4699999999998545, -1.3333626569596682 
1.4799999999998534, -1.3199369373872207 
1.4899999999998523, -1.3149486456216082 
1.4999999999998512, -1.3169891462959469 
1.5099999999998501, -1.321412316739403 
1.519999999999849, -1.3251990561182971 
1.529999999999848, -1.3276213900872533 
1.5399999999998468, -1.3289239666272508 
1.5499999999998457, -1.3294755682342334 
1.5599999999998446, -1.329528742095302 
1.5699999999998435, -1.3292119637694855 
1.5799999999998424, -1.32857298600373 
1.5899999999998413, -1.3276460840209854 
1.5999999999998402, -1.3265851181382307 
1.6099999999998391, -1.3258944880894945 
1.619999999999838, -1.3265756848992833 
1.629999999999837, -1.3296894490005078 
1.6399999999998358, -1.3353591457369292 
1.6499999999998347, -1.3424594946478439 
1.6599999999998336, -1.3494895788116092 
1.6699999999998325, -1.3554397105430223 
1.6799999999998314, -1.3599441573220676 
1.6899999999998303, -1.363055170928933 
1.6999999999998292, -1.3650103413191286 
1.709999999999828, -1.3660883617556498 
1.719999999999827, -1.366536554541435 
1.729999999999826, -1.3665459814323095 
1.7399999999998248, -1.3662573368624975 
1.7499999999998237, -1.3657844378061719 
1.7599999999998226, -1.3652413816418092 
1.7699999999998215, -1.3647530927264968 
1.7799999999998204, -1.364431719563491 
1.7899999999998193, -1.3643348141567884 
1.7999999999998182, -1.3644490881052553 
1.809999999999817, -1.3647094231373351 
1.819999999999816, -1.3650245048934164 
1.8299999999998149, -1.365296259909579 
1.8399999999998138, -1.365434931948624 
1.8499999999998127, -1.365365060842812 
1.8599999999998116, -1.3650214995298486 
1.8699999999998105, -1.3643434327209956 
1.8799999999998094, -1.3632731235030637 
1.8899999999998083, -1.361760189672377 
1.8999999999998072, -1.3597701615928162 
1.909999999999806, -1.357299481355302 
1.919999999999805, -1.3544042508118093 
1.9299999999998039, -1.3512488361117558 
1.9399999999998028, -1.348155659224428 
1.9499999999998017, -1.345576118880532 
1.9599999999998006, -1.3438875298544508 
1.9699999999997995, -1.343126756626176 
1.9799999999997984, -1.3429803250148225 
1.9899999999997973, -1.3430507582538165 
1.9999999999997962, -1.343062740034424 
2.0099999999998173, -1.3428674154583082 
2.0199999999998384, -1.3423547855743265 
2.0299999999998595, -1.3413620590538222 
2.0399999999998806, -1.3395802568867439 
2.0499999999999017, -1.3364370283547313 
2.059999999999923, -1.3309808347973358 
2.069999999999944, -1.3219726758157693 
2.079999999999965, -1.3087406777218216 
2.089999999999986, -1.29318077237042 
2.100000000000007, -1.2808197155624739 
2.1100000000000283, -1.2768457919056433 
2.1200000000000494, -1.2805520180817145 
2.1300000000000705, -1.2870290879785409 
2.1400000000000916, -1.2925906812501138 
2.1500000000001127, -1.2962380287976836 
2.160000000000134, -1.2982983473115386 
2.170000000000155, -1.2993100616279447 
2.180000000000176, -1.2996635909859626 
2.190000000000197, -1.2995790754461352 
2.2000000000002182, -1.2991590926416556 
2.2100000000002393, -1.2984484399037997 
2.2200000000002604, -1.2975179157863503 
2.2300000000002815, -1.2966159902110672 
2.2400000000003026, -1.2963660170901308 
2.2500000000003237, -1.2977449752154446 
2.260000000000345, -1.3014915009798869 
2.270000000000366, -1.3073492899598707 
2.280000000000387, -1.31415523829385 
2.290000000000408, -1.3206595579776201 
2.3000000000004293, -1.3260918038212866 
2.3100000000004504, -1.3301921015749731 
2.3200000000004715, -1.333023856018147 
2.3300000000004926, -1.3347994062373971 
2.3400000000005137, -1.3357672277580612 
2.3500000000005348, -1.3361503636775796 
2.360000000000556, -1.33612346551081 
2.370000000000577, -1.3358176780932343 
2.380000000000598, -1.3353423516741798 
2.390000000000619, -1.3348102333730278 
2.4000000000006403, -1.3343462704065545 
2.4100000000006614, -1.3340629349986846 
2.4200000000006825, -1.334017248784538 
2.4300000000007036, -1.3341929411721503 
2.4400000000007247, -1.33452024709341 
2.450000000000746, -1.3349051212872816 
2.460000000000767, -1.3352504597945034 
2.470000000000788, -1.335470102844504 
2.480000000000809, -1.3354943562554265 
2.49000000000083, -1.3352673417372387 
2.5000000000008513, -1.3347423579806343 
2.5100000000008724, -1.3338803798749015 
2.5200000000008935, -1.3326521463029284 
2.5300000000009146, -1.3310427313975157 
2.5400000000009357, -1.329059794342234 
2.550000000000957, -1.3267495417761184 
2.560000000000978, -1.3242238614706299 
2.570000000000999, -1.3216916935312926 
2.58000000000102, -1.319458102851192 
2.5900000000010412, -1.3178284334062442 
2.6000000000010624, -1.3169283961415947 
2.6100000000010835, -1.316613158989829 
2.6200000000011046, -1.3165874734787248 
2.6300000000011257, -1.3165869190772577 
2.6400000000011468, -1.31644179278794 
2.650000000001168, -1.3160339809497366 
2.660000000001189, -1.315222544402273 
2.67000000000121, -1.3137644726408404 
2.680000000001231, -1.3112207459769858 
2.6900000000012523, -1.3068498509485063 
2.7000000000012734, -1.2995712133842576 
2.7100000000012945, -1.2882636053819085 
2.7200000000013156, -1.272802167652332 
2.7300000000013367, -1.2556008173594595 
2.740000000001358, -1.2415452751744325 
2.750000000001379, -1.2344578033491163 
2.7600000000014, -1.2337920491349987 
2.770000000001421, -1.2362021657281734 
2.780000000001442, -1.238958088419969 
2.7900000000014633, -1.240987217675738 
2.8000000000014844, -1.2421924222723675 
2.8100000000015055, -1.2427596440146769 
2.8200000000015266, -1.2428648168564627 
2.8300000000015477, -1.2426040360947876 
2.840000000001569, -1.241993731256789 
2.85000000000159, -1.240989005693457 
2.860000000001611, -1.2395347120872053 
2.870000000001632, -1.237722241935493 
2.8800000000016532, -1.2361517607564787 
2.8900000000016743, -1.2363755355692756 
2.9000000000016954, -1.240631530991619 
2.9100000000017165, -1.2501077896580584 
2.9200000000017377, -1.263285323397047 
2.9300000000017588, -1.276866927153576 
2.94000000000178, -1.2881800164584125 
2.950000000001801, -1.2962729150546912 
2.960000000001822, -1.3014559051685404 
2.970000000001843, -1.3044947253205241 
2.9800000000018643, -1.3061174145726384 
2.9900000000018854, -1.306851688528464 
3.0000000000019065, -1.307032010186496 
3.0100000000019276, -1.3068591991015235 
3.0200000000019487, -1.3064651991836373 
3.03000000000197, -1.305973795479905 
3.040000000001991, -1.305549540077091 
3.050000000002012, -1.3054015945889337 
3.060000000002033, -1.305706866580112 
3.070000000002054, -1.3065007784434628 
3.0800000000020753, -1.3076559734445408 
3.0900000000020964, -1.3089692556127805 
3.1000000000021175, -1.3102554018209331 
3.1100000000021386, -1.3113846001081468 
3.1200000000021597, -1.3122791193708843 
3.130000000002181, -1.3128983428104357 
3.140000000002202, -1.3132254532080667 
3.150000000002223, -1.313258924389775 
3.160000000002244, -1.313008333175809 
3.1700000000022652, -1.3124930434546322 
3.1800000000022863, -1.3117429940642225 
3.1900000000023074, -1.3108018250343052 
3.2000000000023285, -1.3097317811761815 
3.2100000000023496, -1.308617139945606 
3.2200000000023707, -1.307561718140572 
3.230000000002392, -1.3066765007190448 
3.240000000002413, -1.3060511236189492 
3.250000000002434, -1.305710889900178 
3.260000000002455, -1.3055918135909839 
3.2700000000024763, -1.3055673390806066 
3.2800000000024974, -1.3055017862892773 
3.2900000000025185, -1.3052777079771483 
3.3000000000025396, -1.3047842054742234 
3.3100000000025607, -1.3038870345432882 
3.3200000000025818, -1.3024009915468242 
3.330000000002603, -1.3000784942874077 
3.340000000002624, -1.2966290909522953 
3.350000000002645, -1.2917861410738452 
3.360000000002666, -1.2854332973048817 
3.3700000000026873, -1.2777917910435663 
3.3800000000027084, -1.2696165359006133 
3.3900000000027295, -1.2621967946785195 
3.4000000000027506, -1.256857149573073 
3.4100000000027717, -1.2541137589463713 
3.420000000002793, -1.2533867206152596 
3.430000000002814, -1.2536419250775448 
3.440000000002835, -1.2541036389107618 
3.450000000002856, -1.254412281390556 
3.460000000002877, -1.2544554872281926 
3.4700000000028983, -1.2541953112261772 
3.4800000000029194, -1.2535689874872007 
3.4900000000029405, -1.2524278845506027 
3.5000000000029616, -1.2504784244399954 
3.5100000000029827, -1.2472259890386455 
3.520000000003004, -1.2420148322879134 
3.530000000003025, -1.2344494153568573 
3.540000000003046, -1.2255498440612944 
3.550000000003067, -1.2189442930400471 
3.5600000000030882, -1.2193014819012604 
3.5700000000031094, -1.2275551215865659 
3.5800000000031305, -1.2394721405218712 
3.5900000000031516, -1.2501709002348544 
3.6000000000031727, -1.2576299113817924 
3.6100000000031938, -1.2621200531035959 
3.620000000003215, -1.264576955325409 
3.630000000003236, -1.2657915080843933 
3.640000000003257, -1.2662622159668548 
3.650000000003278, -1.2662628813757633 
3.6600000000032993, -1.265930279512089 
3.6700000000033204, -1.2653362937608832 
3.6800000000033415, -1.264565651043457 
3.6900000000033626, -1.2638304956321076 
3.7000000000033837, -1.2636011792185584 
3.710000000003405, -1.264585193296773 
3.720000000003426, -1.2673477501396064 
3.730000000003447, -1.2718089742988987 
3.740000000003468, -1.2772276598058507 
3.750000000003489, -1.2826891930128759 
3.7600000000035103, -1.287525495460423 
3.7700000000035314, -1.2914102630294773 
3.7800000000035525, -1.2942757294535858 
3.7900000000035736, -1.2962073660313929 
3.8000000000035947, -1.29736346514376 
3.810000000003616, -1.2979189856067326 
3.820000000003637, -1.29803125278961 
3.830000000003658, -1.2978278104300889 
3.840000000003679, -1.2974135480030673 
3.8500000000037002, -1.2968892513704584 
3.8600000000037213, -1.2963673829969766 
3.8700000000037424, -1.2959660908402382 
3.8800000000037635, -1.2957756841083703 
3.8900000000037847, -1.2958243783105494 
3.9000000000038058, -1.2960755289334336 
3.910000000003827, -1.2964510164335399 
3.920000000003848, -1.296856561820711 
3.930000000003869, -1.2972003677724486 
3.94000000000389, -1.2974046901385612 
3.9500000000039113, -1.297408790916777 
3.9600000000039324, -1.2971659512546607 
3.9700000000039535, -1.296640265906435 
3.9800000000039746, -1.2958060719148021 
3.9900000000039957, -1.2946494697477298 
4.000000000004016, -1.2931713937380382 
4.010000000003993, -1.2913937231061678 
4.02000000000397, -1.2893709356468657 
4.030000000003946, -1.2872078769879265 
4.040000000003923, -1.2850767799306566 
4.0500000000039, -1.2832096607162287 
4.0600000000038765, -1.2818297651510602 
4.070000000003853, -1.2810312218922104 
4.08000000000383, -1.2807129255483587 
4.090000000003807, -1.2806504859578847 
4.100000000003783, -1.2806239941817108 
4.11000000000376, -1.2804765948148673 
4.120000000003737, -1.280091580560564 
4.130000000003713, -1.2793368078735115 
4.14000000000369, -1.2780033081688764 
4.150000000003667, -1.2757404701888664 
4.1600000000036434, -1.271997554510044 
4.17000000000362, -1.2660246194605576 
4.180000000003597, -1.257057204142511 
4.1900000000035735, -1.2448366454026072 
4.20000000000355, -1.2303984089898965 
4.210000000003527, -1.2164297670616877 
4.220000000003504, -1.2061285722237183 
4.23000000000348, -1.2009698755096454 
4.240000000003457, -1.1998821966842088 
4.250000000003434, -1.2007372263098637 
4.26000000000341, -1.2019739679094994 
4.270000000003387, -1.2029300063920538 
4.280000000003364, -1.2034665903483137 
4.2900000000033405, -1.2036188055889756 
4.300000000003317, -1.2034293806713665 
4.310000000003294, -1.2028888462591953 
4.320000000003271, -1.2019097401246182 
4.330000000003247, -1.2003074898815576 
4.340000000003224, -1.1978062582035471 
4.350000000003201, -1.1941642283838287 
4.360000000003177, -1.1896201389806287 
4.370000000003154, -1.1857514361190291 
4.380000000003131, -1.1858978269368357 
4.390000000003107, -1.1932440943413112 
4.400000000003084, -1.2072098086857888 
4.410000000003061, -1.223190211027505 
4.4200000000030375, -1.2366461427318298 
4.430000000003014, -1.2459099862107448 
4.440000000002991, -1.2515189699029705 
4.450000000002968, -1.2546362475738657 
4.460000000002944, -1.2562324362989044 
4.470000000002921, -1.2569295296576146 
4.480000000002898, -1.257079623029354 
4.490000000002874, -1.2568688259464533 
4.500000000002851, -1.2563993911787585 
4.510000000002828, -1.2557633633697365 
4.520000000002804, -1.2551309223370106 
4.530000000002781, -1.254841222497194 
4.540000000002758, -1.2553923309845365 
4.5500000000027345, -1.257204032547933 
4.560000000002711, -1.2602869863713921 
4.570000000002688, -1.2641939019522892 
4.580000000002665, -1.2683065854997255 
4.590000000002641, -1.2721230600224849 
4.600000000002618, -1.2753501523191217 
4.610000000002595, -1.2778687205957446 
4.620000000002571, -1.27967469782673 
4.630000000002548, -1.2808336479179838 
4.640000000002525, -1.2814474499781137 
4.6500000000025015, -1.2816280529492854 
4.660000000002478, -1.2814801870261403 
4.670000000002455, -1.281096918867172 
4.6800000000024315, -1.2805674848009325 
4.690000000002408, -1.2799893878938589 
4.700000000002385, -1.2794699105738299 
4.710000000002362, -1.279106026512089 
4.720000000002338, -1.278953615256162 
4.730000000002315, -1.2790122324435615 
4.740000000002292, -1.2792331676216215 
4.750000000002268, -1.2795371853409259 
4.760000000002245, -1.27983329530895 
4.770000000002222, -1.2800355927013025 
4.7800000000021985, -1.2800723181272247 
4.790000000002175, -1.2798857446815972 
4.800000000002152, -1.279428810360486 
4.810000000002129, -1.2786640642956217 
4.820000000002105, -1.277565668941495 
4.830000000002082, -1.2761227841641536 
4.840000000002059, -1.2743442426459677 
4.850000000002035, -1.2722670603659019 
4.860000000002012, -1.2699715588943818 
4.870000000001989, -1.2676013717204029 
4.880000000001965, -1.2653737510354073 
4.890000000001942, -1.2635458790841576 
4.900000000001919, -1.262311002454361 
4.9100000000018955, -1.2616807410211093 
4.920000000001872, -1.261478029301367 
4.930000000001849, -1.261456052648371 
4.940000000001826, -1.2614118229248623 
