t, s[1].omega / s[0].omega 
0, -1.4800704244320575 
0.009999999999999995, -1.4858296077275475 
0.019999999999999934, -1.489411374136114 
0.029999999999999874, -1.4914311029891838 
0.04000000000000012, -1.4924124476876766 
0.050000000000000405, -1.4927236086932265 
0.06000000000000069, -1.4926027446965486 
0.07000000000000098, -1.4922087423111765 
0.08000000000000126, -1.4916728958370937 
0.09000000000000155, -1.4911311634402984 
0.10000000000000184, -1.4907122474654588 
0.11000000000000212, -1.490491742993941 
0.12000000000000241, -1.4904707178074121 
0.130000000000002, -1.490595421142603 
0.1400000000000009, -1.4907776787720317 
0.1499999999999998, -1.490909827465618 
0.1599999999999987, -1.4908841251369478 
0.1699999999999976, -1.4905994476527573 
0.1799999999999965, -1.4899473234688931 
0.1899999999999954, -1.488791625722869 
0.1999999999999943, -1.4869567581465364 
0.2099999999999932, -1.4842329015772127 
0.2199999999999921, -1.4804105251613153 
0.229999999999991, -1.4753772744756852 
0.2399999999999899, -1.4693343300041504 
0.2499999999999888, -1.4631035523826497 
0.2599999999999877, -1.4581105532262408 
0.2699999999999866, -1.4554597672483425 
0.2799999999999855, -1.4549051896742322 
0.2899999999999844, -1.4553191797926484 
0.2999999999999833, -1.4558178685484413 
0.3099999999999822, -1.456052216479228 
0.3199999999999811, -1.4559464898561587 
0.32999999999998, -1.455467776739896 
0.3399999999999789, -1.4545214637087 
0.3499999999999778, -1.452922187028258 
0.35999999999997667, -1.4504913892986182 
0.36999999999997557, -1.4475450083270616 
0.37999999999997447, -1.445969699662851 
0.38999999999997337, -1.4494059966245518 
0.39999999999997227, -1.4596981148248862 
0.40999999999997117, -1.4735957540173592 
0.41999999999997006, -1.4862109052486594 
0.42999999999996896, -1.4952535338791801 
0.43999999999996786, -1.500873282191844 
0.44999999999996676, -1.5040367381121915 
0.45999999999996566, -1.5056414412830235 
0.46999999999996456, -1.506302078292722 
0.47999999999996346, -1.506390567364196 
0.48999999999996235, -1.5061271343716167 
0.49999999999996125, -1.5056646122384794 
0.5099999999999602, -1.505151028265162 
0.519999999999959, -1.5047448047395324 
0.529999999999958, -1.5045639049933628 
0.5399999999999568, -1.5046271794733532 
0.5499999999999557, -1.5048668940914378 
0.5599999999999546, -1.5051801628830754 
0.5699999999999535, -1.505457739945919 
0.5799999999999524, -1.5055962618018428 
0.5899999999999513, -1.5055042251447315 
0.5999999999999502, -1.505094777933936 
0.6099999999999491, -1.504270556941803 
0.619999999999948, -1.5029127959882245 
0.6299999999999469, -1.500881327709204 
0.6399999999999458, -1.4980303126206287 
0.6499999999999447, -1.494255980603477 
0.6599999999999436, -1.4896154567448576 
0.6699999999999425, -1.484543234480194 
0.6799999999999414, -1.4799990733913562 
0.6899999999999403, -1.477062055261172 
0.6999999999999392, -1.4760004181113724 
0.7099999999999381, -1.47609219398771 
0.719999999999937, -1.476476303655775 
0.7299999999999359, -1.4766994974144845 
0.7399999999999348, -1.4766191188630442 
0.7499999999999337, -1.476177229982045 
0.7599999999999326, -1.4752674613942474 
0.7699999999999315, -1.4736746262754092 
0.7799999999999304, -1.4711142425117516 
0.7899999999999293, -1.4676295249780502 
0.7999999999999282, -1.4647637470057546 
0.8099999999999271, -1.466488351679557 
0.819999999999926, -1.476010382601986 
0.8299999999999249, -1.490645089753987 
0.8399999999999238, -1.5045405213002092 
0.8499999999999227, -1.514555394385052 
0.8599999999999216, -1.520705133925206 
0.8699999999999205, -1.5241105980530687 
0.8799999999999194, -1.52581519303135 
0.8899999999999183, -1.526514950516277 
0.8999999999999172, -1.5266183533782092 
0.9099999999999161, -1.5263601682496115 
0.919999999999915, -1.5258996585746387 
0.9299999999999139, -1.5253907996987877 
0.9399999999999128, -1.5249988939238304 
0.9499999999999117, -1.5248439315135227 
0.9599999999999106, -1.5249378207704753 
0.9699999999999095, -1.5252027898075033 
0.9799999999999084, -1.5255295821052908 
0.9899999999999073, -1.5258067728908182 
0.9999999999999062, -1.5259310377108064 
1.0099999999999052, -1.5258108828956405 
1.019999999999904, -1.5253572258173302 
1.029999999999903, -1.5244667118390742 
1.039999999999902, -1.523009996980124 
1.0499999999999008, -1.5208317044312123 
1.0599999999998997, -1.5177690366610004 
1.0699999999998986, -1.513712192996592 
1.0799999999998975, -1.5087572561683935 
1.0899999999998964, -1.503469193613577 
1.0999999999998953, -1.4989893761091284 
1.1099999999998942, -1.496403006617908 
1.119999999999893, -1.495717466393697 
1.129999999999892, -1.4960041343279045 
1.1399999999998909, -1.4964198565449984 
1.1499999999998898, -1.4965983145582267 
1.1599999999998887, -1.4964439416547834 
1.1699999999998876, -1.4959052170005736 
1.1799999999998865, -1.4948637367747888 
1.1899999999998854, -1.4931066645739108 
1.1999999999998843, -1.4904698511536125 
1.2099999999998832, -1.4874906501404725 
1.219999999999882, -1.4866299068038342 
1.229999999999881, -1.491729215093019 
1.2399999999998799, -1.5033424273507094 
1.2499999999998788, -1.516969193897183 
1.2599999999998777, -1.5281961036755831 
1.2699999999998766, -1.5357357139156915 
1.2799999999998755, -1.540210533849009 
1.2899999999998744, -1.54262245832285 
1.2999999999998733, -1.543761121144017 
1.3099999999998722, -1.5441320034063097 
1.319999999999871, -1.5440335921496584 
1.32999999999987, -1.543649950523253 
1.3399999999998689, -1.5431275402237334 
1.3499999999998678, -1.5426181029973405 
1.3599999999998666, -1.54226028238076 
1.3699999999998655, -1.5421208733677485 
1.3799999999998644, -1.5421780701535228 
1.3899999999998633, -1.5423575570622297 
1.3999999999998622, -1.5425595199772657 
1.4099999999998611, -1.5426723817788228 
1.41999999999986, -1.5425879641155615 
1.429999999999859, -1.5422008086956898 
1.4399999999998578, -1.5413873873260042 
1.4499999999998567, -1.5399814619915084 
1.4599999999998556, -1.5377598501641667 
1.4699999999998545, -1.5344506615909297 
1.4799999999998534, -1.52979331956738 
1.4899999999998523, -1.5237244285639149 
1.4999999999998512, -1.5167716545317396 
1.5099999999998501, -1.5104101997414623 
1.519999999999849, -1.5064299073854168 
1.529999999999848, -1.5052480255444283 
1.5399999999998468, -1.5056506212970022 
1.5499999999998457, -1.506348157973999 
1.5599999999998446, -1.5067749929174743 
1.5699999999998435, -1.5068220540955597 
1.5799999999998424, -1.5064895510317327 
1.5899999999998413, -1.5057377478724818 
1.5999999999998402, -1.5044626976939894 
1.6099999999998391, -1.5026131968890768 
1.619999999999838, -1.5006472704473783 
1.629999999999837, -1.5003136632426664 
1.6399999999998358, -1.504233285444791 
1.6499999999998347, -1.5128667897798291 
1.6599999999998336, -1.5232780304369706 
1.6699999999998325, -1.5323248351816536 
1.6799999999998314, -1.5388142890156484 
1.6899999999998303, -1.5429427285625161 
1.6999999999998292, -1.5453241694336897 
1.709999999999828, -1.5465300064400016 
1.719999999999827, -1.5469736447386562 
1.729999999999826, -1.5469244548728298 
1.7399999999998248, -1.546557475181999 
1.7499999999998237, -1.54600707996656 
1.7599999999998226, -1.545404785162783 
1.7699999999998215, -1.544877414736611 
1.7799999999998204, -1.5445114317559454 
1.7899999999998193, -1.5443335456607952 
1.7999999999998182, -1.5443183232308448 
1.809999999999817, -1.544389581248316 
1.819999999999816, -1.5444308575824315 
1.8299999999998149, -1.5443160450953668 
1.8399999999998138, -1.5439203946359252 
1.8499999999998127, -1.5430946007339528 
1.8599999999998116, -1.5416214740760341 
1.8699999999998105, -1.5391758913858324 
1.8799999999998094, -1.535309697794343 
1.8899999999998083, -1.529515397952264 
1.8999999999998072, -1.5215025516747704 
1.909999999999806, -1.5118629087373194 
1.919999999999805, -1.5027838782764802 
1.9299999999998039, -1.4971457902606882 
1.9399999999998028, -1.495684017897093 
1.9499999999998017, -1.4965112968250265 
1.9599999999998006, -1.497692991487922 
1.9699999999997995, -1.498464107494578 
1.9799999999997984, -1.4987419325642781 
1.9899999999997973, -1.4985988186602608 
1.9999999999997962, -1.498069682116364 
2.0099999999998173, -1.4971310833517308 
2.0199999999998384, -1.4957944155761005 
2.0299999999998595, -1.4944087736983986 
2.0399999999998806, -1.4941403054242421 
2.0499999999999017, -1.4967340112648246 
2.059999999999923, -1.5026958410617601 
2.069999999999944, -1.510313104602819 
2.079999999999965, -1.5174071273198455 
2.089999999999986, -1.5228879898409549 
2.100000000000007, -1.5266487871096437 
2.1100000000000283, -1.5289905933945753 
2.1200000000000494, -1.5302807568316297 
2.1300000000000705, -1.530829213147676 
2.1400000000000916, -1.530863801968085 
2.1500000000001127, -1.5305444467498261 
2.160000000000134, -1.5299931602366936 
2.170000000000155, -1.529324581195862 
2.180000000000176, -1.5286567817133416 
2.190000000000197, -1.5280935201304668 
2.2000000000002182, -1.5277029587335937 
2.2100000000002393, -1.5275085120688892 
2.2200000000002604, -1.5274719600712703 
2.2300000000002815, -1.5274881574476136 
2.2400000000003026, -1.5274210251304388 
2.2500000000003237, -1.5271371215632195 
2.260000000000345, -1.5264927632704088 
2.270000000000366, -1.5252862330290118 
2.280000000000387, -1.5231997757666673 
2.290000000000408, -1.5197514068225066 
2.3000000000004293, -1.514302292358148 
2.3100000000004504, -1.5062474095875475 
2.3200000000004715, -1.4956313903434215 
2.3300000000004926, -1.4841961389022411 
2.3400000000005137, -1.4754530945917455 
2.3500000000005348, -1.471821732201359 
2.360000000000556, -1.4721013694179912 
2.370000000000577, -1.4736221544002244 
2.380000000000598, -1.4748836471640254 
2.390000000000619, -1.4755581373783972 
2.4000000000006403, -1.4757234757914361 
2.4100000000006614, -1.4754798288461173 
2.4200000000006825, -1.4748595134093685 
2.4300000000007036, -1.4738539345388044 
2.4400000000007247, -1.4725551058508541 
2.450000000000746, -1.4714959211329457 
2.460000000000767, -1.4719707102944615 
2.470000000000788, -1.475373741947171 
2.480000000000809, -1.4815484859525605 
2.49000000000083, -1.488687236716381 
2.5000000000008513, -1.4950508998330947 
2.5100000000008724, -1.4998957157232389 
2.5200000000008935, -1.5032106245550096 
2.5300000000009146, -1.5052695892810748 
2.5400000000009357, -1.5063880033150951 
2.550000000000957, -1.5068332024383686 
2.560000000000978, -1.506805275268512 
2.570000000000999, -1.5064488014109827 
2.58000000000102, -1.5058791120336468 
2.5900000000010412, -1.5052086317960933 
2.6000000000010624, -1.5045534445989144 
2.6100000000010835, -1.5040134720923208 
2.6200000000011046, -1.5036513296010152 
2.6300000000011257, -1.5034833909026069 
2.6400000000011468, -1.5034658317314034 
2.650000000001168, -1.5034937428429904 
2.660000000001189, -1.50343590340165 
2.67000000000121, -1.503164697027881 
2.680000000001231, -1.5025444147777187 
2.6900000000012523, -1.5013902760318047 
2.7000000000012734, -1.4994221307808862 
2.7100000000012945, -1.4962318625833921 
2.7200000000013156, -1.4912991834772014 
2.7300000000013367, -1.4841419009700199 
2.740000000001358, -1.4747604624310282 
2.750000000001379, -1.4644110951957576 
2.7600000000014, -1.4558511500922497 
2.770000000001421, -1.4514743144831384 
2.780000000001442, -1.4509078817382854 
2.7900000000014633, -1.4519759383703106 
2.8000000000014844, -1.4530961705517884 
2.8100000000015055, -1.4537617069073783 
2.8200000000015266, -1.453958244526464 
2.8300000000015477, -1.4537542041239324 
2.840000000001569, -1.4531672470245736 
2.85000000000159, -1.4521555218322737 
2.860000000001611, -1.4507075790316422 
2.870000000001632, -1.449142473851227 
2.8800000000016532, -1.4486371337180357 
2.8900000000016743, -1.4511620618749297 
2.9000000000016954, -1.4576670514225478 
2.9100000000017165, -1.466547945489589 
2.9200000000017377, -1.4751876691754842 
2.9300000000017588, -1.4820295056516277 
2.94000000000178, -1.4867844778982142 
2.950000000001801, -1.4897803296282879 
2.960000000001822, -1.4914813531253024 
2.970000000001843, -1.4922907198805535 
2.9800000000018643, -1.4925029472124542 
2.9900000000018854, -1.492317717558794 
3.0000000000019065, -1.4918763209884423 
3.0100000000019276, -1.4913016932860326 
3.0200000000019487, -1.4907212262386136 
3.03000000000197, -1.4902519356103041 
3.040000000001991, -1.489963695662409 
3.050000000002012, -1.489865812821568 
3.060000000002033, -1.4899169946625894 
3.070000000002054, -1.4900324459650225 
3.0800000000020753, -1.490099812321477 
3.0900000000020964, -1.490004696748017 
3.1000000000021175, -1.4896367245234337 
3.1100000000021386, -1.4888699937809302 
3.1200000000021597, -1.4875363760245814 
3.130000000002181, -1.4854085422071472 
3.140000000002202, -1.48220536503927 
3.150000000002223, -1.4776417939240012 
3.160000000002244, -1.4715753218525505 
3.1700000000022652, -1.464323308386327 
3.1800000000022863, -1.4570563630413809 
3.1900000000023074, -1.4516054782672312 
3.2000000000023285, -1.4490835064587695 
3.2100000000023496, -1.4488503945138553 
3.2200000000023707, -1.4494930849957548 
3.230000000002392, -1.450099087907375 
3.240000000002413, -1.4503736792076254 
3.250000000002434, -1.450282114484265 
3.260000000002455, -1.449814285782904 
3.2700000000024763, -1.448896637960484 
3.2800000000024974, -1.4473859855522058 
3.2900000000025185, -1.4452044731918263 
3.3000000000025396, -1.4428496006329927 
3.3100000000025607, -1.4422829699884367 
3.3200000000025818, -1.4465924458463202 
3.330000000002603, -1.4566555924998938 
3.340000000002624, -1.4692424137778533 
3.350000000002645, -1.4804019758034466 
3.360000000002666, -1.4884362525820864 
3.3700000000026873, -1.4935144343458258 
3.3800000000027084, -1.4964281208350474 
3.3900000000027295, -1.4979269830193809 
3.4000000000027506, -1.4985430853556685 
3.4100000000027717, -1.498610682739546 
3.420000000002793, -1.4983350085592462 
3.430000000002814, -1.4978623922383147 
3.440000000002835, -1.497334186142467 
3.450000000002856, -1.4968987771741307 
3.460000000002877, -1.49666683366922 
3.4700000000028983, -1.4966620671233672 
3.4800000000029194, -1.4968312879238788 
3.4900000000029405, -1.4970838918701872 
3.5000000000029616, -1.4973145238829049 
3.5100000000029827, -1.4974176747776027 
3.520000000003004, -1.4972972915838672 
3.530000000003025, -1.4968603986330815 
3.540000000003046, -1.4960006149605822 
3.550000000003067, -1.4945855891532716 
3.5600000000030882, -1.4924564043173298 
3.5700000000031094, -1.4894447892681904 
3.5800000000031305, -1.4854255138474355 
3.5900000000031516, -1.4804456397301278 
3.6000000000031727, -1.474960584323133 
3.6100000000031938, -1.4700030156154715 
3.620000000003215, -1.466759976661939 
3.630000000003236, -1.4655605635632243 
3.640000000003257, -1.4656446493816764 
3.650000000003278, -1.466074989652648 
3.6600000000032993, -1.466352584666455 
3.6700000000033204, -1.4663245723413636 
3.6800000000033415, -1.465941514872012 
3.6900000000033626, -1.4651159967449532 
3.7000000000033837, -1.4636608156895101 
3.710000000003405, -1.4613148296441625 
3.720000000003426, -1.4580661886176247 
3.730000000003447, -1.4551693645160457 
3.740000000003468, -1.4561849164947165 
3.750000000003489, -1.4645881677068582 
3.7600000000035103, -1.4786397634693238 
3.7700000000035314, -1.4927605908222905 
3.7800000000035525, -1.5033558864544943 
3.7900000000035736, -1.510053227140624 
3.8000000000035947, -1.5138515040070322 
3.810000000003616, -1.5158076710498976 
3.820000000003637, -1.5166628325423273 
3.830000000003658, -1.516863320156667 
3.840000000003679, -1.5166660252383017 
3.8500000000037002, -1.5162367332599813 
3.8600000000037213, -1.5157251065864406 
3.8700000000037424, -1.5152953598342433 
3.8800000000037635, -1.5150845997492124 
3.8900000000037847, -1.515131777757585 
3.9000000000038058, -1.5153749044202693 
3.910000000003827, -1.5157077882069754 
3.920000000003848, -1.5160182784243932 
3.930000000003869, -1.5162011546175875 
3.94000000000389, -1.5161638949631435 
3.9500000000039113, -1.5158209997971144 
3.9600000000039324, -1.5150789991196594 
3.9700000000039535, -1.5138239469945076 
3.9800000000039746, -1.5119189268654096 
3.9900000000039957, -1.5092161443376302 
4.000000000004016, -1.5055980268495353 
4.010000000003993, -1.5010852631305351 
4.02000000000397, -1.4960493288990508 
4.030000000003946, -1.491400454617623 
4.040000000003923, -1.488267176790139 
4.0500000000039, -1.487048639116937 
4.0600000000038765, -1.48708347567909 
4.070000000003853, -1.4874738878351326 
4.08000000000383, -1.487722023477761 
4.090000000003807, -1.4876683026618192 
4.100000000003783, -1.4872552790272349 
4.11000000000376, -1.4863843849850713 
4.120000000003737, -1.4848532245105668 
4.130000000003713, -1.482395543558155 
4.14000000000369, -1.4790742605506202 
4.150000000003667, -1.476430111579745 
4.1600000000036434, -1.478342341802878 
4.17000000000362, -1.4878094760616967 
4.180000000003597, -1.5020679452502983 
4.1900000000035735, -1.515479601521847 
4.20000000000355, -1.5251190235806233 
4.210000000003527, -1.5310451912615508 
4.220000000003504, -1.5343337297803308 
4.23000000000348, -1.5359787926762103 
4.240000000003457, -1.536645975494117 
4.250000000003434, -1.5367287557046152 
4.26000000000341, -1.5364557893384885 
4.270000000003387, -1.535984569184155 
4.280000000003364, -1.5354674135112236 
4.2900000000033405, -1.5350633653060615 
4.300000000003317, -1.5348825121535632 
4.310000000003294, -1.5349332350496636 
4.320000000003271, -1.5351447203328303 
4.330000000003247, -1.5354157646379805 
4.340000000003224, -1.535636861956763 
4.350000000003201, -1.5357019877898432 
4.360000000003177, -1.5355140026422922 
4.370000000003154, -1.53497321551588 
4.380000000003131, -1.533957292443825 
4.390000000003107, -1.5323067055123505 
4.400000000003084, -1.5298242191433027 
4.410000000003061, -1.5263000767355952 
4.4200000000030375, -1.521598173110889 
4.430000000003014, -1.5158728657829452 
4.440000000002991, -1.5099120549866112 
4.450000000002968, -1.5051670887401518 
4.460000000002944, -1.5027663900975272 
4.470000000002921, -1.5023982634327633 
4.480000000002898, -1.5028818865867872 
4.490000000002874, -1.5033638952972423 
4.500000000002851, -1.5035429383510157 
4.510000000002828, -1.5033641490672829 
4.520000000002804, -1.5027916906385017 
4.530000000002781, -1.5017198889240229 
4.540000000002758, -1.4999841386116382 
4.5500000000027345, -1.4975937725453916 
4.560000000002711, -1.4954817215305427 
4.570000000002688, -1.4963448371875372 
4.580000000002665, -1.5029790747945577 
4.590000000002641, -1.5142826472696727 
4.600000000002618, -1.525996139402508 
4.610000000002595, -1.5351429997450479 
4.620000000002571, -1.5411942537638852 
4.630000000002548, -1.5447868820471495 
4.640000000002525, -1.5467155695515604 
4.6500000000025015, -1.5475909699428607 
4.660000000002478, -1.547810214711372 
4.670000000002455, -1.5476165316737511 
4.6800000000024315, -1.547170723256471 
4.690000000002408, -1.5466111857568312 
4.700000000002385, -1.5460798570312517 
4.710000000002362, -1.5456949587834916 
4.720000000002338, -1.545507146722081 
4.730000000002315, -1.5454987775720164 
4.740000000002292, -1.5456060190742726 
4.750000000002268, -1.5457289671964063 
4.760000000002245, -1.5457495414652285 
4.770000000002222, -1.5455515783757172 
4.7800000000021985, -1.5450141204265606 
4.790000000002175, -1.5439811261069374 
4.800000000002152, -1.542228265843105 
4.810000000002129, -1.5394431371014816 
4.820000000002105, -1.5352415013584717 
4.830000000002082, -1.52927945466122 
4.840000000002059, -1.521589100042866 
4.850000000002035, -1.513191792427922 
4.860000000002012, -1.5063213624784153 
4.870000000001989, -1.5028979797190405 
4.880000000001965, -1.5025334830542416 
4.890000000001942, -1.5034044996897469 
4.900000000001919, -1.5042466527267258 
4.9100000000018955, -1.5046771326942046 
4.920000000001872, -1.5046859188402328 
4.930000000001849, -1.50430610980007 
4.940000000001826, -1.50351388976891 
