t, s[1].omega / s[0].omega 
0, -0.25982526232934855 
0.009999999999999995, -0.24299991599453544 
0.019999999999999934, -0.229246568165824 
0.029999999999999874, -0.21936707555686352 
0.04000000000000012, -0.2127037603417604 
0.050000000000000405, -0.2083017782232761 
0.06000000000000069, -0.20539096938808243 
0.07000000000000098, -0.2034513340900898 
0.08000000000000126, -0.20215612454695236 
0.09000000000000155, -0.20130794330211751 
0.10000000000000184, -0.20079359278178996 
0.11000000000000212, -0.2005570745227546 
0.12000000000000241, -0.20058603244248677 
0.130000000000002, -0.20090834478477104 
0.1400000000000009, -0.20159778797438385 
0.1499999999999998, -0.2027897726369654 
0.1599999999999987, -0.20470967759884676 
0.1699999999999976, -0.20771538227581368 
0.1799999999999965, -0.21234502606486877 
0.1899999999999954, -0.21932128519688138 
0.1999999999999943, -0.2293674356870476 
0.2099999999999932, -0.24260401437301238 
0.2199999999999921, -0.2576426143373417 
0.229999999999991, -0.2715888346282408 
0.2399999999999899, -0.28193917043673006 
0.2499999999999888, -0.2882872545750702 
0.2599999999999877, -0.29173914298402104 
0.2699999999999866, -0.29353864810943125 
0.2799999999999855, -0.2944936401187258 
0.2899999999999844, -0.2950236935510752 
0.2999999999999833, -0.2953281473920583 
0.3099999999999822, -0.2955003604652704 
0.3199999999999811, -0.2955854071113099 
0.32999999999998, -0.29560655126387825 
0.3399999999999789, -0.2955776678495716 
0.3499999999999778, -0.2955101541779416 
0.35999999999997667, -0.2954180807001561 
0.36999999999997557, -0.29532270598565924 
0.37999999999997447, -0.295255703446007 
0.38999999999997337, -0.2952593835779825 
0.39999999999997227, -0.29538237867852624 
0.40999999999997117, -0.2956705813126027 
0.41999999999997006, -0.29615441065087067 
0.42999999999996896, -0.2968344301623175 
0.43999999999996786, -0.2976698254093875 
0.44999999999996676, -0.29857824740707184 
0.45999999999996566, -0.2994542459968851 
0.46999999999996456, -0.30020091539268073 
0.47999999999996346, -0.300755928796708 
0.48999999999996235, -0.3010969990444969 
0.49999999999996125, -0.3012291151049466 
0.5099999999999602, -0.30116596745137536 
0.519999999999959, -0.3009144742475051 
0.529999999999958, -0.3004638735839993 
0.5399999999999568, -0.29977695251388103 
0.5499999999999557, -0.2987812759833594 
0.5599999999999546, -0.2973620060316045 
0.5699999999999535, -0.2953660092371835 
0.5799999999999524, -0.2926382884872002 
0.5899999999999513, -0.2891105899381594 
0.5999999999999502, -0.2849150808699988 
0.6099999999999491, -0.2804171622053802 
0.619999999999948, -0.27608399961452273 
0.6299999999999469, -0.2722796985715548 
0.6399999999999458, -0.2691603475533594 
0.6499999999999447, -0.2667074409880801 
0.6599999999999436, -0.26481440679626206 
0.6699999999999425, -0.26335464092180755 
0.6799999999999414, -0.26221572440619856 
0.6899999999999403, -0.26131077288564425 
0.6999999999999392, -0.260579064196805 
0.7099999999999381, -0.2599831222241395 
0.719999999999937, -0.25950582442217346 
0.7299999999999359, -0.2591493943805966 
0.7399999999999348, -0.2589375458320051 
0.7499999999999337, -0.2589220604143661 
0.7599999999999326, -0.2591953160507664 
0.7699999999999315, -0.2599096660957517 
0.7799999999999304, -0.2612993902185289 
0.7899999999999293, -0.2636798763125955 
0.7999999999999282, -0.26733642999568713 
0.8099999999999271, -0.27210190211243174 
0.819999999999926, -0.2764830890264613 
0.8299999999999249, -0.27720145782049427 
0.8399999999999238, -0.2713873687584778 
0.8499999999999227, -0.2602415894525435 
0.8599999999999216, -0.24809268698184242 
0.8699999999999205, -0.2381306833545497 
0.8799999999999194, -0.2310860786505648 
0.8899999999999183, -0.2264294495537904 
0.8999999999999172, -0.2234241580449298 
0.9099999999999161, -0.22149387637043022 
0.919999999999915, -0.22025738102588793 
0.9299999999999139, -0.2194792422998221 
0.9399999999999128, -0.21902021389816126 
0.9499999999999117, -0.21880343687834264 
0.9599999999999106, -0.21879475035383314 
0.9699999999999095, -0.21899316301363764 
0.9799999999999084, -0.21942875219906818 
0.9899999999999073, -0.2201666781876125 
0.9999999999999062, -0.2213168597339294 
1.0099999999999052, -0.22304851863674613 
1.019999999999904, -0.22560540660360223 
1.029999999999903, -0.22930658117296532 
1.039999999999902, -0.23449340509997435 
1.0499999999999008, -0.2413571523515959 
1.0599999999998997, -0.2496307133735122 
1.0699999999998986, -0.2583701268589906 
1.0799999999998975, -0.2662577050271376 
1.0899999999998964, -0.27235781269969894 
1.0999999999998953, -0.27652877159257233 
1.1099999999998942, -0.2791628797764294 
1.119999999999893, -0.28075657984879304 
1.129999999999892, -0.2816950912271704 
1.1399999999998909, -0.2822248862988268 
1.1499999999998898, -0.28249038338703014 
1.1599999999998887, -0.2825724643306259 
1.1699999999998876, -0.2825148275531596 
1.1799999999998865, -0.2823405013835747 
1.1899999999998854, -0.2820631707247994 
1.1999999999998843, -0.2816965795992914 
1.2099999999998832, -0.28126292289607524 
1.219999999999882, -0.28079848145400943 
1.229999999999881, -0.2803532716693578 
1.2399999999998799, -0.2799831923171672 
1.2499999999998788, -0.2797373435171389 
1.2599999999998777, -0.2796456625718168 
1.2699999999998766, -0.2797106063559257 
1.2799999999998755, -0.2799044942426909 
1.2899999999998744, -0.2801740752205976 
1.2999999999998733, -0.28045315531891546 
1.3099999999998722, -0.2806795692032037 
1.319999999999871, -0.2808082815613417 
1.32999999999987, -0.28081444684403684 
1.3399999999998689, -0.28068719359692523 
1.3499999999998678, -0.28041915616569196 
1.3599999999998666, -0.27999559119008355 
1.3699999999998655, -0.27938348165320137 
1.3799999999998644, -0.2785185266433349 
1.3899999999998633, -0.27728750358385973 
1.3999999999998622, -0.2755069453565465 
1.4099999999998611, -0.2729118200212505 
1.41999999999986, -0.26919537684854933 
1.429999999999859, -0.26416073958019043 
1.4399999999998578, -0.2579660822018698 
1.4499999999998567, -0.2512376563426342 
1.4599999999998556, -0.24481543717315568 
1.4699999999998545, -0.23932307784358406 
1.4799999999998534, -0.2349755719910045 
1.4899999999998523, -0.23168359857620305 
1.4999999999998512, -0.22923532796711585 
1.5099999999998501, -0.2274140926458374 
1.519999999999849, -0.2260441089209706 
1.529999999999848, -0.22499774326965943 
1.5399999999998468, -0.2241892652493808 
1.5499999999998457, -0.22356656300422745 
1.5599999999998446, -0.22310500189741594 
1.5699999999998435, -0.22280489371880066 
1.5799999999998424, -0.2226934720101658 
1.5899999999998413, -0.2228326223004998 
1.5999999999998402, -0.22333427674853584 
1.6099999999998391, -0.22438517221437665 
1.619999999999838, -0.2262773282351421 
1.629999999999837, -0.22941626714495472 
1.6399999999998358, -0.23420260930859788 
1.6499999999998347, -0.24053637252224322 
1.6599999999998336, -0.24676036030411827 
1.6699999999998325, -0.24912813886963753 
1.6799999999998314, -0.24447463713126666 
1.6899999999998303, -0.23425443682669272 
1.6999999999998292, -0.2230329628761841 
1.709999999999828, -0.2139156691681162 
1.719999999999827, -0.2075198001673823 
1.729999999999826, -0.20330851664371036 
1.7399999999998248, -0.20059234208969898 
1.7499999999998237, -0.1988461411742723 
1.7599999999998226, -0.19772765632756434 
1.7699999999998215, -0.19702807036576206 
1.7799999999998204, -0.19662614909725468 
1.7899999999998193, -0.19645808648854776 
1.7999999999998182, -0.19650071180171225 
1.809999999999817, -0.19676442147401058 
1.819999999999816, -0.19729361413673976 
1.8299999999998149, -0.19817388589747276 
1.8399999999998138, -0.19954609172060242 
1.8499999999998127, -0.20162659553389078 
1.8599999999998116, -0.20472746479793508 
1.8699999999998105, -0.20925258080409098 
1.8799999999998094, -0.21560769443454614 
1.8899999999998083, -0.22393159372997276 
1.8999999999998072, -0.23367475036410154 
1.909999999999806, -0.24345209523705483 
1.919999999999805, -0.25169726349989957 
1.9299999999998039, -0.2576294146324245 
1.9399999999998028, -0.26143373905678 
1.9499999999998017, -0.26372164773018525 
1.9599999999998006, -0.2650609623945729 
1.9699999999997995, -0.26583380053487865 
1.9799999999997984, -0.26626465233907 
1.9899999999997973, -0.2664783585155016 
1.9999999999997962, -0.26654307042542363 
2.0099999999998173, -0.2664960181028492 
2.0199999999998384, -0.2663586996788421 
2.0299999999998595, -0.26614701736560936 
2.0399999999998806, -0.26587934523108836 
2.0499999999999017, -0.26558301950076774 
2.059999999999923, -0.26529765575046194 
2.069999999999944, -0.26507311207970224 
2.079999999999965, -0.26496168015129007 
2.089999999999986, -0.2650067414920871 
2.100000000000007, -0.2652309894831696 
2.1100000000000283, -0.26562660682088846 
2.1200000000000494, -0.2661505319870532 
2.1300000000000705, -0.26672986442349755 
2.1400000000000916, -0.26727978061552227 
2.1500000000001127, -0.2677269857147122 
2.160000000000134, -0.268025373471344 
2.170000000000155, -0.26815643898718267 
2.180000000000176, -0.26811829405038373 
2.190000000000197, -0.26791158545054444 
2.2000000000002182, -0.2675272093996527 
2.2100000000002393, -0.2669359920470368 
2.2200000000002604, -0.26607850782956566 
2.2300000000002815, -0.264854614810947 
2.2400000000003026, -0.2631180407053157 
2.2500000000003237, -0.26069295412667826 
2.260000000000345, -0.25744011649432463 
2.270000000000366, -0.2533788440543268 
2.280000000000387, -0.2487878094757646 
2.290000000000408, -0.24414939853543327 
2.3000000000004293, -0.23993360516389267 
2.3100000000004504, -0.23641045711932107 
2.3200000000004715, -0.2336265359719493 
2.3300000000004926, -0.23149110145981 
2.3400000000005137, -0.2298666455655063 
2.3500000000005348, -0.2286211402053527 
2.360000000000556, -0.22764793350609974 
2.370000000000577, -0.2268690169057197 
2.380000000000598, -0.2262320710409035 
2.390000000000619, -0.22570629453957855 
2.4000000000006403, -0.2252792645608411 
2.4100000000006614, -0.22495596391481137 
2.4200000000006825, -0.22476067676394598 
2.4300000000007036, -0.22474209592831387 
2.4400000000007247, -0.224980637472424 
2.450000000000746, -0.22559145130088756 
2.460000000000767, -0.22669810296439277 
2.470000000000788, -0.22830256556475503 
2.480000000000809, -0.22989893951644377 
2.49000000000083, -0.22977670720028098 
2.5000000000008513, -0.22488129699923612 
2.5100000000008724, -0.21320013982756808 
2.5200000000008935, -0.19708402017875234 
2.5300000000009146, -0.18150057321533225 
2.5400000000009357, -0.16946463650214533 
2.550000000000957, -0.16120829198524558 
2.560000000000978, -0.1558076610596343 
2.570000000000999, -0.15230531835232264 
2.58000000000102, -0.15001621885090216 
2.5900000000010412, -0.14850727932009872 
2.6000000000010624, -0.1475187328920256 
2.6100000000010835, -0.14690149451192258 
2.6200000000011046, -0.14657847996404133 
2.6300000000011257, -0.14652432268672508 
2.6400000000011468, -0.14675844301826263 
2.650000000001168, -0.14734939947652903 
2.660000000001189, -0.14843152855001213 
2.67000000000121, -0.15023771116249215 
2.680000000001231, -0.15315313461969232 
2.6900000000012523, -0.15778621911988808 
2.7000000000012734, -0.1650076197446486 
2.7100000000012945, -0.17577138591873168 
2.7200000000013156, -0.1903392014892941 
2.7300000000013367, -0.20691568565275914 
2.740000000001358, -0.221542924141041 
2.750000000001379, -0.23107737020049274 
2.7600000000014, -0.2356571720347108 
2.770000000001421, -0.23727885713960903 
2.780000000001442, -0.23763607371048906 
2.7900000000014633, -0.23758809350329407 
2.8000000000014844, -0.23746162225326756 
2.8100000000015055, -0.23735345043838266 
2.8200000000015266, -0.23728125339783496 
2.8300000000015477, -0.2372418047592471 
2.840000000001569, -0.23723045981431143 
2.85000000000159, -0.2372472475115651 
2.860000000001611, -0.23729931700543233 
2.870000000001632, -0.23740309032363918 
2.8800000000016532, -0.23758695620798922 
2.8900000000016743, -0.23789412993289988 
2.9000000000016954, -0.23838449480287718 
2.9100000000017165, -0.23913350748270762 
2.9200000000017377, -0.24022509850667148 
2.9300000000017588, -0.24173359665682187 
2.94000000000178, -0.24368946682473586 
2.950000000001801, -0.24603296493669272 
2.960000000001822, -0.24858414854346628 
2.970000000001843, -0.2510742458756287 
2.9800000000018643, -0.2532444779959666 
2.9900000000018854, -0.25494314727585743 
3.0000000000019065, -0.25614788416261225 
3.0100000000019276, -0.256919823814297 
3.0200000000019487, -0.2573451931266578 
3.03000000000197, -0.2574987330001807 
3.040000000001991, -0.2574300740296151 
3.050000000002012, -0.25716258081367815 
3.060000000002033, -0.25669706513606905 
3.070000000002054, -0.25601829627945316 
3.0800000000020753, -0.25510603286330796 
3.0900000000020964, -0.2539528425003093 
3.1000000000021175, -0.25258614367074617 
3.1100000000021386, -0.251082438942522 
3.1200000000021597, -0.24955806636127584 
3.130000000002181, -0.24813535095608294 
3.140000000002202, -0.24690506781863858 
3.150000000002223, -0.24590793112416792 
3.160000000002244, -0.24513846780408316 
3.1700000000022652, -0.24456002131223484 
3.1800000000022863, -0.24412062463418854 
3.1900000000023074, -0.2437658447537448 
3.2000000000023285, -0.24344771196350373 
3.2100000000023496, -0.243129109230368 
3.2200000000023707, -0.2427835657377254 
3.230000000002392, -0.24239155826173636 
3.240000000002413, -0.2419347602380934 
3.250000000002434, -0.24138863765250118 
3.260000000002455, -0.2407117678200806 
3.2700000000024763, -0.23982737434829787 
3.2800000000024974, -0.23858855276957475 
3.2900000000025185, -0.23671561788397613 
3.3000000000025396, -0.23370646826302566 
3.3100000000025607, -0.22879324783098762 
3.3200000000025818, -0.2211815881598666 
3.330000000002603, -0.21079029037255034 
3.340000000002624, -0.19891812079590548 
3.350000000002645, -0.1876513621369754 
3.360000000002666, -0.1784571434154416 
3.3700000000026873, -0.17165090423911955 
3.3800000000027084, -0.16685119410815116 
3.3900000000027295, -0.16351470863490408 
3.4000000000027506, -0.16118254074382815 
3.4100000000027717, -0.15952862562605366 
3.420000000002793, -0.1583385613684633 
3.430000000002814, -0.15747835755710388 
3.440000000002835, -0.15687031614767966 
3.450000000002856, -0.15647828551247558 
3.460000000002877, -0.1563012769272538 
3.4700000000028983, -0.1563748630343999 
3.4800000000029194, -0.156781193633613 
3.4900000000029405, -0.15766991371186068 
3.5000000000029616, -0.15929191107622945 
3.5100000000029827, -0.1620382452495017 
3.520000000003004, -0.16643300660881355 
3.530000000003025, -0.17289636438011471 
3.540000000003046, -0.1808933364432534 
3.550000000003067, -0.18751641391482238 
3.5600000000030882, -0.18796718727099854 
3.5700000000031094, -0.18047457671316916 
3.5800000000031305, -0.1689895299393179 
3.5900000000031516, -0.1583555846402686 
3.6000000000031727, -0.15050304516338148 
3.6100000000031938, -0.1452472314611281 
3.620000000003215, -0.1418439399116409 
3.630000000003236, -0.13964878155159924 
3.640000000003257, -0.13822875749798388 
3.650000000003278, -0.13731866294587836 
3.6600000000032993, -0.13676481136126 
3.6700000000033204, -0.136486013057062 
3.6800000000033415, -0.13645171558024738 
3.6900000000033626, -0.13667307979967655 
3.7000000000033837, -0.13720447823596882 
3.710000000003405, -0.138155418882222 
3.720000000003426, -0.13971520475993052 
3.730000000003447, -0.1421935603019388 
3.740000000003468, -0.146074756303912 
3.750000000003489, -0.15205315552028492 
3.7600000000035103, -0.160928741276289 
3.7700000000035314, -0.17310225234918497 
3.7800000000035525, -0.18758013248587463 
3.7900000000035736, -0.20154280896342686 
3.8000000000035947, -0.21206782310549216 
3.810000000003616, -0.21837906262383297 
3.820000000003637, -0.22158426773833817 
3.830000000003658, -0.22307352023765653 
3.840000000003679, -0.22375092574010852 
3.8500000000037002, -0.22406701275273394 
3.8600000000037213, -0.2242209019716476 
3.8700000000037424, -0.22429733860676077 
3.8800000000037635, -0.22433357651476488 
3.8900000000037847, -0.22434858810534103 
3.9000000000038058, -0.22435595394989916 
3.910000000003827, -0.22437056219401735 
3.920000000003848, -0.2244133196824507 
3.930000000003869, -0.22451519700625205 
3.94000000000389, -0.22472035903920945 
3.9500000000039113, -0.22508724423039667 
3.9600000000039324, -0.22568600082762988 
3.9700000000039535, -0.22659004387134285 
3.9800000000039746, -0.22785825020722705 
3.9900000000039957, -0.22950493544066264 
4.000000000004016, -0.23146388722652023 
4.010000000003993, -0.23357189623820437 
4.02000000000397, -0.23560398363018015 
4.030000000003946, -0.2373551345212949 
4.040000000003923, -0.2387106705099471 
4.0500000000039, -0.23965634430283594 
4.0600000000038765, -0.24024016113063124 
4.070000000003853, -0.24052755692102665 
4.08000000000383, -0.24057346899044574 
4.090000000003807, -0.24041139921480195 
4.100000000003783, -0.240051962620817 
4.11000000000376, -0.23948589835271417 
4.120000000003737, -0.23869098748533638 
4.130000000003713, -0.23764530663190175 
4.14000000000369, -0.23634836299926162 
4.150000000003667, -0.23484431387987645 
4.1600000000036434, -0.23323105062454483 
4.17000000000362, -0.23164029171312417 
4.180000000003597, -0.23019585908528514 
4.1900000000035735, -0.22897770914154197 
4.20000000000355, -0.22801118123248884 
4.210000000003527, -0.22727747065115106 
4.220000000003504, -0.22673117242275703 
4.23000000000348, -0.226315993276965 
4.240000000003457, -0.2259764740854354 
4.250000000003434, -0.22566553509148374 
4.26000000000341, -0.22534746490537758 
4.270000000003387, -0.22499654504817063 
4.280000000003364, -0.2245925026365924 
4.2900000000033405, -0.22411397756715234 
4.300000000003317, -0.2235298579520059 
4.310000000003294, -0.2227860967648963 
4.320000000003271, -0.22178259622098967 
4.330000000003247, -0.22033145369225177 
4.340000000003224, -0.21808995408851345 
4.350000000003201, -0.21449210985545997 
4.360000000003177, -0.20880368902451235 
4.370000000003154, -0.20053962817541499 
4.380000000003131, -0.19018945158137895 
4.390000000003107, -0.17936730166883924 
4.400000000003084, -0.16980682459944377 
4.410000000003061, -0.16235036525642366 
4.4200000000030375, -0.1569446973301007 
4.430000000003014, -0.1531466101625272 
4.440000000002991, -0.15048855875908193 
4.450000000002968, -0.14860723893309208 
4.460000000002944, -0.1472522795232881 
4.470000000002921, -0.14626126269499334 
4.480000000002898, -0.145534259673591 
4.490000000002874, -0.1450158853152596 
4.500000000002851, -0.1446851793005935 
4.510000000002828, -0.1445524576505106 
4.520000000002804, -0.14466296754311386 
4.530000000002781, -0.1451080818701707 
4.540000000002758, -0.14604441500439203 
4.5500000000027345, -0.14771492827864935 
4.560000000002711, -0.1504382859506798 
4.570000000002688, -0.15444582320486203 
4.580000000002665, -0.15928484648806984 
4.590000000002641, -0.16265822066576902 
4.600000000002618, -0.16028396759769947 
4.610000000002595, -0.14983703144960006 
4.620000000002571, -0.13490371438569465 
4.630000000002548, -0.12108192157286186 
4.640000000002525, -0.11089670223759074 
4.6500000000025015, -0.10412924491553135 
4.660000000002478, -0.09977827559516508 
4.670000000002455, -0.09697855800646979 
4.6800000000024315, -0.09515621331362423 
4.690000000002408, -0.09396405646973618 
4.700000000002385, -0.09320178659179071 
4.710000000002362, -0.09276192708668893 
4.720000000002338, -0.09259984820097325 
4.730000000002315, -0.09272124695737687 
4.740000000002292, -0.09318345340439774 
4.750000000002268, -0.09411094242231872 
4.760000000002245, -0.09572949661156596 
4.770000000002222, -0.09842642507054511 
4.7800000000021985, -0.10283809401333706 
4.790000000002175, -0.10991787844193687 
4.800000000002152, -0.1207609742176595 
4.810000000002129, -0.13563601640454376 
4.820000000002105, -0.1520749003965501 
4.830000000002082, -0.1647759284405254 
4.840000000002059, -0.1703095995268384 
