t, s[1].omega / s[0].omega 
0, -0.5899977315910684 
0.009999999999999995, -0.5897877139266796 
0.019999999999999934, -0.5896016252617522 
0.029999999999999874, -0.5894155537041424 
0.04000000000000012, -0.5892010059088642 
0.050000000000000405, -0.5889352631409591 
0.06000000000000069, -0.5886074358374089 
0.07000000000000098, -0.5882193362717539 
0.08000000000000126, -0.5877838722312881 
0.09000000000000155, -0.5873245411292431 
0.10000000000000184, -0.5868785737725265 
0.11000000000000212, -0.5865052679705125 
0.12000000000000241, -0.5863008964680064 
0.130000000000002, -0.5864219540471538 
0.1400000000000009, -0.5871185666199182 
0.1499999999999998, -0.5887780811190306 
0.1599999999999987, -0.5919717661781829 
0.1699999999999976, -0.5974779882716602 
0.1799999999999965, -0.6062135315347721 
0.1899999999999954, -0.6189500083497902 
0.1999999999999943, -0.6357214022089658 
0.2099999999999932, -0.6551603986824527 
0.2199999999999921, -0.6745546186665682 
0.229999999999991, -0.6911286185858463 
0.2399999999999899, -0.7034977971236133 
0.2499999999999888, -0.7118595138626362 
0.2599999999999877, -0.7171786587942597 
0.2699999999999866, -0.7204484670049369 
0.2799999999999855, -0.7224079174951976 
0.2899999999999844, -0.7235355053407545 
0.2999999999999833, -0.7241197669699667 
0.3099999999999822, -0.7243238587610854 
0.3199999999999811, -0.7242271275475843 
0.32999999999998, -0.7238461138787936 
0.3399999999999789, -0.7231395150997258 
0.3499999999999778, -0.722000201706357 
0.35999999999997667, -0.7202380787165961 
0.36999999999997557, -0.717565092383929 
0.37999999999997447, -0.7136122742494825 
0.38999999999997337, -0.7080290977174035 
0.39999999999997227, -0.7006897585317323 
0.40999999999997117, -0.6919065066684146 
0.41999999999997006, -0.682433925231442 
0.42999999999996896, -0.6731876703092855 
0.43999999999996786, -0.6648987095614433 
0.44999999999996676, -0.6579527000200883 
0.45999999999996566, -0.6524309442282024 
0.46999999999996456, -0.6482285608737661 
0.47999999999996346, -0.6451567866420153 
0.48999999999996235, -0.6430051064811625 
0.49999999999996125, -0.6415723701847321 
0.5099999999999602, -0.6406805740379319 
0.519999999999959, -0.6401801209734269 
0.529999999999958, -0.6399506806273678 
0.5399999999999568, -0.6398993658911453 
0.5499999999999557, -0.6399572450255974 
0.5599999999999546, -0.6400752180191164 
0.5699999999999535, -0.6402203083864745 
0.5799999999999524, -0.6403731111503732 
0.5899999999999513, -0.6405263499349299 
0.5999999999999502, -0.6406833505509649 
0.6099999999999491, -0.6408544340213089 
0.619999999999948, -0.6410499158896618 
0.6299999999999469, -0.6412709490868583 
0.6399999999999458, -0.6415023573432098 
0.6499999999999447, -0.6417123064151615 
0.6599999999999436, -0.6418605730942019 
0.6699999999999425, -0.6419115453937416 
0.6799999999999414, -0.641844543336716 
0.6899999999999403, -0.6416565657404939 
0.6999999999999392, -0.6413587522370816 
0.7099999999999381, -0.6409716157257155 
0.719999999999937, -0.6405235042810495 
0.7299999999999359, -0.6400545999856528 
0.7399999999999348, -0.6396276554527007 
0.7499999999999337, -0.6393468601240717 
0.7599999999999326, -0.6393866793805798 
0.7699999999999315, -0.6400318077532086 
0.7799999999999304, -0.6417254346379437 
0.7899999999999293, -0.6451119537770046 
0.7999999999999282, -0.6510355907094799 
0.8099999999999271, -0.6604143453846716 
0.819999999999926, -0.6738764695260209 
0.8299999999999249, -0.6911425028347138 
0.8399999999999238, -0.7105177139166698 
0.8499999999999227, -0.7292397870732055 
0.8599999999999216, -0.7448298142864295 
0.8699999999999205, -0.7562579804989784 
0.8799999999999194, -0.7638885734348164 
0.8899999999999183, -0.7686869458067784 
0.8999999999999172, -0.7715909390048835 
0.9099999999999161, -0.7732871010289125 
0.919999999999915, -0.7742161231526081 
0.9299999999999139, -0.7746397319322861 
0.9399999999999128, -0.7746999716148812 
0.9499999999999117, -0.7744560784949834 
0.9599999999999106, -0.7739004450635196 
0.9699999999999095, -0.7729564221407021 
0.9799999999999084, -0.7714584480100578 
0.9899999999999073, -0.7691148064949697 
0.9999999999999062, -0.7654624459325386 
1.0099999999999052, -0.7598544862138636 
1.019999999999904, -0.7515775840240725 
1.029999999999903, -0.7402097523772243 
1.039999999999902, -0.7261284159575924 
1.0499999999999008, -0.7107054084439588 
1.0599999999998997, -0.6958034703234355 
1.0699999999998986, -0.6829401610318627 
1.0799999999998975, -0.6728279406549303 
1.0899999999998964, -0.6654589617813593 
1.0999999999998953, -0.6604221014465136 
1.1099999999998942, -0.6571774659128201 
1.119999999999893, -0.6552126626988672 
1.129999999999892, -0.6541070342256943 
1.1399999999998909, -0.6535442449147651 
1.1499999999998898, -0.6533008930530122 
1.1599999999998887, -0.6532265098328098 
1.1699999999998876, -0.6532228642184693 
1.1799999999998865, -0.6532263771895871 
1.1899999999998854, -0.6531952107298441 
1.1999999999998843, -0.6531014715409372 
1.2099999999998832, -0.6529283187638484 
1.219999999999882, -0.6526708333984932 
1.229999999999881, -0.6523379224789015 
1.2399999999998799, -0.6519513122611202 
1.2499999999998788, -0.6515390104708088 
1.2599999999998777, -0.6511248946340652 
1.2699999999998766, -0.6507198774418279 
1.2799999999998755, -0.6503196489951621 
1.2899999999998744, -0.649909781627368 
1.2999999999998733, -0.6494746587930103 
1.3099999999998722, -0.6490053608804998 
1.319999999999871, -0.6485038100783098 
1.32999999999987, -0.6479838740249251 
1.3399999999998689, -0.6474719673788079 
1.3499999999998678, -0.6470093352121191 
1.3599999999998666, -0.6466568785332594 
1.3699999999998655, -0.6465022121165777 
1.3799999999998644, -0.6466678831567753 
1.3899999999998633, -0.6473191664224017 
1.3999999999998622, -0.6486693880192977 
1.4099999999998611, -0.6509799067131528 
1.41999999999986, -0.6545497033024608 
1.429999999999859, -0.6596845905782789 
1.4399999999998578, -0.6666286479424663 
1.4499999999998567, -0.6754386982929477 
1.4599999999998556, -0.685810861516017 
1.4699999999998545, -0.696953982576566 
1.4799999999998534, -0.7076955394590899 
1.4899999999998523, -0.7169023580010622 
1.4999999999998512, -0.7239510245110242 
1.5099999999998501, -0.7288539838246341 
1.519999999999849, -0.732018325481195 
1.529999999999848, -0.7339372197323525 
1.5399999999998468, -0.7350170774678787 
1.5499999999998457, -0.7355361334932747 
1.5599999999998446, -0.7356618920335085 
1.5699999999998435, -0.735478291595117 
1.5799999999998424, -0.7350037033137812 
1.5899999999998413, -0.7341949505067545 
1.5999999999998402, -0.7329354987843663 
1.6099999999998391, -0.7310046754291383 
1.619999999999838, -0.7280245369185316 
1.629999999999837, -0.7233912270733079 
1.6399999999998358, -0.7162396627758161 
1.6499999999998347, -0.705584487792773 
1.6599999999998336, -0.6908420291003163 
1.6699999999998325, -0.6726434578994518 
1.6799999999998314, -0.6531391321462844 
1.6899999999998303, -0.6350680534853381 
1.6999999999998292, -0.6203490044256027 
1.709999999999828, -0.6095265778552139 
1.719999999999827, -0.6021636414650471 
1.729999999999826, -0.5974496747009411 
1.7399999999998248, -0.5945878494847168 
1.7499999999998237, -0.5929431265560654 
1.7599999999998226, -0.5920596837938852 
1.7699999999998215, -0.5916299559597548 
1.7799999999998204, -0.5914546731932748 
1.7899999999998193, -0.5914081183212481 
1.7999999999998182, -0.5914119484948765 
1.809999999999817, -0.5914171381076042 
1.819999999999816, -0.5913927213174625 
1.8299999999998149, -0.5913200922209744 
1.8399999999998138, -0.5911916287396578 
1.8499999999998127, -0.5910117351260235 
1.8599999999998116, -0.5907972219372242 
1.8699999999998105, -0.590573698243593 
1.8799999999998094, -0.5903669438848508 
1.8899999999998083, -0.5901922548990169 
1.8999999999998072, -0.5900472000100235 
1.909999999999806, -0.5899119161698442 
1.919999999999805, -0.5897569584145352 
1.9299999999998039, -0.5895544343467257 
1.9399999999998028, -0.5892866609408671 
1.9499999999998017, -0.5889492329499033 
1.9599999999998006, -0.5885497857128782 
1.9699999999997995, -0.5881061295637209 
1.9799999999997984, -0.5876470384927225 
1.9899999999997973, -0.5872176886657656 
1.9999999999997962, -0.5868911627789032 
2.0099999999998173, -0.586787732457313 
2.0199999999998384, -0.5871041304828628 
2.0299999999998595, -0.5881545426317416 
2.0399999999998806, -0.5904211348657842 
2.0499999999999017, -0.5945990078939363 
2.059999999999923, -0.6015883721535478 
2.069999999999944, -0.6123294128083772 
2.079999999999965, -0.6273386236461367 
2.089999999999986, -0.645974915243636 
2.100000000000007, -0.6660146745506643 
2.1100000000000283, -0.6844164530571936 
2.1200000000000494, -0.6989806592927347 
2.1300000000000705, -0.7092356512850311 
2.1400000000000916, -0.7159243613976702 
2.1500000000001127, -0.7201026976059917 
2.160000000000134, -0.7226468268198086 
2.170000000000155, -0.724153425987127 
2.180000000000176, -0.7249934635325175 
2.190000000000197, -0.7253847945866387 
2.2000000000002182, -0.7254448508234235 
2.2100000000002393, -0.7252208813320706 
2.2200000000002604, -0.7247024250465096 
2.2300000000002815, -0.7238198606681244 
2.2400000000003026, -0.7224320424568458 
2.2500000000003237, -0.7203094888596769 
2.260000000000345, -0.7171319559344675 
2.270000000000366, -0.7125401663236391 
2.280000000000387, -0.7062851534821909 
2.290000000000408, -0.6984467022603502 
2.3000000000004293, -0.6895544395211581 
2.3100000000004504, -0.6804429812511434 
2.3200000000004715, -0.6719224351130657 
2.3300000000004926, -0.6645274585885786 
2.3400000000005137, -0.6584729131126262 
2.3500000000005348, -0.6537417080105217 
2.360000000000556, -0.6501926177141405 
2.370000000000577, -0.6476364849147587 
2.380000000000598, -0.6458781753196262 
2.390000000000619, -0.6447367186672673 
2.4000000000006403, -0.64405426185037 
2.4100000000006614, -0.6436994809974442 
2.4200000000006825, -0.6435677637033217 
2.4300000000007036, -0.6435791743510711 
2.4400000000007247, -0.64367507916511 
2.450000000000746, -0.6438144675233094 
2.460000000000767, -0.6439709469929091 
2.470000000000788, -0.6441308746189937 
2.480000000000809, -0.6442920819682406 
2.49000000000083, -0.644461539280462 
2.5000000000008513, -0.6446500942450956 
2.5100000000008724, -0.6448640790954361 
2.5200000000008935, -0.6450965917603682 
2.5300000000009146, -0.6453233553912752 
2.5400000000009357, -0.6455068980305814 
2.550000000000957, -0.6456080191524862 
2.560000000000978, -0.6455982611179039 
2.570000000000999, -0.6454665149340706 
2.58000000000102, -0.6452180127988429 
2.5900000000010412, -0.6448695204831805 
2.6000000000010624, -0.6444458938549439 
2.6100000000010835, -0.6439813173916022 
2.6200000000011046, -0.6435267473518621 
2.6300000000011257, -0.6431646918960399 
2.6400000000011468, -0.6430328609985428 
2.650000000001168, -0.6433581361933959 
2.660000000001189, -0.6445001269218673 
2.67000000000121, -0.6469966304349927 
2.680000000001231, -0.6515868053667176 
2.6900000000012523, -0.6591559525249753 
2.7000000000012734, -0.6705049760203501 
2.7100000000012945, -0.6858606810022285 
2.7200000000013156, -0.7042638878381123 
2.7300000000013367, -0.7234166290812137 
2.740000000001358, -0.7405716667981762 
2.750000000001379, -0.7539358653375375 
2.7600000000014, -0.7632504754075089 
2.770000000001421, -0.7692640411976935 
2.780000000001442, -0.7729632940637632 
2.7900000000014633, -0.7751595551863033 
2.8000000000014844, -0.7764039919764923 
2.8100000000015055, -0.7770358325873039 
2.8200000000015266, -0.7772484226388152 
2.8300000000015477, -0.7771370214564578 
2.840000000001569, -0.7767243502682633 
2.85000000000159, -0.7759667103271897 
2.860000000001611, -0.7747421091677278 
2.870000000001632, -0.7728198160203731 
2.8800000000016532, -0.7698137771075191 
2.8900000000016743, -0.765140903063176 
2.9000000000016954, -0.7580534877961305 
2.9100000000017165, -0.7478735873263441 
2.9200000000017377, -0.7344908935513154 
2.9300000000017588, -0.7188347115621347 
2.94000000000178, -0.7027396143990732 
2.950000000001801, -0.6881223892145878 
2.960000000001822, -0.6761917752701436 
2.970000000001843, -0.6672649762371761 
2.9800000000018643, -0.6610452409759795 
2.9900000000018854, -0.6569743740038201 
3.0000000000019065, -0.6544683795784814 
3.0100000000019276, -0.6530277428690396 
3.0200000000019487, -0.6522692554157716 
3.03000000000197, -0.6519195207213601 
3.040000000001991, -0.6517936900633534 
3.050000000002012, -0.6517714464039628 
3.060000000002033, -0.6517758156129037 
3.070000000002054, -0.6517569926101815 
3.0800000000020753, -0.6516817371245274 
3.0900000000020964, -0.6515281999557364 
3.1000000000021175, -0.6512854464258881 
3.1100000000021386, -0.6509556926665571 
3.1200000000021597, -0.6505555796232844 
3.130000000002181, -0.6501125941907937 
3.140000000002202, -0.6496558833939148 
3.150000000002223, -0.6492055333410608 
3.160000000002244, -0.6487663455524701 
3.1700000000022652, -0.6483293222967714 
3.1800000000022863, -0.6478792172635186 
3.1900000000023074, -0.6474034712711692 
3.2000000000023285, -0.6468984409678433 
3.2100000000023496, -0.6463719491409992 
3.2200000000023707, -0.6458439803718872 
3.230000000002392, -0.6453479985196122 
3.240000000002413, -0.6449343717375543 
3.250000000002434, -0.6446760923863888 
3.260000000002455, -0.6446760484082508 
3.2700000000024763, -0.6450745381887093 
3.2800000000024974, -0.6460553445760159 
3.2900000000025185, -0.6478482228559899 
3.3000000000025396, -0.6507244249040092 
3.3100000000025607, -0.6549785982620266 
3.3200000000025818, -0.6608840922121236 
3.330000000002603, -0.6686023458257073 
3.340000000002624, -0.6780353379074302 
3.350000000002645, -0.6886626458811091 
3.360000000002666, -0.699505098058484 
3.3700000000026873, -0.7093816311435021 
3.3800000000027084, -0.717389650402266 
3.3900000000027295, -0.7232327141969015 
3.4000000000027506, -0.7271467320849263 
3.4100000000027717, -0.7295978117183586 
3.420000000002793, -0.7310363837026831 
3.430000000002814, -0.7317981422969235 
3.440000000002835, -0.732098879761359 
3.450000000002856, -0.7320593682954054 
3.460000000002877, -0.7317282734356588 
3.4700000000028983, -0.7310929845066239 
3.4800000000029194, -0.7300757550929419 
3.4900000000029405, -0.7285127563717912 
3.5000000000029616, -0.7261122093023661 
3.5100000000029827, -0.7223911086291832 
3.520000000003004, -0.7166130081922979 
3.530000000003025, -0.7078179259145442 
3.540000000003046, -0.6951375219029705 
3.550000000003067, -0.6785169971976621 
3.5600000000030882, -0.6593966947305411 
3.5700000000031094, -0.6403946196158803 
3.5800000000031305, -0.6239524958510301 
3.5900000000031516, -0.6112691747410014 
3.6000000000031727, -0.6023093199001022 
3.6100000000031938, -0.5963886288809835 
3.620000000003215, -0.5926836381952493 
3.630000000003236, -0.5904810822340236 
3.640000000003257, -0.5892450376662621 
3.650000000003278, -0.5886029296599748 
3.6600000000032993, -0.588308028276503 
3.6700000000033204, -0.5882021728899468 
3.6800000000033415, -0.5881859582824707 
3.6900000000033626, -0.5881972414858849 
3.7000000000033837, -0.5881969226349784 
3.710000000003405, -0.5881607229798641 
3.720000000003426, -0.5880758035294583 
3.730000000003447, -0.5879407623181685 
3.740000000003468, -0.5877665499077285 
3.750000000003489, -0.5875749512749255 
3.7600000000035103, -0.5873922280824628 
3.7700000000035314, -0.5872389085910965 
3.7800000000035525, -0.5871202776185173 
3.7900000000035736, -0.5870227617238364 
3.8000000000035947, -0.5869185165860815 
3.810000000003616, -0.5867759344041523 
3.820000000003637, -0.5865704167460425 
3.830000000003658, -0.5862903429495752 
3.840000000003679, -0.5859373365599321 
3.8500000000037002, -0.5855238298189531 
3.8600000000037213, -0.5850718020946516 
3.8700000000037424, -0.5846153786674659 
3.8800000000037635, -0.5842089109843176 
3.8900000000037847, -0.5839421395823476 
3.9000000000038058, -0.5839647180701231 
3.910000000003827, -0.584522814162518 
3.920000000003848, -0.5860089396587042 
3.930000000003869, -0.5890184781770621 
3.94000000000389, -0.5943836361269761 
3.9500000000039113, -0.6031052994799537 
3.9600000000039324, -0.6160362526502741 
3.9700000000039535, -0.6332069811535563 
3.9800000000039746, -0.6530943385950343 
3.9900000000039957, -0.672765574917322 
4.000000000004016, -0.6893681694710448 
4.010000000003993, -0.7016255775778564 
4.02000000000397, -0.7098699883350836 
4.030000000003946, -0.7151235468624989 
4.040000000003923, -0.7183765401748822 
4.0500000000039, -0.7203482510023804 
4.0600000000038765, -0.72150152154146 
4.070000000003853, -0.7221167055207199 
4.08000000000383, -0.7223542960868741 
4.090000000003807, -0.7222945023737839 
4.100000000003783, -0.7219574703382841 
4.11000000000376, -0.7213088048128669 
4.120000000003737, -0.7202536788755418 
4.130000000003713, -0.7186237625167959 
4.14000000000369, -0.7161682072620649 
4.150000000003667, -0.7125754050549447 
4.1600000000036434, -0.7075654225117877 
4.17000000000362, -0.7010633699379052 
4.180000000003597, -0.6933604378177168 
4.1900000000035735, -0.6850950787233597 
4.20000000000355, -0.677017920181959 
4.210000000003527, -0.6697241321596095 
4.220000000003504, -0.6635353868889867 
4.23000000000348, -0.6585338794432665 
4.240000000003457, -0.6546528197137872 
4.250000000003434, -0.6517543961429092 
4.26000000000341, -0.6496774065942947 
4.270000000003387, -0.6482616203001685 
4.280000000003364, -0.6473594105802535 
4.2900000000033405, -0.646841421108937 
4.300000000003317, -0.6465991983451155 
4.310000000003294, -0.6465456961454202 
4.320000000003271, -0.6466140575069399 
4.330000000003247, -0.6467553002097437 
4.340000000003224, -0.6469357870879633 
4.350000000003201, -0.6471352366324703 
4.360000000003177, -0.6473453576757274 
4.370000000003154, -0.6475681154672666 
4.380000000003131, -0.6478118580885484 
4.390000000003107, -0.6480841654015357 
4.400000000003084, -0.6483827302830997 
4.410000000003061, -0.6486884548628434 
4.4200000000030375, -0.6489656770101797 
4.430000000003014, -0.6491712343650476 
4.440000000002991, -0.6492681278162189 
4.450000000002968, -0.6492359106201474 
4.460000000002944, -0.649072855560755 
4.470000000002921, -0.6487916014099554 
4.480000000002898, -0.6484137648210953 
4.490000000002874, -0.6479681235820169 
4.500000000002851, -0.6474946261520962 
4.510000000002828, -0.6470553736488861 
4.520000000002804, -0.6467540014086652 
4.530000000002781, -0.6467653974884755 
4.540000000002758, -0.6473769246560551 
4.5500000000027345, -0.649038066076622 
4.560000000002711, -0.6524037209995461 
4.570000000002688, -0.6583308728785842 
4.580000000002665, -0.667746003608644 
4.590000000002641, -0.6812710446264875 
4.600000000002618, -0.6985993694923567 
4.610000000002595, -0.7180012716885196 
4.620000000002571, -0.7367006035621307 
4.630000000002548, -0.7522361408658679 
4.640000000002525, -0.7636048949892212 
4.6500000000025015, -0.771185853634902 
4.660000000002478, -0.7759466936665536 
4.670000000002455, -0.7788227771490485 
4.6800000000024315, -0.78049772186977 
4.690000000002408, -0.7814098852400343 
4.700000000002385, -0.7818191543900257 
4.710000000002362, -0.7818659325366972 
4.720000000002338, -0.7816076859276537 
4.730000000002315, -0.7810344719337851 
4.740000000002292, -0.7800660240553235 
4.750000000002268, -0.778530569225086 
4.760000000002245, -0.7761251222054765 
4.770000000002222, -0.7723659540042666 
4.7800000000021985, -0.766570069873506 
4.790000000002175, -0.7579700512738794 
4.800000000002152, -0.7460881041786027 
4.810000000002129, -0.7312921042125158 
4.820000000002105, -0.7150386081009126 
4.830000000002082, -0.6993469041187965 
4.840000000002059, -0.685872149716433 
4.850000000002035, -0.675379393307157 
4.860000000002012, -0.6678344323991932 
4.870000000001989, -0.6627630594363605 
4.880000000001965, -0.6595612943898133 
4.890000000001942, -0.6576685136832359 
4.900000000001919, -0.6566346292025798 
4.9100000000018955, -0.6561290255295343 
4.920000000001872, -0.6559237969106545 
