t, s[1].omega / s[0].omega 
0, -1.1400202784073028 
0.009999999999999995, -1.141792910586399 
0.019999999999999934, -1.1430565362135674 
0.029999999999999874, -1.1438409058251044 
0.04000000000000012, -1.144210021972107 
0.050000000000000405, -1.144243348398276 
0.06000000000000069, -1.1440210967416824 
0.07000000000000098, -1.1436201675944497 
0.08000000000000126, -1.1431207424961385 
0.09000000000000155, -1.1426166285546295 
0.10000000000000184, -1.1422168151587475 
0.11000000000000212, -1.1420269992969847 
0.12000000000000241, -1.1421157776349429 
0.130000000000002, -1.1424895533019588 
0.1400000000000009, -1.1430954277989445 
0.1499999999999998, -1.1438456066071956 
0.1599999999999987, -1.144644208390798 
0.1699999999999976, -1.14540544363939 
0.1799999999999965, -1.1460619485467016 
0.1899999999999954, -1.146565783711653 
0.1999999999999943, -1.1468855162536504 
0.2099999999999932, -1.1470025267709363 
0.2199999999999921, -1.146908544787006 
0.229999999999991, -1.1466050766489422 
0.2399999999999899, -1.1461042616821533 
0.2499999999999888, -1.1454303084145714 
0.2599999999999877, -1.1446211778225677 
0.2699999999999866, -1.1437302687061008 
0.2799999999999855, -1.1428262856688118 
0.2899999999999844, -1.141987900425645 
0.2999999999999833, -1.141291510787079 
0.3099999999999822, -1.1407946704006502 
0.3199999999999811, -1.1405201799585087 
0.32999999999998, -1.140446623489622 
0.3399999999999789, -1.140511947575993 
0.3499999999999778, -1.1406311307666814 
0.35999999999997667, -1.1407175997177068 
0.36999999999997557, -1.1406958544721628 
0.37999999999997447, -1.140503080899186 
0.38999999999997337, -1.140086578008578 
0.39999999999997227, -1.1394037859363646 
0.40999999999997117, -1.1384263427303274 
0.41999999999997006, -1.1371449692547035 
0.42999999999996896, -1.1355717186457146 
0.43999999999996786, -1.1337397650591234 
0.44999999999996676, -1.1317040486277177 
0.45999999999996566, -1.129545216673948 
0.46999999999996456, -1.1273751269219037 
0.47999999999996346, -1.1253370192935992 
0.48999999999996235, -1.123589288624438 
0.49999999999996125, -1.1222645716855153 
0.5099999999999602, -1.121415493499972 
0.519999999999959, -1.120985317347912 
0.529999999999958, -1.1208341678738198 
0.5399999999999568, -1.12080050986452 
0.5499999999999557, -1.1207478810205849 
0.5599999999999546, -1.1205733401432219 
0.5699999999999535, -1.1201897267371022 
0.5799999999999524, -1.1195019327001139 
0.5899999999999513, -1.1183901245824521 
0.5999999999999502, -1.1167081510859755 
0.6099999999999491, -1.1143039649708093 
0.619999999999948, -1.1110624787248566 
0.6299999999999469, -1.106957697880103 
0.6399999999999458, -1.102092878630002 
0.6499999999999447, -1.0967166016179495 
0.6599999999999436, -1.0912152450064339 
0.6699999999999425, -1.0860746533806171 
0.6799999999999414, -1.0817858080523317 
0.6899999999999403, -1.0786898895406707 
0.6999999999999392, -1.0768382718441585 
0.7099999999999381, -1.0759887536563575 
0.719999999999937, -1.0757560138087068 
0.7299999999999359, -1.0757875921904747 
0.7399999999999348, -1.0758462631551298 
0.7499999999999337, -1.0757972019028066 
0.7599999999999326, -1.0755575185830446 
0.7699999999999315, -1.0750472074856554 
0.7799999999999304, -1.0741498967691392 
0.7899999999999293, -1.072680265925254 
0.7999999999999282, -1.0703607619607778 
0.8099999999999271, -1.066826688868327 
0.819999999999926, -1.0616949049128477 
0.8299999999999249, -1.0547204648354749 
0.8399999999999238, -1.0460031039751316 
0.8499999999999227, -1.0361270033043548 
0.8599999999999216, -1.0261117957221626 
0.8699999999999205, -1.017143271437528 
0.8799999999999194, -1.0101740737578286 
0.8899999999999183, -1.0055880280784457 
0.8999999999999172, -1.003135607357119 
0.9099999999999161, -1.0021771588872126 
0.919999999999915, -1.002031647780235 
0.9299999999999139, -1.0021967738218636 
0.9399999999999128, -1.0023843397534642 
0.9499999999999117, -1.0024555360388205 
0.9599999999999106, -1.0023430123754231 
0.9699999999999095, -1.0019933537639834 
0.9799999999999084, -1.0013283693035426 
0.9899999999999073, -1.0002148684191607 
0.9999999999999062, -0.9984379120129384 
1.0099999999999052, -0.9956859038507998 
1.019999999999904, -0.9915753525659884 
1.029999999999903, -0.9857544148015067 
1.039999999999902, -0.9780919058707089 
1.0499999999999008, -0.9688689336388199 
1.0599999999998997, -0.9588269154547022 
1.0699999999998986, -0.9489977323196739 
1.0799999999998975, -0.9403933713852017 
1.0899999999998964, -0.9337074968620589 
1.0999999999998953, -0.929153334996319 
1.1099999999998942, -0.9264927523473006 
1.119999999999893, -0.9252208274403586 
1.129999999999892, -0.924791061371083 
1.1399999999998909, -0.9247672762054252 
1.1499999999998898, -0.9248668098022674 
1.1599999999998887, -0.9249313525512337 
1.1699999999998876, -0.9248758441043303 
1.1799999999998865, -0.9246439333892178 
1.1899999999998854, -0.9241766240619832 
1.1999999999998843, -0.9233918129326101 
1.2099999999998832, -0.9221736892381646 
1.219999999999882, -0.9203770029803208 
1.229999999999881, -0.9178557107278789 
1.2399999999998799, -0.9145185896304401 
1.2499999999998788, -0.9103910822694644 
1.2599999999998777, -0.9056427376629872 
1.2699999999998766, -0.9005566304343777 
1.2799999999998755, -0.8954619015474725 
1.2899999999998744, -0.8906705514938613 
1.2999999999998733, -0.8864383661612487 
1.3099999999998722, -0.8829433871953807 
1.319999999999871, -0.8802709939954854 
1.32999999999987, -0.87840631783953 
1.3399999999998689, -0.8772436804011697 
1.3499999999998678, -0.8766176943991517 
1.3599999999998666, -0.8763461561801332 
1.3699999999998655, -0.8762664002361177 
1.3799999999998644, -0.8762527836476017 
1.3899999999998633, -0.8762157669943121 
1.3999999999998622, -0.8760910213789579 
1.4099999999998611, -0.8758273658329543 
1.41999999999986, -0.875379345723065 
1.429999999999859, -0.8747073568196143 
1.4399999999998578, -0.873785229809066 
1.4499999999998567, -0.8726108840626893 
1.4599999999998556, -0.8712120359665594 
1.4699999999998545, -0.8696411154081346 
1.4799999999998534, -0.8679619080528955 
1.4899999999998523, -0.8662367583483868 
1.4999999999998512, -0.8645209600931116 
1.5099999999998501, -0.8628641277362463 
1.519999999999849, -0.861314061580145 
1.529999999999848, -0.8599187303910799 
1.5399999999998468, -0.8587242099059932 
1.5499999999998457, -0.857768733913178 
1.5599999999998446, -0.8570748686259029 
1.5699999999998435, -0.8566430063723658 
1.5799999999998424, -0.8564493515312632 
1.5899999999998413, -0.8564498746217524 
1.5999999999998402, -0.856588900623616 
1.6099999999998391, -0.8568088765429799 
1.619999999999838, -0.8570580028931103 
1.629999999999837, -0.857294430125522 
1.6399999999998358, -0.8574876664357822 
1.6499999999998347, -0.8576182501759672 
1.6599999999998336, -0.8576759094744928 
1.6699999999998325, -0.8576559716547519 
1.6799999999998314, -0.8575548472123284 
1.6899999999998303, -0.857367022218995 
1.6999999999998292, -0.8570858111059888 
1.709999999999828, -0.8567075603793655 
1.719999999999827, -0.8562365270970806 
1.729999999999826, -0.8556879058885073 
1.7399999999998248, -0.855088816009048 
1.7499999999998237, -0.8544785939733031 
1.7599999999998226, -0.8539090073088198 
1.7699999999998215, -0.8534431369604171 
1.7799999999998204, -0.8531506968414065 
1.7899999999998193, -0.8530987624493388 
1.7999999999998182, -0.8533398863892099 
1.809999999999817, -0.8539021231645417 
1.819999999999816, -0.8547851194366712 
1.8299999999998149, -0.855963153197153 
1.8399999999998138, -0.857392381336392 
1.8499999999998127, -0.8590179491478651 
1.8599999999998116, -0.8607774247054506 
1.8699999999998105, -0.8625995074730655 
1.8799999999998094, -0.8644004724491253 
1.8899999999998083, -0.8660842741329319 
1.8999999999998072, -0.8675526461704501 
1.909999999999806, -0.8687253265474191 
1.919999999999805, -0.8695602129754422 
1.9299999999998039, -0.8700599379418934 
1.9399999999998028, -0.8702613391998296 
1.9499999999998017, -0.8702171193249754 
1.9599999999998006, -0.869981626245595 
1.9699999999997995, -0.8696067016773249 
1.9799999999997984, -0.8691478668879855 
1.9899999999997973, -0.8686791007829017 
1.9999999999997962, -0.8683134454378493 
2.0099999999998173, -0.8682232383439903 
2.0199999999998384, -0.8686477411019222 
2.0299999999998595, -0.8698727649864562 
2.0399999999998806, -0.8721750851387086 
2.0499999999999017, -0.875744247027914 
2.059999999999923, -0.880610233021254 
2.069999999999944, -0.8866017143342363 
2.079999999999965, -0.8933440036802901 
2.089999999999986, -0.9003005921512747 
2.100000000000007, -0.9068682216482815 
2.1100000000000283, -0.9125215032869848 
2.1200000000000494, -0.916953058612118 
2.1300000000000705, -0.9201250080734784 
2.1400000000000916, -0.9222036690424524 
2.1500000000001127, -0.9234390144963985 
2.160000000000134, -0.924068010139673 
2.170000000000155, -0.9242709735672848 
2.180000000000176, -0.9241672062125961 
2.190000000000197, -0.9238284047199729 
2.2000000000002182, -0.9232985628489414 
2.2100000000002393, -0.9226204852858719 
2.2200000000002604, -0.9218768829882267 
2.2300000000002815, -0.9212562628087676 
2.2400000000003026, -0.9211425946317492 
2.2500000000003237, -0.9221906768336059 
2.260000000000345, -0.9252924863762775 
2.270000000000366, -0.9313249075951644 
2.280000000000387, -0.9406868421218778 
2.290000000000408, -0.9528637348932725 
2.3000000000004293, -0.966385549967192 
2.3100000000004504, -0.9793459323700515 
2.3200000000004715, -0.9901976292677108 
2.3300000000004926, -0.9982688716023503 
2.3400000000005137, -1.0037126136712762 
2.3500000000005348, -1.0071057439998323 
2.360000000000556, -1.0090746259566505 
2.370000000000577, -1.0101129245513358 
2.380000000000598, -1.0105504422405576 
2.390000000000619, -1.0105848363133814 
2.4000000000006403, -1.0103232711208512 
2.4100000000006614, -1.0098179653106065 
2.4200000000006825, -1.0090998364982475 
2.4300000000007036, -1.0082252814356698 
2.4400000000007247, -1.0073568501882426 
2.450000000000746, -1.0068875224949696 
2.460000000000767, -1.007561067196233 
2.470000000000788, -1.0104347254669677 
2.480000000000809, -1.0165014401655568 
2.49000000000083, -1.0260413699843525 
2.5000000000008513, -1.0381782961292099 
2.5100000000008724, -1.0511133433313562 
2.5200000000008935, -1.0629329944120234 
2.5300000000009146, -1.072386892871737 
2.5400000000009357, -1.0791456133119408 
2.550000000000957, -1.0835513519645292 
2.560000000000978, -1.0862049456781955 
2.570000000000999, -1.0876725685095017 
2.58000000000102, -1.0883725725000464 
2.5900000000010412, -1.0885745391943895 
2.6000000000010624, -1.0884378922671378 
2.6100000000010835, -1.0880550480653342 
2.6200000000011046, -1.0874939693758021 
2.6300000000011257, -1.0868493839376296 
2.6400000000011468, -1.0863110297734617 
2.650000000001168, -1.0862311350446512 
2.660000000001189, -1.0871202021801203 
2.67000000000121, -1.089484429914799 
2.680000000001231, -1.0935448819519706 
2.6900000000012523, -1.0990580509280057 
2.7000000000012734, -1.1054011418370517 
2.7100000000012945, -1.1118270017296796 
2.7200000000013156, -1.1176923948157722 
2.7300000000013367, -1.12257543149881 
2.740000000001358, -1.1263008257351372 
2.750000000001379, -1.1289038489502368 
2.7600000000014, -1.1305544003506183 
2.770000000001421, -1.1314708744202053 
2.780000000001442, -1.1318558967166905 
2.7900000000014633, -1.1318678508792785 
2.8000000000014844, -1.1316222739711352 
2.8100000000015055, -1.1312113695926314 
2.8200000000015266, -1.1307329343134347 
2.8300000000015477, -1.1303192378137383 
2.840000000001569, -1.1301463702519672 
2.85000000000159, -1.130399365616014 
2.860000000001611, -1.1311969042167576 
2.870000000001632, -1.1325302036265272 
2.8800000000016532, -1.1342700613533458 
2.8900000000016743, -1.1362290879325456 
2.9000000000016954, -1.138224272503828 
2.9100000000017165, -1.140108477117106 
2.9200000000017377, -1.1417752088742663 
2.9300000000017588, -1.14315260514152 
2.94000000000178, -1.1441978574948792 
2.950000000001801, -1.1448953862027333 
2.960000000001822, -1.1452560415912183 
2.970000000001843, -1.1453132104124468 
2.9800000000018643, -1.1451154663262375 
2.9900000000018854, -1.1447199861584463 
3.0000000000019065, -1.1441911807674026 
3.0100000000019276, -1.143604298034367 
3.0200000000019487, -1.1430474388908956 
3.03000000000197, -1.1426128441234416 
3.040000000001991, -1.1423754243425082 
3.050000000002012, -1.1423701729597957 
3.060000000002033, -1.1425837233921288 
3.070000000002054, -1.1429628654696073 
3.0800000000020753, -1.143431704946584 
3.0900000000020964, -1.1439093939264642 
3.1000000000021175, -1.1443236440864533 
3.1100000000021386, -1.1446175559544938 
3.1200000000021597, -1.1447505794781816 
3.130000000002181, -1.1446966317401555 
3.140000000002202, -1.1444417438508907 
3.150000000002223, -1.1439821363331273 
3.160000000002244, -1.1433232083703828 
3.1700000000022652, -1.142480001388975 
3.1800000000022863, -1.1414793063106026 
3.1900000000023074, -1.140362835780276 
3.2000000000023285, -1.1391899333954851 
3.2100000000023496, -1.1380371706608174 
3.2200000000023707, -1.1369918630264824 
3.230000000002392, -1.1361378070042896 
3.240000000002413, -1.1355340239053808 
3.250000000002434, -1.135192537544692 
3.260000000002455, -1.1350686845103177 
3.2700000000024763, -1.1350747392998195 
3.2800000000024974, -1.1351087272214324 
3.2900000000025185, -1.1350773520076083 
3.3000000000025396, -1.1349018300333844 
3.3100000000025607, -1.1345121950686459 
3.3200000000025818, -1.1338415036678102 
3.330000000002603, -1.1328274853567541 
3.340000000002624, -1.1314223321048669 
3.350000000002645, -1.1296052868536934 
3.360000000002666, -1.127391148357625 
3.3700000000026873, -1.1248326828349184 
3.3800000000027084, -1.1220213044753111 
3.3900000000027295, -1.119090697319961 
3.4000000000027506, -1.116220680075537 
3.4100000000027717, -1.1136280109292604 
3.420000000002793, -1.1115260329986114 
3.430000000002814, -1.1100518971685027 
3.440000000002835, -1.1092016067351473 
3.450000000002856, -1.108831998885772 
3.460000000002877, -1.108734817209005 
3.4700000000028983, -1.108719080671373 
3.4800000000029194, -1.1086461881160306 
3.4900000000029405, -1.1084182865389047 
3.5000000000029616, -1.1079474554322657 
3.5100000000029827, -1.1071254365683194 
3.520000000003004, -1.1058023057212079 
3.530000000003025, -1.1037816178761086 
3.540000000003046, -1.1008439782655777 
3.550000000003067, -1.0968076382769223 
3.5600000000030882, -1.091614825813645 
3.5700000000031094, -1.0854090577332707 
3.5800000000031305, -1.0785682402943104 
3.5900000000031516, -1.071677275067211 
3.6000000000031727, -1.065429322066723 
3.6100000000031938, -1.0604454656874325 
3.620000000003215, -1.0570564745280104 
3.630000000003236, -1.055181983924717 
3.640000000003257, -1.0544208040984981 
3.650000000003278, -1.054283171155682 
3.6600000000032993, -1.0543794003608846 
3.6700000000033204, -1.054472756122309 
3.6800000000033415, -1.0544393607320282 
3.6900000000033626, -1.0542060733715364 
3.7000000000033837, -1.0536993171587383 
3.710000000003405, -1.0528062953242738 
3.720000000003426, -1.0513419376813942 
3.730000000003447, -1.0490224905302985 
3.740000000003468, -1.0454645566248473 
3.750000000003489, -1.0402487287613098 
3.7600000000035103, -1.0330822232183632 
3.7700000000035314, -1.02402937148269 
3.7800000000035525, -1.0136790541424336 
3.7900000000035736, -1.0030981334250257 
3.8000000000035947, -0.993535727282522 
3.810000000003616, -0.9859998517369263 
3.820000000003637, -0.9809197457207736 
3.830000000003658, -0.9780831465953346 
3.840000000003679, -0.9768681965869412 
3.8500000000037002, -0.9765830240608423 
3.8600000000037213, -0.9766948718973113 
3.8700000000037424, -0.9768833176934939 
3.8800000000037635, -0.9769872015169087 
3.8900000000037847, -0.9769294650607676 
3.9000000000038058, -0.9766585716722307 
3.910000000003827, -0.9761094203876384 
3.920000000003848, -0.975175250447015 
3.930000000003869, -0.9736851094297154 
3.94000000000389, -0.9713919583318237 
3.9500000000039113, -0.9679913069639673 
3.9600000000039324, -0.9631983804618793 
3.9700000000039535, -0.9568877839982122 
3.9800000000039746, -0.9492352406864091 
3.9900000000039957, -0.9407579589996748 
4.000000000004016, -0.932205741934635 
4.010000000003993, -0.9243607657112509 
4.02000000000397, -0.9178417284256473 
4.030000000003946, -0.9129737923911779 
4.040000000003923, -0.9097522470424216 
4.0500000000039, -0.9079065823068266 
4.0600000000038765, -0.9070345006702233 
4.070000000003853, -0.9067395771465769 
4.08000000000383, -0.9067145814995732 
4.090000000003807, -0.9067585822030386 
4.100000000003783, -0.906752805866397 
4.11000000000376, -0.9066249275843342 
4.120000000003737, -0.9063182568688182 
4.130000000003713, -0.9057704046096815 
4.14000000000369, -0.9049020470800831 
4.150000000003667, -0.9036181042467929 
4.1600000000036434, -0.9018255932034631 
4.17000000000362, -0.8994677970486933 
4.180000000003597, -0.8965608037300976 
4.1900000000035735, -0.8932081311841731 
4.20000000000355, -0.8895806688094998 
4.210000000003527, -0.8858760662705027 
4.220000000003504, -0.8822833592234571 
4.23000000000348, -0.8789651620249488 
4.240000000003457, -0.8760519205669054 
4.250000000003434, -0.8736374114093894 
4.26000000000341, -0.8717704303905209 
4.270000000003387, -0.8704461856408126 
4.280000000003364, -0.8696056341059123 
4.2900000000033405, -0.8691482055569264 
4.300000000003317, -0.8689547668197164 
4.310000000003294, -0.8689107870909423 
4.320000000003271, -0.8689206230674589 
4.330000000003247, -0.8689106845474225 
4.340000000003224, -0.8688253807571286 
4.350000000003201, -0.8686216624100821 
4.360000000003177, -0.868266573542374 
4.370000000003154, -0.8677392862370625 
4.380000000003131, -0.867035523718841 
4.390000000003107, -0.8661696649893518 
4.400000000003084, -0.8651709071196054 
4.410000000003061, -0.8640748123189912 
4.4200000000030375, -0.8629156248501362 
4.430000000003014, -0.8617236526861441 
4.440000000002991, -0.8605276319597663 
4.450000000002968, -0.8593589787618138 
4.460000000002944, -0.8582547862992349 
4.470000000002921, -0.8572577900144527 
4.480000000002898, -0.8564127892181028 
4.490000000002874, -0.8557600862432244 
4.500000000002851, -0.8553276725089196 
4.510000000002828, -0.8551247860302456 
4.520000000002804, -0.8551393491072448 
4.530000000002781, -0.8553404215017084 
4.540000000002758, -0.8556847628763464 
4.5500000000027345, -0.8561250142678893 
4.560000000002711, -0.8566167936140452 
4.570000000002688, -0.857123043077285 
4.580000000002665, -0.8576152201403474 
4.590000000002641, -0.8580716015281386 
4.600000000002618, -0.8584734263532479 
4.610000000002595, -0.8588006222918276 
4.620000000002571, -0.8590299828325673 
4.630000000002548, -0.8591380310227027 
4.640000000002525, -0.8591076312443899 
4.6500000000025015, -0.8589342558721116 
4.660000000002478, -0.8586283031125508 
4.670000000002455, -0.8582136977825743 
4.6800000000024315, -0.8577260199232711 
4.690000000002408, -0.8572129681072136 
4.700000000002385, -0.8567371971697616 
4.710000000002362, -0.8563786825950551 
4.720000000002338, -0.8562322824262439 
4.730000000002315, -0.8563973660145174 
4.740000000002292, -0.856960691465585 
4.750000000002268, -0.8579787647420319 
4.760000000002245, -0.8594671942951851 
4.770000000002222, -0.8614001993401962 
4.7800000000021985, -0.8637169969763194 
4.790000000002175, -0.866328517116233 
4.800000000002152, -0.8691198261865539 
4.810000000002129, -0.8719494850794588 
4.820000000002105, -0.8746537709786107 
4.830000000002082, -0.8770657262728825 
4.840000000002059, -0.8790498285292294 
4.850000000002035, -0.8805357769957445 
4.860000000002012, -0.8815285222663375 
4.870000000001989, -0.8820886511872233 
4.880000000001965, -0.8822994855326274 
4.890000000001942, -0.8822409453056681 
4.900000000001919, -0.8819786813295085 
4.9100000000018955, -0.8815671241562978 
4.920000000001872, -0.8810632783754428 
4.930000000001849, -0.8805502271450983 
