t, s[1].omega / s[0].omega 
0, -0.43989717364214165 
0.009999999999999995, -0.4303388549948438 
0.019999999999999934, -0.4225230500078155 
0.029999999999999874, -0.41650086247037066 
0.04000000000000012, -0.4120149579171069 
0.050000000000000405, -0.4087302070099875 
0.06000000000000069, -0.4063466458085029 
0.07000000000000098, -0.40463199320288556 
0.08000000000000126, -0.40341898745608085 
0.09000000000000155, -0.40259272728847195 
0.10000000000000184, -0.4020781517688012 
0.11000000000000212, -0.4018306582273933 
0.12000000000000241, -0.40183022366728266 
0.130000000000002, -0.4020786866192426 
0.1400000000000009, -0.40259979416111114 
0.1499999999999998, -0.4034416337360849 
0.1599999999999987, -0.40468076207414994 
0.1699999999999976, -0.4064262200888038 
0.1799999999999965, -0.40881888618213136 
0.1899999999999954, -0.4120163819776811 
0.1999999999999943, -0.41614710590332465 
0.2099999999999932, -0.42121856993220536 
0.2199999999999921, -0.4269992680941426 
0.229999999999991, -0.4329693796852858 
0.2399999999999899, -0.43846258771194363 
0.2499999999999888, -0.4429577284754028 
0.2599999999999877, -0.44627468049484903 
0.2699999999999866, -0.4485289272916419 
0.2799999999999855, -0.4499615582049651 
0.2899999999999844, -0.45080668951136726 
0.2999999999999833, -0.4512389197300826 
0.3099999999999822, -0.45136935681852286 
0.3199999999999811, -0.4512569535530693 
0.32999999999998, -0.4509194666973032 
0.3399999999999789, -0.4503402375111697 
0.3499999999999778, -0.44947267854439216 
0.35999999999997667, -0.44824803774879635 
0.36999999999997557, -0.446594989303257 
0.37999999999997447, -0.44447745666437566 
0.38999999999997337, -0.44194151548014976 
0.39999999999997227, -0.4391378148648764 
0.40999999999997117, -0.4362866173996884 
0.41999999999997006, -0.43359979827855055 
0.42999999999996896, -0.4312161171337672 
0.43999999999996786, -0.4291860454996991 
0.44999999999996676, -0.42749500641226756 
0.45999999999996566, -0.4260963683807927 
0.46999999999996456, -0.42493683677956967 
0.47999999999996346, -0.4239708318448484 
0.48999999999996235, -0.4231667075450165 
0.49999999999996125, -0.4225086546972845 
0.5099999999999602, -0.4219973395505948 
0.519999999999959, -0.4216513389438365 
0.529999999999958, -0.4215107677781861 
0.5399999999999568, -0.4216442923741327 
0.5499999999999557, -0.4221609256612763 
0.5599999999999546, -0.423228358297678 
0.5699999999999535, -0.42509941040128146 
0.5799999999999524, -0.4281455430453766 
0.5899999999999513, -0.432886189826025 
0.5999999999999502, -0.4399748548306809 
0.6099999999999491, -0.4500498591195929 
0.619999999999948, -0.4633236423459596 
0.6299999999999469, -0.4789627099863022 
0.6399999999999458, -0.49486013685339686 
0.6499999999999447, -0.5085585160397447 
0.6599999999999436, -0.5187089916515394 
0.6699999999999425, -0.5254591341193777 
0.6799999999999414, -0.5296980108179237 
0.6899999999999403, -0.5323097623922795 
0.6999999999999392, -0.5339140567984983 
0.7099999999999381, -0.5348891023079834 
0.719999999999937, -0.5354541729351296 
0.7299999999999359, -0.535733303525871 
0.7399999999999348, -0.5357929150813121 
0.7499999999999337, -0.5356619053769631 
0.7599999999999326, -0.5353420832929445 
0.7699999999999315, -0.5348146053639015 
0.7799999999999304, -0.5340472717632274 
0.7899999999999293, -0.5330073055851888 
0.7999999999999282, -0.531681712681672 
0.8099999999999271, -0.5300996197126089 
0.819999999999926, -0.5283416764366884 
0.8299999999999249, -0.5265237143721824 
0.8399999999999238, -0.5247609892718507 
0.8499999999999227, -0.5231360437741348 
0.8599999999999216, -0.5216872927667235 
0.8699999999999205, -0.520417018034756 
0.8799999999999194, -0.519307505694218 
0.8899999999999183, -0.5183359311357175 
0.8999999999999172, -0.5174842111296851 
0.9099999999999161, -0.5167440771564823 
0.919999999999915, -0.5161192931050955 
0.9299999999999139, -0.515627021387247 
0.9399999999999128, -0.5152997477628654 
0.9499999999999117, -0.5151885746620898 
0.9599999999999106, -0.5153683632301223 
0.9699999999999095, -0.5159450925601252 
0.9799999999999084, -0.5170656370308269 
0.9899999999999073, -0.5189293941958066 
0.9999999999999062, -0.521798721042017 
1.0099999999999052, -0.5259989045841342 
1.019999999999904, -0.5318859156623145 
1.029999999999903, -0.5397437241294757 
1.039999999999902, -0.5495761668110167 
1.0499999999999008, -0.5608425590969068 
1.0599999999998997, -0.5723734375601692 
1.0699999999998986, -0.5827478276224888 
1.0799999999998975, -0.5909706396504726 
1.0899999999998964, -0.5968328002474871 
1.0999999999998953, -0.600705165774946 
1.1099999999998942, -0.6031355983505049 
1.119999999999893, -0.6045979922393164 
1.129999999999892, -0.6054241156942833 
1.1399999999998909, -0.6058213344099038 
1.1499999999998898, -0.6059071996386176 
1.1599999999998887, -0.605735924700809 
1.1699999999998876, -0.6053127032696468 
1.1799999999998865, -0.6045978457016705 
1.1899999999998854, -0.603504370475023 
1.1999999999998843, -0.6018957511714198 
1.2099999999998832, -0.5995975486185473 
1.219999999999882, -0.596443929792777 
1.229999999999881, -0.5923697238279808 
1.2399999999998799, -0.5875098477132463 
1.2499999999998788, -0.5822152429233582 
1.2599999999998777, -0.5769371036504048 
1.2699999999998766, -0.5720600049143274 
1.2799999999998755, -0.5678065241603554 
1.2899999999998744, -0.5642438656371185 
1.2999999999998733, -0.5613408351061531 
1.3099999999998722, -0.5590232574156256 
1.319999999999871, -0.5572087007651643 
1.32999999999987, -0.5558225585793644 
1.3399999999998689, -0.5548029800791161 
1.3499999999998678, -0.5541007145186905 
1.3599999999998666, -0.5536773943001048 
1.3699999999998655, -0.5535039260649882 
1.3799999999998644, -0.5535596060439537 
1.3899999999998633, -0.5538320548382869 
1.3999999999998622, -0.5543178111094926 
1.4099999999998611, -0.5550232156280728 
1.41999999999986, -0.5559648584375708 
1.429999999999859, -0.5571682005772237 
1.4399999999998578, -0.5586620682292983 
1.4499999999998567, -0.56046612585697 
1.4599999999998556, -0.5625697115752372 
1.4699999999998545, -0.564906066877055 
1.4799999999998534, -0.5673366597528706 
1.4899999999998523, -0.5696673432380915 
1.4999999999998512, -0.5717033281980096 
1.5099999999998501, -0.5733138983499184 
1.519999999999849, -0.5744619572777558 
1.529999999999848, -0.5751851184789871 
1.5399999999998468, -0.5755541239462414 
1.5499999999998457, -0.5756378324991084 
1.5599999999998446, -0.5754843793259128 
1.5699999999998435, -0.5751136227166359 
1.5799999999998424, -0.5745128897006593 
1.5899999999998413, -0.5736296156916577 
1.5999999999998402, -0.5723555685339218 
1.6099999999998391, -0.5704969011078777 
1.619999999999838, -0.5677248894355725 
1.629999999999837, -0.5635140005942565 
1.6399999999998358, -0.5571213882207368 
1.6499999999998347, -0.5477602055516414 
1.6599999999998336, -0.535137819438128 
1.6699999999998325, -0.5201223045382107 
1.6799999999998314, -0.5046956004877614 
1.6899999999998303, -0.4909022508259274 
1.6999999999998292, -0.47985820240481686 
1.709999999999828, -0.4716647396592556 
1.719999999999827, -0.4658704086254427 
1.729999999999826, -0.46189105941246 
1.7399999999998248, -0.45921237425136485 
1.7499999999998237, -0.4574428087952082 
1.7599999999998226, -0.45630371783709184 
1.7699999999998215, -0.45560343538672327 
1.7799999999998204, -0.4552128503730719 
1.7899999999998193, -0.4550468479285345 
1.7999999999998182, -0.4550514843364761 
1.809999999999817, -0.4551957184867164 
1.819999999999816, -0.45546654597465086 
1.8299999999998149, -0.45586652528516636 
1.8399999999998138, -0.45641257235633403 
1.8499999999998127, -0.4571344152880461 
1.8599999999998116, -0.4580703808549167 
1.8699999999998105, -0.4592576856720081 
1.8799999999998094, -0.4607150565781348 
1.8899999999998083, -0.46241905743198697 
1.8999999999998072, -0.46428365461416493 
1.909999999999806, -0.46616146464090596 
1.919999999999805, -0.4678801799755493 
1.9299999999998039, -0.46929993174176143 
1.9399999999998028, -0.47035312052033557 
1.9499999999998017, -0.4710429666263935 
1.9599999999998006, -0.4714133324363976 
1.9699999999997995, -0.47151612710224783 
1.9799999999997984, -0.47139006513835413 
1.9899999999997973, -0.47104982952854774 
1.9999999999997962, -0.4704791860590641 
2.0099999999998173, -0.4696219667122826 
2.0199999999998384, -0.4683665479552851 
2.0299999999998595, -0.4665223034460905 
2.0399999999998806, -0.4637954153131873 
2.0499999999999017, -0.4597955217317142 
2.059999999999923, -0.4541415436006857 
2.069999999999944, -0.44672094769283105 
2.079999999999965, -0.43797576832965907 
2.089999999999986, -0.4288726835154895 
2.100000000000007, -0.4204480688605072 
2.1100000000000283, -0.4133465974191684 
2.1200000000000494, -0.40772773101698434 
2.1300000000000705, -0.4034431891248064 
2.1400000000000916, -0.40023600347631305 
2.1500000000001127, -0.397855382433695 
2.160000000000134, -0.39609889879353577 
2.170000000000155, -0.3948178282354654 
2.180000000000176, -0.3939095551735591 
2.190000000000197, -0.39330801675053606 
2.2000000000002182, -0.3929760976146369 
2.2100000000002393, -0.3929009669766946 
2.2200000000002604, -0.3930924202432557 
2.2300000000002815, -0.39358414442281553 
2.2400000000003026, -0.39443786937832265 
2.2500000000003237, -0.3957501782946965 
2.260000000000345, -0.39766073883867714 
2.270000000000366, -0.40035773491093146 
2.280000000000387, -0.40406943372135873 
2.290000000000408, -0.4090191347201455 
2.3000000000004293, -0.41531255390497457 
2.3100000000004504, -0.42275638502411866 
2.3200000000004715, -0.43071874502048535 
2.3300000000004926, -0.43825158272829423 
2.3400000000005137, -0.4445186866891701 
2.3500000000005348, -0.44917064219706565 
2.360000000000556, -0.4523362719038948 
2.370000000000577, -0.4543631561810658 
2.380000000000598, -0.4555977705309047 
2.390000000000619, -0.4562989116227342 
2.4000000000006403, -0.4566337137022215 
2.4100000000006614, -0.45669874721572423 
2.4200000000006825, -0.4565401892425557 
2.4300000000007036, -0.4561671185304682 
2.4400000000007247, -0.45555963293498136 
2.450000000000746, -0.45467630993581176 
2.460000000000767, -0.4534672475508087 
2.470000000000788, -0.45189833274079827 
2.480000000000809, -0.44998456667578746 
2.49000000000083, -0.44781448227101894 
2.5000000000008513, -0.44554021404920974 
2.5100000000008724, -0.4433297744271102 
2.5200000000008935, -0.4413128135151507 
2.5300000000009146, -0.43955428810087216 
2.5400000000009357, -0.43806119344399497 
2.550000000000957, -0.4368053166328011 
2.560000000000978, -0.4357455832307882 
2.570000000000999, -0.4348432053881715 
2.58000000000102, -0.4340696049143185 
2.5900000000010412, -0.4334095922216538 
2.6000000000010624, -0.432862563372875 
2.6100000000010835, -0.43244395316344486 
2.6200000000011046, -0.4321885758881149 
2.6300000000011257, -0.43215719023004606 
2.6400000000011468, -0.4324477627100218 
2.650000000001168, -0.433213341566547 
2.660000000001189, -0.4346886741782769 
2.67000000000121, -0.437226153628749 
2.680000000001231, -0.4413340461227021 
2.6900000000012523, -0.44768643663818575 
2.7000000000012734, -0.4570222324710257 
2.7100000000012945, -0.46979093099632896 
2.7200000000013156, -0.4854985222681658 
2.7300000000013367, -0.5022266246343259 
2.740000000001358, -0.517274154418907 
2.750000000001379, -0.5287828611011003 
2.7600000000014, -0.5365706969318981 
2.770000000001421, -0.541496800122884 
2.780000000001442, -0.544546095102012 
2.7900000000014633, -0.5464360354790052 
2.8000000000014844, -0.5476076883595974 
2.8100000000015055, -0.5483168578067374 
2.8200000000015266, -0.5487096460604263 
2.8300000000015477, -0.5488673971678958 
2.840000000001569, -0.54883056452616 
2.85000000000159, -0.548610858936631 
2.860000000001611, -0.5481978362786895 
2.870000000001632, -0.5475645464087591 
2.8800000000016532, -0.5466767138341388 
2.8900000000016743, -0.5455090393234302 
2.9000000000016954, -0.5440673207495621 
2.9100000000017165, -0.5424057529512087 
2.9200000000017377, -0.5406238341797835 
2.9300000000017588, -0.5388387239660898 
2.94000000000178, -0.5371495072289589 
2.950000000001801, -0.5356154044196475 
2.960000000001822, -0.5342553434554703 
2.970000000001843, -0.5330610976079625 
2.9800000000018643, -0.5320130675607582 
2.9900000000018854, -0.5310923608451854 
3.0000000000019065, -0.5302877875536298 
3.0100000000019276, -0.5295990961069127 
3.0200000000019487, -0.5290384649748858 
3.03000000000197, -0.5286318667887084 
3.040000000001991, -0.5284212555635877 
3.050000000002012, -0.5284680545949035 
3.060000000002033, -0.5288582160631776 
3.070000000002054, -0.5297090065205505 
3.0800000000020753, -0.5311772787716793 
3.0900000000020964, -0.5334676405423253 
3.1000000000021175, -0.5368353740205722 
3.1100000000021386, -0.5415713986917636 
3.1200000000021597, -0.5479446546108342 
3.130000000002181, -0.5560703248271258 
3.140000000002202, -0.5657043022837007 
3.150000000002223, -0.5760792150488293 
3.160000000002244, -0.5860209428263572 
3.1700000000022652, -0.5944311373652372 
3.1800000000022863, -0.6007750737754385 
3.1900000000023074, -0.6051441720099329 
3.2000000000023285, -0.6079631839352393 
3.2100000000023496, -0.609693256796473 
3.2200000000023707, -0.6106944130468401 
3.230000000002392, -0.6112063742412859 
3.240000000002413, -0.6113722600037564 
3.250000000002434, -0.6112649304058986 
3.260000000002455, -0.610903736944174 
3.2700000000024763, -0.6102605362450542 
3.2800000000024974, -0.6092569043916499 
3.2900000000025185, -0.6077568483721677 
3.3000000000025396, -0.6055656159472074 
3.3100000000025607, -0.6024567749808359 
3.3200000000025818, -0.5982553729010524 
3.330000000002603, -0.5929725091629618 
3.340000000002624, -0.5869045583819438 
3.350000000002645, -0.5805766552458351 
3.360000000002666, -0.5745390519967899 
3.3700000000026873, -0.5691781594581578 
3.3800000000027084, -0.5646618908534042 
3.3900000000027295, -0.5609928267988838 
3.4000000000027506, -0.5580876060265898 
3.4100000000027717, -0.5558354097130674 
3.420000000002793, -0.5541285854898337 
3.430000000002814, -0.5528742705401785 
3.440000000002835, -0.5519964476252885 
3.450000000002856, -0.551434391269501 
3.460000000002877, -0.5511404490271632 
3.4700000000028983, -0.5510783183454362 
3.4800000000029194, -0.5512221097689746 
3.4900000000029405, -0.5515561264327564 
3.5000000000029616, -0.5520751263472959 
3.5100000000029827, -0.5527846234806204 
3.520000000003004, -0.5537003356799584 
3.530000000003025, -0.5548451541698384 
3.540000000003046, -0.5562412936549942 
3.550000000003067, -0.5578955103510203 
3.5600000000030882, -0.5597781387420542 
3.5700000000031094, -0.5618037111854285 
3.5800000000031305, -0.5638293113609709 
3.5900000000031516, -0.5656848087872541 
3.6000000000031727, -0.5672264456321022 
3.6100000000031938, -0.5683796916068634 
3.620000000003215, -0.5691438793744352 
3.630000000003236, -0.569564893649753 
3.640000000003257, -0.5697014203598199 
3.650000000003278, -0.5696016410449931 
3.6600000000032993, -0.5692917786887158 
3.6700000000033204, -0.568770624094575 
3.6800000000033415, -0.568003750050529 
3.6900000000033626, -0.5669121084929432 
3.7000000000033837, -0.5653493767999863 
3.710000000003405, -0.5630610449233336 
3.720000000003426, -0.559620829970582 
3.730000000003447, -0.5543643934070341 
3.740000000003468, -0.5464213981143152 
3.750000000003489, -0.5350648021565922 
3.7600000000035103, -0.5204621939420028 
3.7700000000035314, -0.5042021223275777 
3.7800000000035525, -0.4886590002938466 
3.7900000000035736, -0.47564242427355935 
3.8000000000035947, -0.4657519808108595 
3.810000000003616, -0.45869655327364567 
3.820000000003637, -0.4538515901872865 
3.830000000003658, -0.45060180240879316 
3.840000000003679, -0.4484607584770415 
3.8500000000037002, -0.4470789276328076 
3.8600000000037213, -0.44621643188933635 
3.8700000000037424, -0.44571265554307493 
3.8800000000037635, -0.44546209160369993 
3.8900000000037847, -0.44539736672786895 
3.9000000000038058, -0.44547812742948867 
3.910000000003827, -0.4456842862605705 
3.920000000003848, -0.44601238588819186 
3.930000000003869, -0.446473937423072 
3.94000000000389, -0.4470943128511468 
3.9500000000039113, -0.4479101482811214 
3.9600000000039324, -0.4489625496507781 
3.9700000000039535, -0.45028334302653905 
3.9800000000039746, -0.45187349965816487 
3.9900000000039957, -0.45367883449238083 
4.000000000004016, -0.45557803928660895 
4.010000000003993, -0.4574022044145455 
4.02000000000397, -0.4589870203926901 
4.030000000003946, -0.4602267185629533 
4.040000000003923, -0.46109302961401344 
4.0500000000039, -0.4616150478330968 
4.0600000000038765, -0.4618445518272451 
4.070000000003853, -0.4618285494832614 
4.08000000000383, -0.4615941083558089 
4.090000000003807, -0.4611404499571704 
4.100000000003783, -0.46043169471272344 
4.11000000000376, -0.45938522510977176 
4.120000000003737, -0.45785304803549326 
4.130000000003713, -0.45559935605783997 
4.14000000000369, -0.45229383629976694 
4.150000000003667, -0.44757108829048153 
4.1600000000036434, -0.44121866747014626 
4.17000000000362, -0.433451437946772 
4.180000000003597, -0.4250124706887748 
4.1900000000035735, -0.41687656574889315 
4.20000000000355, -0.4097858980416625 
4.210000000003527, -0.4040375743451395 
4.220000000003504, -0.3995801540924654 
4.23000000000348, -0.39620318737861415 
4.240000000003457, -0.39367087044140014 
4.250000000003434, -0.39178149199917534 
4.26000000000341, -0.3903823016616853 
4.270000000003387, -0.38936598738426353 
4.280000000003364, -0.38866245983387687 
4.2900000000033405, -0.38823145643140794 
4.300000000003317, -0.38805770814197016 
4.310000000003294, -0.38814905050212933 
4.320000000003271, -0.38853755225697795 
4.330000000003247, -0.3892837832898383 
4.340000000003224, -0.3904843167029894 
4.350000000003201, -0.3922819192467718 
4.360000000003177, -0.394875542845897 
4.370000000003154, -0.39852105289839684 
4.380000000003131, -0.40350097091433385 
4.390000000003107, -0.4100254933395598 
4.400000000003084, -0.41803629886296445 
4.410000000003061, -0.4269846381188268 
4.4200000000030375, -0.4358336091172001 
4.430000000003014, -0.4434821559339996 
4.440000000002991, -0.4493148469295343 
4.450000000002968, -0.45334793886417823 
4.460000000002944, -0.4559578561827796 
4.470000000002921, -0.45757251399625576 
4.480000000002898, -0.45852624103515166 
4.490000000002874, -0.459040030488973 
4.500000000002851, -0.45924611725389114 
4.510000000002828, -0.45921523013531323 
4.520000000002804, -0.45897547928845295 
4.530000000002781, -0.4585236752089202 
4.540000000002758, -0.45783322044244584 
4.5500000000027345, -0.4568640197851267 
4.560000000002711, -0.4555800698970076 
4.570000000002688, -0.45397635515821666 
4.580000000002665, -0.45210532226122907 
4.590000000002641, -0.45008191937397324 
4.600000000002618, -0.44805408314984385 
4.610000000002595, -0.44615431787723037 
4.620000000002571, -0.4444645994012947 
4.630000000002548, -0.4430107706109128 
4.640000000002525, -0.44177810319025734 
4.6500000000025015, -0.44073225886608947 
4.660000000002478, -0.43983600383059657 
4.670000000002455, -0.4390592315263313 
4.6800000000024315, -0.43838360024035083 
4.690000000002408, -0.43780426309035514 
4.700000000002385, -0.43733108473865123 
4.710000000002362, -0.4369912135042705 
4.720000000002338, -0.4368344626629952 
4.730000000002315, -0.4369429435577238 
4.740000000002292, -0.4374467835102852 
4.750000000002268, -0.43854822201457255 
4.760000000002245, -0.4405558447650077 
4.770000000002222, -0.4439260605935412 
4.7800000000021985, -0.44929226391341565 
4.790000000002175, -0.4574195260857478 
4.800000000002152, -0.4689535200742777 
4.810000000002129, -0.48383736067082345 
4.820000000002105, -0.500637722849185 
4.830000000002082, -0.5167010604718529 
4.840000000002059, -0.5296391695233804 
4.850000000002035, -0.5386908966557937 
4.860000000002012, -0.5445016644820411 
4.870000000001989, -0.5481126368982493 
4.880000000001965, -0.550356361056642 
4.890000000001942, -0.5517598694408818 
