t, s[1].omega / s[0].omega 
0, -0.5299977504170466 
0.009999999999999995, -0.5298038032031759 
0.019999999999999934, -0.5296599716722328 
0.029999999999999874, -0.5295369608910501 
0.04000000000000012, -0.5293984284862913 
0.050000000000000405, -0.5292129503287011 
0.06000000000000069, -0.5289615071182314 
0.07000000000000098, -0.5286386791941677 
0.08000000000000126, -0.5282499729037917 
0.09000000000000155, -0.5278091951982782 
0.10000000000000184, -0.5273388393095495 
0.11000000000000212, -0.5268752859487404 
0.12000000000000241, -0.5264805962661001 
0.130000000000002, -0.5262637503480354 
0.1400000000000009, -0.5264155732833494 
0.1499999999999998, -0.5272612295897005 
0.1599999999999987, -0.5293259851170374 
0.1699999999999976, -0.5333785854819857 
0.1799999999999965, -0.5403385161377798 
0.1899999999999954, -0.5508328088237647 
0.1999999999999943, -0.5643227917802339 
0.2099999999999932, -0.5785295720350002 
0.2199999999999921, -0.5905180131752809 
0.229999999999991, -0.5988423335717203 
0.2399999999999899, -0.6040421618046086 
0.2499999999999888, -0.6073265881342654 
0.2599999999999877, -0.6095627521428211 
0.2699999999999866, -0.6111744789900031 
0.2799999999999855, -0.6123489348704461 
0.2899999999999844, -0.6131835703869517 
0.2999999999999833, -0.6137433827559424 
0.3099999999999822, -0.6140756565786177 
0.3199999999999811, -0.6142116792602904 
0.32999999999998, -0.6141658579763102 
0.3399999999999789, -0.6139347967428898 
0.3499999999999778, -0.6134972865706944 
0.35999999999997667, -0.6128171036799916 
0.36999999999997557, -0.6118520409055046 
0.37999999999997447, -0.6105721949621113 
0.38999999999997337, -0.6089846722266739 
0.39999999999997227, -0.6071512403641542 
0.40999999999997117, -0.6051818065784071 
0.41999999999997006, -0.6032020939223912 
0.42999999999996896, -0.6013160378921574 
0.43999999999996786, -0.5995856234976313 
0.44999999999996676, -0.5980330959529593 
0.45999999999996566, -0.5966556514093135 
0.46999999999996456, -0.5954413207022832 
0.47999999999996346, -0.594380276638862 
0.48999999999996235, -0.5934708050540601 
0.49999999999996125, -0.5927214871602771 
0.5099999999999602, -0.5921514021920132 
0.519999999999959, -0.591789571158275 
0.529999999999958, -0.591674273730075 
0.5399999999999568, -0.5918525874459062 
0.5499999999999557, -0.5923804373080312 
0.5599999999999546, -0.5933233593766932 
0.5699999999999535, -0.5947577984203294 
0.5799999999999524, -0.596771786611262 
0.5899999999999513, -0.5994619732109876 
0.5999999999999502, -0.6029210601341972 
0.6099999999999491, -0.6072067773847446 
0.619999999999948, -0.6122852822489624 
0.6299999999999469, -0.6179587031412141 
0.6399999999999458, -0.6238247257216717 
0.6499999999999447, -0.6293429959662987 
0.6599999999999436, -0.6340220634587863 
0.6699999999999425, -0.637604932731501 
0.6799999999999414, -0.6401073215166351 
0.6899999999999403, -0.6417137674430108 
0.6999999999999392, -0.6426486569228557 
0.7099999999999381, -0.6430995992743379 
0.719999999999937, -0.6431936872360231 
0.7299999999999359, -0.6429991301771834 
0.7399999999999348, -0.6425310770024136 
0.7499999999999337, -0.6417511192858119 
0.7599999999999326, -0.6405549777715459 
0.7699999999999315, -0.6387433934315799 
0.7799999999999304, -0.6359717409193433 
0.7899999999999293, -0.6316843746394196 
0.7999999999999282, -0.6250828519291027 
0.8099999999999271, -0.6152721148619792 
0.819999999999926, -0.6017757481735587 
0.8299999999999249, -0.5852770288386095 
0.8399999999999238, -0.5677757135933796 
0.8499999999999227, -0.551625116032129 
0.8599999999999216, -0.5383442485241947 
0.8699999999999205, -0.5282989536921077 
0.8799999999999194, -0.5211138715716946 
0.8899999999999183, -0.5161620129145177 
0.8999999999999172, -0.5128417956374833 
0.9099999999999161, -0.510671871452202 
0.919999999999915, -0.5092973669970964 
0.9299999999999139, -0.5084671400539436 
0.9399999999999128, -0.5080075002873593 
0.9499999999999117, -0.5078003533988332 
0.9599999999999106, -0.5077670017509299 
0.9699999999999095, -0.5078568765550836 
0.9799999999999084, -0.5080402018558199 
0.9899999999999073, -0.508303691488922 
0.9999999999999062, -0.5086483098367243 
1.0099999999999052, -0.5090876862118832 
1.019999999999904, -0.5096451233360917 
1.029999999999903, -0.5103468851470346 
1.039999999999902, -0.5112103746484038 
1.0499999999999008, -0.5122284602275718 
1.0599999999998997, -0.5133556137968442 
1.0699999999998986, -0.5145058387361827 
1.0799999999998975, -0.5155705554233794 
1.0899999999998964, -0.5164515405602896 
1.0999999999998953, -0.5170892178960399 
1.1099999999998942, -0.5174691138944044 
1.119999999999893, -0.5176078521965988 
1.129999999999892, -0.5175325418555221 
1.1399999999998909, -0.5172643393736773 
1.1499999999998898, -0.5168082169361571 
1.1599999999998887, -0.5161456383825888 
1.1699999999998876, -0.5152252137373222 
1.1799999999998865, -0.5139452623806832 
1.1899999999998854, -0.5121190481494899 
1.1999999999998843, -0.5094079786805692 
1.2099999999998832, -0.5052086792529703 
1.219999999999882, -0.4985257076539858 
1.229999999999881, -0.48803734120700515 
1.2399999999998799, -0.4728000896571512 
1.2499999999998788, -0.45358915114335635 
1.2599999999998777, -0.4333223872896575 
1.2699999999998766, -0.41531123233864103 
1.2799999999998755, -0.4012862488210744 
1.2899999999998744, -0.39124746036773966 
1.2999999999998733, -0.38438039985920247 
1.3099999999998722, -0.37977929327252535 
1.319999999999871, -0.376723062099657 
1.32999999999987, -0.3747061944218629 
1.3399999999998689, -0.3733934231027397 
1.3499999999998678, -0.3725682372353905 
1.3599999999998666, -0.37209365150868906 
1.3699999999998655, -0.37188607844396115 
1.3799999999998644, -0.3718992146235127 
1.3899999999998633, -0.3721149839400507 
1.3999999999998622, -0.3725394633960833 
1.4099999999998611, -0.373202375120261 
1.41999999999986, -0.37415885013010686 
1.429999999999859, -0.3754915106683851 
1.4399999999998578, -0.37730907698156646 
1.4499999999998567, -0.379734193242825 
1.4599999999998556, -0.38286876435359607 
1.4699999999998545, -0.3867264015459497 
1.4799999999998534, -0.39114527459496545 
1.4899999999998523, -0.39574775308063964 
1.4999999999998512, -0.4000348066287356 
1.5099999999998501, -0.4035946580045926 
1.519999999999849, -0.4062575542190709 
1.529999999999848, -0.4080807963144365 
1.5399999999998468, -0.4092311977372889 
1.5499999999998457, -0.4098821292470304 
1.5599999999998446, -0.4101660422665801 
1.5699999999998435, -0.4101651997663377 
1.5799999999998424, -0.409916385688594 
1.5899999999998413, -0.4094166694728657 
1.5999999999998402, -0.40862697350793153 
1.6099999999998391, -0.40747643230472796 
1.619999999999838, -0.40587588085092774 
1.629999999999837, -0.40375178972136216 
1.6399999999998358, -0.401102826945077 
1.6499999999998347, -0.3980514344576774 
1.6599999999998336, -0.39483768211226294 
1.6699999999998325, -0.3917369304948882 
1.6799999999998314, -0.38895899461847094 
1.6899999999998303, -0.3866009166700096 
1.6999999999998292, -0.38466308141613464 
1.709999999999828, -0.3830916157474143 
1.719999999999827, -0.38181548371994445 
1.729999999999826, -0.38076875817900524 
1.7399999999998248, -0.3799007428043931 
1.7499999999998237, -0.3791790788538948 
1.7599999999998226, -0.3785900352082424 
1.7699999999998215, -0.3781389154829207 
1.7799999999998204, -0.3778526483396011 
1.7899999999998193, -0.37778633193477157 
1.7999999999998182, -0.3780358817544155 
1.809999999999817, -0.3787599832836985 
1.819999999999816, -0.3802159691851894 
1.8299999999998149, -0.3828144979427609 
1.8399999999998138, -0.38719124504231217 
1.8499999999998127, -0.39426295161106795 
1.8599999999998116, -0.40514465057851634 
1.8699999999998105, -0.4206494537362075 
1.8799999999998094, -0.4401537842432467 
1.8899999999998083, -0.46062960781712137 
1.8999999999998072, -0.4778871779243338 
1.909999999999806, -0.48966377106769887 
1.919999999999805, -0.4966064272323877 
1.9299999999998039, -0.5005071775003587 
1.9399999999998028, -0.5027816174076102 
1.9499999999998017, -0.504203900281921 
1.9599999999998006, -0.5051412654301342 
1.9699999999997995, -0.5057669489687283 
1.9799999999997984, -0.5061689043869928 
1.9899999999997973, -0.5063951577749787 
1.9999999999997962, -0.5064714013718822 
2.0099999999998173, -0.506407994485338 
2.0199999999998384, -0.5062035890946505 
2.0299999999998595, -0.505848883948825 
2.0399999999998806, -0.5053328519252027 
2.0499999999999017, -0.5046525650988347 
2.059999999999923, -0.5038246509193239 
2.069999999999944, -0.5028920484706262 
2.079999999999965, -0.5019188550830331 
2.089999999999986, -0.5009729758106588 
2.100000000000007, -0.5001059582037616 
2.1100000000000283, -0.4993411796135027 
2.1200000000000494, -0.49867439018554965 
2.1300000000000705, -0.4980831553346599 
2.1400000000000916, -0.4975391519981251 
2.1500000000001127, -0.497018331234021 
2.160000000000134, -0.4965066153664755 
2.170000000000155, -0.49600172149688193 
2.180000000000176, -0.49551352737812737 
2.190000000000197, -0.49506562090594236 
2.2000000000002182, -0.4947001188308639 
2.2100000000002393, -0.4944875604623819 
2.2200000000002604, -0.49454411566060374 
2.2300000000002815, -0.49505931829870803 
2.2400000000003026, -0.4963382333496552 
2.2500000000003237, -0.49885986101916907 
2.260000000000345, -0.5033413266232015 
2.270000000000366, -0.5107579685110817 
2.280000000000387, -0.5221820088150109 
2.290000000000408, -0.5382145206315224 
2.3000000000004293, -0.5580000222782489 
2.3100000000004504, -0.5787024415786511 
2.3200000000004715, -0.59677278595039 
2.3300000000004926, -0.610203334094211 
2.3400000000005137, -0.6191600786360776 
2.3500000000005348, -0.6248430861694516 
2.360000000000556, -0.6284126415254728 
2.370000000000577, -0.6306624092275764 
2.380000000000598, -0.6320752864098655 
2.390000000000619, -0.6329373950284637 
2.4000000000006403, -0.6334176050760401 
2.4100000000006614, -0.6336123551753767 
2.4200000000006825, -0.6335690725552131 
2.4300000000007036, -0.6332974002668148 
2.4400000000007247, -0.6327736610935875 
2.450000000000746, -0.6319430728764674 
2.460000000000767, -0.6307259437856622 
2.470000000000788, -0.6290366758835517 
2.480000000000809, -0.6268220592466462 
2.49000000000083, -0.6241096942645933 
2.5000000000008513, -0.621033847350755 
2.5100000000008724, -0.617807013919661 
2.5200000000008935, -0.6146488945579344 
2.5300000000009146, -0.6117229797892898 
2.5400000000009357, -0.6091154658164672 
2.550000000000957, -0.6068503384112252 
2.560000000000978, -0.6049166121908154 
2.570000000000999, -0.6032909787398729 
2.58000000000102, -0.6019510290322938 
2.5900000000010412, -0.600880657068685 
2.6000000000010624, -0.6000707848497989 
2.6100000000010835, -0.5995179891462628 
2.6200000000011046, -0.5992226812871668 
2.6300000000011257, -0.5991877811183688 
2.6400000000011468, -0.5994183609491603 
2.650000000001168, -0.5999223865149151 
2.660000000001189, -0.6007123368259047 
2.67000000000121, -0.6018070472342261 
2.680000000001231, -0.6032324673634812 
2.6900000000012523, -0.6050190577495058 
2.7000000000012734, -0.6071924669394353 
2.7100000000012945, -0.6097540375549043 
2.7200000000013156, -0.6126512903216045 
2.7300000000013367, -0.6157491393194574 
2.740000000001358, -0.6188271462712254 
2.750000000001379, -0.6216271614795714 
2.7600000000014, -0.6239387494479174 
2.770000000001421, -0.6256653771806112 
2.780000000001442, -0.6268261962406814 
2.7900000000014633, -0.6275076855115204 
2.8000000000014844, -0.6278099146560769 
2.8100000000015055, -0.6278135106891809 
2.8200000000015266, -0.6275667489725936 
2.8300000000015477, -0.6270822064696426 
2.840000000001569, -0.6263338428272031 
2.85000000000159, -0.6252483789848453 
2.860000000001611, -0.6236853786292715 
2.870000000001632, -0.621398098028847 
2.8800000000016532, -0.6179640510734019 
2.8900000000016743, -0.6126818913005785 
2.9000000000016954, -0.6044902245366848 
2.9100000000017165, -0.5921372894718563 
2.9200000000017377, -0.5749783115192957 
2.9300000000017588, -0.5541936734538214 
2.94000000000178, -0.5329050293273754 
2.950000000001801, -0.5143644038109231 
2.960000000001822, -0.5001781924083508 
2.970000000001843, -0.49025293835375827 
2.9800000000018643, -0.48369229514570733 
2.9900000000018854, -0.47950964845386784 
3.0000000000019065, -0.47691300602074344 
3.0100000000019276, -0.47534288868584607 
3.0200000000019487, -0.474427004219825 
3.03000000000197, -0.4739248258167108 
3.040000000001991, -0.47368346805047035 
3.050000000002012, -0.473607042941536 
3.060000000002033, -0.4736367289682142 
3.070000000002054, -0.473738502727736 
3.0800000000020753, -0.4738962265955406 
3.0900000000020964, -0.4741083558281408 
3.1000000000021175, -0.47438656201542073 
3.1100000000021386, -0.47475413816073353 
3.1200000000021597, -0.4752416940234315 
3.130000000002181, -0.47587816198945576 
3.140000000002202, -0.47667698627508015 
3.150000000002223, -0.47762061108210235 
3.160000000002244, -0.47865065359596526 
3.1700000000022652, -0.479673499390452 
3.1800000000022863, -0.48058494442403515 
3.1900000000023074, -0.48130244014320017 
3.2000000000023285, -0.4817847347452641 
3.2100000000023496, -0.48202918722711835 
3.2200000000023707, -0.4820545014794392 
3.230000000002392, -0.48188197743733624 
3.240000000002413, -0.4815218609275549 
3.250000000002434, -0.48096391906172453 
3.260000000002455, -0.4801678056868702 
3.2700000000024763, -0.4790473157775983 
3.2800000000024974, -0.4774404957229651 
3.2900000000025185, -0.4750543037348852 
3.3000000000025396, -0.47137489090254975 
3.3100000000025607, -0.4655713901070584 
3.3200000000025818, -0.4565510080527292 
3.330000000002603, -0.4434989118595811 
3.340000000002624, -0.42693292696683416 
3.350000000002645, -0.4091483582035014 
3.360000000002666, -0.3929525886367958 
3.3700000000026873, -0.3799943286073308 
3.3800000000027084, -0.3704579387207569 
3.3900000000027295, -0.3637469795216227 
3.4000000000027506, -0.35911419344513573 
3.4100000000027717, -0.3559351843771888 
3.420000000002793, -0.3537594938699053 
3.430000000002814, -0.35228272928876586 
3.440000000002835, -0.35130618314760553 
3.450000000002856, -0.35070410502246996 
3.460000000002877, -0.3504014192117323 
3.4700000000028983, -0.350360111303745 
3.4800000000029194, -0.3505721480600704 
3.4900000000029405, -0.351057443321677 
3.5000000000029616, -0.3518660144656314 
3.5100000000029827, -0.35308368831693515 
3.520000000003004, -0.35484003898317207 
3.530000000003025, -0.35731463509891703 
3.540000000003046, -0.3607311702013073 
3.550000000003067, -0.3653170545066861 
3.5600000000030882, -0.3711957133968805 
3.5700000000031094, -0.3782049561936246 
3.5800000000031305, -0.38574803257135637 
3.5900000000031516, -0.3929045449453727 
3.6000000000031727, -0.39885548942038096 
3.6100000000031938, -0.4032590578263866 
3.620000000003215, -0.40624077296595135 
3.630000000003236, -0.4081359908858504 
3.640000000003257, -0.4092758391291146 
3.650000000003278, -0.40990508271738413 
3.6600000000032993, -0.41017945849949833 
3.6700000000033204, -0.41018630702859776 
3.6800000000033415, -0.409963963324823 
3.6900000000033626, -0.4095149138713037 
3.7000000000033837, -0.4088152970354127 
3.710000000003405, -0.4078262158448126 
3.720000000003426, -0.40651303920145 
3.730000000003447, -0.40487460193530084 
3.740000000003468, -0.4029716347319656 
3.750000000003489, -0.40093111583454943 
3.7600000000035103, -0.39891242096007107 
3.7700000000035314, -0.3970538559253833 
3.7800000000035525, -0.3954358123483316 
3.7900000000035736, -0.39407698571986194 
3.8000000000035947, -0.39295272395291264 
3.810000000003616, -0.3920179949713395 
3.820000000003637, -0.39122527989504136 
3.830000000003658, -0.3905352604699882 
3.840000000003679, -0.38992158042734876 
3.8500000000037002, -0.38937209155236274 
3.8600000000037213, -0.388889189009085 
3.8700000000037424, -0.38849153035620243 
3.8800000000037635, -0.3882191012359946 
3.8900000000037847, -0.388143743630469 
3.9000000000038058, -0.3883881164231682 
3.910000000003827, -0.38915732821705074 
3.920000000003848, -0.39078753550858875 
3.930000000003869, -0.3938085018099952 
3.94000000000389, -0.39898404025712686 
3.9500000000039113, -0.40719828368906075 
3.9600000000039324, -0.4189003255456648 
3.9700000000039535, -0.4329493225354172 
3.9800000000039746, -0.44593008352527264 
3.9900000000039957, -0.4541320415428978 
4.000000000004016, -0.4568724423811495 
4.010000000003993, -0.45637984305840373 
4.02000000000397, -0.455011079030177 
4.030000000003946, -0.45389406707490965 
4.040000000003923, -0.4532545381826873 
4.0500000000039, -0.4529846794264419 
4.0600000000038765, -0.45293091088065146 
4.070000000003853, -0.4529776566552931 
4.08000000000383, -0.4530528449030144 
4.090000000003807, -0.4531148788954956 
4.100000000003783, -0.453140052461462 
4.11000000000376, -0.4531143160964959 
4.120000000003737, -0.45302931562667387 
4.130000000003713, -0.4528820573495397 
4.14000000000369, -0.45267738639808924 
4.150000000003667, -0.4524316015017596 
4.1600000000036434, -0.4521741718757413 
4.17000000000362, -0.4519442587142617 
4.180000000003597, -0.45178112892856603 
4.1900000000035735, -0.45171147398652545 
4.20000000000355, -0.45173890618772405 
4.210000000003527, -0.45184027459698994 
4.220000000003504, -0.45197113162842345 
4.23000000000348, -0.4520789798535862 
4.240000000003457, -0.4521183611584426 
4.250000000003434, -0.4520602954798143 
4.26000000000341, -0.4518927442610998 
4.270000000003387, -0.45161472290735416 
4.280000000003364, -0.45122888822293855 
4.2900000000033405, -0.4507356384035 
4.300000000003317, -0.4501290997001982 
4.310000000003294, -0.4493935527663363 
4.320000000003271, -0.4484971704598464 
4.330000000003247, -0.44737609266171824 
4.340000000003224, -0.44589192084781304 
4.350000000003201, -0.4437257057106104 
4.360000000003177, -0.44015615159558996 
4.370000000003154, -0.4337646088182202 
4.380000000003131, -0.4225514428805906 
4.390000000003107, -0.4054048042022681 
4.400000000003084, -0.38426588843601983 
4.410000000003061, -0.36355238763142234 
4.4200000000030375, -0.34674148752303563 
4.430000000003014, -0.3346891455546787 
4.440000000002991, -0.32660516573558485 
4.450000000002968, -0.32133460125422225 
4.460000000002944, -0.3179260652515425 
4.470000000002921, -0.3157244567305471 
4.480000000002898, -0.3143099954487911 
4.490000000002874, -0.3134219603097051 
4.500000000002851, -0.3129018431910373 
4.510000000002828, -0.3126569712682901 
4.520000000002804, -0.31263903304523744 
4.530000000002781, -0.31283260480622166 
4.540000000002758, -0.3132505163551734 
4.5500000000027345, -0.3139342157414715 
4.560000000002711, -0.3149578888860787 
4.570000000002688, -0.3164346963434394 
4.580000000002665, -0.3185213397967882 
4.590000000002641, -0.32141166460121107 
4.600000000002618, -0.325299969012909 
4.610000000002595, -0.33028694490146304 
4.620000000002571, -0.3362260840617381 
4.630000000002548, -0.342605311825499 
4.640000000002525, -0.34865070377855967 
4.6500000000025015, -0.353682150366503 
4.660000000002478, -0.35741610375304594 
4.670000000002455, -0.35995267392492536 
4.6800000000024315, -0.3615657130292298 
4.690000000002408, -0.36252819894365407 
4.700000000002385, -0.3630433851266504 
4.710000000002362, -0.363240769953734 
4.720000000002338, -0.36319206316987945 
4.730000000002315, -0.36292713634853896 
4.740000000002292, -0.3624459524577058 
4.750000000002268, -0.36172904836738135 
4.760000000002245, -0.3607513618200043 
4.770000000002222, -0.3595030467907702 
4.7800000000021985, -0.3580141220443333 
4.790000000002175, -0.35636873715252604 
4.800000000002152, -0.35469233099726005 
4.810000000002129, -0.35311320218513054 
4.820000000002105, -0.35172314346061107 
4.830000000002082, -0.35056037068470836 
4.840000000002059, -0.3496162053611435 
4.850000000002035, -0.3488528648064466 
4.860000000002012, -0.34822135732660725 
4.870000000001989, -0.34767478429619175 
4.880000000001965, -0.34717602374827994 
4.890000000001942, -0.34670040680875125 
