t, s[1].omega / s[0].omega 
0, -0.5399977459816532 
0.009999999999999995, -0.5397869231769499 
0.019999999999999934, -0.5395978915425954 
0.029999999999999874, -0.5394124556588121 
0.04000000000000012, -0.5392084313395015 
0.050000000000000405, -0.5389671204070889 
0.06000000000000069, -0.5386777707087677 
0.07000000000000098, -0.5383382123283076 
0.08000000000000126, -0.5379532918487258 
0.09000000000000155, -0.5375334214472361 
0.10000000000000184, -0.5370949241468236 
0.11000000000000212, -0.536663107771012 
0.12000000000000241, -0.5362787626677135 
0.130000000000002, -0.5360089083761195 
0.1400000000000009, -0.5359624871946075 
0.1499999999999998, -0.5363100856104801 
0.1599999999999987, -0.5373011873630477 
0.1699999999999976, -0.5392591151492598 
0.1799999999999965, -0.542512414292832 
0.1899999999999954, -0.5472147480663059 
0.1999999999999943, -0.5530844153625408 
0.2099999999999932, -0.5592986499368774 
0.2199999999999921, -0.5648363130573937 
0.229999999999991, -0.5690782155981885 
0.2399999999999899, -0.5720299460643175 
0.2499999999999888, -0.5740322747037578 
0.2599999999999877, -0.575422491756054 
0.2699999999999866, -0.5764164475975024 
0.2799999999999855, -0.5771320462806729 
0.2899999999999844, -0.5776348615232927 
0.2999999999999833, -0.5779655753008547 
0.3099999999999822, -0.5781512542468309 
0.3199999999999811, -0.5782088336843183 
0.32999999999998, -0.5781458078391732 
0.3399999999999789, -0.57796029029648 
0.3499999999999778, -0.5776415810874868 
0.35999999999997667, -0.5771724409906434 
0.36999999999997557, -0.576534530116173 
0.37999999999997447, -0.5757177418338457 
0.38999999999997337, -0.5747313474862654 
0.39999999999997227, -0.5736109075941053 
0.40999999999997117, -0.5724143133232908 
0.41999999999997006, -0.5712067310055204 
0.42999999999996896, -0.5700428458395062 
0.43999999999996786, -0.5689563015364429 
0.44999999999996676, -0.5679596838665033 
0.45999999999996566, -0.5670515598609609 
0.46999999999996456, -0.5662251710488497 
0.47999999999996346, -0.5654752638884699 
0.48999999999996235, -0.5648021747357707 
0.49999999999996125, -0.5642139268455011 
0.5099999999999602, -0.5637275065876622 
0.519999999999959, -0.563370180767301 
0.529999999999958, -0.5631812657991366 
0.5399999999999568, -0.5632144416172324 
0.5499999999999557, -0.5635405139762757 
0.5599999999999546, -0.56425029615054 
0.5699999999999535, -0.565456711868212 
0.5799999999999524, -0.5672938846727467 
0.5899999999999513, -0.569908398569191 
0.5999999999999502, -0.573434222746484 
0.6099999999999491, -0.5779407975737746 
0.619999999999948, -0.5833523885444503 
0.6299999999999469, -0.5893688255949934 
0.6399999999999458, -0.5954638634014243 
0.6499999999999447, -0.601028998848646 
0.6599999999999436, -0.605606083603476 
0.6699999999999425, -0.6090332768422841 
0.6799999999999414, -0.6114085509904209 
0.6899999999999403, -0.6129522390807702 
0.6999999999999392, -0.6138903182539529 
0.7099999999999381, -0.6144007624176082 
0.719999999999937, -0.6146042710865757 
0.7299999999999359, -0.6145721902506303 
0.7399999999999348, -0.6143360905996751 
0.7499999999999337, -0.6138932542776 
0.7599999999999326, -0.6132068772573658 
0.7699999999999315, -0.6122018350664449 
0.7799999999999304, -0.6107594057614818 
0.7899999999999293, -0.6087197775851172 
0.7999999999999282, -0.6059090749384755 
0.8099999999999271, -0.6022081030294747 
0.819999999999926, -0.5976519173703378 
0.8299999999999249, -0.59249372839905 
0.8399999999999238, -0.587154392473273 
0.8499999999999227, -0.5820714254176844 
0.8599999999999216, -0.577559432031085 
0.8699999999999205, -0.5737644574415088 
0.8799999999999194, -0.5706980678997732 
0.8899999999999183, -0.5682957456280839 
0.8999999999999172, -0.5664636041909057 
0.9099999999999161, -0.5651053015031661 
0.919999999999915, -0.5641340475853981 
0.9299999999999139, -0.563476360724199 
0.9399999999999128, -0.5630721767138815 
0.9499999999999117, -0.5628737449486498 
0.9599999999999106, -0.5628443640470636 
0.9699999999999095, -0.5629573193305726 
0.9799999999999084, -0.5631950920241902 
0.9899999999999073, -0.5635487552268319 
0.9999999999999062, -0.5640172590297263 
1.0099999999999052, -0.5646059361529698 
1.019999999999904, -0.5653231247731617 
1.029999999999903, -0.5661737236933946 
1.039999999999902, -0.5671494775604762 
1.0499999999999008, -0.568218400331669 
1.0599999999998997, -0.5693192943789381 
1.0699999999998986, -0.5703685007278341 
1.0799999999998975, -0.5712803120079354 
1.0899999999998964, -0.5719914096542522 
1.0999999999998953, -0.572474552407251 
1.1099999999998942, -0.5727351348350871 
1.119999999999893, -0.5727968911102265 
1.129999999999892, -0.5726869193037016 
1.1399999999998909, -0.5724255106439189 
1.1499999999998898, -0.5720207749379639 
1.1599999999998887, -0.5714656754027473 
1.1699999999998876, -0.5707349510585775 
1.1799999999998865, -0.5697796835215538 
1.1899999999998854, -0.568516968452051 
1.1999999999998843, -0.5668113195855241 
1.2099999999998832, -0.5644452815164478 
1.219999999999882, -0.5610876355059536 
1.229999999999881, -0.5563049457557301 
1.2399999999998799, -0.54971835858815 
1.2499999999998788, -0.5413593960332979 
1.2599999999998777, -0.5319719685434491 
1.2699999999998766, -0.5228035578261707 
1.2799999999998755, -0.5149517305197834 
1.2899999999998744, -0.5089113828090345 
1.2999999999998733, -0.5046212765980711 
1.3099999999998722, -0.5017445870480264 
1.319999999999871, -0.49989721852968605 
1.32999999999987, -0.498754028508519 
1.3399999999998689, -0.49807373882413436 
1.3499999999998678, -0.49768933052916847 
1.3599999999998666, -0.49748974029561277 
1.3699999999998655, -0.497402978322074 
1.3799999999998644, -0.49738333629074294 
1.3899999999998633, -0.4974026541887543 
1.3999999999998622, -0.49744492918461736 
1.4099999999998611, -0.4975034845855625 
1.41999999999986, -0.49757983574891795 
1.429999999999859, -0.49768306534830603 
1.4399999999998578, -0.4978281234210443 
1.4499999999998567, -0.49803156891731815 
1.4599999999998556, -0.49830442677128106 
1.4699999999998545, -0.4986439164273994 
1.4799999999998534, -0.4990278174994488 
1.4899999999998523, -0.49941565023824036 
1.4999999999998512, -0.4997581508214294 
1.5099999999998501, -0.5000111600351128 
1.519999999999849, -0.5001463559417416 
1.529999999999848, -0.5001535995709225 
1.5399999999998468, -0.5000358310031492 
1.5499999999998457, -0.49980119355721275 
1.5599999999998446, -0.4994562182629273 
1.5699999999998435, -0.4990011927107402 
1.5799999999998424, -0.498426899712843 
1.5899999999998413, -0.4977110789988598 
1.5999999999998402, -0.4968123591432785 
1.6099999999998391, -0.4956581209686643 
1.619999999999838, -0.4941205999135857 
1.629999999999837, -0.4919753638844876 
1.6399999999998358, -0.4888506231304124 
1.6499999999998347, -0.4842299269999978 
1.6599999999998336, -0.4776507647695573 
1.6699999999998325, -0.46915712894574024 
1.6799999999998314, -0.4596290076902436 
1.6899999999998303, -0.4504383676087077 
1.6999999999998292, -0.44267495615528824 
1.709999999999828, -0.43674238587595504 
1.719999999999827, -0.4325062575800881 
1.729999999999826, -0.42960954252527184 
1.7399999999998248, -0.42768377366691546 
1.7499999999998237, -0.42643128743893727 
1.7599999999998226, -0.4256364622935521 
1.7699999999998215, -0.42515167106935936 
1.7799999999998204, -0.4248792428752589 
1.7899999999998193, -0.4247564987271114 
1.7999999999998182, -0.42474510281867534 
1.809999999999817, -0.42482417094473907 
1.819999999999816, -0.42498624437140614 
1.8299999999998149, -0.42523524167958077 
1.8399999999998138, -0.4255853921336845 
1.8499999999998127, -0.4260598120022453 
1.8599999999998116, -0.42668695433124215 
1.8699999999998105, -0.42749305625013295 
1.8799999999998094, -0.4284896027506527 
1.8899999999998083, -0.4296576412941725 
1.8999999999998072, -0.4309358574264087 
1.909999999999806, -0.43222350117838965 
1.919999999999805, -0.43340458650949165 
1.9299999999998039, -0.4343835601748859 
1.9399999999998028, -0.43511019342509616 
1.9499999999998017, -0.4355801044622393 
1.9599999999998006, -0.43581729128193764 
1.9699999999997995, -0.4358535848921733 
1.9799999999997984, -0.4357139618611033 
1.9899999999997973, -0.43540824554433283 
1.9999999999997962, -0.43492590765110994 
2.0099999999998173, -0.4342306038682297 
2.0199999999998384, -0.43325247926994487 
2.0299999999998595, -0.431878932602609 
2.0399999999998806, -0.429950359767125 
2.0499999999999017, -0.4272781465934307 
2.059999999999923, -0.4237106637615865 
2.069999999999944, -0.4192510474858473 
2.079999999999965, -0.4141560614268901 
2.089999999999986, -0.4088957481898685 
2.100000000000007, -0.4039622906768253 
2.1100000000000283, -0.39968348957499433 
2.1200000000000494, -0.3961721522453988 
2.1300000000000705, -0.39338725822540044 
2.1400000000000916, -0.39121846055950316 
2.1500000000001127, -0.3895443592435668 
2.160000000000134, -0.3882600796994191 
2.170000000000155, -0.38728564861663056 
2.180000000000176, -0.3865657051431101 
2.190000000000197, -0.38606663675852165 
2.2000000000002182, -0.3857739760937924 
2.2100000000002393, -0.38569121220609653 
2.2200000000002604, -0.3858404729613871 
2.2300000000002815, -0.386265298998983 
2.2400000000003026, -0.3870355651365701 
2.2500000000003237, -0.3882540918116305 
2.260000000000345, -0.3900629249974851 
2.270000000000366, -0.39264342384061846 
2.280000000000387, -0.39619683283200713 
2.290000000000408, -0.4008827978416495 
2.3000000000004293, -0.406697212743156 
2.3100000000004504, -0.4133225983496437 
2.3200000000004715, -0.4200885693439746 
2.3300000000004926, -0.42619129443826403 
2.3400000000005137, -0.4310684875360017 
2.3500000000005348, -0.4345940001777954 
2.360000000000556, -0.43696592401790646 
2.370000000000577, -0.4384869890672542 
2.380000000000598, -0.4394243374631772 
2.390000000000619, -0.4399685844341555 
2.4000000000006403, -0.44024165133238863 
2.4100000000006614, -0.44031561963948257 
2.4200000000006825, -0.44022845190526 
2.4300000000007036, -0.4399944599868032 
2.4400000000007247, -0.43961129953750416 
2.450000000000746, -0.439066214244524 
2.460000000000767, -0.43834428065935793 
2.470000000000788, -0.4374401744436801 
2.480000000000809, -0.43637135081343753 
2.49000000000083, -0.4351855531960056 
2.5000000000008513, -0.43395478370628277 
2.5100000000008724, -0.4327559418807989 
2.5200000000008935, -0.4316490302383328 
2.5300000000009146, -0.43066505162315416 
2.5400000000009357, -0.42980697798702083 
2.550000000000957, -0.4290590066922252 
2.560000000000978, -0.4283976125022157 
2.570000000000999, -0.42780024776325815 
2.58000000000102, -0.42725039074704874 
2.5900000000010412, -0.4267396118777693 
2.6000000000010624, -0.4262682207407634 
2.6100000000010835, -0.42584608775847227 
2.6200000000011046, -0.4254948876808866 
2.6300000000011257, -0.42525274225468895 
2.6400000000011468, -0.42518219604788304 
2.650000000001168, -0.42538240597674076 
2.660000000001189, -0.4260055654301021 
2.67000000000121, -0.4272739375738512 
2.680000000001231, -0.4294833190513117 
2.6900000000012523, -0.43295640807534613 
2.7000000000012734, -0.43788438319648104 
2.7100000000012945, -0.4440322470880519 
2.7200000000013156, -0.4505025670015385 
2.7300000000013367, -0.45600834709622096 
2.740000000001358, -0.45969794864609403 
2.750000000001379, -0.46165413727330035 
2.7600000000014, -0.46251983832848476 
2.770000000001421, -0.4628949396182869 
2.780000000001442, -0.46310844821186337 
2.7900000000014633, -0.463281558447477 
2.8000000000014844, -0.46343817934720233 
2.8100000000015055, -0.4635713273688819 
2.8200000000015266, -0.4636696745554586 
2.8300000000015477, -0.46372453808700564 
2.840000000001569, -0.46372996109016873 
2.85000000000159, -0.46368136651776765 
2.860000000001611, -0.4635748005692008 
2.870000000001632, -0.46340751077241327 
2.8800000000016532, -0.46318007015558366 
2.8900000000016743, -0.46289957611255217 
2.9000000000016954, -0.4625823512722155 
2.9100000000017165, -0.46225371969992457 
2.9200000000017377, -0.4619431618561639 
2.9300000000017588, -0.46167581302667926 
2.94000000000178, -0.4614639754728092 
2.950000000001801, -0.46130274937048626 
2.960000000001822, -0.46117188304284334 
2.970000000001843, -0.4610429268283406 
2.9800000000018643, -0.46088820053566204 
2.9900000000018854, -0.4606874247946653 
3.0000000000019065, -0.4604298001035147 
3.0100000000019276, -0.4601122766958536 
3.0200000000019487, -0.4597363525881721 
3.03000000000197, -0.45930539589936475 
3.040000000001991, -0.45882336097620363 
3.050000000002012, -0.45829488833773857 
3.060000000002033, -0.4577262199486313 
3.070000000002054, -0.4571254584785248 
3.0800000000020753, -0.4564982267309679 
3.0900000000020964, -0.455829103299918 
3.1000000000021175, -0.45503079555307613 
3.1100000000021386, -0.45384585015147316 
3.1200000000021597, -0.45174697932738433 
3.130000000002181, -0.44803569236928986 
3.140000000002202, -0.44235418721672193 
3.150000000002223, -0.43526186476347506 
3.160000000002244, -0.42804537984834806 
3.1700000000022652, -0.42185280995090874 
3.1800000000022863, -0.4171600258721962 
3.1900000000023074, -0.41388566386768416 
3.2000000000023285, -0.4117176095983875 
3.2100000000023496, -0.41033056843088794 
3.2200000000023707, -0.4094668626269905 
3.230000000002392, -0.40894511548137535 
3.240000000002413, -0.40864514854021355 
3.250000000002434, -0.40849023277548036 
3.260000000002455, -0.40843307286512615 
3.2700000000024763, -0.40844629504086416 
3.2800000000024974, -0.4085166607815426 
3.2900000000025185, -0.4086420240194336 
3.3000000000025396, -0.4088300615156582 
3.3100000000025607, -0.4090976366877991 
3.3200000000025818, -0.40946929795155845 
3.330000000002603, -0.4099731594886684 
3.340000000002624, -0.4106327399652791 
3.350000000002645, -0.41145474721670333 
3.360000000002666, -0.4124157720295175 
3.3700000000026873, -0.41345499426717025 
3.3800000000027084, -0.41448165611424076 
3.3900000000027295, -0.41539917285698025 
3.4000000000027506, -0.41613400090950303 
3.4100000000027717, -0.41665153252124315 
3.420000000002793, -0.4169521835634155 
3.430000000002814, -0.41705559638029027 
3.440000000002835, -0.41698432800437224 
3.450000000002856, -0.41675244867475836 
3.460000000002877, -0.4163584529096108 
3.4700000000028983, -0.41577956307968095 
3.4800000000029194, -0.41496473281823165 
3.4900000000029405, -0.4138251907597926 
3.5000000000029616, -0.41222499269328716 
3.5100000000029827, -0.4099822966182868 
3.520000000003004, -0.40690480831486775 
3.530000000003025, -0.40288415603145095 
3.540000000003046, -0.3980268831551902 
3.550000000003067, -0.3927111417563064 
3.5600000000030882, -0.3874648568617037 
3.5700000000031094, -0.3827398695279452 
3.5800000000031305, -0.3787706291691511 
3.5900000000031516, -0.3755857961955416 
3.6000000000031727, -0.3730958029727131 
3.6100000000031938, -0.3711727111554904 
3.620000000003215, -0.3696952206103707 
3.630000000003236, -0.36856604878545 
3.640000000003257, -0.36771491279349566 
3.650000000003278, -0.3670961453791224 
3.6600000000032993, -0.36668550797253957 
3.6700000000033204, -0.36647815436599596 
3.6800000000033415, -0.36648852895226447 
3.6900000000033626, -0.3667525868403902 
3.7000000000033837, -0.3673326216582736 
3.710000000003405, -0.3683247750199965 
3.720000000003426, -0.36986837407084167 
3.730000000003447, -0.3721534031941319 
3.740000000003468, -0.37541559837869626 
3.750000000003489, -0.37989637285064926 
3.7600000000035103, -0.3857342651922947 
3.7700000000035314, -0.39277969802074664 
3.7800000000035525, -0.4004361762245403 
3.7900000000035736, -0.407758302423062 
3.8000000000035947, -0.41388234455310763 
3.810000000003616, -0.4184331500726349 
3.820000000003637, -0.4215337928993237 
3.830000000003658, -0.4235362195939113 
3.840000000003679, -0.42478914140602464 
3.8500000000037002, -0.42555007372407794 
3.8600000000037213, -0.4259854407243628 
3.8700000000037424, -0.4261955845506146 
3.8800000000037635, -0.4262375852609259 
3.8900000000037847, -0.4261405545715594 
3.9000000000038058, -0.42591513251366353 
3.910000000003827, -0.42556011712442715 
3.920000000003848, -0.4250689098514277 
3.930000000003869, -0.424437644317705 
3.94000000000389, -0.42367487532972276 
3.9500000000039113, -0.42280938202369356 
3.9600000000039324, -0.4218903633076727 
3.9700000000039535, -0.4209770683995222 
3.9800000000039746, -0.4201222787660188 
3.9900000000039957, -0.4193587735466805 
4.000000000004016, -0.41869494923334916 
4.010000000003993, -0.4181192283656858 
4.02000000000397, -0.4176089990010598 
4.030000000003946, -0.4171396495781103 
4.040000000003923, -0.4166908917340163 
4.0500000000039, -0.41624961811188754 
4.0600000000038765, -0.4158102221305421 
4.070000000003853, -0.4153740302960439 
4.08000000000383, -0.41494932225389036 
4.090000000003807, -0.41455291714114634 
4.100000000003783, -0.4142139400420328 
4.11000000000376, -0.4139801125063167 
4.120000000003737, -0.4139261089746962 
4.130000000003713, -0.41416062656783914 
4.14000000000369, -0.41482070839484597 
4.150000000003667, -0.41602514584533123 
4.1600000000036434, -0.417742256327813 
4.17000000000362, -0.41956872257309497 
4.180000000003597, -0.42061929967889966 
4.1900000000035735, -0.41993602658437645 
4.20000000000355, -0.41733269443767496 
4.210000000003527, -0.41364985087759604 
4.220000000003504, -0.4100111547521566 
4.23000000000348, -0.40708824337132077 
4.240000000003457, -0.40502078231115196 
4.250000000003434, -0.4036706004981009 
4.26000000000341, -0.4028347131042884 
4.270000000003387, -0.4023385449565978 
4.280000000003364, -0.40205661894398953 
4.2900000000033405, -0.40190614182067597 
4.300000000003317, -0.4018351522763767 
4.310000000003294, -0.401812470454709 
4.320000000003271, -0.40182088745430916 
4.330000000003247, -0.40185328088981337 
4.340000000003224, -0.401910965454965 
4.350000000003201, -0.40200343115424914 
4.360000000003177, -0.4021483001138438 
4.370000000003154, -0.4023699413525539 
4.380000000003131, -0.40269516041277476 
4.390000000003107, -0.40314516926689714 
4.400000000003084, -0.40372476001200763 
4.410000000003061, -0.4044121210299256 
4.4200000000030375, -0.40515526467198626 
4.430000000003014, -0.4058807152702366 
4.440000000002991, -0.40651356185194487 
4.450000000002968, -0.4069985100718507 
4.460000000002944, -0.4073097339598123 
4.470000000002921, -0.40744641983227636 
4.480000000002898, -0.4074204896821444 
4.490000000002874, -0.40724425401055087 
4.500000000002851, -0.40692127824176944 
4.510000000002828, -0.4064396338032436 
4.520000000002804, -0.40576505760379356 
4.530000000002781, -0.404831595374848 
4.540000000002758, -0.40352866887315547 
4.5500000000027345, -0.40168792238587764 
4.560000000002711, -0.3990844986276102 
4.570000000002688, -0.39548525153913955 
4.580000000002665, -0.3907762258235472 
4.590000000002641, -0.3851295688761648 
4.600000000002618, -0.3790499905799414 
4.610000000002595, -0.3731829710159819 
4.620000000002571, -0.368027751979165 
4.630000000002548, -0.3637990437710549 
4.640000000002525, -0.36047800583427114 
4.6500000000025015, -0.357930174720792 
4.660000000002478, -0.3559956809573412 
4.670000000002455, -0.3545334394712816 
4.6800000000024315, -0.3534347912451226 
4.690000000002408, -0.35262323649008825 
4.700000000002385, -0.3520499525256477 
4.710000000002362, -0.35168944627537446 
4.720000000002338, -0.3515369792061107 
4.730000000002315, -0.3516083308671479 
4.740000000002292, -0.35194217163251473 
4.750000000002268, -0.35260526037434203 
4.760000000002245, -0.35370042040671035 
4.770000000002222, -0.3553760700729083 
4.7800000000021985, -0.3578325818991514 
4.790000000002175, -0.3613126297570635 
4.800000000002152, -0.3660491358550909 
4.810000000002129, -0.3721369314031496 
4.820000000002105, -0.3793354650125711 
4.830000000002082, -0.38694358569651055 
4.840000000002059, -0.3939843970853073 
4.850000000002035, -0.3996829715206279 
4.860000000002012, -0.4038021339448491 
4.870000000001989, -0.4065534673050112 
4.880000000001965, -0.4083074708254535 
