t, s[1].omega / s[0].omega 
0, -0.9799983339336623 
0.009999999999999995, -0.9797575117647782 
0.019999999999999934, -0.9793616257874608 
0.029999999999999874, -0.978824839564874 
0.04000000000000012, -0.978235980149829 
0.050000000000000405, -0.9777528751678621 
0.06000000000000069, -0.9775227920339389 
0.07000000000000098, -0.9775902891494243 
0.08000000000000126, -0.9778777266978125 
0.09000000000000155, -0.9782350117352833 
0.10000000000000184, -0.9785281662696084 
0.11000000000000212, -0.9786941612585339 
0.12000000000000241, -0.9787203389925987 
0.130000000000002, -0.9785883374031279 
0.1400000000000009, -0.978273527110936 
0.1499999999999998, -0.9778058408367324 
0.1599999999999987, -0.9773045467330821 
0.1699999999999976, -0.9769511846715958 
0.1799999999999965, -0.9768889105214319 
0.1899999999999954, -0.9771295382661196 
0.1999999999999943, -0.977566967327982 
0.2099999999999932, -0.978051795022085 
0.2199999999999921, -0.9784704418371499 
0.229999999999991, -0.9787726554075328 
0.2399999999999899, -0.9789292066951278 
0.2499999999999888, -0.9788920605530511 
0.2599999999999877, -0.9786357731519585 
0.2699999999999866, -0.9782194946803529 
0.2799999999999855, -0.9777975265672055 
0.2899999999999844, -0.9775771119586353 
0.2999999999999833, -0.9776950747034088 
0.3099999999999822, -0.978126932926563 
0.3199999999999811, -0.9787382917475207 
0.32999999999998, -0.9793806828288307 
0.3399999999999789, -0.9799554468747217 
0.3499999999999778, -0.9804105553602575 
0.35999999999997667, -0.9806868768844355 
0.36999999999997557, -0.9807147162360457 
0.37999999999997447, -0.980488466815091 
0.38999999999997337, -0.9801061933746819 
0.39999999999997227, -0.97976010349562 
0.40999999999997117, -0.9796837797559004 
0.41999999999997006, -0.9800007224443082 
0.42999999999996896, -0.9806434051427934 
0.43999999999996786, -0.9814491062537992 
0.44999999999996676, -0.9822702713983964 
0.45999999999996566, -0.9830153433365637 
0.46999999999996456, -0.9836149483035572 
0.47999999999996346, -0.9839754024253521 
0.48999999999996235, -0.984025826870302 
0.49999999999996125, -0.9838003381795849 
0.5099999999999602, -0.9834397473518472 
0.519999999999959, -0.9831760184171539 
0.529999999999958, -0.9832646816747204 
0.5399999999999568, -0.9837999578106942 
0.5499999999999557, -0.9846627913977404 
0.5599999999999546, -0.9856653860084952 
0.5699999999999535, -0.9866624247573047 
0.5799999999999524, -0.98756025147869 
0.5899999999999513, -0.9882602053416039 
0.5999999999999502, -0.9886443636386013 
0.6099999999999491, -0.9886694204015636 
0.619999999999948, -0.9884202214816903 
0.6299999999999469, -0.9880791028127403 
0.6399999999999458, -0.9879182458737412 
0.6499999999999447, -0.9881986005045635 
0.6599999999999436, -0.9889584332400907 
0.6699999999999425, -0.9900230914100033 
0.6799999999999414, -0.9911902172807713 
0.6899999999999403, -0.9923201272308394 
0.6999999999999392, -0.9933088566854946 
0.7099999999999381, -0.994027600683059 
0.719999999999937, -0.9943611165912495 
0.7299999999999359, -0.9943179750612963 
0.7399999999999348, -0.9940313689412247 
0.7499999999999337, -0.9937230817067445 
0.7599999999999326, -0.9936994127659136 
0.7699999999999315, -0.9941897387287307 
0.7799999999999304, -0.995147288981816 
0.7899999999999293, -0.9963526233314285 
0.7999999999999282, -0.9976074059388294 
0.8099999999999271, -0.9987820105861799 
0.819999999999926, -0.999758981247995 
0.8299999999999249, -1.0003950474502339 
0.8399999999999238, -1.0006104974418342 
0.8499999999999227, -1.0004720142187267 
0.8599999999999216, -1.0001508833278372 
0.8699999999999205, -0.9999078536946185 
0.8799999999999194, -1.000057870081613 
0.8899999999999183, -1.0007438997672755 
0.8999999999999172, -1.001825675585267 
0.9099999999999161, -1.0030695198342598 
0.919999999999915, -1.0043012162313874 
0.9299999999999139, -1.0054043948423583 
0.9399999999999128, -1.0062534623779253 
0.9499999999999117, -1.0067180993405285 
0.9599999999999106, -1.006774276631376 
0.9699999999999095, -1.006535094054777 
0.9799999999999084, -1.0062033128136878 
0.9899999999999073, -1.006071198294852 
0.9999999999999062, -1.006406718484271 
1.0099999999999052, -1.007224043131118 
1.019999999999904, -1.0083210442701196 
1.029999999999903, -1.0094863398351681 
1.039999999999902, -1.0105812685613722 
1.0499999999999008, -1.0115038562903271 
1.0599999999998997, -1.0121333503892036 
1.0699999999998986, -1.0123768551199817 
1.0799999999998975, -1.0122649122246026 
1.0899999999998964, -1.0119425892974616 
1.0999999999998953, -1.0116434851961467 
1.1099999999998942, -1.0116578034796233 
1.119999999999893, -1.012140245867097 
1.129999999999892, -1.0129880517668992 
1.1399999999998909, -1.0139913589761345 
1.1499999999998898, -1.0149812429077762 
1.1599999999998887, -1.0158546515826599 
1.1699999999998876, -1.0165246259072116 
1.1799999999998865, -1.0168898335967933 
1.1899999999998854, -1.0169049166811561 
1.1999999999998843, -1.0166424514880605 
1.2099999999998832, -1.01627470310229 
1.219999999999882, -1.0160552137619874 
1.229999999999881, -1.0162104433256052 
1.2399999999998799, -1.016758851643857 
1.2499999999998788, -1.0175408330680955 
1.2599999999998777, -1.0183734584722317 
1.2699999999998766, -1.019130495040442 
1.2799999999998755, -1.0197393346373052 
1.2899999999998744, -1.0201294068949118 
1.2999999999998733, -1.0202286501106361 
1.3099999999998722, -1.0200365668905524 
1.319999999999871, -1.0196587701083444 
1.32999999999987, -1.019293348421044 
1.3399999999998689, -1.0191757874691636 
1.3499999999998678, -1.0194216887600889 
1.3599999999998666, -1.0199546254861607 
1.3699999999998655, -1.0206083294601789 
1.3799999999998644, -1.0212312064403208 
1.3899999999998633, -1.021734004428111 
1.3999999999998622, -1.0220695148306453 
1.4099999999998611, -1.0221851736791938 
1.41999999999986, -1.0220416235909129 
1.429999999999859, -1.0216772364496274 
1.4399999999998578, -1.0212284727153962 
1.4499999999998567, -1.0209031842619283 
1.4599999999998556, -1.0208718834572357 
1.4699999999998545, -1.021148559832481 
1.4799999999998534, -1.0216145604741185 
1.4899999999998523, -1.022109074283332 
1.4999999999998512, -1.0225087829987018 
1.5099999999998501, -1.0227578924102938 
1.519999999999849, -1.0228305149010821 
1.529999999999848, -1.0226931607824836 
1.5399999999998468, -1.0223390549088351 
1.5499999999998457, -1.0218424084873254 
1.5599999999998446, -1.0213649853739677 
1.5699999999998435, -1.0210926084965264 
1.5799999999998424, -1.0211159930256661 
1.5899999999998413, -1.0213857784731564 
1.5999999999998402, -1.0217583025771177 
1.6099999999998391, -1.0220784615070984 
1.619999999999838, -1.0222538912087655 
1.629999999999837, -1.0222594004387573 
1.6399999999998358, -1.0220869494681863 
1.6499999999998347, -1.021722805096086 
1.6599999999998336, -1.0211926122622483 
1.6699999999998325, -1.0206042317861104 
1.6799999999998314, -1.0201283236720649 
1.6899999999998303, -1.0199064452388644 
1.6999999999998292, -1.0199663381712258 
1.709999999999828, -1.0202104226444257 
1.719999999999827, -1.020470488848618 
1.729999999999826, -1.0206071854167285 
1.7399999999998248, -1.020562594129981 
1.7499999999998237, -1.0203383456985629 
1.7599999999998226, -1.0199413152074717 
1.7699999999998215, -1.0193785730982783 
1.7799999999998204, -1.0187086729262789 
1.7899999999998193, -1.0180664745153627 
1.7999999999998182, -1.0176134505232513 
1.809999999999817, -1.0174466204581656 
1.819999999999816, -1.0175384095363034 
1.8299999999998149, -1.0177384380577306 
1.8399999999998138, -1.0178682622814015 
1.8499999999998127, -1.0178171153045932 
1.8599999999998116, -1.0175617193769153 
1.8699999999998105, -1.0171259263148689 
1.8799999999998094, -1.0165290646087826 
1.8899999999998083, -1.015800774186903 
1.8999999999998072, -1.015031680403254 
1.909999999999806, -1.0143731901299324 
1.919999999999805, -1.0139690571090183 
1.9299999999998039, -1.0138713905250392 
1.9399999999998028, -1.0139853217213288 
1.9499999999998017, -1.0141182537316125 
1.9599999999998006, -1.0141049726555706 
1.9699999999997995, -1.0138697971188717 
1.9799999999997984, -1.0134220535275327 
1.9899999999997973, -1.0128017781595693 
1.9999999999997962, -1.0120389178018838 
2.0099999999998173, -1.011187612681345 
2.0199999999998384, -1.0103669860221605 
2.0299999999998595, -1.009735537012944 
2.0399999999998806, -1.0094130440428428 
2.0499999999999017, -1.0093907042493375 
2.059999999999923, -1.0095050101983865 
2.069999999999944, -1.0095510599508708 
2.079999999999965, -1.0093928337306044 
2.089999999999986, -1.0089916650693214 
2.100000000000007, -1.008384748731974 
2.1100000000000283, -1.0076203180548005 
2.1200000000000494, -1.0067383055429018 
2.1300000000000705, -1.00581836568793 
2.1400000000000916, -1.005002079899103 
2.1500000000001127, -1.0044455800286043 
2.160000000000134, -1.0042292670480306 
2.170000000000155, -1.0042701598724217 
2.180000000000176, -1.0043609844375503 
2.190000000000197, -1.0043123809543615 
2.2000000000002182, -1.0040241196870956 
2.2100000000002393, -1.003494139555951 
2.2200000000002604, -1.0027775637627683 
2.2300000000002815, -1.0019225575272561 
2.2400000000003026, -1.0009800978081431 
2.2500000000003237, -1.0000544034419565 
2.260000000000345, -0.9993007814891506 
2.270000000000366, -0.9988590455357661 
2.280000000000387, -0.9987528859568722 
2.290000000000408, -0.998834913316067 
2.3000000000004293, -0.998888308194269 
2.3100000000004504, -0.9987541385160311 
2.3200000000004715, -0.9983706388289677 
2.3300000000004926, -0.9977665424262696 
2.3400000000005137, -0.9970002222380177 
2.3500000000005348, -0.9961146827165253 
2.360000000000556, -0.9951744214798851 
2.370000000000577, -0.9943046548173984 
2.380000000000598, -0.9936626180935666 
2.390000000000619, -0.9933559230566507 
2.4000000000006403, -0.9933475061327227 
2.4100000000006614, -0.9934527590469161 
2.4200000000006825, -0.9934702938313218 
2.4300000000007036, -0.9932774824602073 
2.4400000000007247, -0.992850038698703 
2.450000000000746, -0.9922335956714622 
2.460000000000767, -0.9914757030483309 
2.470000000000788, -0.9906147766970879 
2.480000000000809, -0.9897317661244003 
2.49000000000083, -0.9889671037497251 
2.5000000000008513, -0.9884672465727614 
2.5100000000008724, -0.9882974717371895 
2.5200000000008935, -0.9883713703850651 
2.5300000000009146, -0.9884944381315228 
2.5400000000009357, -0.9884933006355756 
2.550000000000957, -0.9882830084702733 
2.560000000000978, -0.9878686133003964 
2.570000000000999, -0.9872940759389613 
2.58000000000102, -0.9865888725920704 
2.5900000000010412, -0.9857927345217381 
2.6000000000010624, -0.9850056172266264 
2.6100000000010835, -0.9843768732631702 
2.6200000000011046, -0.9840322045653161 
2.6300000000011257, -0.9839932210393797 
2.6400000000011468, -0.984141553955962 
2.650000000001168, -0.9842910410124414 
2.660000000001189, -0.9843009372746181 
2.67000000000121, -0.9841205766474457 
2.680000000001231, -0.983768761649512 
2.6900000000012523, -0.9832719557223998 
2.7000000000012734, -0.982643539240274 
2.7100000000012945, -0.981933429311695 
2.7200000000013156, -0.9812626227196097 
2.7300000000013367, -0.9807844914559593 
2.740000000001358, -0.9805984166850007 
2.750000000001379, -0.9806864978779105 
2.7600000000014, -0.9809131005277981 
2.770000000001421, -0.9811096569615909 
2.780000000001442, -0.9811678275028992 
2.7900000000014633, -0.9810617640676139 
2.8000000000014844, -0.980805551058748 
2.8100000000015055, -0.9804006567022763 
2.8200000000015266, -0.9798538686480889 
2.8300000000015477, -0.9792346177067542 
2.840000000001569, -0.9786867958648534 
2.85000000000159, -0.9783651073480453 
2.860000000001611, -0.9783403236823184 
2.870000000001632, -0.9785599622783092 
2.8800000000016532, -0.9788801865308149 
2.8900000000016743, -0.9791532396138558 
2.9000000000016954, -0.9792987585672867 
2.9100000000017165, -0.9793011370035684 
2.9200000000017377, -0.9791540896767634 
2.9300000000017588, -0.9788364240619417 
2.94000000000178, -0.9783621320384324 
2.950000000001801, -0.9778282573564289 
2.960000000001822, -0.9774035852506446 
2.970000000001843, -0.9772430752919115 
2.9800000000018643, -0.9773874580377468 
2.9900000000018854, -0.9777526421108704 
3.0000000000019065, -0.9781908263055752 
3.0100000000019276, -0.9785744267697434 
3.0200000000019487, -0.978842433937064 
3.03000000000197, -0.9789726072035516 
3.040000000001991, -0.9789294604527087 
3.050000000002012, -0.9786805377055087 
3.060000000002033, -0.9782619439125385 
3.070000000002054, -0.9778043195465236 
3.0800000000020753, -0.9775034781540699 
3.0900000000020964, -0.9775133755583033 
3.1000000000021175, -0.9778417759470273 
3.1100000000021386, -0.9783735484778138 
3.1200000000021597, -0.9789582969390904 
3.130000000002181, -0.9794851706211745 
3.140000000002202, -0.9799001723993024 
3.150000000002223, -0.9801585846118951 
3.160000000002244, -0.9801966171352837 
3.1700000000022652, -0.9799892742051853 
3.1800000000022863, -0.9796075329191025 
3.1900000000023074, -0.9792193166356831 
3.2000000000023285, -0.9790490627755608 
3.2100000000023496, -0.9792453053284278 
3.2200000000023707, -0.9797767300198849 
3.230000000002392, -0.9804966000764264 
3.240000000002413, -0.981252480130669 
3.250000000002434, -0.981944539795601 
3.260000000002455, -0.982511026610402 
3.2700000000024763, -0.9828742065708754 
3.2800000000024974, -0.9829552991199648 
3.2900000000025185, -0.9827587549974949 
3.3000000000025396, -0.9823978229630348 
3.3100000000025607, -0.9820797214353966 
3.3200000000025818, -0.9820563611925512 
3.330000000002603, -0.9824590514968844 
3.340000000002624, -0.9832079934451 
3.350000000002645, -0.9841260332613643 
3.360000000002666, -0.9850603625273067 
3.3700000000026873, -0.9859147866780076 
3.3800000000027084, -0.9866056361273208 
3.3900000000027295, -0.9870231231759082 
3.4000000000027506, -0.9870989029178161 
3.4100000000027717, -0.9868843510664882 
3.420000000002793, -0.9865357651363502 
3.430000000002814, -0.9863008255980333 
3.440000000002835, -0.986449758415691 
3.450000000002856, -0.9870735088997518 
3.460000000002877, -0.9880348586532391 
3.4700000000028983, -0.9891334382790801 
3.4800000000029194, -0.9902201353485753 
3.4900000000029405, -0.9911946816967748 
3.5000000000029616, -0.991943911115135 
3.5100000000029827, -0.9923437821361816 
3.520000000003004, -0.9923654693300469 
3.530000000003025, -0.9921122196484866 
3.540000000003046, -0.991780390394921 
3.550000000003067, -0.9916567234066935 
3.5600000000030882, -0.9920038792912786 
3.5700000000031094, -0.9928401526318336 
3.5800000000031305, -0.99397205696571 
3.5900000000031516, -0.9951923108766851 
3.6000000000031727, -0.9963614847928114 
3.6100000000031938, -0.9973699201462581 
3.620000000003215, -0.9980810666835056 
3.630000000003236, -0.9983877592216316 
3.640000000003257, -0.9983182049919878 
3.650000000003278, -0.9980197006772763 
3.6600000000032993, -0.9977269339601101 
3.6700000000033204, -0.9977529790743245 
3.6800000000033415, -0.9983047194882325 
3.6900000000033626, -0.9993032863093875 
3.7000000000033837, -1.0005204241640928 
3.710000000003405, -1.001764083814317 
3.720000000003426, -1.0029097828155735 
3.730000000003447, -1.0038390369787333 
3.740000000003468, -1.0044129593140407 
3.750000000003489, -1.004569954356896 
3.7600000000035103, -1.004392433710243 
3.7700000000035314, -1.004061339944436 
3.7800000000035525, -1.0038480107737469 
3.7900000000035736, -1.004053178930106 
3.8000000000035947, -1.004772423841941 
3.810000000003616, -1.005839636140591 
3.820000000003637, -1.0070294018941777 
3.830000000003658, -1.0081824165593052 
3.840000000003679, -1.0091912915354488 
3.8500000000037002, -1.0099367055783413 
3.8600000000037213, -1.0103036760768114 
3.8700000000037424, -1.0102867416883534 
3.8800000000037635, -1.0100077458660743 
3.8900000000037847, -1.0096779660740833 
3.9000000000038058, -1.0095888870022873 
3.910000000003827, -1.0099639022804603 
3.920000000003848, -1.010766574640489 
3.930000000003869, -1.0117916567985041 
3.94000000000389, -1.0128476723739501 
3.9500000000039113, -1.0138132945703555 
3.9600000000039324, -1.0145979632350886 
3.9700000000039535, -1.0150940271950013 
3.9800000000039746, -1.0152280524091346 
3.9900000000039957, -1.0150434762253722 
4.000000000004016, -1.0146911788409616 
4.010000000003993, -1.014410360800306 
4.02000000000397, -1.0144653499052485 
4.030000000003946, -1.0149502218792366 
4.040000000003923, -1.0157360904173627 
4.0500000000039, -1.0166278274904708 
4.0600000000038765, -1.0174769623510282 
4.070000000003853, -1.0181964206235958 
4.08000000000383, -1.0187121631346132 
4.090000000003807, -1.0189394994135188 
4.100000000003783, -1.0188503559416315 
4.11000000000376, -1.0185257529061673 
4.120000000003737, -1.0181441570671026 
4.130000000003713, -1.01795099851268 
4.14000000000369, -1.0181235186098154 
4.150000000003667, -1.0186355231860258 
4.1600000000036434, -1.0193270518603927 
4.17000000000362, -1.0200313090332969 
4.180000000003597, -1.0206386077580771 
4.1900000000035735, -1.0210906250889602 
4.20000000000355, -1.0213303149594786 
4.210000000003527, -1.0213021630642047 
4.220000000003504, -1.021019181273981 
4.23000000000348, -1.0205948921856463 
4.240000000003457, -1.0202292736707568 
4.250000000003434, -1.0201293570019203 
4.26000000000341, -1.02036345055103 
4.270000000003387, -1.0208379444602855 
4.280000000003364, -1.0213919623515362 
4.2900000000033405, -1.021885284793615 
4.300000000003317, -1.0222429484309787 
4.310000000003294, -1.0224307633894576 
4.320000000003271, -1.0224093001641341 
4.330000000003247, -1.0221538607219416 
4.340000000003224, -1.0217144069148345 
4.350000000003201, -1.0212346657047826 
4.360000000003177, -1.020912380594722 
4.370000000003154, -1.020881992867244 
4.380000000003131, -1.0211306081811977 
4.390000000003107, -1.0215323047167264 
4.400000000003084, -1.0219274833335266 
4.410000000003061, -1.0222032386447677 
4.4200000000030375, -1.0223172040129358 
4.430000000003014, -1.02225530740857 
4.440000000002991, -1.0219961617527311 
4.450000000002968, -1.0215460079982255 
4.460000000002944, -1.0209900438001982 
4.470000000002921, -1.0204921993861307 
4.480000000002898, -1.020218880283329 
4.490000000002874, -1.0202346019291915 
4.500000000002851, -1.020473680297094 
4.510000000002828, -1.0207815449347217 
4.520000000002804, -1.0210052573763577 
4.530000000002781, -1.0210643173737255 
4.540000000002758, -1.0209460439293159 
4.5500000000027345, -1.0206529135013054 
4.560000000002711, -1.0201821940325333 
4.570000000002688, -1.0195717504276953 
4.580000000002665, -1.0189385682282386 
4.590000000002641, -1.018448947631261 
4.600000000002618, -1.0182267785390313 
4.610000000002595, -1.0182814501867137 
4.620000000002571, -1.0184949812172501 
4.630000000002548, -1.0186898479653257 
4.640000000002525, -1.018734030560382 
4.6500000000025015, -1.0185820593310901 
4.660000000002478, -1.018246873132155 
4.670000000002455, -1.0177443256508811 
4.6800000000024315, -1.0170916498211695 
4.690000000002408, -1.0163588609699674 
4.700000000002385, -1.01568655496912 
4.710000000002362, -1.0152297746081458 
4.720000000002338, -1.0150717074146638 
4.730000000002315, -1.015161753994588 
4.740000000002292, -1.0153286388185334 
4.750000000002268, -1.0153936572299174 
4.760000000002245, -1.015256747105673 
4.770000000002222, -1.014906798356719 
4.7800000000021985, -1.0143770852700795 
4.790000000002175, -1.013694031290725 
4.800000000002152, -1.0128967809930174 
4.810000000002129, -1.0120859570493872 
4.820000000002105, -1.011415896003125 
4.830000000002082, -1.0110240246550801 
4.840000000002059, -1.010944233960892 
4.850000000002035, -1.0110544836535977 
4.860000000002012, -1.0111517391005134 
4.870000000001989, -1.0110782888737573 
4.880000000001965, -1.0107702769731135 
4.890000000001942, -1.0102481399356338 
4.900000000001919, -1.0095580454109117 
4.9100000000018955, -1.0087350254111562 
4.920000000001872, -1.007841953818346 
4.930000000001849, -1.0070058096179264 
