t, s[1].omega / s[0].omega 
0, -1.3399811904154995 
0.009999999999999995, -1.337823446163736 
0.019999999999999934, -1.3351131547728357 
0.029999999999999874, -1.3318970821134175 
0.04000000000000012, -1.32833624081238 
0.050000000000000405, -1.324763181963758 
0.06000000000000069, -1.3216711846375053 
0.07000000000000098, -1.3195240549873568 
0.08000000000000126, -1.3184524661703736 
0.09000000000000155, -1.3181714785661094 
0.10000000000000184, -1.318237690438752 
0.11000000000000212, -1.318315147975614 
0.12000000000000241, -1.3182238320618687 
0.130000000000002, -1.3178587352980602 
0.1400000000000009, -1.3170962009656981 
0.1499999999999998, -1.315708787166725 
0.1599999999999987, -1.3132657994935883 
0.1699999999999976, -1.309013853625736 
0.1799999999999965, -1.3018347873601095 
0.1899999999999954, -1.2906415971977547 
0.1999999999999943, -1.2757846503648194 
0.2099999999999932, -1.2609248998436837 
0.2199999999999921, -1.2519466708099167 
0.229999999999991, -1.2515189420932435 
0.2399999999999899, -1.2565940492781251 
0.2499999999999888, -1.2625961726688708 
0.2599999999999877, -1.267167503525638 
0.2699999999999866, -1.2700089319101635 
0.2799999999999855, -1.271556056180913 
0.2899999999999844, -1.2722636218966947 
0.2999999999999833, -1.2724300677695128 
0.3099999999999822, -1.2722123236542229 
0.3199999999999811, -1.2716738530375005 
0.32999999999998, -1.2708392006721412 
0.3399999999999789, -1.2697859336835662 
0.3499999999999778, -1.268823437127676 
0.35999999999997667, -1.2687185891791537 
0.36999999999997557, -1.2706391223454097 
0.37999999999997447, -1.27541899985776 
0.38999999999997337, -1.282674912111508 
0.39999999999997227, -1.2909518631338215 
0.40999999999997117, -1.2987235140443434 
0.41999999999997006, -1.305078426735075 
0.42999999999996896, -1.3097550789931938 
0.43999999999996786, -1.3128969469934508 
0.44999999999996676, -1.3148164002794642 
0.45999999999996566, -1.3158431156765702 
0.46999999999996456, -1.3162506387391733 
0.47999999999996346, -1.3162387353706695 
0.48999999999996235, -1.3159487922203996 
0.49999999999996125, -1.315494961563476 
0.5099999999999602, -1.3149968305699562 
0.519999999999959, -1.3145929418042235 
0.529999999999958, -1.3144132129967088 
0.5399999999999568, -1.3145231837417777 
0.5499999999999557, -1.3148959784789014 
0.5599999999999546, -1.315438880440374 
0.5699999999999535, -1.3160385299553727 
0.5799999999999524, -1.3165901136428317 
0.5899999999999513, -1.3170093357751724 
0.5999999999999502, -1.3172343813791052 
0.6099999999999491, -1.3172221414236265 
0.619999999999948, -1.3169431510208838 
0.6299999999999469, -1.3163784339906617 
0.6399999999999458, -1.3155187608031897 
0.6499999999999447, -1.314366068505829 
0.6599999999999436, -1.3129378163478438 
0.6699999999999425, -1.311275714920229 
0.6799999999999414, -1.3094592464008679 
0.6899999999999403, -1.3076205864991877 
0.6999999999999392, -1.305947039420904 
0.7099999999999381, -1.3046414390895784 
0.719999999999937, -1.3038267947388322 
0.7299999999999359, -1.3034617895173857 
0.7399999999999348, -1.3033666210343435 
0.7499999999999337, -1.303333068067245 
0.7599999999999326, -1.3031986587419058 
0.7699999999999315, -1.302840765281488 
0.7799999999999304, -1.3021274628961501 
0.7899999999999293, -1.3008576338661444 
0.7999999999999282, -1.2986979289830174 
0.8099999999999271, -1.2951266625915667 
0.819999999999926, -1.2894323624795594 
0.8299999999999249, -1.2808797187436576 
0.8399999999999238, -1.269189019865111 
0.8499999999999227, -1.2552965251844648 
0.8599999999999216, -1.2417698301061448 
0.8699999999999205, -1.2317759674189372 
0.8799999999999194, -1.2268322143233543 
0.8899999999999183, -1.225880463673397 
0.8999999999999172, -1.226786690128339 
0.9099999999999161, -1.2280115830531515 
0.919999999999915, -1.228926723986438 
0.9299999999999139, -1.229415252431243 
0.9399999999999128, -1.2295190159120506 
0.9499999999999117, -1.2292779298798626 
0.9599999999999106, -1.2286742718536452 
0.9699999999999095, -1.227609712371454 
0.9799999999999084, -1.2258949293789283 
0.9899999999999073, -1.223289995158122 
0.9999999999999062, -1.2197298916570674 
1.0099999999999052, -1.2159453833881246 
1.019999999999904, -1.2143082088561619 
1.029999999999903, -1.2184360558199203 
1.039999999999902, -1.230090861409133 
1.0499999999999008, -1.246428891720659 
1.0599999999998997, -1.26223745899595 
1.0699999999998986, -1.2741933691437553 
1.0799999999998975, -1.2818852646437295 
1.0899999999998964, -1.2863422816388579 
1.0999999999998953, -1.2887281236960333 
1.1099999999998942, -1.2898801411329754 
1.119999999999893, -1.2903025208149426 
1.129999999999892, -1.2902733246229718 
1.1399999999998909, -1.2899441593987127 
1.1499999999998898, -1.2894206623321767 
1.1599999999998887, -1.2888414126331633 
1.1699999999998876, -1.2884534849946785 
1.1799999999998865, -1.2886184005083878 
1.1899999999998854, -1.2896563350354522 
1.1999999999998843, -1.2916089551826497 
1.2099999999998832, -1.294188582962834 
1.219999999999882, -1.29697229527214 
1.229999999999881, -1.299607187302739 
1.2399999999998799, -1.3018790660311232 
1.2499999999998788, -1.30368841560916 
1.2599999999998777, -1.3050088573674121 
1.2699999999998766, -1.3058579022843504 
1.2799999999998755, -1.3062798900612895 
1.2899999999998744, -1.30633444796463 
1.2999999999998733, -1.3060876725329669 
1.3099999999998722, -1.3056080030506423 
1.319999999999871, -1.30496882052568 
1.32999999999987, -1.3042543480449802 
1.3399999999998689, -1.3035591537569202 
1.3499999999998678, -1.302974155774328 
1.3599999999998666, -1.3025657248257754 
1.3699999999998655, -1.3023601053913811 
1.3799999999998644, -1.3023352909745154 
1.3899999999998633, -1.3024224178865913 
1.3999999999998622, -1.3025238881918604 
1.4099999999998611, -1.3025392987702022 
1.41999999999986, -1.302378778379839 
1.429999999999859, -1.3019590698100096 
1.4399999999998578, -1.3011942017881597 
1.4499999999998567, -1.2999926211309494 
1.4599999999998556, -1.2982648905429521 
1.4699999999998545, -1.2959397388386134 
1.4799999999998534, -1.2929855201983838 
1.4899999999998523, -1.2894397753706681 
1.4999999999998512, -1.2854544501162155 
1.5099999999998501, -1.2813508211198397 
1.519999999999849, -1.2776280991083029 
1.529999999999848, -1.2748198674629925 
1.5399999999998468, -1.2731973336715798 
1.5499999999998457, -1.2725890611678607 
1.5599999999998446, -1.272549890985525 
1.5699999999998435, -1.272667556062474 
1.5799999999998424, -1.2726960110598122 
1.5899999999998413, -1.2725108912329262 
1.5999999999998402, -1.272017951156814 
1.6099999999998391, -1.271072867268311 
1.619999999999838, -1.269403011626307 
1.629999999999837, -1.2665095695097013 
1.6399999999998358, -1.261561774574717 
1.6499999999998347, -1.253409294954987 
1.6599999999998336, -1.241067335484273 
1.6699999999998325, -1.225066262836481 
1.6799999999998314, -1.2088925184877715 
1.6899999999998303, -1.1977640010123358 
1.6999999999998292, -1.1942684367040246 
1.709999999999828, -1.196365454208815 
1.719999999999827, -1.2003367347669924 
1.729999999999826, -1.2038416458313166 
1.7399999999998248, -1.2062183172890928 
1.7499999999998237, -1.207594751651169 
1.7599999999998226, -1.2082571382472709 
1.7699999999998215, -1.2084262968681885 
1.7799999999998204, -1.2082226821984523 
1.7899999999998193, -1.2076812519682052 
1.7999999999998182, -1.2067744698588583 
1.809999999999817, -1.205455786328195 
1.819999999999816, -1.2037806976804468 
1.8299999999998149, -1.202192750217587 
1.8399999999998138, -1.2019341730600774 
1.8499999999998127, -1.205044969458401 
1.8599999999998116, -1.2131360866028502 
1.8699999999998105, -1.2256006365678478 
1.8799999999998094, -1.2396087176234465 
1.8899999999998083, -1.2521414478526611 
1.8999999999998072, -1.2616255992604242 
1.909999999999806, -1.267973268656735 
1.919999999999805, -1.2718416349296737 
1.9299999999998039, -1.2740073298288077 
1.9399999999998028, -1.2750868073477801 
1.9499999999998017, -1.275489668323643 
1.9599999999998006, -1.2754641943796494 
1.9699999999997995, -1.2751610600337944 
1.9799999999997984, -1.274694764012452 
1.9899999999997973, -1.274201669346736 
1.9999999999997962, -1.2738795502623739 
2.0099999999998173, -1.2739635540555876 
2.0199999999998384, -1.2746159289608712 
2.0299999999998595, -1.2758172412239686 
2.0399999999998806, -1.2773809579236646 
2.0499999999999017, -1.2790669661331953 
2.059999999999923, -1.2806756425835952 
2.069999999999944, -1.2820758405067347 
2.079999999999965, -1.2831941456279459 
2.089999999999986, -1.2839963082916568 
2.100000000000007, -1.2844732805923083 
2.1100000000000283, -1.2846333863212218 
2.1200000000000494, -1.2844983795084928 
2.1300000000000705, -1.2841011317705506 
2.1400000000000916, -1.2834847552683637 
2.1500000000001127, -1.282704317266924 
2.160000000000134, -1.2818302059968532 
2.170000000000155, -1.280948077286166 
2.180000000000176, -1.2801503376261025 
2.190000000000197, -1.2795200424788833 
2.2000000000002182, -1.2791104821996204 
2.2100000000002393, -1.2789232563618964 
2.2200000000002604, -1.2788984980363314 
2.2300000000002815, -1.2789333905286706 
2.2400000000003026, -1.2789165240612397 
2.2500000000003237, -1.2787478337538374 
2.260000000000345, -1.2783345573030251 
2.270000000000366, -1.2775766164424078 
2.280000000000387, -1.2763572505254133 
2.290000000000408, -1.2745476736694084 
2.3000000000004293, -1.2720274032702372 
2.3100000000004504, -1.2687167341647436 
2.3200000000004715, -1.2646184622185106 
2.3300000000004926, -1.2598722346369033 
2.3400000000005137, -1.2548195533506927 
2.3500000000005348, -1.250032301365622 
2.360000000000556, -1.2461900220253568 
2.370000000000577, -1.243752111661339 
2.380000000000598, -1.2426660980698099 
2.390000000000619, -1.2424581698519996 
2.4000000000006403, -1.2425985351847064 
2.4100000000006614, -1.2427387497553943 
2.4200000000006825, -1.2427097212312719 
2.4300000000007036, -1.2424241054456915 
2.4400000000007247, -1.2417871058217478 
2.450000000000746, -1.2406252201731283 
2.460000000000767, -1.2386087253754343 
2.470000000000788, -1.235152935892342 
2.480000000000809, -1.2293361465266357 
2.49000000000083, -1.2200155854592003 
2.5000000000008513, -1.206529891545682 
2.5100000000008724, -1.190154699248289 
2.5200000000008935, -1.1749706593100124 
2.5300000000009146, -1.1656711730786582 
2.5400000000009357, -1.1635767556700054 
2.550000000000957, -1.1660960947551016 
2.560000000000978, -1.169879722164778 
2.570000000000999, -1.1730637837827163 
2.58000000000102, -1.1751921409873125 
2.5900000000010412, -1.1764161049682946 
2.6000000000010624, -1.1769920526942992 
2.6100000000010835, -1.1771106279496641 
2.6200000000011046, -1.1768709757911968 
2.6300000000011257, -1.1762916458952917 
2.6400000000011468, -1.1753257838529545 
2.650000000001168, -1.1738914945634262 
2.660000000001189, -1.1719699348992934 
2.67000000000121, -1.1698692589291146 
2.680000000001231, -1.1686908340440962 
2.6900000000012523, -1.1705959358110614 
2.7000000000012734, -1.177881487258484 
2.7100000000012945, -1.1908040216207887 
2.7200000000013156, -1.206601157932043 
2.7300000000013367, -1.2214267673129908 
2.740000000001358, -1.2328750649659879 
2.750000000001379, -1.2405584763091713 
2.7600000000014, -1.2452238994464684 
2.770000000001421, -1.247839372370435 
2.780000000001442, -1.249173944843486 
2.7900000000014633, -1.2497288319548254 
2.8000000000014844, -1.2497986746547114 
2.8100000000015055, -1.2495507217565296 
2.8200000000015266, -1.2490942031950736 
2.8300000000015477, -1.2485462084836625 
2.840000000001569, -1.2480966390459947 
2.85000000000159, -1.2480356907286974 
2.860000000001611, -1.2486717102961298 
2.870000000001632, -1.2501470812544928 
2.8800000000016532, -1.2523253895633648 
2.8900000000016743, -1.2548789213906268 
2.9000000000016954, -1.2574655058314352 
2.9100000000017165, -1.2598342656103303 
2.9200000000017377, -1.261838311070487 
2.9300000000017588, -1.2634086197056562 
2.94000000000178, -1.2645279041821074 
2.950000000001801, -1.2652140604125175 
2.960000000001822, -1.265509401969703 
2.970000000001843, -1.2654711563351535 
2.9800000000018643, -1.2651633959090312 
2.9900000000018854, -1.2646539131962693 
3.0000000000019065, -1.26401753291898 
3.0100000000019276, -1.2633408779501776 
3.0200000000019487, -1.2627184325928793 
3.03000000000197, -1.2622348941042472 
3.040000000001991, -1.2619433449354855 
3.050000000002012, -1.2618527863654383 
3.060000000002033, -1.2619269580205275 
3.070000000002054, -1.262092606595366 
3.0800000000020753, -1.2622579298794572 
3.0900000000020964, -1.2623331225804852 
3.1000000000021175, -1.2622404148738102 
3.1100000000021386, -1.2619124509288955 
3.1200000000021597, -1.2612879365472167 
3.130000000002181, -1.260311914019905 
3.140000000002202, -1.258941394288982 
3.150000000002223, -1.2571531228925596 
3.160000000002244, -1.2549516787705008 
3.1700000000022652, -1.2523805482875325 
3.1800000000022863, -1.2495407558708014 
3.1900000000023074, -1.2466155646680854 
3.2000000000023285, -1.2438809224418481 
3.2100000000023496, -1.2416566234642705 
3.2200000000023707, -1.2401716709861323 
3.230000000002392, -1.2394257630992669 
3.240000000002413, -1.2391966343790302 
3.250000000002434, -1.2391922810732574 
3.260000000002455, -1.2391836793686564 
3.2700000000024763, -1.2390272053059728 
3.2800000000024974, -1.2386176185014615 
3.2900000000025185, -1.2378265982483876 
3.3000000000025396, -1.2364416537159653 
3.3100000000025607, -1.234100634870407 
3.3200000000025818, -1.2302303730935216 
3.330000000002603, -1.2240461392987387 
3.340000000002624, -1.2147453057007762 
3.350000000002645, -1.2020504506293488 
3.360000000002666, -1.1870054718897194 
3.3700000000026873, -1.172298134471531 
3.3800000000027084, -1.1611318649329447 
3.3900000000027295, -1.1551113151149024 
3.4000000000027506, -1.1533897530574913 
3.4100000000027717, -1.1539383014006184 
3.420000000002793, -1.1551160121272448 
3.430000000002814, -1.1561334258716192 
3.440000000002835, -1.1567695664999518 
3.450000000002856, -1.1570281597732701 
3.460000000002877, -1.1569509480940485 
3.4700000000028983, -1.156543478377377 
3.4800000000029194, -1.1557431550721113 
3.4900000000029405, -1.1543917994638888 
3.5000000000029616, -1.1522047559913093 
3.5100000000029827, -1.14876827686725 
3.520000000003004, -1.1436790951871043 
3.530000000003025, -1.1370416665176308 
3.540000000003046, -1.130364229685572 
3.550000000003067, -1.126927172699245 
3.5600000000030882, -1.129916927237412 
3.5700000000031094, -1.1391987828597758 
3.5800000000031305, -1.1510662634227389 
3.5900000000031516, -1.161610344893791 
3.6000000000031727, -1.1691474452025636 
3.6100000000031938, -1.1738559538633144 
3.620000000003215, -1.176546227493334 
3.630000000003236, -1.1779572316300329 
3.640000000003257, -1.178582879836745 
3.650000000003278, -1.1787074182630852 
3.6600000000032993, -1.1784747052983497 
3.6700000000033204, -1.1779441087329332 
3.6800000000033415, -1.1771397491713191 
3.6900000000033626, -1.1761235421091125 
3.7000000000033837, -1.1751332619132406 
3.710000000003405, -1.1747826509567734 
3.720000000003426, -1.176140451842834 
3.730000000003447, -1.1803263742046883 
3.740000000003468, -1.1876475152641714 
3.750000000003489, -1.1971282428601113 
3.7600000000035103, -1.2070495564267902 
3.7700000000035314, -1.215891249777141 
3.7800000000035525, -1.2228428710825299 
3.7900000000035736, -1.2277757310888726 
3.8000000000035947, -1.2309736477294113 
3.810000000003616, -1.2328638083325738 
3.820000000003637, -1.233845582657038 
3.830000000003658, -1.2342219517821458 
3.840000000003679, -1.234197948531476 
3.8500000000037002, -1.233909918625983 
3.8600000000037213, -1.23346574243738 
3.8700000000037424, -1.2329870241516276 
3.8800000000037635, -1.2326376403612729 
3.8900000000037847, -1.2326073268266102 
3.9000000000038058, -1.2330360213909695 
3.910000000003827, -1.233934023357663 
3.920000000003848, -1.235179589147847 
3.930000000003869, -1.2365906028615632 
3.94000000000389, -1.2379969863763036 
3.9500000000039113, -1.2392726426917993 
3.9600000000039324, -1.2403362672598433 
3.9700000000039535, -1.24114097191636 
3.9800000000039746, -1.2416638848849106 
3.9900000000039957, -1.2418994511324906 
4.000000000004016, -1.2418562496787307 
4.010000000003993, -1.2415555331116042 
4.02000000000397, -1.241030334096761 
4.030000000003946, -1.240325753512646 
4.040000000003923, -1.239501108279786 
4.0500000000039, -1.2386315349413155 
4.0600000000038765, -1.2378037339755665 
4.070000000003853, -1.237103201029792 
4.08000000000383, -1.2365962749400872 
4.090000000003807, -1.236311386781057 
4.100000000003783, -1.2362248667323072 
4.11000000000376, -1.2362631579315013 
4.120000000003737, -1.2363261384736073 
4.130000000003713, -1.236314403290948 
4.14000000000369, -1.2361406989509596 
4.150000000003667, -1.2357251249480623 
4.1600000000036434, -1.234986750488027 
4.17000000000362, -1.233842407603332 
4.180000000003597, -1.2322158198893853 
4.1900000000035735, -1.2300535255536995 
4.20000000000355, -1.2273419578729388 
4.210000000003527, -1.2241244839393974 
4.220000000003504, -1.2205231957407094 
4.23000000000348, -1.2167666500140872 
4.240000000003457, -1.2132024338213596 
4.250000000003434, -1.2102416717398095 
4.26000000000341, -1.2081989387034464 
4.270000000003387, -1.2071146593311208 
4.280000000003364, -1.206742505287692 
4.2900000000033405, -1.206726334536961 
4.300000000003317, -1.206777209760546 
4.310000000003294, -1.2067207074472672 
4.320000000003271, -1.2064518414590277 
4.330000000003247, -1.2058697164324645 
4.340000000003224, -1.2048173150599326 
4.350000000003201, -1.2030203209046468 
4.360000000003177, -1.2000199373828455 
4.370000000003154, -1.1951256617290542 
4.380000000003131, -1.1874807406904968 
4.390000000003107, -1.1764052670662168 
4.400000000003084, -1.1621037468294702 
4.410000000003061, -1.1463681123587546 
4.4200000000030375, -1.1323204921968684 
4.430000000003014, -1.1227121438103618 
4.440000000002991, -1.1181635069365181 
4.450000000002968, -1.1172463943888498 
4.460000000002944, -1.1180123876416836 
4.470000000002921, -1.1191329579060996 
4.480000000002898, -1.1200310887155376 
4.490000000002874, -1.1205647476552758 
4.500000000002851, -1.1207487411557429 
4.510000000002828, -1.120614413952047 
4.520000000002804, -1.1201525833338735 
4.530000000002781, -1.1192837414405434 
4.540000000002758, -1.1178256101705384 
4.5500000000027345, -1.1154491786593657 
4.560000000002711, -1.1116442827598305 
4.570000000002688, -1.105784824219634 
4.580000000002665, -1.0974920320167696 
4.590000000002641, -1.0874474785517623 
4.600000000002618, -1.0781376917571255 
4.610000000002595, -1.0730497289789664 
4.620000000002571, -1.0739992134474934 
4.630000000002548, -1.0795101993454876 
4.640000000002525, -1.086420208891329 
4.6500000000025015, -1.092379111339255 
4.660000000002478, -1.0966007946047696 
4.670000000002455, -1.0992521489177194 
4.6800000000024315, -1.1007672476095691 
4.690000000002408, -1.1015252454241278 
4.700000000002385, -1.1017761502550871 
4.710000000002362, -1.101655057683195 
4.720000000002338, -1.1012089589249343 
4.730000000002315, -1.1004156227849446 
4.740000000002292, -1.0991998512995773 
4.750000000002268, -1.0974737419145209 
4.760000000002245, -1.0952610241834229 
4.770000000002222, -1.0929915553386176 
4.7800000000021985, -1.0919447807482334 
4.790000000002175, -1.0943860593554648 
4.800000000002152, -1.1025285176433424 
4.810000000002129, -1.1164446733032265 
4.820000000002105, -1.1332010935185621 
4.830000000002082, -1.1487936484153152 
4.840000000002059, -1.1607360897791363 
4.850000000002035, -1.1686860540000825 
4.860000000002012, -1.1734879740984487 
4.870000000001989, -1.176183520208725 
4.880000000001965, -1.17757722986834 
4.890000000001942, -1.1781819701843788 
4.900000000001919, -1.178292100329831 
4.9100000000018955, -1.1780653683889475 
4.920000000001872, -1.1775877466328228 
4.930000000001849, -1.1769331417530267 
4.940000000001826, -1.1762397586902555 
