t, s[1].omega / s[0].omega 
0, -0.6699977030620456 
0.009999999999999995, -0.6697608121237231 
0.019999999999999934, -0.6695052203971985 
0.029999999999999874, -0.6692200834865356 
0.04000000000000012, -0.6688939251850716 
0.050000000000000405, -0.6685202728157409 
0.06000000000000069, -0.6681007207500358 
0.07000000000000098, -0.667645501819177 
0.08000000000000126, -0.6671733748136447 
0.09000000000000155, -0.6667126538646178 
0.10000000000000184, -0.6663042661190721 
0.11000000000000212, -0.6660067665430327 
0.12000000000000241, -0.6659025424522508 
0.130000000000002, -0.6661038698788617 
0.1400000000000009, -0.6667568898462057 
0.1499999999999998, -0.6680408331962903 
0.1599999999999987, -0.670158649782639 
0.1699999999999976, -0.6733131943374245 
0.1799999999999965, -0.6776608627690501 
0.1899999999999954, -0.6832363604718539 
0.1999999999999943, -0.6898586334543237 
0.2099999999999932, -0.6970674698935833 
0.2199999999999921, -0.7041768541897618 
0.229999999999991, -0.7104855264904859 
0.2399999999999899, -0.7155348298716646 
0.2499999999999888, -0.7192227667933746 
0.2599999999999877, -0.7217189962171476 
0.2699999999999866, -0.7232999560280274 
0.2799999999999855, -0.7242274083937489 
0.2899999999999844, -0.7246993391700224 
0.2999999999999833, -0.7248459089907054 
0.3099999999999822, -0.7247407726031508 
0.3199999999999811, -0.7244120709137379 
0.32999999999998, -0.7238473999450914 
0.3399999999999789, -0.7229910424893001 
0.3499999999999778, -0.7217326916296528 
0.35999999999997667, -0.7198878648050593 
0.36999999999997557, -0.7171750246377758 
0.37999999999997447, -0.7132091240620917 
0.38999999999997337, -0.7075590979407499 
0.39999999999997227, -0.6999327371825647 
0.40999999999997117, -0.6904751807051278 
0.41999999999997006, -0.6799635195219744 
0.42999999999996896, -0.6696095063817541 
0.43999999999996786, -0.6605363290197234 
0.44999999999996676, -0.6533640867983828 
0.45999999999996566, -0.6481650469535245 
0.46999999999996456, -0.6446633451049373 
0.47999999999996346, -0.6424566018406274 
0.48999999999996235, -0.6411562835757911 
0.49999999999996125, -0.6404473067092356 
0.5099999999999602, -0.640098662628331 
0.519999999999959, -0.6399519440223758 
0.529999999999958, -0.6399033304930423 
0.5399999999999568, -0.6398863482163268 
0.5499999999999557, -0.6398581556380625 
0.5599999999999546, -0.6397899943960882 
0.5699999999999535, -0.6396616875618567 
0.5799999999999524, -0.6394598322254195 
0.5899999999999513, -0.6391789100413403 
0.5999999999999502, -0.6388235326336111 
0.6099999999999491, -0.6384089789014041 
0.619999999999948, -0.6379576193933831 
0.6299999999999469, -0.6374916066485135 
0.6399999999999458, -0.6370254528940925 
0.6499999999999447, -0.636562674669418 
0.6599999999999436, -0.6360979748208071 
0.6699999999999425, -0.6356229898647612 
0.6799999999999414, -0.6351321693721508 
0.6899999999999403, -0.6346264901137371 
0.6999999999999392, -0.6341149579102925 
0.7099999999999381, -0.6336153168118858 
0.719999999999937, -0.6331554435860971 
0.7299999999999359, -0.6327761831162136 
0.7399999999999348, -0.6325356288406377 
0.7499999999999337, -0.6325143300496502 
0.7599999999999326, -0.6328205213143356 
0.7699999999999315, -0.6335940205746489 
0.7799999999999304, -0.6350066367338036 
0.7899999999999293, -0.637255271844098 
0.7999999999999282, -0.6405409138353895 
0.8099999999999271, -0.6450231898634889 
0.819999999999926, -0.6507413290210186 
0.8299999999999249, -0.6575110212503825 
0.8399999999999238, -0.6648532419734955 
0.8499999999999227, -0.6720536191726325 
0.8599999999999216, -0.6783942618096852 
0.8699999999999205, -0.683426322794338 
0.8799999999999194, -0.6870744789424101 
0.8899999999999183, -0.689531966350929 
0.8999999999999172, -0.6910863784329943 
0.9099999999999161, -0.6920008024144728 
0.919999999999915, -0.692470318935298 
0.9299999999999139, -0.6926215459065126 
0.9399999999999128, -0.6925252723495294 
0.9499999999999117, -0.6922075556647542 
0.9599999999999106, -0.6916543858988257 
0.9699999999999095, -0.6908086640096388 
0.9799999999999084, -0.6895593138724744 
0.9899999999999073, -0.6877242539433636 
0.9999999999999062, -0.6850357989073381 
1.0099999999999052, -0.6811532788698321 
1.019999999999904, -0.6757480161165537 
1.029999999999903, -0.6686919520575095 
1.039999999999902, -0.6602754760642998 
1.0499999999999008, -0.6512468837426024 
1.0599999999998997, -0.6425509359948058 
1.0699999999998986, -0.6349513157739035 
1.0799999999998975, -0.6288259942631159 
1.0899999999998964, -0.6242004148966875 
1.0999999999998953, -0.6208900051604516 
1.1099999999998942, -0.6186313016695102 
1.119999999999893, -0.6171617037647745 
1.129999999999892, -0.616255592255478 
1.1399999999998909, -0.6157345696841589 
1.1499999999998898, -0.6154651191014998 
1.1599999999998887, -0.6153512410433931 
1.1699999999998876, -0.6153259234431739 
1.1799999999998865, -0.6153433470409322 
1.1899999999998854, -0.6153727575215278 
1.1999999999998843, -0.615394409924262 
1.2099999999998832, -0.6153975524068178 
1.219999999999882, -0.6153798027484145 
1.229999999999881, -0.6153464922216781 
1.2399999999998799, -0.6153081781381738 
1.2499999999998788, -0.6152754282711537 
1.2599999999998777, -0.6152521907065874 
1.2699999999998766, -0.6152310560649487 
1.2799999999998755, -0.6151935609891382 
1.2899999999998744, -0.6151159509719599 
1.2999999999998733, -0.614977320854578 
1.3099999999998722, -0.614765704703008 
1.319999999999871, -0.6144797600755549 
1.32999999999987, -0.6141271042337854 
1.3399999999998689, -0.6137221406257882 
1.3499999999998678, -0.6132858106605265 
1.3599999999998666, -0.61284858799163 
1.3699999999998655, -0.6124573998292242 
1.3799999999998644, -0.61218709754766 
1.3899999999998633, -0.6121570404719214 
1.3999999999998622, -0.6125524412962642 
1.4099999999998611, -0.6136470082361996 
1.41999999999986, -0.6158159120836884 
1.429999999999859, -0.6195138494082684 
1.4399999999998578, -0.6251750592335428 
1.4499999999998567, -0.6329954156656356 
1.4599999999998556, -0.6426404800494305 
1.4699999999998545, -0.6531063554386202 
1.4799999999998534, -0.6630192384593218 
1.4899999999998523, -0.6712740051762838 
1.4999999999998512, -0.677457737146091 
1.5099999999998501, -0.681753781374876 
1.519999999999849, -0.684596634751059 
1.529999999999848, -0.6864152234809145 
1.5399999999998468, -0.6875374044870499 
1.5499999999998457, -0.688185823149412 
1.5599999999998446, -0.6885012285355127 
1.5699999999998435, -0.6885654834118551 
1.5799999999998424, -0.6884170709419164 
1.5899999999998413, -0.6880589311457338 
1.5999999999998402, -0.6874600405753987 
1.6099999999998391, -0.6865527920275193 
1.619999999999838, -0.6852302305391201 
1.629999999999837, -0.6833517789282825 
1.6399999999998358, -0.6807714286317121 
1.6499999999998347, -0.6773989049223934 
1.6599999999998336, -0.6732779953330649 
1.6699999999998325, -0.6686274373682456 
1.6799999999998314, -0.6637935520289835 
1.6899999999998303, -0.6591357826030629 
1.6999999999998292, -0.6549252266394661 
1.709999999999828, -0.6513087186120294 
1.719999999999827, -0.6483279036628707 
1.729999999999826, -0.6459572293807879 
1.7399999999998248, -0.6441366034944666 
1.7499999999998237, -0.6427921243948129 
1.7599999999998226, -0.6418472771417933 
1.7699999999998215, -0.641228673498959 
1.7799999999998204, -0.6408692110986514 
1.7899999999998193, -0.6407100140786508 
1.7999999999998182, -0.6407015707216484 
1.809999999999817, -0.6408041550065112 
1.819999999999816, -0.6409876595901818 
1.8299999999998149, -0.6412310690119529 
1.8399999999998138, -0.6415217132280587 
1.8499999999998127, -0.641854058206837 
1.8599999999998116, -0.6422272839136202 
1.8699999999998105, -0.6426408115026809 
1.8799999999998094, -0.6430879133082968 
1.8899999999998083, -0.6435495504454121 
1.8999999999998072, -0.6439922998976704 
1.909999999999806, -0.644373463476528 
1.919999999999805, -0.6446522425311916 
1.9299999999998039, -0.6448010164171286 
1.9399999999998028, -0.6448103627518673 
1.9499999999998017, -0.6446864267021061 
1.9599999999998006, -0.6444444011759711 
1.9699999999997995, -0.6441028750367057 
1.9799999999997984, -0.6436817568760823 
1.9899999999997973, -0.6432045586619991 
1.9999999999997962, -0.642705377432961 
2.0099999999998173, -0.6422414799109009 
2.0199999999998384, -0.641912963619802 
2.0299999999998595, -0.6418902678883504 
2.0399999999998806, -0.6424461954353885 
2.0499999999999017, -0.6439780064889672 
2.059999999999923, -0.6469839659475738 
2.069999999999944, -0.6519356589576005 
2.079999999999965, -0.6590066444351883 
2.089999999999986, -0.6677573527316786 
2.100000000000007, -0.6770893236657152 
2.1100000000000283, -0.6857001504779803 
2.1200000000000494, -0.6927173518369736 
2.1300000000000705, -0.6979336968254578 
2.1400000000000916, -0.7015867060290751 
2.1500000000001127, -0.70405073710794 
2.160000000000134, -0.7056650649451149 
2.170000000000155, -0.7066850908228528 
2.180000000000176, -0.7072870419560073 
2.190000000000197, -0.7075852381083257 
2.2000000000002182, -0.7076474507104765 
2.2100000000002393, -0.7075049929149222 
2.2200000000002604, -0.7071574663272617 
2.2300000000002815, -0.7065729574470245 
2.2400000000003026, -0.7056853593683384 
2.2500000000003237, -0.7043928109735595 
2.260000000000345, -0.7025656461876144 
2.270000000000366, -0.7000761753970568 
2.280000000000387, -0.6968566919571753 
2.290000000000408, -0.6929662557009543 
2.3000000000004293, -0.6886167657755478 
2.3100000000004504, -0.6841221083061491 
2.3200000000004715, -0.6797981111706034 
2.3300000000004926, -0.6758809250854014 
2.3400000000005137, -0.672501063075764 
2.3500000000005348, -0.6697004463443108 
2.360000000000556, -0.6674631462455868 
2.370000000000577, -0.665741371004951 
2.380000000000598, -0.6644721047396612 
2.390000000000619, -0.6635865765279063 
2.4000000000006403, -0.6630158359334902 
2.4100000000006614, -0.6626945691473765 
2.4200000000006825, -0.6625639621857587 
2.4300000000007036, -0.6625736610914136 
2.4400000000007247, -0.66268274146568 
2.450000000000746, -0.6628598083404125 
2.460000000000767, -0.6630825529185829 
2.470000000000788, -0.6633370242289442 
2.480000000000809, -0.6636164481162038 
2.49000000000083, -0.663918880524853 
2.5000000000008513, -0.6642429334233427 
2.5100000000008724, -0.6645818803726049 
2.5200000000008935, -0.6649184015517555 
2.5300000000009146, -0.6652235087967195 
2.5400000000009357, -0.6654618543366075 
2.550000000000957, -0.6656015546012845 
2.560000000000978, -0.6656230399868602 
2.570000000000999, -0.6655221835798383 
2.58000000000102, -0.665307553150073 
2.5900000000010412, -0.6649954135849891 
2.6000000000010624, -0.6646063554249216 
2.6100000000010835, -0.6641656567146517 
2.6200000000011046, -0.6637081054154168 
2.6300000000011257, -0.6632877273258958 
2.6400000000011468, -0.6629930476804817 
2.650000000001168, -0.6629681497870012 
2.660000000001189, -0.6634376985466132 
2.67000000000121, -0.6647286935229025 
2.680000000001231, -0.66727119708479 
2.6900000000012523, -0.671544947118351 
2.7000000000012734, -0.6779294231976724 
2.7100000000012945, -0.6864473005621051 
2.7200000000013156, -0.6965123741361315 
2.7300000000013367, -0.7069434496266226 
2.740000000001358, -0.716409243900191 
2.750000000001379, -0.7240216994227309 
2.7600000000014, -0.7295772068348596 
2.770000000001421, -0.7333573274257231 
2.780000000001442, -0.7358064048595805 
2.7900000000014633, -0.7373289478365749 
2.8000000000014844, -0.7382243476040888 
2.8100000000015055, -0.7386912930143066 
2.8200000000015266, -0.7388509578608634 
2.8300000000015477, -0.7387676571113202 
2.840000000001569, -0.738461381899603 
2.85000000000159, -0.737911872020601 
2.860000000001611, -0.7370549576757076 
2.870000000001632, -0.7357726322776572 
2.8800000000016532, -0.7338815861067652 
2.8900000000016743, -0.7311336599647238 
2.9000000000016954, -0.7272551340790095 
2.9100000000017165, -0.7220537120675791 
2.9200000000017377, -0.7155771749114704 
2.9300000000017588, -0.7082173872064056 
2.94000000000178, -0.7006335002221526 
2.950000000001801, -0.693515504173786 
2.960000000001822, -0.6873619380630369 
2.970000000001843, -0.6824002693566891 
2.9800000000018643, -0.6786321171787412 
2.9900000000018854, -0.6759221651873207 
3.0000000000019065, -0.6740757435599829 
3.0100000000019276, -0.6728896537093618 
3.0200000000019487, -0.6721800206558564 
3.03000000000197, -0.6717945655501987 
3.040000000001991, -0.6716151385603397 
3.050000000002012, -0.6715545718994358 
3.060000000002033, -0.6715508033579936 
3.070000000002054, -0.6715604692252414 
3.0800000000020753, -0.6715535166783375 
3.0900000000020964, -0.671509763512699 
3.1000000000021175, -0.6714176228570706 
3.1100000000021386, -0.6712742499399268 
3.1200000000021597, -0.6710853372220176 
3.130000000002181, -0.6708625654520409 
3.140000000002202, -0.6706182275987447 
3.150000000002223, -0.6703591447403767 
3.160000000002244, -0.6700833711838705 
3.1700000000022652, -0.669781755976605 
3.1800000000022863, -0.669443269113274 
3.1900000000023074, -0.6690608275326816 
3.2000000000023285, -0.668634888857249 
3.2100000000023496, -0.6681744594940542 
3.2200000000023707, -0.6676970935219001 
3.230000000002392, -0.667229728607691 
3.240000000002413, -0.6668113618440634 
3.250000000002434, -0.6664975854471579 
3.260000000002455, -0.6663662723569872 
3.2700000000024763, -0.6665231501711095 
3.2800000000024974, -0.6671054926847269 
3.2900000000025185, -0.6682815800183501 
3.3000000000025396, -0.6702426626857481 
3.3100000000025607, -0.673182475648554 
3.3200000000025818, -0.6772571239652382 
3.330000000002603, -0.6825186574600641 
3.340000000002624, -0.6888278237047156 
3.350000000002645, -0.695785065140022 
3.360000000002666, -0.7027576919926244 
3.3700000000026873, -0.7090570357119901 
3.3800000000027084, -0.7141888420144017 
3.3900000000027295, -0.7179957821071126 
3.4000000000027506, -0.7206055505150961 
3.4100000000027717, -0.7222765775480193 
3.420000000002793, -0.723269359957824 
3.430000000002814, -0.7237875186641539 
3.440000000002835, -0.7239680527978152 
3.450000000002856, -0.7238907522261441 
3.460000000002877, -0.7235892075685192 
3.4700000000028983, -0.7230565552180942 
3.4800000000029194, -0.7222438054354086 
3.4900000000029405, -0.7210498318897393 
3.5000000000029616, -0.7193028433417983 
3.5100000000029827, -0.7167369455648381 
3.520000000003004, -0.712979993688464 
3.530000000003025, -0.707595381384097 
3.540000000003046, -0.7002436464082364 
3.550000000003067, -0.6909755866443497 
3.5600000000030882, -0.6804738110760925 
3.5700000000031094, -0.6699299706936924 
3.5800000000031305, -0.6605382197978399 
3.5900000000031516, -0.6530213841325434 
3.6000000000031727, -0.6475249047194287 
3.6100000000031938, -0.6438007124085887 
3.620000000003215, -0.6414433847997756 
3.630000000003236, -0.6400487278957472 
3.640000000003257, -0.6392845750295052 
3.650000000003278, -0.6389059826334264 
3.6600000000032993, -0.6387446633038937 
3.6700000000033204, -0.6386904040496819 
3.6800000000033415, -0.6386728899263775 
3.6900000000033626, -0.6386471112704322 
3.7000000000033837, -0.6385830918223009 
3.710000000003405, -0.638459798388494 
3.720000000003426, -0.6382628674075138 
3.730000000003447, -0.6379854558427749 
3.740000000003468, -0.6376306040746529 
3.750000000003489, -0.6372123396314759 
3.7600000000035103, -0.6367528383571752 
3.7700000000035314, -0.6362754574365966 
3.7800000000035525, -0.6357969041926752 
3.7900000000035736, -0.6353229411944243 
3.8000000000035947, -0.6348496900347022 
3.810000000003616, -0.6343690262491484 
3.820000000003637, -0.633874669490784 
3.830000000003658, -0.6333663519529316 
3.840000000003679, -0.6328516533390979 
3.8500000000037002, -0.632346763728447 
3.8600000000037213, -0.631877704731899 
3.8700000000037424, -0.6314828931102394 
3.8800000000037635, -0.631217161213238 
3.8900000000037847, -0.6311567967219293 
3.9000000000038058, -0.631404775621219 
3.910000000003827, -0.63209494891034 
3.920000000003848, -0.6333932300186038 
3.930000000003869, -0.6354923515326821 
3.94000000000389, -0.6385939820170081 
3.9500000000039113, -0.6428683391612006 
3.9600000000039324, -0.6483811225544112 
3.9700000000039535, -0.654992203406122 
3.9800000000039746, -0.6622728631845265 
3.9900000000039957, -0.6695370676740724 
4.000000000004016, -0.6760484647088013 
4.010000000003993, -0.6813013598460771 
4.02000000000397, -0.6851621306506592 
4.030000000003946, -0.6877918211625211 
4.040000000003923, -0.6894724057003525 
4.0500000000039, -0.6904751724302731 
4.0600000000038765, -0.6910066917161583 
4.070000000003853, -0.6912037712373389 
4.08000000000383, -0.6911452944598396 
4.090000000003807, -0.6908640447451535 
4.100000000003783, -0.6903525385324898 
4.11000000000376, -0.6895612975940384 
4.120000000003737, -0.6883892589829836 
4.130000000003713, -0.6866675777761857 
4.14000000000369, -0.6841438273521072 
4.150000000003667, -0.6804881474929517 
4.1600000000036434, -0.675363699545497 
4.17000000000362, -0.6685990068610659 
4.180000000003597, -0.6604098675996617 
4.1900000000035735, -0.6514780563272722 
4.20000000000355, -0.6427334632264848 
4.210000000003527, -0.6349782837555633 
4.220000000003504, -0.6286482274377343 
4.23000000000348, -0.6238154224951181 
4.240000000003457, -0.6203217558728488 
4.250000000003434, -0.6179139902779498 
4.26000000000341, -0.6163301983635837 
4.270000000003387, -0.6153408906447687 
4.280000000003364, -0.614762193757583 
4.2900000000033405, -0.614455051780478 
4.300000000003317, -0.6143186060195818 
4.310000000003294, -0.6142819514422984 
4.320000000003271, -0.6142963516226239 
4.330000000003247, -0.6143289441939691 
4.340000000003224, -0.6143584148452866 
4.350000000003201, -0.6143726902747428 
4.360000000003177, -0.6143681269657197 
4.370000000003154, -0.6143489065943718 
4.380000000003131, -0.614324863467748 
4.390000000003107, -0.6143066307663487 
4.400000000003084, -0.6142990427572002 
4.410000000003061, -0.6142958855724341 
4.4200000000030375, -0.61427936149342 
4.430000000003014, -0.614225241404761 
4.440000000002991, -0.6141110703874589 
4.450000000002968, -0.613922900112593 
4.460000000002944, -0.6136576392128906 
4.470000000002921, -0.6133216120179895 
4.480000000002898, -0.6129281113982217 
4.490000000002874, -0.6124965830646987 
4.500000000002851, -0.612054935447872 
4.510000000002828, -0.6116457215135118 
4.520000000002804, -0.6113368390060201 
4.530000000002781, -0.6112374328513608 
4.540000000002758, -0.6115190235282788 
4.5500000000027345, -0.6124392439699603 
4.560000000002711, -0.6143587862755555 
4.570000000002688, -0.6177285595045893 
4.580000000002665, -0.6230050437384655 
4.590000000002641, -0.6304480861467976 
4.600000000002618, -0.6398244051760859 
4.610000000002595, -0.6502199853438925 
4.620000000002571, -0.6602703762775115 
4.630000000002548, -0.6687886094257697 
4.640000000002525, -0.6752571895518856 
4.6500000000025015, -0.679795793211939 
4.660000000002478, -0.6828222285307837 
4.670000000002455, -0.6847729119720773 
4.6800000000024315, -0.6859892582685099 
4.690000000002408, -0.6867062101173721 
4.700000000002385, -0.6870741086561977 
4.710000000002362, -0.6871822474717011 
4.720000000002338, -0.6870753631748394 
4.730000000002315, -0.6867624862071028 
4.740000000002292, -0.6862194887337213 
4.750000000002268, -0.6853872507102007 
4.760000000002245, -0.6841690050994406 
4.770000000002222, -0.6824344057798692 
4.7800000000021985, -0.680043014323496 
4.790000000002175, -0.6768983238760111 
4.800000000002152, -0.6730217417186127 
4.810000000002129, -0.6685991055787042 
4.820000000002105, -0.6639477987372843 
4.830000000002082, -0.6594137624773244 
4.840000000002059, -0.655270197308467 
4.850000000002035, -0.6516745497076303 
4.860000000002012, -0.648680965419043 
4.870000000001989, -0.646275128016538 
4.880000000001965, -0.644406244439242 
4.890000000001942, -0.6430079738385371 
4.900000000001919, -0.6420098396508058 
4.9100000000018955, -0.6413430217047198 
4.920000000001872, -0.6409435126049102 
4.930000000001849, -0.6407541409879517 
