t, s[1].omega / s[0].omega 
0, -0.5999977277992306 
0.009999999999999995, -0.5997803230504581 
0.019999999999999934, -0.5995747658003407 
0.029999999999999874, -0.5993618423826217 
0.04000000000000012, -0.5991189874079998 
0.050000000000000405, -0.5988287478990296 
0.06000000000000069, -0.5984836288223556 
0.07000000000000098, -0.5980867819480491 
0.08000000000000126, -0.5976508272988681 
0.09000000000000155, -0.5971976832195492 
0.10000000000000184, -0.5967613861610082 
0.11000000000000212, -0.5963949954889235 
0.12000000000000241, -0.5961823836169169 
0.130000000000002, -0.5962556952696292 
0.1400000000000009, -0.5968187984540019 
0.1499999999999998, -0.5981749806675516 
0.1599999999999987, -0.6007512548007274 
0.1699999999999976, -0.6050981080538226 
0.1799999999999965, -0.6118193518771652 
0.1899999999999954, -0.621364007106554 
0.1999999999999943, -0.6336512761720567 
0.2099999999999932, -0.6477016456833112 
0.2199999999999921, -0.6617196326275423 
0.229999999999991, -0.6738705255110655 
0.2399999999999899, -0.683162742072535 
0.2499999999999888, -0.6896242377131472 
0.2599999999999877, -0.6938455817528013 
0.2699999999999866, -0.6964982996293009 
0.2799999999999855, -0.6981133564777363 
0.2899999999999844, -0.6990500274193165 
0.2999999999999833, -0.6995321158652088 
0.3099999999999822, -0.6996892611611918 
0.3199999999999811, -0.6995857909666364 
0.32999999999998, -0.6992360827365401 
0.3399999999999789, -0.6986088121640949 
0.3499999999999778, -0.6976225466827756 
0.35999999999997667, -0.6961364573238376 
0.36999999999997557, -0.6939456342228648 
0.37999999999997447, -0.6908019310765949 
0.38999999999997337, -0.6864894359717407 
0.39999999999997227, -0.6809591992851092 
0.40999999999997117, -0.6744514910570778 
0.41999999999997006, -0.667481397054851 
0.42999999999996896, -0.6606587744780676 
0.43999999999996786, -0.6544766868123728 
0.44999999999996676, -0.6492100863751759 
0.45999999999996566, -0.6449357608170742 
0.46999999999996456, -0.6416031669946075 
0.47999999999996346, -0.6390994259475394 
0.48999999999996235, -0.6372907825042147 
0.49999999999996125, -0.6360443425805511 
0.5099999999999602, -0.6352382672281659 
0.519999999999959, -0.6347662810241503 
0.529999999999958, -0.6345394018649999 
0.5399999999999568, -0.6344860237591534 
0.5499999999999557, -0.6345508482904704 
0.5599999999999546, -0.6346931383402163 
0.5699999999999535, -0.6348848610467437 
0.5799999999999524, -0.6351091612193839 
0.5899999999999513, -0.6353590998080295 
0.5999999999999502, -0.6356358037526959 
0.6099999999999491, -0.6359446495522092 
0.619999999999948, -0.6362887070463615 
0.6299999999999469, -0.6366607470535017 
0.6399999999999458, -0.6370375935872588 
0.6499999999999447, -0.6373812259471181 
0.6599999999999436, -0.6376479853388921 
0.6699999999999425, -0.6378016243456519 
0.6799999999999414, -0.6378226964388661 
0.6899999999999403, -0.6377098165652587 
0.6999999999999392, -0.6374746262546406 
0.7099999999999381, -0.6371356567606867 
0.719999999999937, -0.636715242949764 
0.7299999999999359, -0.6362413179702833 
0.7399999999999348, -0.6357548645488372 
0.7499999999999337, -0.6353241913420322 
0.7599999999999326, -0.6350680608342725 
0.7699999999999315, -0.6351896927378989 
0.7799999999999304, -0.636020646930978 
0.7899999999999293, -0.6380633727670564 
0.7999999999999282, -0.641997294656081 
0.8099999999999271, -0.6485738263604904 
0.819999999999926, -0.6583032729676879 
0.8299999999999249, -0.6709449449341075 
0.8399999999999238, -0.6851526921686409 
0.8499999999999227, -0.6988519934116343 
0.8599999999999216, -0.7102952125074948 
0.8699999999999205, -0.7188127522991938 
0.8799999999999194, -0.7246697456493056 
0.8899999999999183, -0.7285067243106298 
0.8999999999999172, -0.7309438820527963 
0.9099999999999161, -0.7324467826310666 
0.919999999999915, -0.7333275502412687 
0.9299999999999139, -0.7337821893769552 
0.9399999999999128, -0.7339251371877168 
0.9499999999999117, -0.7338121701641115 
0.9599999999999106, -0.7334519181183091 
0.9699999999999095, -0.7328077087464646 
0.9799999999999084, -0.7317915225012397 
0.9899999999999073, -0.730253639251041 
0.9999999999999062, -0.7279779657515223 
1.0099999999999052, -0.7247050656866749 
1.019999999999904, -0.720212430222738 
1.029999999999903, -0.7144541258501398 
1.039999999999902, -0.7076835446943883 
1.0499999999999008, -0.7004349495120129 
1.0599999999998997, -0.6933400627917521 
1.0699999999998986, -0.6869150817799059 
1.0799999999998975, -0.6814563264101902 
1.0899999999998964, -0.6770552529586263 
1.0999999999998953, -0.6736656021823941 
1.1099999999998942, -0.671167867001566 
1.119999999999893, -0.6694130668031406 
1.129999999999892, -0.6682483903575727 
1.1399999999998909, -0.667531549816599 
1.1499999999998898, -0.6671385834350759 
1.1599999999998887, -0.6669673378618848 
1.1699999999998876, -0.6669376870646117 
1.1799999999998865, -0.6669894386892629 
1.1899999999998854, -0.6670791084358798 
1.1999999999998843, -0.6671767906414788 
1.2099999999998832, -0.6672639992593887 
1.219999999999882, -0.6673325412715474 
1.229999999999881, -0.6673833808954562 
1.2399999999998799, -0.6674237439547751 
1.2499999999998788, -0.6674614365536259 
1.2599999999998777, -0.6674976950135042 
1.2699999999998766, -0.6675221878337634 
1.2799999999998755, -0.6675136952924873 
1.2899999999998744, -0.667446826277362 
1.2999999999998733, -0.6673010671788743 
1.3099999999998722, -0.6670671198495548 
1.319999999999871, -0.6667482399243958 
1.32999999999987, -0.6663583078503208 
1.3399999999998689, -0.6659201277466412 
1.3499999999998678, -0.6654666424312469 
1.3599999999998666, -0.665046255948336 
1.3699999999998655, -0.6647324838706558 
1.3799999999998644, -0.6646375663672028 
1.3899999999998633, -0.664928810564956 
1.3999999999998622, -0.6658446994725585 
1.4099999999998611, -0.6677047362500167 
1.41999999999986, -0.6709019089928047 
1.429999999999859, -0.675858954781052 
1.4399999999998578, -0.6829219578978767 
1.4499999999998567, -0.6921724897445681 
1.4599999999998556, -0.7031976756315401 
1.4699999999998545, -0.7149813478943625 
1.4799999999998534, -0.7261406007689595 
1.4899999999998523, -0.7354882762168247 
1.4999999999998512, -0.7424987375179734 
1.5099999999998501, -0.7473112783442982 
1.519999999999849, -0.7504050394883351 
1.529999999999848, -0.7522914124800566 
1.5399999999998468, -0.7533715128485247 
1.5499999999998457, -0.7539151109805128 
1.5599999999998446, -0.754085371396026 
1.5699999999998435, -0.753967499933377 
1.5799999999998424, -0.7535873902570077 
1.5899999999998413, -0.7529177654284762 
1.5999999999998402, -0.751871590335861 
1.6099999999998391, -0.7502820352599546 
1.619999999999838, -0.7478694716495957 
1.629999999999837, -0.7442054086894423 
1.6399999999998358, -0.7387116725977755 
1.6499999999998347, -0.7307812161202919 
1.6599999999998336, -0.7201113244750178 
1.6699999999998325, -0.7071522089591575 
1.6799999999998314, -0.6932451780278667 
1.6899999999998303, -0.6801179956530746 
1.6999999999998292, -0.6691017442508962 
1.709999999999828, -0.6607323808101447 
1.719999999999827, -0.6548750221685136 
1.729999999999826, -0.6510540248164757 
1.7399999999998248, -0.6487208905981421 
1.7499999999998237, -0.6473937048445257 
1.7599999999998226, -0.6467024698277507 
1.7699999999998215, -0.6463860233673329 
1.7799999999998204, -0.6462705071231435 
1.7899999999998193, -0.6462446640295499 
1.7999999999998182, -0.6462384412264167 
1.809999999999817, -0.6462069369126953 
1.819999999999816, -0.6461198515594895 
1.8299999999998149, -0.6459560459812965 
1.8399999999998138, -0.6457025960149587 
1.8499999999998127, -0.6453570161882882 
1.8599999999998116, -0.6449298647507963 
1.8699999999998105, -0.6444439646361906 
1.8799999999998094, -0.643928100463254 
1.8899999999998083, -0.6434072802449986 
1.8999999999998072, -0.6428948761435543 
1.909999999999806, -0.6423909269381775 
1.919999999999805, -0.6418867389721077 
1.9299999999998039, -0.641372377795102 
1.9399999999998028, -0.6408430922408509 
1.9499999999998017, -0.6403028186289298 
1.9599999999998006, -0.6397654887648809 
1.9699999999997995, -0.6392560182476517 
1.9799999999997984, -0.6388124437329892 
1.9899999999997973, -0.6384896798025368 
1.9999999999997962, -0.6383645327965938 
2.0099999999998173, -0.6385411019205145 
2.0199999999998384, -0.6391553912957322 
2.0299999999998595, -0.6403776259478817 
2.0399999999998806, -0.6424099699761399 
2.0499999999999017, -0.6454753104221567 
2.059999999999923, -0.6497888248300606 
2.069999999999944, -0.6554995748062188 
2.079999999999965, -0.6625922048854652 
2.089999999999986, -0.6707665855622466 
2.100000000000007, -0.6793758741741243 
2.1100000000000283, -0.6875450228264277 
2.1200000000000494, -0.694485227214179 
2.1300000000000705, -0.6997950549109294 
2.1400000000000916, -0.7035112589733588 
2.1500000000001127, -0.705931630651114 
2.160000000000134, -0.7074086053637159 
2.170000000000155, -0.7082344705384006 
2.180000000000176, -0.7086120037071397 
2.190000000000197, -0.7086642818871361 
2.2000000000002182, -0.7084517228130454 
2.2100000000002393, -0.7079832164671415 
2.2200000000002604, -0.7072174066452178 
2.2300000000002815, -0.7060525485019998 
2.2400000000003026, -0.7043035071606575 
2.2500000000003237, -0.7016669889532386 
2.260000000000345, -0.6976888564745654 
2.270000000000366, -0.6917818343568604 
2.280000000000387, -0.6833903018787367 
2.290000000000408, -0.6723698242513814 
2.3000000000004293, -0.6593962741321232 
2.3100000000004504, -0.6459335671704654 
2.3200000000004715, -0.6335946376987985 
2.3300000000004926, -0.6234414674806121 
2.3400000000005137, -0.6157776551639509 
2.3500000000005348, -0.610370352124999 
2.360000000000556, -0.606759616062692 
2.370000000000577, -0.6044658602226773 
2.380000000000598, -0.6030826120349382 
2.390000000000619, -0.6022995342703327 
2.4000000000006403, -0.6018942385614776 
2.4100000000006614, -0.6017140879053323 
2.4200000000006825, -0.6016574226981615 
2.4300000000007036, -0.6016577455322493 
2.4400000000007247, -0.6016718557139302 
2.450000000000746, -0.6016719634798806 
2.460000000000767, -0.6016414591475058 
2.470000000000788, -0.6015736405660062 
2.480000000000809, -0.601471939756146 
2.49000000000083, -0.6013492705730089 
2.5000000000008513, -0.6012241414646267 
2.5100000000008724, -0.6011131590504677 
2.5200000000008935, -0.6010226685400514 
2.5300000000009146, -0.6009440013761322 
2.5400000000009357, -0.60085541251602 
2.550000000000957, -0.6007299849261738 
2.560000000000978, -0.6005451496877753 
2.570000000000999, -0.6002889426680826 
2.58000000000102, -0.599961196769116 
2.5900000000010412, -0.5995715976914966 
2.6000000000010624, -0.5991379462028689 
2.6100000000010835, -0.5986871833937577 
2.6200000000011046, -0.5982605875640856 
2.6300000000011257, -0.5979241336401346 
2.6400000000011468, -0.5977851906637311 
2.650000000001168, -0.5980167837109742 
2.660000000001189, -0.5988893837955254 
2.67000000000121, -0.6008053746104928 
2.680000000001231, -0.6043187092822606 
2.6900000000012523, -0.6100964728067494 
2.7000000000012734, -0.6187452645316781 
2.7100000000012945, -0.6304355366480828 
2.7200000000013156, -0.644434746401582 
2.7300000000013367, -0.6590054571638249 
2.740000000001358, -0.672097688465618 
2.750000000001379, -0.6823929183935324 
2.7600000000014, -0.6897008309477043 
2.770000000001421, -0.694553203686055 
2.780000000001442, -0.6976508180444718 
2.7900000000014633, -0.699575309728536 
2.8000000000014844, -0.7007305269954207 
2.8100000000015055, -0.7013737679680555 
2.8200000000015266, -0.7016593762684706 
2.8300000000015477, -0.7016711988036755 
2.840000000001569, -0.7014414895603681 
2.85000000000159, -0.7009586468950841 
2.860000000001611, -0.7001663596202876 
2.870000000001632, -0.6989572773313969 
2.8800000000016532, -0.6971679751319598 
2.8900000000016743, -0.6945903421408592 
2.9000000000016954, -0.6910229119316877 
2.9100000000017165, -0.6863741523650413 
2.9200000000017377, -0.6807764027988434 
2.9300000000017588, -0.6746120841523332 
2.94000000000178, -0.6683967383430944 
2.950000000001801, -0.6625975180267983 
2.960000000001822, -0.65751617453306 
2.970000000001843, -0.6532781881568245 
2.9800000000018643, -0.6498824686248852 
2.9900000000018854, -0.6472579312747516 
3.0000000000019065, -0.6453033713618963 
3.0100000000019276, -0.6439097565500369 
3.0200000000019487, -0.6429713077480591 
3.03000000000197, -0.642391000938471 
3.040000000001991, -0.642083555974964 
3.050000000002012, -0.6419770430924853 
3.060000000002033, -0.6420133746789005 
3.070000000002054, -0.6421478541251655 
3.0800000000020753, -0.6423481510707376 
3.0900000000020964, -0.6425931568179675 
3.1000000000021175, -0.6428718929692464 
3.1100000000021386, -0.6431819808055288 
3.1200000000021597, -0.6435265091813843 
3.130000000002181, -0.6439082738116506 
3.140000000002202, -0.6443219535381376 
3.150000000002223, -0.6447473274464885 
3.160000000002244, -0.6451481365601163 
3.1700000000022652, -0.6454793343276017 
3.1800000000022863, -0.6457001017436585 
3.1900000000023074, -0.6457852690637741 
3.2000000000023285, -0.6457289708512121 
3.2100000000023496, -0.6455406319792714 
3.2200000000023707, -0.6452382337695386 
3.230000000002392, -0.6448437933711383 
3.240000000002413, -0.6443835383687258 
3.250000000002434, -0.6438936454938327 
3.260000000002455, -0.6434324530053513 
3.2700000000024763, -0.6431009077121329 
3.2800000000024974, -0.6430733954814298 
3.2900000000025185, -0.6436392217898705 
3.3000000000025396, -0.6452475104930321 
3.3100000000025607, -0.6485295226303089 
3.3200000000025818, -0.6542379017914299 
3.330000000002603, -0.6630087262168474 
3.340000000002624, -0.6749018935940098 
3.350000000002645, -0.6889386648132748 
3.360000000002666, -0.7031884899880942 
3.3700000000026873, -0.7156631835577968 
3.3800000000027084, -0.7252855116937609 
3.3900000000027295, -0.7320497313235614 
3.4000000000027506, -0.7365292125605243 
3.4100000000027717, -0.7393872647286599 
3.420000000002793, -0.7411568070063159 
3.430000000002814, -0.742206109861069 
3.440000000002835, -0.7427702941361338 
3.450000000002856, -0.7429896450442484 
3.460000000002877, -0.7429374747524307 
3.4700000000028983, -0.7426355987456018 
3.4800000000029194, -0.7420588993271701 
3.4900000000029405, -0.7411305289174592 
3.5000000000029616, -0.7397100933051479 
3.5100000000029827, -0.737581893984038 
3.520000000003004, -0.7344620835503506 
3.530000000003025, -0.730058532261055 
3.540000000003046, -0.7242091170743337 
3.550000000003067, -0.7170535584551361 
3.5600000000030882, -0.7090977882771315 
3.5700000000031094, -0.7010664219030865 
3.5800000000031305, -0.693636691780638 
3.5900000000031516, -0.6872502611681636 
3.6000000000031727, -0.6820829133332262 
3.6100000000031938, -0.6781127452628666 
3.620000000003215, -0.6752057138989865 
3.630000000003236, -0.6731801585083523 
3.640000000003257, -0.671846368451009 
3.650000000003278, -0.6710285373172211 
3.6600000000032993, -0.6705758385914157 
3.6700000000033204, -0.6703665113292324 
3.6800000000033415, -0.6703071739510599 
3.6900000000033626, -0.6703291363362134 
3.7000000000033837, -0.6703834519990448 
3.710000000003405, -0.670436297159688 
3.720000000003426, -0.6704658072603166 
3.730000000003447, -0.6704606836580496 
3.740000000003468, -0.6704197108874614 
3.750000000003489, -0.670350250037765 
3.7600000000035103, -0.67026389177117 
3.7700000000035314, -0.6701694986584898 
3.7800000000035525, -0.6700666651558657 
3.7900000000035736, -0.6699435736356592 
3.8000000000035947, -0.6697809739627526 
3.810000000003616, -0.6695600743173034 
3.820000000003637, -0.6692697861463471 
3.830000000003658, -0.6689100946133132 
3.840000000003679, -0.6684918590353212 
3.8500000000037002, -0.668035768086974 
3.8600000000037213, -0.6675731378440748 
3.8700000000037424, -0.6671499279349309 
3.8800000000037635, -0.666834141096544 
3.8900000000037847, -0.6667259492499895 
3.9000000000038058, -0.6669690939133002 
3.910000000003827, -0.6677610108240464 
3.920000000003848, -0.6693575443621053 
3.930000000003869, -0.6720656779088491 
3.94000000000389, -0.676213701808683 
3.9500000000039113, -0.6820830632169176 
3.9600000000039324, -0.6897863937105864 
3.9700000000039535, -0.6991017663228172 
3.9800000000039746, -0.7093463298374719 
3.9900000000039957, -0.7194513599144716 
4.000000000004016, -0.7283238407004531 
4.010000000003993, -0.7352879763057132 
4.02000000000397, -0.7402526559128055 
4.030000000003946, -0.7435340563328714 
4.040000000003923, -0.7455749077194815 
4.0500000000039, -0.74676465309345 
4.0600000000038765, -0.7473826239428166 
4.070000000003853, -0.747605425037719 
4.08000000000383, -0.7475305202136204 
4.090000000003807, -0.7471950720917071 
4.100000000003783, -0.7465841683587409 
4.11000000000376, -0.7456271983797157 
4.120000000003737, -0.7441812925625856 
4.130000000003713, -0.7420008042655895 
4.14000000000369, -0.7386971287303148 
4.150000000003667, -0.7337139156315651 
4.1600000000036434, -0.7263896378905438 
4.17000000000362, -0.7162228662439035 
4.180000000003597, -0.7033540797124708 
4.1900000000035735, -0.6889201998809145 
4.20000000000355, -0.6747557470616207 
4.210000000003527, -0.6625280912031238 
4.220000000003504, -0.6530808490353752 
4.23000000000348, -0.6464183775248802 
4.240000000003457, -0.6420639261326004 
4.250000000003434, -0.6394066790523272 
4.26000000000341, -0.6378956367291879 
4.270000000003387, -0.6371065455228715 
4.280000000003364, -0.6367418408306125 
4.2900000000033405, -0.6366054678695978 
4.300000000003317, -0.6365735880878549 
4.310000000003294, -0.6365695137926918 
4.320000000003271, -0.6365451080956036 
4.330000000003247, -0.6364684912445411 
4.340000000003224, -0.6363173128851385 
4.350000000003201, -0.6360768536596221 
4.360000000003177, -0.6357418449547707 
4.370000000003154, -0.6353196308117515 
4.380000000003131, -0.6348309219931287 
4.390000000003107, -0.6343050805109053 
4.400000000003084, -0.6337706656414738 
4.410000000003061, -0.633246089090144 
4.4200000000030375, -0.6327355900293132 
4.430000000003014, -0.6322321068926003 
4.440000000002991, -0.6317244580975883 
4.450000000002968, -0.6312046285700312 
4.460000000002944, -0.630672385606468 
4.470000000002921, -0.6301371608111885 
4.480000000002898, -0.6296189156818547 
4.490000000002874, -0.6291497884783104 
4.500000000002851, -0.6287774464332359 
4.510000000002828, -0.6285701659358239 
4.520000000002804, -0.6286230651342695 
4.530000000002781, -0.6290645212128719 
4.540000000002758, -0.6300613887901921 
4.5500000000027345, -0.6318208143528193 
4.560000000002711, -0.6345844878764433 
4.570000000002688, -0.6386071426395549 
4.580000000002665, -0.6441052681286685 
4.590000000002641, -0.6511601074019941 
4.600000000002618, -0.6595786618630496 
4.610000000002595, -0.6687792411310522 
4.620000000002571, -0.6778427345976005 
4.630000000002548, -0.6858154424606304 
4.640000000002525, -0.6920959682891756 
4.6500000000025015, -0.696593102827856 
4.660000000002478, -0.6995787067166884 
4.670000000002455, -0.7014419935784482 
4.6800000000024315, -0.7025285185730343 
4.690000000002408, -0.7030874033689718 
4.700000000002385, -0.7032761748482301 
4.710000000002362, -0.7031805748381248 
4.720000000002338, -0.7028302978087144 
4.730000000002315, -0.7022050109461959 
4.740000000002292, -0.7012292305425049 
4.750000000002268, -0.699755139725571 
4.760000000002245, -0.6975339360713344 
4.770000000002222, -0.6941851329013728 
4.7800000000021985, -0.6891989298854777 
4.790000000002175, -0.6820480692869278 
4.800000000002152, -0.6724823568585462 
4.810000000002129, -0.6609058133706103 
4.820000000002105, -0.6484669689072265 
4.830000000002082, -0.6366154491922548 
4.840000000002059, -0.6264645668560194 
4.850000000002035, -0.6184881508082714 
4.860000000002012, -0.6126273218251509 
4.870000000001989, -0.6085460051009839 
4.880000000001965, -0.6058341176527533 
4.890000000001942, -0.6041144392917156 
4.900000000001919, -0.6030811427861291 
4.9100000000018955, -0.6025034790900677 
4.920000000001872, -0.6022154644543829 
