t, s[1].omega / s[0].omega 
0, -1.3401605697751067 
0.009999999999999995, -1.354610909617517 
0.019999999999999934, -1.3648855331109084 
0.029999999999999874, -1.3712298586877885 
0.04000000000000012, -1.374791261745362 
0.050000000000000405, -1.3766219765392953 
0.06000000000000069, -1.3774287067980402 
0.07000000000000098, -1.3776263767028265 
0.08000000000000126, -1.3774475268117574 
0.09000000000000155, -1.377037693354303 
0.10000000000000184, -1.3765348395547348 
0.11000000000000212, -1.376127475208746 
0.12000000000000241, -1.3760462035759757 
0.130000000000002, -1.376453123598815 
0.1400000000000009, -1.3773249233758529 
0.1499999999999998, -1.3784767401847984 
0.1599999999999987, -1.37968791468175 
0.1699999999999976, -1.3807887251302935 
0.1799999999999965, -1.3816744871117268 
0.1899999999999954, -1.3822889445094932 
0.1999999999999943, -1.3826058450355823 
0.2099999999999932, -1.3826160897856998 
0.2199999999999921, -1.38232068449599 
0.229999999999991, -1.3817281588628765 
0.2399999999999899, -1.3808554420111174 
0.2499999999999888, -1.3797323418329195 
0.2599999999999877, -1.3784100167403137 
0.2699999999999866, -1.3769723165755745 
0.2799999999999855, -1.37554610712681 
0.2899999999999844, -1.3742980616087919 
0.2999999999999833, -1.3733900234762426 
0.3099999999999822, -1.3728880325463184 
0.3199999999999811, -1.3727054224303825 
0.32999999999998, -1.3726580011615197 
0.3399999999999789, -1.3725641990425694 
0.3499999999999778, -1.3722823617632391 
0.35999999999997667, -1.371677525572705 
0.36999999999997557, -1.370558325438259 
0.37999999999997447, -1.3686031460013344 
0.38999999999997337, -1.3652824065546922 
0.39999999999997227, -1.3598164713096872 
0.40999999999997117, -1.3512978860556313 
0.41999999999997006, -1.3392179934288957 
0.42999999999996896, -1.3245156872556405 
0.43999999999996786, -1.3103564674452404 
0.44999999999996676, -1.3007281172775167 
0.45999999999996566, -1.297099753727546 
0.46999999999996456, -1.2975269351913803 
0.47999999999996346, -1.2992849108231312 
0.48999999999996235, -1.3008591808939058 
0.49999999999996125, -1.301847383817901 
0.5099999999999602, -1.3022946723640563 
0.519999999999959, -1.3023157051514587 
0.529999999999958, -1.3019733604385593 
0.5399999999999568, -1.3012572075060913 
0.5499999999999557, -1.3000973879433197 
0.5599999999999546, -1.2984374677679906 
0.5699999999999535, -1.2964734316320718 
0.5799999999999524, -1.2951571471256582 
0.5899999999999513, -1.2965711515057332 
0.5999999999999502, -1.302925728084703 
0.6099999999999491, -1.3141687577558123 
0.619999999999948, -1.3274136517791402 
0.6299999999999469, -1.3393594181420805 
0.6399999999999458, -1.3483370516541426 
0.6499999999999447, -1.3542816498991936 
0.6599999999999436, -1.3578595658570523 
0.6699999999999425, -1.3598250077978489 
0.6799999999999414, -1.360764314152755 
0.6899999999999403, -1.3610640717681246 
0.6999999999999392, -1.360960690547188 
0.7099999999999381, -1.360605541113078 
0.719999999999937, -1.360126751062555 
0.7299999999999359, -1.3596767376395307 
0.7399999999999348, -1.3594353738742613 
0.7499999999999337, -1.3595434715262926 
0.7599999999999326, -1.3600193974872623 
0.7699999999999315, -1.3607568344068122 
0.7799999999999304, -1.3615993210669208 
0.7899999999999293, -1.3624055290980643 
0.7999999999999282, -1.3630712502448188 
0.8099999999999271, -1.3635272657685533 
0.819999999999926, -1.3637304938512569 
0.8299999999999249, -1.3636550262924136 
0.8399999999999238, -1.3632859598437164 
0.8499999999999227, -1.3626167132321627 
0.8599999999999216, -1.361649442817496 
0.8699999999999205, -1.3603988309014068 
0.8799999999999194, -1.3589004012778927 
0.8899999999999183, -1.3572241026373966 
0.8999999999999172, -1.3554912055978994 
0.9099999999999161, -1.353882995475575 
0.919999999999915, -1.3526093875882323 
0.9299999999999139, -1.3518112600891654 
0.9399999999999128, -1.3514593933513148 
0.9499999999999117, -1.3513716942059388 
0.9599999999999106, -1.3513323999355633 
0.9699999999999095, -1.3511737630302474 
0.9799999999999084, -1.350766588835128 
0.9899999999999073, -1.3499620773763903 
0.9999999999999062, -1.3485192283657423 
1.0099999999999052, -1.3460217387243045 
1.019999999999904, -1.341795348157187 
1.029999999999903, -1.3349006226594518 
1.039999999999902, -1.3244060649247689 
1.0499999999999008, -1.3102269065238086 
1.0599999999998997, -1.2943580128070438 
1.0699999999998986, -1.2809397844774597 
1.0799999999998975, -1.2734892643340738 
1.0899999999998964, -1.2718735517043853 
1.0999999999998953, -1.2732952651257392 
1.1099999999998942, -1.2752893787243125 
1.119999999999893, -1.276808264142781 
1.129999999999892, -1.277689144272192 
1.1399999999998909, -1.2780446584878062 
1.1499999999998898, -1.2779927942051568 
1.1599999999998887, -1.2775847557502265 
1.1699999999998876, -1.2767981600905522 
1.1799999999998865, -1.2755569071680972 
1.1899999999998854, -1.2738147329715894 
1.1999999999998843, -1.2718139369623795 
1.2099999999998832, -1.2705971202988031 
1.219999999999882, -1.2723279599100352 
1.229999999999881, -1.2791976968947156 
1.2399999999998799, -1.291050267146068 
1.2499999999998788, -1.3048899555397608 
1.2599999999998777, -1.3173249141786971 
1.2699999999998766, -1.3266399298069937 
1.2799999999998755, -1.3327841859993197 
1.2899999999998744, -1.336469174831939 
1.2999999999998733, -1.3384911904594239 
1.3099999999998722, -1.3394631391220506 
1.319999999999871, -1.3397848299426696 
1.32999999999987, -1.3396976246889498 
1.3399999999998689, -1.3393529105102568 
1.3499999999998678, -1.3388762854719363 
1.3599999999998666, -1.3384202729881673 
1.3699999999998655, -1.3381773903536822 
1.3799999999998644, -1.338317736327372 
1.3899999999998633, -1.3388880482788306 
1.3999999999998622, -1.3397851369630513 
1.4099999999998611, -1.3408314281998357 
1.41999999999986, -1.3418603385533396 
1.429999999999859, -1.3427512096436138 
1.4399999999998578, -1.3434280412511364 
1.4499999999998567, -1.343847634605416 
1.4599999999998556, -1.3439881528057167 
1.4699999999998545, -1.3438412417746792 
1.4799999999998534, -1.3434080464923492 
1.4899999999998523, -1.3426984047102444 
1.4999999999998512, -1.3417328705607021 
1.5099999999998501, -1.3405479083720238 
1.519999999999849, -1.3392040316268305 
1.529999999999848, -1.3377946620286323 
1.5399999999998468, -1.336450455238747 
1.5499999999998457, -1.3353259879841304 
1.5599999999998446, -1.3345488611499667 
1.5699999999998435, -1.3341439688176286 
1.5799999999998424, -1.3340066919834184 
1.5899999999998413, -1.3339647150096325 
1.5999999999998402, -1.3338569645387315 
1.6099999999998391, -1.3335546587132427 
1.619999999999838, -1.3329292032678857 
1.629999999999837, -1.3318002603949055 
1.6399999999998358, -1.3298812233418071 
1.6499999999998347, -1.326734416879682 
1.6599999999998336, -1.3217714742793027 
1.6699999999998325, -1.3143772868581256 
1.6799999999998314, -1.304264305120535 
1.6899999999998303, -1.2920733337983914 
1.6999999999998292, -1.2798365369350224 
1.709999999999828, -1.270372850165566 
1.719999999999827, -1.2653709127672743 
1.729999999999826, -1.264169059548368 
1.7399999999998248, -1.264852718692155 
1.7499999999998237, -1.2659195049801477 
1.7599999999998226, -1.2667239702995436 
1.7699999999998215, -1.2671305396488777 
1.7799999999998204, -1.2671657232160094 
1.7899999999998193, -1.2668544046916075 
1.7999999999998182, -1.2661610887754895 
1.809999999999817, -1.264965839152603 
1.819999999999816, -1.2630638716607783 
1.8299999999998149, -1.2602568604309041 
1.8399999999998138, -1.2567246093478397 
1.8499999999998127, -1.2538450860826593 
1.8599999999998116, -1.2547883451937776 
1.8699999999998105, -1.2628214747967041 
1.8799999999998094, -1.277499596702413 
1.8899999999998083, -1.294156018053426 
1.8999999999998072, -1.3081465146446085 
1.909999999999806, -1.3177775826313256 
1.919999999999805, -1.323607971292114 
1.9299999999998039, -1.3268388677667224 
1.9399999999998028, -1.3284799785423904 
1.9499999999998017, -1.3291845595532548 
1.9599999999998006, -1.3293277114383604 
1.9699999999997995, -1.329116064945571 
1.9799999999997984, -1.3286785236158667 
1.9899999999997973, -1.3281450603677434 
1.9999999999997962, -1.3277152974045794 
2.0099999999998173, -1.3276701745772148 
2.0199999999998384, -1.328258290349622 
2.0299999999998595, -1.329518823465365 
2.0399999999998806, -1.3312451974291037 
2.0499999999999017, -1.333131149058237 
2.059999999999923, -1.334920755267371 
2.069999999999944, -1.3364561480789852 
2.079999999999965, -1.3376592716379616 
2.089999999999986, -1.33850189858422 
2.100000000000007, -1.3389843975778597 
2.1100000000000283, -1.3391242005817348 
2.1200000000000494, -1.3389501214471475 
2.1300000000000705, -1.3384996118396835 
2.1400000000000916, -1.3378186822428295 
2.1500000000001127, -1.3369652619829966 
2.160000000000134, -1.3360140042560693 
2.170000000000155, -1.3350568023357492 
2.180000000000176, -1.3341948946999225 
2.190000000000197, -1.3335223112233432 
2.2000000000002182, -1.3330977423692973 
2.2100000000002393, -1.332910557233028 
2.2200000000002604, -1.3328733062193638 
2.2300000000002815, -1.3328582508861146 
2.2400000000003026, -1.3327408370001792 
2.2500000000003237, -1.3324099847475135 
2.260000000000345, -1.331747702443254 
2.270000000000366, -1.3306004623128862 
2.280000000000387, -1.3287597799314796 
2.290000000000408, -1.3259651407604607 
2.3000000000004293, -1.321943165929525 
2.3100000000004504, -1.3164975942320585 
2.3200000000004715, -1.30966427834689 
2.3300000000004926, -1.3019237702825641 
2.3400000000005137, -1.294346996390495 
2.3500000000005348, -1.2883432498173701 
2.360000000000556, -1.284843262486947 
2.370000000000577, -1.2836347460324882 
2.380000000000598, -1.2837251371129006 
2.390000000000619, -1.2841959515896664 
2.4000000000006403, -1.2845679844321982 
2.4100000000006614, -1.284680359258974 
2.4200000000006825, -1.2844892152931686 
2.4300000000007036, -1.283943913296861 
2.4400000000007247, -1.2829184027360088 
2.450000000000746, -1.281155441059831 
2.460000000000767, -1.278221782974517 
2.470000000000788, -1.2735722852584705 
2.480000000000809, -1.2670241599463248 
2.49000000000083, -1.259982893863458 
2.5000000000008513, -1.2565032504635796 
2.5100000000008724, -1.2610490444762927 
2.5200000000008935, -1.2732894959416867 
2.5300000000009146, -1.287789454456678 
2.5400000000009357, -1.2996305100126633 
2.550000000000957, -1.3074114960333418 
2.560000000000978, -1.3119072732184143 
2.570000000000999, -1.3142864545679407 
2.58000000000102, -1.3154173613054527 
2.5900000000010412, -1.31581714348822 
2.6000000000010624, -1.3157634740209416 
2.6100000000010835, -1.3154013357786218 
2.6200000000011046, -1.3148293249445593 
2.6300000000011257, -1.3141899550104887 
2.6400000000011468, -1.3137669840161723 
2.650000000001168, -1.3140043526272245 
2.660000000001189, -1.3153065142739453 
2.67000000000121, -1.3177132031504741 
2.680000000001231, -1.320832996131457 
2.6900000000012523, -1.3241200743730892 
2.7000000000012734, -1.327148284887356 
2.7100000000012945, -1.3296846236616877 
2.7200000000013156, -1.3316426741147391 
2.7300000000013367, -1.333022487607532 
2.740000000001358, -1.3338711864282982 
2.750000000001379, -1.3342600123329051 
2.7600000000014, -1.3342691614477364 
2.770000000001421, -1.3339782691832036 
2.780000000001442, -1.3334647306523078 
2.7900000000014633, -1.3328098520825855 
2.8000000000014844, -1.3321057309307713 
2.8100000000015055, -1.331451015627992 
2.8200000000015266, -1.3309321735194317 
2.8300000000015477, -1.3306029148444969 
2.840000000001569, -1.3304721366232313 
2.85000000000159, -1.3304985141329733 
2.860000000001611, -1.3305971550846567 
2.870000000001632, -1.3306636010398494 
2.8800000000016532, -1.330597807929586 
2.8900000000016743, -1.3303093125799526 
2.9000000000016954, -1.3297072878292513 
2.9100000000017165, -1.3286905212532962 
2.9200000000017377, -1.3271475929769392 
2.9300000000017588, -1.3249695876769436 
2.94000000000178, -1.3220734484989187 
2.950000000001801, -1.3184367332704734 
2.960000000001822, -1.3141522669004497 
2.970000000001843, -1.3095072396147618 
2.9800000000018643, -1.305041941069485 
2.9900000000018854, -1.301450373664898 
3.0000000000019065, -1.2992253469393882 
3.0100000000019276, -1.2983132412976819 
3.0200000000019487, -1.2982126821599005 
3.03000000000197, -1.2983868470368647 
3.040000000001991, -1.2985052159215131 
3.050000000002012, -1.2984165821867473 
3.060000000002033, -1.298035334819675 
3.070000000002054, -1.2972459144341622 
3.0800000000020753, -1.2958230758659461 
3.0900000000020964, -1.29333947812137 
3.1000000000021175, -1.289062770417943 
3.1100000000021386, -1.2819624288088296 
3.1200000000021597, -1.2712167433904742 
3.130000000002181, -1.2577161241759622 
3.140000000002202, -1.2456308373376865 
3.150000000002223, -1.2404761005562348 
3.160000000002244, -1.2436071105255677 
3.1700000000022652, -1.251034625855094 
3.1800000000022863, -1.2582518972974275 
3.1900000000023074, -1.2633724929776988 
3.2000000000023285, -1.2664528462434572 
3.2100000000023496, -1.268106164612801 
3.2200000000023707, -1.2688641073586406 
3.230000000002392, -1.2690586070312595 
3.240000000002413, -1.2688637179185533 
3.250000000002434, -1.2683557513520738 
3.260000000002455, -1.267573780455185 
3.2700000000024763, -1.2666118592686888 
3.2800000000024974, -1.2657825292461664 
3.2900000000025185, -1.2657974847412248 
3.3000000000025396, -1.2676679198628997 
3.3100000000025607, -1.2720459054588038 
3.3200000000025818, -1.2785364355763655 
3.330000000002603, -1.2858923698312117 
3.340000000002624, -1.2928368934609331 
3.350000000002645, -1.2985932544369108 
3.360000000002666, -1.3029081370371065 
3.3700000000026873, -1.3058661744784323 
3.3800000000027084, -1.3077090259282766 
3.3900000000027295, -1.3087121662283043 
3.4000000000027506, -1.3091172204148966 
3.4100000000027717, -1.3091087924824145 
3.420000000002793, -1.3088220581136811 
3.430000000002814, -1.3083676108030622 
3.440000000002835, -1.3078600716241173 
3.450000000002856, -1.3074308671793822 
3.460000000002877, -1.3072046841720555 
3.4700000000028983, -1.3072495159900854 
3.4800000000029194, -1.307548895788511 
3.4900000000029405, -1.3080222672600146 
3.5000000000029616, -1.3085643725073501 
3.5100000000029827, -1.3090730494742506 
3.520000000003004, -1.3094628067608087 
3.530000000003025, -1.309668872149461 
3.540000000003046, -1.3096446921297829 
3.550000000003067, -1.3093573520294226 
3.5600000000030882, -1.3087846195528035 
3.5700000000031094, -1.307914333709133 
3.5800000000031305, -1.3067457493898986 
3.5900000000031516, -1.305293514382142 
3.6000000000031727, -1.3035959039847658 
3.6100000000031938, -1.3017281610618778 
3.620000000003215, -1.2998182188045622 
3.630000000003236, -1.298052163938821 
3.640000000003257, -1.2966405969665078 
3.650000000003278, -1.2957266880831484 
3.6600000000032993, -1.295292318545664 
3.6700000000033204, -1.2951676957625506 
3.6800000000033415, -1.2951388940681325 
3.6900000000033626, -1.2950338664746976 
3.7000000000033837, -1.2947270486470526 
3.710000000003405, -1.2940941136649504 
3.720000000003426, -1.29295353628769 
3.730000000003447, -1.2910050211592317 
3.740000000003468, -1.2877715255807056 
3.750000000003489, -1.2825822125948303 
3.7600000000035103, -1.2746931149037235 
3.7700000000035314, -1.263686698060955 
3.7800000000035525, -1.2501754032328563 
3.7900000000035736, -1.2363503162271496 
3.8000000000035947, -1.2253458447365895 
3.810000000003616, -1.2191860375673047 
3.820000000003637, -1.2173834499703584 
3.830000000003658, -1.217936373613035 
3.840000000003679, -1.219118217572484 
3.8500000000037002, -1.220106798958333 
3.8600000000037213, -1.22068995767255 
3.8700000000037424, -1.220883192774571 
3.8800000000037635, -1.2207299610503275 
3.8900000000037847, -1.2202273971469777 
3.9000000000038058, -1.2192968951868257 
3.910000000003827, -1.2177654846991561 
3.920000000003848, -1.215373950059697 
3.930000000003869, -1.211907379711731 
3.94000000000389, -1.2076547959648118 
3.9500000000039113, -1.2042823739628874 
3.9600000000039324, -1.2052088093934885 
3.9700000000039535, -1.2135124180446482 
3.9800000000039746, -1.2282683199640352 
3.9900000000039957, -1.244623100404763 
4.000000000004016, -1.2581130497725945 
4.010000000003993, -1.2672721043230486 
4.02000000000397, -1.272763373057415 
4.030000000003946, -1.2757889893915002 
4.040000000003923, -1.2773204039129764 
4.0500000000039, -1.2779718945040788 
4.0600000000038765, -1.2780893959045365 
4.070000000003853, -1.2778574389783677 
4.08000000000383, -1.2773838836245224 
4.090000000003807, -1.276777028124677 
4.100000000003783, -1.276231462353043 
4.11000000000376, -1.2760912612564925 
4.120000000003737, -1.2767815574749681 
4.130000000003713, -1.2785553213164982 
4.14000000000369, -1.2812752820398268 
4.150000000003667, -1.2844975847736393 
4.1600000000036434, -1.287741462518339 
4.17000000000362, -1.2906651667646363 
4.180000000003597, -1.2930870795257794 
4.1900000000035735, -1.2949410144720181 
4.20000000000355, -1.2962322800186807 
4.210000000003527, -1.297009249261428 
4.220000000003504, -1.2973442659778094 
4.23000000000348, -1.2973186507506955 
4.240000000003457, -1.2970129551518261 
4.250000000003434, -1.2965058266825755 
4.26000000000341, -1.2958807366553928 
4.270000000003387, -1.295232176013737 
4.280000000003364, -1.2946589715832704 
4.2900000000033405, -1.2942423713890467 
4.300000000003317, -1.2940241896882334 
4.310000000003294, -1.2939987215296846 
4.320000000003271, -1.2941157856907852 
4.330000000003247, -1.2942922639676953 
4.340000000003224, -1.294432602434791 
4.350000000003201, -1.2944476061004433 
4.360000000003177, -1.2942600006712113 
4.370000000003154, -1.293799662646868 
4.380000000003131, -1.2929990820466726 
4.390000000003107, -1.291795325675177 
4.400000000003084, -1.2901379122535788 
4.410000000003061, -1.2879994575323637 
4.4200000000030375, -1.2853890864972208 
4.430000000003014, -1.2823737134605024 
4.440000000002991, -1.279111657823425 
4.450000000002968, -1.2758862424034736 
4.460000000002944, -1.2730885485343424 
4.470000000002921, -1.271081518155214 
4.480000000002898, -1.2699873271643964 
4.490000000002874, -1.269609528654729 
4.500000000002851, -1.269594735362339 
4.510000000002828, -1.2696405659245549 
4.520000000002804, -1.269563472454272 
4.530000000002781, -1.2692517925082611 
4.540000000002758, -1.268590826995321 
4.5500000000027345, -1.2673905396815766 
4.560000000002711, -1.265305587566918 
4.570000000002688, -1.2617392596977697 
4.580000000002665, -1.2557723673489432 
4.590000000002641, -1.2462844119262515 
4.600000000002618, -1.2325947300971896 
4.610000000002595, -1.2157470914488882 
4.620000000002571, -1.1993541787109767 
4.630000000002548, -1.1879080789139118 
4.640000000002525, -1.1832357767101973 
4.6500000000025015, -1.1834995279294191 
4.660000000002478, -1.1857049838139468 
4.670000000002455, -1.1879255076732123 
4.6800000000024315, -1.189503398034097 
4.690000000002408, -1.190416486515895 
4.700000000002385, -1.190808383083834 
4.710000000002362, -1.1908014413178036 
4.720000000002338, -1.190449658128712 
4.730000000002315, -1.1897328848026416 
4.740000000002292, -1.188559629908863 
4.750000000002268, -1.1867915177481856 
4.760000000002245, -1.1843569855821552 
4.770000000002222, -1.1815872428234395 
4.7800000000021985, -1.1798222157117952 
4.790000000002175, -1.1817123775355733 
4.800000000002152, -1.189881302929728 
4.810000000002129, -1.204149339045182 
4.820000000002105, -1.2208222541260363 
4.830000000002082, -1.2356026683089651 
4.840000000002059, -1.2463720840163768 
4.850000000002035, -1.2532319778708112 
4.860000000002012, -1.2572152303198254 
4.870000000001989, -1.2593551968187995 
4.880000000001965, -1.2603828861710313 
4.890000000001942, -1.260741374001343 
4.900000000001919, -1.260678674633357 
4.9100000000018955, -1.2603337832364203 
4.920000000001872, -1.259808884204113 
4.930000000001849, -1.2592420553645214 
4.940000000001826, -1.258875816001 
