t, s[1].omega / s[0].omega 
0, -1.5899873999658016 
0.009999999999999995, -1.588441651704912 
0.019999999999999934, -1.5863305019116878 
0.029999999999999874, -1.5836543706978095 
0.04000000000000012, -1.5804134090829536 
0.050000000000000405, -1.5766075395052817 
0.06000000000000069, -1.5722365074323006 
0.07000000000000098, -1.5672999443253335 
0.08000000000000126, -1.5617974422410519 
0.09000000000000155, -1.5557286403548845 
0.10000000000000184, -1.5490933236675364 
0.11000000000000212, -1.5418915341152224 
0.12000000000000241, -1.534123694258536 
0.130000000000002, -1.525790743688219 
0.1400000000000009, -1.5168942882729142 
0.1499999999999998, -1.5074367623947496 
0.1599999999999987, -1.49742160437621 
0.1699999999999976, -1.486853445385303 
0.1799999999999965, -1.4757383121872503 
0.1899999999999954, -1.464083844139741 
0.1999999999999943, -1.4518995247333322 
0.2099999999999932, -1.439196927668436 
0.2199999999999921, -1.4259899768352235 
0.229999999999991, -1.412295218527029 
0.2399999999999899, -1.3981321026987696 
0.2499999999999888, -1.3835232680525102 
0.2599999999999877, -1.3684948232320784 
0.2699999999999866, -1.3530766135614025 
0.2799999999999855, -1.337302459783128 
0.2899999999999844, -1.3212103524497603 
0.2999999999999833, -1.3048425833623039 
0.3099999999999822, -1.288245794147556 
0.3199999999999811, -1.2714709221053984 
0.32999999999998, -1.2545730251579144 
0.3399999999999789, -1.2376109712762666 
0.3499999999999778, -1.2206469831485351 
0.35999999999997667, -1.2037460358661267 
0.36999999999997557, -1.1869751136109676 
0.37999999999997447, -1.1704023400910122 
0.38999999999997337, -1.154096006035299 
0.39999999999997227, -1.1381235246146517 
0.40999999999997117, -1.1225503514488802 
0.41999999999997006, -1.1074389093021433 
0.42999999999996896, -1.0928475582985753 
0.43999999999996786, -1.0788296504405517 
0.44999999999996676, -1.065432702603297 
0.45999999999996566, -1.0526977154881558 
0.46999999999996456, -1.0406586579016932 
0.47999999999996346, -1.0293421269380236 
0.48999999999996235, -1.0187671859203715 
0.49999999999996125, -1.008945373956688 
0.5099999999999602, -0.9998808741830605 
0.519999999999959, -0.9915708225237295 
0.529999999999958, -0.9840057352173156 
0.5399999999999568, -0.9771700314099513 
0.5499999999999557, -0.9710426266336063 
0.5599999999999546, -0.9655975737244985 
0.5699999999999535, -0.9608047294039386 
0.5799999999999524, -0.9566304270509888 
0.5899999999999513, -0.9530381388761346 
0.5999999999999502, -0.9499891135329505 
0.6099999999999491, -0.9474429780056798 
0.619999999999948, -0.9453582952602465 
0.6299999999999469, -0.9436930715654119 
0.6399999999999458, -0.9424052095379893 
0.6499999999999447, -0.9414529048280499 
0.6599999999999436, -0.9407949859433119 
0.6699999999999425, -0.9403911980348456 
0.6799999999999414, -0.9402024325533327 
0.6899999999999403, -0.9401909055627459 
0.6999999999999392, -0.9403202881918921 
0.7099999999999381, -0.9405557932371403 
0.719999999999937, -0.9408642223224943 
0.7299999999999359, -0.9412139782940901 
0.7399999999999348, -0.9415750476914796 
0.7499999999999337, -0.9419189582121904 
0.7599999999999326, -0.9422187160826391 
0.7699999999999315, -0.9424487281799611 
0.7799999999999304, -0.9425847136273096 
0.7899999999999293, -0.942603609420073 
0.7999999999999282, -0.9424834744410356 
0.8099999999999271, -0.9422033959955903 
0.819999999999926, -0.9417434027480154 
0.8299999999999249, -0.9410843876679408 
0.8399999999999238, -0.9402080443007866 
0.8499999999999227, -0.9390968193522103 
0.8599999999999216, -0.9377338842165086 
0.8699999999999205, -0.9361031276721227 
0.8799999999999194, -0.9341891715018384 
0.8899999999999183, -0.9319774102584721 
0.8999999999999172, -0.9294540757775859 
0.9099999999999161, -0.9266063263289059 
0.919999999999915, -0.9234223594947059 
0.9299999999999139, -0.919891546971125 
0.9399999999999128, -0.9160045885215273 
0.9499999999999117, -0.9117536812952558 
0.9599999999999106, -0.9071326996987255 
0.9699999999999095, -0.9021373800193716 
0.9799999999999084, -0.896765503118113 
0.9899999999999073, -0.8910170677923084 
0.9999999999999062, -0.8848944469413489 
1.0099999999999052, -0.8784025185105773 
1.019999999999904, -0.8715487634048434 
1.029999999999903, -0.8643433231909431 
1.039999999999902, -0.8567990114625178 
1.0499999999999008, -0.8489312742042857 
1.0599999999998997, -0.84075809631245 
1.0699999999998986, -0.8322998535187277 
1.0799999999998975, -0.8235791112109652 
1.0899999999998964, -0.8146203739074972 
1.0999999999998953, -0.8054497912797622 
1.1099999999998942, -0.7960948284872564 
1.119999999999893, -0.786583910067787 
1.129999999999892, -0.7769460476214867 
1.1399999999998909, -0.767210461985148 
1.1499999999998898, -0.757406210503289 
1.1599999999998887, -0.7475618293954746 
1.1699999999998876, -0.7377050001645078 
1.1799999999998865, -0.7278622475842703 
1.1899999999998854, -0.7180586751634482 
1.1999999999998843, -0.7083177422217528 
1.2099999999998832, -0.6986610849525599 
1.219999999999882, -0.6891083821794931 
1.229999999999881, -0.6796772650229892 
1.2399999999998799, -0.6703832684308599 
1.2499999999998788, -0.6612398215245877 
1.2599999999998777, -0.6522582729785898 
1.2699999999998766, -0.6434479471722346 
1.2799999999998755, -0.6348162266095665 
1.2899999999998744, -0.6263686560557147 
1.2999999999998733, -0.6181090639536795 
1.3099999999998722, -0.6100396969217508 
1.319999999999871, -0.6021613634536603 
1.32999999999987, -0.5944735833186144 
1.3399999999998689, -0.5869747395598667 
1.3499999999998678, -0.5796622303977859 
1.3599999999998666, -0.5725326187412494 
1.3699999999998655, -0.5655817773896431 
1.3799999999998644, -0.5588050283607483 
1.3899999999998633, -0.5521972751046985 
1.3999999999998622, -0.545753126660377 
1.4099999999998611, -0.5394670130791237 
1.41999999999986, -0.5333332916829634 
1.429999999999859, -0.5273463439426485 
1.4399999999998578, -0.5215006629563331 
1.4499999999998567, -0.5157909316840469 
1.4599999999998556, -0.5102120922473832 
1.4699999999998545, -0.5047594067386831 
1.4799999999998534, -0.4994285101000094 
1.4899999999998523, -0.49421545572980424 
1.4999999999998512, -0.48911675455484976 
1.5099999999998501, -0.4841294083676634 
1.519999999999849, -0.47925093827575893 
1.529999999999848, -0.4744794091405327 
1.5399999999998468, -0.4698134509015325 
1.5499999999998457, -0.46525227768843275 
1.5599999999998446, -0.460795705620324 
1.5699999999998435, -0.45644417018230415 
1.5799999999998424, -0.45219874405527966 
1.5899999999998413, -0.44806115625885257 
1.5999999999998402, -0.4440338134516334 
1.6099999999998391, -0.4401198242206599 
1.619999999999838, -0.4363230271840566 
1.629999999999837, -0.4326480237306985 
1.6399999999998358, -0.4291002162293514 
1.6499999999998347, -0.4256858525592718 
1.6599999999998336, -0.42241207784611967 
1.6699999999998325, -0.4192869943326697 
1.6799999999998314, -0.4163197303744813 
1.6899999999998303, -0.41352051962754055 
1.6999999999998292, -0.4109007915889739 
1.709999999999828, -0.40847327476410483 
1.719999999999827, -0.40625211386414456 
1.729999999999826, -0.4042530025890897 
1.7399999999998248, -0.40249333372007373 
1.7499999999998237, -0.4009923684339654 
1.7599999999998226, -0.39977142695912476 
1.7699999999998215, -0.3988541029123268 
1.7799999999998204, -0.398266503888575 
1.7899999999998193, -0.3980375211108678 
1.7999999999998182, -0.3981991311753727 
1.809999999999817, -0.39878673313313534 
1.819999999999816, -0.39983952430964387 
1.8299999999998149, -0.4014009183457469 
1.8399999999998138, -0.4035190089017903 
1.8499999999998127, -0.40624708223772915 
1.8599999999998116, -0.4096441813776061 
1.8699999999998105, -0.413775723667478 
1.8799999999998094, -0.4187141720799254 
1.8899999999998083, -0.42453975838941943 
1.8999999999998072, -0.4313412530551882 
1.909999999999806, -0.43921677192889774 
1.919999999999805, -0.448274603274841 
1.9299999999998039, -0.45863402944905196 
1.9399999999998028, -0.47042610519581374 
1.9499999999998017, -0.4837943380219808 
1.9599999999998006, -0.4988951945459346 
1.9699999999997995, -0.5158983291343159 
1.9799999999997984, -0.5349863967696417 
1.9899999999997973, -0.5563542706922182 
1.9999999999997962, -0.5802074377612002 
2.0099999999998173, -0.6067592934287026 
2.0199999999998384, -0.6362270095676478 
2.0299999999998595, -0.6688256126039487 
2.0399999999998806, -0.704759903191409 
2.0499999999999017, -0.7442138962113053 
2.059999999999923, -0.7873375925407243 
2.069999999999944, -0.8342311468616129 
2.079999999999965, -0.8849268985687091 
2.089999999999986, -0.9393702938714175 
2.100000000000007, -0.9974014100861258 
2.1100000000000283, -1.058739492205651 
2.1200000000000494, -1.1229734392705197 
2.1300000000000705, -1.1895612825358997 
2.1400000000000916, -1.2578411321304723 
2.1500000000001127, -1.327054707064385 
2.160000000000134, -1.3963825223609938 
2.170000000000155, -1.4649875061368896 
2.180000000000176, -1.5320618993880821 
2.190000000000197, -1.5968713864751192 
2.2000000000002182, -1.6587908620846161 
2.2100000000002393, -1.7173279441848688 
2.2200000000002604, -1.7721327533169937 
2.2300000000002815, -1.8229948758475878 
2.2400000000003026, -1.8698302079924214 
2.2500000000003237, -1.9126612458231704 
2.260000000000345, -1.9515943851735948 
2.270000000000366, -1.986797185666598 
2.280000000000387, -2.0184776612107713 
2.290000000000408, -2.0468667579007973 
2.3000000000004293, -2.0722044363167034 
2.3100000000004504, -2.094729253238671 
2.3200000000004715, -2.114671030587173 
2.3300000000004926, -2.132246063131068 
2.3400000000005137, -2.1476542974178217 
2.3500000000005348, -2.1610779642030398 
2.360000000000556, -2.1726812288615927 
2.370000000000577, -2.1826105146327266 
2.380000000000598, -2.1909952380755966 
2.390000000000619, -2.1979487681205603 
2.4000000000006403, -2.203569477629874 
2.4100000000006614, -2.2079418001264197 
2.4200000000006825, -2.211137236262594 
2.4300000000007036, -2.213215277016781 
2.4400000000007247, -2.214224225753469 
2.450000000000746, -2.2142019110778155 
2.460000000000767, -2.213176288393725 
2.470000000000788, -2.2111659314362018 
2.480000000000809, -2.2081804167408743 
2.49000000000083, -2.2042206048362156 
2.5000000000008513, -2.19927882266255 
2.5100000000008724, -2.1933389531733396 
2.5200000000008935, -2.1863764412547964 
2.5300000000009146, -2.1783582312153933 
2.5400000000009357, -2.169242661547866 
2.550000000000957, -2.158979358936913 
2.560000000000978, -2.147509196903398 
2.570000000000999, -2.1347644158219214 
2.58000000000102, -2.1206690400207164 
2.5900000000010412, -2.105139772226466 
2.6000000000010624, -2.0880875912444457 
2.6100000000010835, -2.0694203177928894 
2.6200000000011046, -2.049046434438197 
2.6300000000011257, -2.026880433262965 
2.6400000000011468, -2.0028499005053533 
2.650000000001168, -1.9769044108126899 
2.660000000001189, -1.9490260779128146 
2.67000000000121, -1.9192412873257125 
2.680000000001231, -1.8876327362846936 
2.6900000000012523, -1.8543504767673002 
2.7000000000012734, -1.8196202916256907 
2.7100000000012945, -1.7837475586543818 
2.7200000000013156, -1.7471149071092413 
2.7300000000013367, -1.7101725354718715 
2.740000000001358, -1.6734210249458374 
2.750000000001379, -1.637387697400133 
2.7600000000014, -1.6025987533859698 
2.770000000001421, -1.569550267177077 
2.780000000001442, -1.5386813683612526 
2.7900000000014633, -1.5103525335299834 
2.8000000000014844, -1.4848309771371277 
2.8100000000015055, -1.462283938949162 
2.8200000000015266, -1.4427795196891189 
2.8300000000015477, -1.4262938477612999 
2.840000000001569, -1.4127228741009397 
2.85000000000159, -1.4018969743315033 
2.860000000001611, -1.3935966952352759 
2.870000000001632, -1.3875682983536841 
2.8800000000016532, -1.3835381233283248 
2.8900000000016743, -1.3812251457013756 
2.9000000000016954, -1.3803514004781565 
2.9100000000017165, -1.3806501718328936 
2.9200000000017377, -1.3818720143182814 
2.9300000000017588, -1.3837887818820236 
2.94000000000178, -1.3861959091002731 
2.950000000001801, -1.388913224098662 
2.960000000001822, -1.391784582449049 
2.970000000001843, -1.3946766020941699 
2.9800000000018643, -1.397476756223685 
2.9900000000018854, -1.4000910485496252 
3.0000000000019065, -1.4024414576852944 
3.0100000000019276, -1.4044632978754965 
3.0200000000019487, -1.4061026050592484 
3.03000000000197, -1.4073136223057598 
3.040000000001991, -1.4080564283954273 
3.050000000002012, -1.4082947283366818 
3.060000000002033, -1.407993804938046 
3.070000000002054, -1.4071186157877773 
3.0800000000020753, -1.4056320094702455 
3.0900000000020964, -1.4034930278019304 
3.1000000000021175, -1.4006552565461188 
3.1100000000021386, -1.3970651848042412 
3.1200000000021597, -1.3926605325732753 
3.130000000002181, -1.3873685064756973 
3.140000000002202, -1.3811039452884757 
3.150000000002223, -1.3737673197219322 
3.160000000002244, -1.3652425552762228 
3.1700000000022652, -1.3553946535615145 
3.1800000000022863, -1.3440670971664053 
3.1900000000023074, -1.3310790373541619 
3.2000000000023285, -1.316222284403631 
3.2100000000023496, -1.2992581497441944 
3.2200000000023707, -1.2799142303700737 
3.230000000002392, -1.2578812835017898 
3.240000000002413, -1.2328104183724025 
3.250000000002434, -1.2043109389649145 
3.260000000002455, -1.1719493145380189 
3.2700000000024763, -1.1352499429964393 
3.2800000000024974, -1.0936986146224439 
3.2900000000025185, -1.0467498859408653 
3.3000000000025396, -0.9938399299842972 
3.3100000000025607, -0.934406808024585 
3.3200000000025818, -0.8679204236347379 
3.330000000002603, -0.793924493159925 
3.340000000002624, -0.7120923756411403 
3.350000000002645, -0.622297061668237 
3.360000000002666, -0.5246924393501239 
3.3700000000026873, -0.41979773164935535 
3.3800000000027084, -0.3085700857734504 
3.3900000000027295, -0.19244357228378578 
3.4000000000027506, -0.07331011945930696 
3.4100000000027717, 0.045608915594743775 
3.420000000002793, 0.16132709610777965 
3.430000000002814, 0.2729931244202694 
3.440000000002835, 0.37850269637503015 
3.450000000002856, 0.4762080852686964 
3.460000000002877, 0.565022964634212 
3.4700000000028983, 0.6444337229230592 
3.4800000000029194, 0.7144326259141834 
3.4900000000029405, 0.7754039929949678 
3.5000000000029616, 0.8279962406766551 
3.5100000000029827, 0.8730044594214021 
3.520000000003004, 0.9112767636378282 
3.530000000003025, 0.943647908213234 
3.540000000003046, 0.9708975549010576 
3.550000000003067, 0.9937278819971945 
3.5600000000030882, 1.0127548476765535 
3.5700000000031094, 1.0285082121159066 
3.5800000000031305, 1.0414366054178532 
3.5900000000031516, 1.0519150666040966 
3.6000000000031727, 1.060253398812097 
3.6100000000031938, 1.0667043563654923 
3.620000000003215, 1.0714711336920584 
3.630000000003236, 1.0747139159237495 
3.640000000003257, 1.07655542575491 
3.650000000003278, 1.0770855002209312 
3.6600000000032993, 1.0763647833025844 
3.6700000000033204, 1.0744276455658663 
3.6800000000033415, 1.0712844537130557 
3.6900000000033626, 1.0669233196893686 
3.7000000000033837, 1.061311466588292 
3.710000000003405, 1.054396360763781 
3.720000000003426, 1.0461067785859088 
3.730000000003447, 1.0363540031447676 
3.740000000003468, 1.0250333802764044 
3.750000000003489, 1.0120265015951475 
3.7600000000035103, 0.9972043184187055 
3.7700000000035314, 0.9804315135523961 
3.7800000000035525, 0.9615724511143143 
3.7900000000035736, 0.9404989653984652 
3.8000000000035947, 0.9171001120401442 
3.810000000003616, 0.8912937646633695 
3.820000000003637, 0.863039587174652 
3.830000000003658, 0.8323524638272666 
3.840000000003679, 0.7993149881438196 
3.8500000000037002, 0.7640872113252458 
3.8600000000037213, 0.7269116835488031 
3.8700000000037424, 0.688112038246709 
3.8800000000037635, 0.648084053027356 
3.8900000000037847, 0.6072792200955753 
3.9000000000038058, 0.56618216028434 
3.910000000003827, 0.5252843855763312 
3.920000000003848, 0.4850576169125319 
3.930000000003869, 0.44592988854445775 
3.94000000000389, 0.40826702549118477 
3.9500000000039113, 0.3723609827512417 
3.9600000000039324, 0.33842530960070855 
3.9700000000039535, 0.30659695572374707 
3.9800000000039746, 0.27694295821607257 
3.9900000000039957, 0.24947028471813362 
4.000000000004016, 0.2241371885671306 
4.010000000003993, 0.20086473104390343 
4.02000000000397, 0.17954751531424837 
4.030000000003946, 0.160063058743729 
4.040000000003923, 0.1422795477455169 
4.0500000000039, 0.12606195059673037 
4.0600000000038765, 0.11127661118165995 
4.070000000003853, 0.09779452533401 
4.08000000000383, 0.08549353017114547 
4.090000000003807, 0.07425963311528264 
4.100000000003783, 0.06398768522268546 
4.11000000000376, 0.05458157303097808 
4.120000000003737, 0.04595407088639524 
4.130000000003713, 0.03802646539758968 
4.14000000000369, 0.030728037142630473 
4.150000000003667, 0.023995462669174218 
4.1600000000036434, 0.0177721820971622 
4.17000000000362, 0.01200776381332035 
4.180000000003597, 0.006657287243641355 
4.1900000000035735, 0.001680756890898693 
4.20000000000355, -0.0013587690727887216 
4.210000000003527, -0.0031988381423711035 
4.220000000003504, -0.004760463469792946 
4.23000000000348, -0.006069025203934883 
4.240000000003457, -0.007147410384457972 
4.250000000003434, -0.008016352004095824 
4.26000000000341, -0.008694734590643084 
4.270000000003387, -0.009199869840275937 
4.280000000003364, -0.009547745637654452 
4.2900000000033405, -0.009753251537598715 
4.300000000003317, -0.009830383489204656 
4.310000000003294, -0.009792430277698617 
4.320000000003271, -0.009652143856968002 
4.330000000003247, -0.00942189545667319 
4.340000000003224, -0.00911381907904721 
4.350000000003201, -0.008739943756666254 
4.360000000003177, -0.008312315726932388 
4.370000000003154, -0.007843111494083932 
4.380000000003131, -0.0073447425968664855 
4.390000000003107, -0.006829952780588206 
4.400000000003084, -0.006311908186573348 
4.410000000003061, -0.0058042811197572906 
4.4200000000030375, -0.005321327935237106 
4.430000000003014, -0.004877961594916344 
4.440000000002991, -0.004489819482705197 
4.450000000002968, -0.00417332712650362 
4.460000000002944, -0.003945758551451036 
4.470000000002921, -0.0038252940742786795 
4.480000000002898, -0.003831076434248599 
4.490000000002874, -0.003983266231986126 
4.500000000002851, -0.0043030977022132 
4.510000000002828, -0.004812935867680215 
4.520000000002804, -0.005536336096370355 
4.530000000002781, -0.006498106998565689 
4.540000000002758, -0.007724377440337232 
4.5500000000027345, -0.009242668200670111 
4.560000000002711, -0.011081968445436168 
4.570000000002688, -0.013272816716810906 
4.580000000002665, -0.015847385524729675 
4.590000000002641, -0.01883956785994614 
4.600000000002618, -0.022285063007772162 
4.610000000002595, -0.026221457908874042 
4.620000000002571, -0.030688298970455333 
4.630000000002548, -0.03572714766226581 
4.640000000002525, -0.041381611427265694 
4.6500000000025015, -0.04769733939700397 
4.660000000002478, -0.05472197014459946 
4.670000000002455, -0.06250501627784412 
4.6800000000024315, -0.07109766815396182 
4.690000000002408, -0.08055249652162373 
4.700000000002385, -0.09092303167050068 
4.710000000002362, -0.10226319498709978 
4.720000000002338, -0.11462655807445483 
4.730000000002315, -0.12806540530210545 
4.740000000002292, -0.14262957843154175 
4.750000000002268, -0.15836508751667325 
4.760000000002245, -0.1753124813447136 
4.770000000002222, -0.1935049839279066 
4.7800000000021985, -0.2129664214321995 
4.790000000002175, -0.23370898647206403 
4.800000000002152, -0.2557309132980824 
4.810000000002129, -0.27901416655524863 
4.820000000002105, -0.3035222754266322 
4.830000000002082, -0.32919847042077793 
4.840000000002059, -0.35596429721395895 
4.850000000002035, -0.3837188858016364 
4.860000000002012, -0.4123390391380081 
4.870000000001989, -0.44168027033508667 
4.880000000001965, -0.47157886088376993 
4.890000000001942, -0.5018549373254093 
4.900000000001919, -0.532316477276554 
4.9100000000018955, -0.5627640679242802 
