t, s[1].omega / s[0].omega 
0, -1.2699972911666508 
0.009999999999999995, -1.269552432518499 
0.019999999999999934, -1.2687651592531217 
0.029999999999999874, -1.2676439555298418 
0.04000000000000012, -1.2662097630386877 
0.050000000000000405, -1.264503025364702 
0.06000000000000069, -1.2625888603284732 
0.07000000000000098, -1.260560474774801 
0.08000000000000126, -1.2585468040348633 
0.09000000000000155, -1.2567238821957198 
0.10000000000000184, -1.2552965054517624 
0.11000000000000212, -1.2544092613450246 
0.12000000000000241, -1.2540366415673478 
0.130000000000002, -1.2539784585504947 
0.1400000000000009, -1.2539695613902395 
0.1499999999999998, -1.2537724548106255 
0.1599999999999987, -1.2531783450753953 
0.1699999999999976, -1.2519499838550547 
0.1799999999999965, -1.249758098876968 
0.1899999999999954, -1.2461460722188298 
0.1999999999999943, -1.2405535955663969 
0.2099999999999932, -1.232416247406495 
0.2199999999999921, -1.2213106804791807 
0.229999999999991, -1.2070844514745527 
0.2399999999999899, -1.18996757440568 
0.2499999999999888, -1.1707473556400094 
0.2599999999999877, -1.1510155922563379 
0.2699999999999866, -1.1331795258532775 
0.2799999999999855, -1.1197009871579662 
0.2899999999999844, -1.111707866383208 
0.2999999999999833, -1.108351552644437 
0.3099999999999822, -1.1077192360254433 
0.3199999999999811, -1.1081408477508743 
0.32999999999998, -1.108680559257064 
0.3399999999999789, -1.108948276537703 
0.3499999999999778, -1.108785831819956 
0.35999999999997667, -1.1080498952617541 
0.36999999999997557, -1.106464002854955 
0.37999999999997447, -1.1034544465275964 
0.38999999999997337, -1.0978887790193135 
0.39999999999997227, -1.087673321078373 
0.40999999999997117, -1.0693507890101543 
0.41999999999997006, -1.0383604635677943 
0.42999999999996896, -0.9911730261148591 
0.43999999999996786, -0.9292729564573226 
0.44999999999996676, -0.861087741760357 
0.45999999999996566, -0.7978735021000626 
0.46999999999996456, -0.7472759047841935 
0.47999999999996346, -0.7111175707560604 
0.48999999999996235, -0.6873925241388589 
0.49999999999996125, -0.6728592539401296 
0.5099999999999602, -0.6645047512497162 
0.519999999999959, -0.6600246711646524 
0.529999999999958, -0.657830100622593 
0.5399999999999568, -0.6568988667814507 
0.5499999999999557, -0.6566077446780687 
0.5599999999999546, -0.6565921884156536 
0.5699999999999535, -0.6566436374332671 
0.5799999999999524, -0.6566408235727511 
0.5899999999999513, -0.6565078496971524 
0.5999999999999502, -0.6561926991159432 
0.6099999999999491, -0.6556618788018692 
0.619999999999948, -0.6549069752740486 
0.6299999999999469, -0.6539551679727638 
0.6399999999999458, -0.6528713969491873 
0.6499999999999447, -0.6517433509138075 
0.6599999999999436, -0.6506539090672813 
0.6699999999999425, -0.6496564430791254 
0.6799999999999414, -0.6487650721800432 
0.6899999999999403, -0.6479609504445489 
0.6999999999999392, -0.6472084057211513 
0.7099999999999381, -0.6464731210497806 
0.719999999999937, -0.6457360755370164 
0.7299999999999359, -0.6450007970427725 
0.7399999999999348, -0.6442958364575988 
0.7499999999999337, -0.6436762594220514 
0.7599999999999326, -0.6432267143202458 
0.7699999999999315, -0.6430661837043791 
0.7799999999999304, -0.6433527360731758 
0.7899999999999293, -0.644286200023911 
0.7999999999999282, -0.6461076900552494 
0.8099999999999271, -0.6490968043399896 
0.819999999999926, -0.6535688527203074 
0.8299999999999249, -0.6598738116567372 
0.8399999999999238, -0.6683938346086247 
0.8499999999999227, -0.6795250821967302 
0.8599999999999216, -0.6936110996679495 
0.8699999999999205, -0.7107751504768501 
0.8799999999999194, -0.7306142691243508 
0.8899999999999183, -0.751855663609209 
0.8999999999999172, -0.7723536966523868 
0.9099999999999161, -0.789821576193356 
0.919999999999915, -0.8029296302159129 
0.9299999999999139, -0.8117345769812285 
0.9399999999999128, -0.8171633953948167 
0.9499999999999117, -0.8202857583707205 
0.9599999999999106, -0.821931714763485 
0.9699999999999095, -0.822630970517623 
0.9799999999999084, -0.8226760862229243 
0.9899999999999073, -0.8221929629635392 
0.9999999999999062, -0.8211848549967958 
1.0099999999999052, -0.8195513634956724 
1.019999999999904, -0.8170980099223809 
1.029999999999903, -0.8135731809233986 
1.039999999999902, -0.8088242441854626 
1.0499999999999008, -0.803279738397514 
1.0599999999998997, -0.7991073935934401 
1.0699999999998986, -0.8022710883595561 
1.0799999999998975, -0.8245672738932975 
1.0899999999998964, -0.8826158728180102 
1.0999999999998953, -0.9907196096154669 
1.1099999999998942, -1.1435925574283943 
1.119999999999893, -1.2958809784267675 
1.129999999999892, -1.3980235990506342 
1.1399999999998909, -1.449090330126028 
1.1499999999998898, -1.471437913214641 
1.1599999999998887, -1.4809204359162422 
1.1699999999998876, -1.4849078382157639 
1.1799999999998865, -1.4864485717749936 
1.1899999999998854, -1.4867824977964867 
1.1999999999998843, -1.4864333052236063 
1.2099999999998832, -1.4857111133217353 
1.219999999999882, -1.485048762240292 
1.229999999999881, -1.4851838545760323 
1.2399999999998799, -1.4868115507759 
1.2499999999998788, -1.4898532169101337 
1.2599999999998777, -1.4934882079334657 
1.2699999999998766, -1.496931412221568 
1.2799999999998755, -1.4998128598506124 
1.2899999999998744, -1.5020484552178928 
1.2999999999998733, -1.5036569209747144 
1.3099999999998722, -1.5046773199802703 
1.319999999999871, -1.5051453934854682 
1.32999999999987, -1.5050877373659175 
1.3399999999998689, -1.504521285973213 
1.3499999999998678, -1.503455570039857 
1.3599999999998666, -1.5018970578777775 
1.3699999999998655, -1.4998554146679073 
1.3799999999998644, -1.4973548434569446 
1.3899999999998633, -1.4944715578273005 
1.3999999999998622, -1.4914345650004945 
1.4099999999998611, -1.4887304747224037 
1.41999999999986, -1.4869380028320782 
1.429999999999859, -1.4862286910379852 
1.4399999999998578, -1.4861897837653548 
1.4499999999998567, -1.4862457076997935 
1.4599999999998556, -1.485984256820836 
1.4699999999998545, -1.485077497364691 
1.4799999999998534, -1.483002947632998 
1.4899999999998523, -1.4785871448275514 
1.4999999999998512, -1.469044548529213 
1.5099999999998501, -1.4478102363781757 
1.519999999999849, -1.400576123546952 
1.529999999999848, -1.3035508123387851 
1.5399999999998468, -1.142151175793114 
1.5499999999998457, -0.9492129563170343 
1.5599999999998446, -0.7850692128655945 
1.5699999999998435, -0.6770402919209237 
1.5799999999998424, -0.61676944270881 
1.5899999999998413, -0.5863504716750514 
1.5999999999998402, -0.5719847807401724 
1.6099999999998391, -0.5656202106284303 
1.619999999999838, -0.5630661520776886 
1.629999999999837, -0.5622474864041628 
1.6399999999998358, -0.5621611979193469 
1.6499999999998347, -0.5623295873629096 
1.6599999999998336, -0.5625264885719331 
1.6699999999998325, -0.5626421739803783 
1.6799999999998314, -0.5626172863207681 
1.6899999999998303, -0.5624119735488747 
1.6999999999998292, -0.5619950445451523 
1.709999999999828, -0.5613469286781078 
1.719999999999827, -0.5604721403625836 
1.729999999999826, -0.5594129447700553 
1.7399999999998248, -0.5582513044390298 
1.7499999999998237, -0.5570908641208955 
1.7599999999998226, -0.5560259926627223 
1.7699999999998215, -0.5551153644185395 
1.7799999999998204, -0.5543718715008082 
1.7899999999998193, -0.5537685444867497 
1.7999999999998182, -0.5532543717442632 
1.809999999999817, -0.5527736227025203 
1.819999999999816, -0.5522825994434012 
1.8299999999998149, -0.5517594154041681 
1.8399999999998138, -0.5512068552383856 
1.8499999999998127, -0.550652689718583 
1.8599999999998116, -0.5501529854781074 
1.8699999999998105, -0.549802824183491 
1.8799999999998094, -0.5497579695154297 
1.8899999999998083, -0.5502717168868468 
1.8999999999998072, -0.5517534954877669 
1.909999999999806, -0.5548594970602959 
1.919999999999805, -0.5606297866742449 
1.9299999999998039, -0.5706862725575035 
1.9399999999998028, -0.5874827391033046 
1.9499999999998017, -0.6144943171941093 
1.9599999999998006, -0.6559282979079575 
1.9699999999997995, -0.7149997989988526 
1.9799999999997984, -0.7899641388434879 
1.9899999999997973, -0.8704651536269502 
1.9999999999997962, -0.9411489525222079 
2.0099999999998173, -0.9921038307640074 
2.0199999999998384, -1.0235282486113135 
2.0299999999998595, -1.0410544575056015 
2.0399999999998806, -1.0503134352727386 
2.0499999999999017, -1.0550528675756672 
2.059999999999923, -1.057368437804073 
2.069999999999944, -1.0583385733477675 
2.079999999999965, -1.0584872795687417 
2.089999999999986, -1.0580448226057473 
2.100000000000007, -1.057091775667724 
2.1100000000000283, -1.0556772962769774 
2.1200000000000494, -1.0540212691459256 
2.1300000000000705, -1.05294873921112 
2.1400000000000916, -1.054617860154069 
2.1500000000001127, -1.0630364779423231 
2.160000000000134, -1.0829307218111528 
2.170000000000155, -1.1162167167660708 
2.180000000000176, -1.1590200228237284 
2.190000000000197, -1.203409374203883 
2.2000000000002182, -1.242257442410624 
2.2100000000002393, -1.272089433822707 
2.2200000000002604, -1.2927448144323483 
2.2300000000002815, -1.3058658609441336 
2.2400000000003026, -1.3136027923008002 
2.2500000000003237, -1.317853280440924 
2.260000000000345, -1.3199827274674147 
2.270000000000366, -1.320851822080074 
2.280000000000387, -1.320964797130732 
2.290000000000408, -1.3206287818564442 
2.3000000000004293, -1.3200927461916896 
2.3100000000004504, -1.3196492300840403 
2.3200000000004715, -1.3196364928874234 
2.3300000000004926, -1.320290643079592 
2.3400000000005137, -1.3215839831310106 
2.3500000000005348, -1.3232674382605019 
2.360000000000556, -1.3250580667927807 
2.370000000000577, -1.3267528810398808 
2.380000000000598, -1.3282277264134548 
2.390000000000619, -1.3294055301886838 
2.4000000000006403, -1.3302386837417108 
2.4100000000006614, -1.330701063366295 
2.4200000000006825, -1.330781015792328 
2.4300000000007036, -1.3304747191259942 
2.4400000000007247, -1.3297820303501728 
2.450000000000746, -1.3287064158083697 
2.460000000000767, -1.3272590586426507 
2.470000000000788, -1.3254656475525994 
2.480000000000809, -1.3233738375852497 
2.49000000000083, -1.3210624965689435 
2.5000000000008513, -1.318661744220454 
2.5100000000008724, -1.3163856203155229 
2.5200000000008935, -1.314527016378989 
2.5300000000009146, -1.3133324745377193 
2.5400000000009357, -1.312813978969225 
2.550000000000957, -1.3127211438842563 
2.560000000000978, -1.312712087884198 
2.570000000000999, -1.3124967165551638 
2.58000000000102, -1.3118284644242235 
2.5900000000010412, -1.3104014899456091 
2.6000000000010624, -1.3077145731819506 
2.6100000000010835, -1.3029189562258656 
2.6200000000011046, -1.2946852737992145 
2.6300000000011257, -1.2812009396427932 
2.6400000000011468, -1.2604717485679038 
2.650000000001168, -1.2310590447295802 
2.660000000001189, -1.193243923195168 
2.67000000000121, -1.1503037861085874 
2.680000000001231, -1.1087521214340483 
2.6900000000012523, -1.0758836489525194 
2.7000000000012734, -1.0555027946951823 
2.7100000000012945, -1.0461521640730165 
2.7200000000013156, -1.0435522184995623 
2.7300000000013367, -1.0438576061337912 
2.740000000001358, -1.0448880612597906 
2.750000000001379, -1.0457579917501618 
2.7600000000014, -1.0462064274862488 
2.770000000001421, -1.0461671219075657 
2.780000000001442, -1.0455605052565091 
2.7900000000014633, -1.0441755459743705 
2.8000000000014844, -1.0415388525491622 
2.8100000000015055, -1.0366925443356296 
2.8200000000015266, -1.0278226731035875 
2.8300000000015477, -1.011802479130413 
2.840000000001569, -0.9841630575713148 
2.85000000000159, -0.9407402205843388 
2.860000000001611, -0.8816679912013307 
2.870000000001632, -0.8143785080536325 
2.8800000000016532, -0.7502996335332971 
2.8900000000016743, -0.6978213146098637 
2.9000000000016954, -0.6593282560515386 
2.9100000000017165, -0.6331284156522483 
2.9200000000017377, -0.6162004200740965 
2.9300000000017588, -0.6057072376899824 
2.94000000000178, -0.5994591550355982 
2.950000000001801, -0.5959090466619256 
2.960000000001822, -0.5940156024450607 
2.970000000001843, -0.5931006445374717 
2.9800000000018643, -0.5927338774200708 
2.9900000000018854, -0.5926478431004163 
3.0000000000019065, -0.5926783024666689 
3.0100000000019276, -0.5927245852405078 
3.0200000000019487, -0.5927254783951931 
3.03000000000197, -0.5926473148686904 
3.040000000001991, -0.5924810558467722 
3.050000000002012, -0.5922436756022001 
3.060000000002033, -0.5919771542232068 
3.070000000002054, -0.5917392461020395 
3.0800000000020753, -0.5915858457192144 
3.0900000000020964, -0.5915512430152571 
3.1000000000021175, -0.5916342323966102 
3.1100000000021386, -0.5917954633642645 
3.1200000000021597, -0.5919680596256375 
3.130000000002181, -0.592078693891721 
3.140000000002202, -0.5920699077116968 
3.150000000002223, -0.5919130576797661 
3.160000000002244, -0.5916088183940064 
3.1700000000022652, -0.5911814794020921 
3.1800000000022863, -0.5906761555146085 
3.1900000000023074, -0.5901656968890736 
3.2000000000023285, -0.589772207613342 
3.2100000000023496, -0.5897095426246647 
3.2200000000023707, -0.5903579260036421 
3.230000000002392, -0.5923894007155929 
3.240000000002413, -0.5969724066707707 
3.250000000002434, -0.6060899849720579 
3.260000000002455, -0.6229821966819349 
3.2700000000024763, -0.6525732441741495 
3.2800000000024974, -0.7012303412873461 
3.2900000000025185, -0.7741812979416763 
3.3000000000025396, -0.8690690651674838 
3.3100000000025607, -0.9703657938951258 
3.3200000000025818, -1.05645943128173 
3.330000000002603, -1.1156944437916663 
3.340000000002624, -1.150507737846006 
3.350000000002645, -1.1690938371770698 
3.360000000002666, -1.1785357297409613 
3.3700000000026873, -1.183188651547073 
3.3800000000027084, -1.1853609836233554 
3.3900000000027295, -1.1861952466885584 
3.4000000000027506, -1.1862358949836778 
3.4100000000027717, -1.1857407631103802 
3.420000000002793, -1.1848752349030018 
3.430000000002814, -1.18390897404537 
3.440000000002835, -1.1834797102869024 
3.450000000002856, -1.1847860384278848 
3.460000000002877, -1.1892530508862387 
3.4700000000028983, -1.1975090049617245 
3.4800000000029194, -1.2086956703216873 
3.4900000000029405, -1.2210626449169297 
3.5000000000029616, -1.2330441307324833 
3.5100000000029827, -1.2437228220444543 
3.520000000003004, -1.2527095038498315 
3.530000000003025, -1.2599018667201138 
3.540000000003046, -1.2653441556275187 
3.550000000003067, -1.2691837023913264 
3.5600000000030882, -1.271653851908101 
3.5700000000031094, -1.2730363484155922 
3.5800000000031305, -1.2736084733904267 
3.5900000000031516, -1.2736069166055497 
3.6000000000031727, -1.2732271848979877 
3.6100000000031938, -1.2726514822487356 
3.620000000003215, -1.2720763896799516 
3.630000000003236, -1.2716997709280462 
3.640000000003257, -1.2716561067099663 
3.650000000003278, -1.271962616772018 
3.6600000000032993, -1.2725417340059004 
3.6700000000033204, -1.2732843523387178 
3.6800000000033415, -1.2740819356675754 
3.6900000000033626, -1.2748261669540513 
3.7000000000033837, -1.2754115565201898 
3.710000000003405, -1.2757470492291048 
3.720000000003426, -1.2757635300216361 
3.730000000003447, -1.275414107994975 
3.740000000003468, -1.2746713997719394 
3.750000000003489, -1.2735232161260306 
3.7600000000035103, -1.271966777941251 
3.7700000000035314, -1.2700043821447367 
3.7800000000035525, -1.2676444689657327 
3.7900000000035736, -1.264909641726045 
3.8000000000035947, -1.261852011007259 
3.810000000003616, -1.2585797404242782 
3.820000000003637, -1.2552977086928774 
3.830000000003658, -1.2523337480959469 
3.840000000003679, -1.2500674398336253 
3.8500000000037002, -1.2487227751630223 
3.8600000000037213, -1.2481952534178038 
3.8700000000037424, -1.2481287809885957 
3.8800000000037635, -1.2481413917422652 
3.8900000000037847, -1.2479455161203399 
3.9000000000038058, -1.2473110458095564 
3.910000000003827, -1.2459579961322964 
3.920000000003848, -1.2434321234916532 
3.930000000003869, -1.238975361194041 
3.94000000000389, -1.231427659080872 
3.9500000000039113, -1.2192692576428457 
3.9600000000039324, -1.200946795718161 
3.9700000000039535, -1.1755091585572908 
3.9800000000039746, -1.1433670746466869 
3.9900000000039957, -1.1068828964205137 
4.000000000004016, -1.0703882819723463 
4.010000000003993, -1.03905409090546 
4.02000000000397, -1.0166430478164195 
4.030000000003946, -1.003729680096198 
4.040000000003923, -0.9980757362172946 
4.0500000000039, -0.9965755130151323 
4.0600000000038765, -0.9968256657723036 
4.070000000003853, -0.9975005790851599 
4.08000000000383, -0.9980341891027225 
4.090000000003807, -0.9982245366107992 
4.100000000003783, -0.9979782779881466 
4.11000000000376, -0.9971710278938505 
4.120000000003737, -0.9955518462993367 
4.130000000003713, -0.9926389321182116 
4.14000000000369, -0.9875879727004299 
4.150000000003667, -0.9790858887252233 
4.1600000000036434, -0.9654626671226815 
4.17000000000362, -0.945309775590192 
4.180000000003597, -0.9185562457831943 
4.1900000000035735, -0.8871487849604737 
4.20000000000355, -0.8544465275044887 
4.210000000003527, -0.823785855123187 
4.220000000003504, -0.797440780029625 
4.23000000000348, -0.7764227151450145 
4.240000000003457, -0.760758805430946 
4.250000000003434, -0.7498566794112609 
4.26000000000341, -0.742808621526906 
4.270000000003387, -0.7386222993330275 
4.280000000003364, -0.7363844565435385 
4.2900000000033405, -0.7353552834554086 
4.300000000003317, -0.7349961045521156 
4.310000000003294, -0.7349476838344259 
4.320000000003271, -0.7349845708723766 
4.330000000003247, -0.7349671925391591 
4.340000000003224, -0.7348040949006635 
4.350000000003201, -0.7344291725616303 
4.360000000003177, -0.7337948958772867 
4.370000000003154, -0.732879558336457 
4.380000000003131, -0.7317007603282274 
4.390000000003107, -0.7303208535175281 
4.400000000003084, -0.728832719079655 
4.410000000003061, -0.7273299211566018 
4.4200000000030375, -0.7258791111724403 
4.430000000003014, -0.7245093057545814 
4.440000000002991, -0.7232189757301262 
4.450000000002968, -0.7219927134841556 
4.460000000002944, -0.7208183521936267 
4.470000000002921, -0.7196989143437316 
4.480000000002898, -0.7186580985184188 
4.490000000002874, -0.7177407515204323 
4.500000000002851, -0.7170099872635084 
4.510000000002828, -0.7165415587894627 
4.520000000002804, -0.7164156957648297 
4.530000000002781, -0.7167075430093146 
4.540000000002758, -0.717478659334226 
4.5500000000027345, -0.718772376972206 
4.560000000002711, -0.7206146349151624 
4.570000000002688, -0.7230198239765542 
4.580000000002665, -0.7259992029078929 
4.590000000002641, -0.7295679228053539 
4.600000000002618, -0.7337453170774559 
4.610000000002595, -0.7385417607485695 
4.620000000002571, -0.7439255731560477 
4.630000000002548, -0.7497700477776276 
4.640000000002525, -0.7558012622475636 
4.6500000000025015, -0.7615977509838244 
4.660000000002478, -0.7666917170533425 
4.670000000002455, -0.7707398869143427 
4.6800000000024315, -0.7736381536951212 
4.690000000002408, -0.775495802359462 
4.700000000002385, -0.7765214589226089 
4.710000000002362, -0.7769205155440644 
4.720000000002338, -0.7768465924753108 
4.730000000002315, -0.7763960609672027 
4.740000000002292, -0.7756261592627163 
4.750000000002268, -0.7745924864379478 
4.760000000002245, -0.7734232311094196 
4.770000000002222, -0.7724752645625219 
4.7800000000021985, -0.7726549501187756 
4.790000000002175, -0.7760222923936932 
4.800000000002152, -0.7867649400461009 
4.810000000002129, -0.8123163544848434 
4.820000000002105, -0.8632842609520057 
4.830000000002082, -0.9486121249771211 
4.840000000002059, -1.0632162511410643 
4.850000000002035, -1.1805792964716746 
4.860000000002012, -1.2716549304142657 
4.870000000001989, -1.3282638544598895 
4.880000000001965, -1.3588187684942472 
4.890000000001942, -1.3741186620948886 
4.900000000001919, -1.381490667749469 
4.9100000000018955, -1.3849090841206553 
4.920000000001872, -1.3863323832958392 
4.930000000001849, -1.3866910027059691 
