t, s[1].omega / s[0].omega 
0, -0.5899977322573349 
0.009999999999999995, -0.5897943378903064 
0.019999999999999934, -0.5896259255276509 
0.029999999999999874, -0.5894635567279518 
0.04000000000000012, -0.5892724999594502 
0.050000000000000405, -0.5890247445918998 
0.06000000000000069, -0.5887064492679152 
0.07000000000000098, -0.5883190667154541 
0.08000000000000126, -0.5878773873379639 
0.09000000000000155, -0.5874089524215986 
0.10000000000000184, -0.5869580611136843 
0.11000000000000212, -0.5865964078101199 
0.12000000000000241, -0.5864423549493615 
0.130000000000002, -0.5866916305454832 
0.1400000000000009, -0.5876628704762141 
0.1499999999999998, -0.5898601054603421 
0.1599999999999987, -0.5940465426763079 
0.1699999999999976, -0.6012989024257892 
0.1799999999999965, -0.6129499758176142 
0.1899999999999954, -0.6302264998422087 
0.1999999999999943, -0.6533786204766362 
0.2099999999999932, -0.6805689119906818 
0.2199999999999921, -0.7077905603608559 
0.229999999999991, -0.7308369937116086 
0.2399999999999899, -0.7476717733885972 
0.2499999999999888, -0.7587167710881346 
0.2599999999999877, -0.7655060546927505 
0.2699999999999866, -0.7695339719767799 
0.2799999999999855, -0.7718638113105027 
0.2899999999999844, -0.7731557755571801 
0.2999999999999833, -0.7737918870097771 
0.3099999999999822, -0.7739785600344896 
0.3199999999999811, -0.7738084762005789 
0.32999999999998, -0.7732890531438545 
0.3399999999999789, -0.7723446345561916 
0.3499999999999778, -0.770794291366487 
0.35999999999997667, -0.7683042437403367 
0.36999999999997557, -0.764322012517589 
0.37999999999997447, -0.7580370591415966 
0.38999999999997337, -0.7484950134068109 
0.39999999999997227, -0.7350428630604166 
0.40999999999997117, -0.7180377141308789 
0.41999999999997006, -0.6991802289771691 
0.42999999999996896, -0.6808590092232729 
0.43999999999996786, -0.6650043916296164 
0.44999999999996676, -0.6524883345455608 
0.45999999999996566, -0.6432788594749669 
0.46999999999996456, -0.6368714027936964 
0.47999999999996346, -0.6326287286628758 
0.48999999999996235, -0.6299568715950971 
0.49999999999996125, -0.628369445943971 
0.5099999999999602, -0.6274966069495069 
0.519999999999959, -0.6270713828456734 
0.529999999999958, -0.6269088175606669 
0.5399999999999568, -0.626884815742452 
0.5499999999999557, -0.6269178437748317 
0.5599999999999546, -0.626954934155422 
0.5699999999999535, -0.6269625540327578 
0.5799999999999524, -0.6269222303079227 
0.5899999999999513, -0.6268298192634232 
0.5999999999999502, -0.626695753010818 
0.6099999999999491, -0.6265424715313358 
0.619999999999948, -0.6263965297658493 
0.6299999999999469, -0.6262769456409456 
0.6399999999999458, -0.6261852401340406 
0.6499999999999447, -0.6261028446507619 
0.6599999999999436, -0.6259977802633078 
0.6699999999999425, -0.6258371274824364 
0.6799999999999414, -0.6255984736263421 
0.6899999999999403, -0.6252752515215675 
0.6999999999999392, -0.6248762220007495 
0.7099999999999381, -0.6244233123087716 
0.719999999999937, -0.6239522018789676 
0.7299999999999359, -0.6235183193442109 
0.7399999999999348, -0.6232096475009039 
0.7499999999999337, -0.6231674236285925 
0.7599999999999326, -0.6236157107297005 
0.7699999999999315, -0.6248998183195261 
0.7799999999999304, -0.6275301305745711 
0.7899999999999293, -0.6322188241436761 
0.7999999999999282, -0.6398756213015068 
0.8099999999999271, -0.6514876231280098 
0.819999999999926, -0.667762786366601 
0.8299999999999249, -0.6884727012872056 
0.8399999999999238, -0.7117980687152132 
0.8499999999999227, -0.7345230451529695 
0.8599999999999216, -0.7535327744307521 
0.8699999999999205, -0.7673986810300468 
0.8799999999999194, -0.7765125366259815 
0.8899999999999183, -0.7821080420036651 
0.8999999999999172, -0.7853984060463155 
0.9099999999999161, -0.7872588417569831 
0.919999999999915, -0.7882358970495218 
0.9299999999999139, -0.7886428487011184 
0.9399999999999128, -0.7886414187616319 
0.9499999999999117, -0.7882902431487862 
0.9599999999999106, -0.7875633510409268 
0.9699999999999095, -0.7863420891829904 
0.9799999999999084, -0.7843783284821312 
0.9899999999999073, -0.7812223563735039 
0.9999999999999062, -0.7761160940898084 
1.0099999999999052, -0.7679002001342975 
1.019999999999904, -0.7551169502187259 
1.029999999999903, -0.7366448139481702 
1.039999999999902, -0.712917023698595 
1.0499999999999008, -0.6866745325192241 
1.0599999999998997, -0.6618652624619455 
1.0699999999998986, -0.6414684315991901 
1.0799999999998975, -0.6264499918149126 
1.0899999999998964, -0.6162653353263616 
1.0999999999998953, -0.609781178025473 
1.1099999999998942, -0.6058710232806608 
1.119999999999893, -0.6036400660905867 
1.129999999999892, -0.6024506696761915 
1.1399999999998909, -0.6018764735044925 
1.1499999999998898, -0.6016442657281709 
1.1599999999998887, -0.601584026900527 
1.1699999999998876, -0.6015915591098413 
1.1799999999998865, -0.6016027622953428 
1.1899999999998854, -0.6015774461611783 
1.1999999999998843, -0.6014907974098497 
1.2099999999998832, -0.6013308884453721 
1.219999999999882, -0.6011000185996667 
1.229999999999881, -0.6008161627727545 
1.2399999999998799, -0.6005100262546513 
1.2499999999998788, -0.6002155870371106 
1.2599999999998777, -0.5999571113147575 
1.2699999999998766, -0.5997391770106677 
1.2799999999998755, -0.5995450802328067 
1.2899999999998744, -0.5993443890100993 
1.2999999999998733, -0.5991054554921839 
1.3099999999998722, -0.598806373805095 
1.319999999999871, -0.5984400655992728 
1.32999999999987, -0.5980141012868055 
1.3399999999998689, -0.5975492177925642 
1.3499999999998678, -0.5970805376353503 
1.3599999999998666, -0.5966640375124042 
1.3699999999998655, -0.5963899006412098 
1.3799999999998644, -0.596404440379896 
1.3899999999998633, -0.5969426548026621 
1.3999999999998622, -0.5983730709346851 
1.4099999999998611, -0.6012533090668432 
1.41999999999986, -0.6063838117783182 
1.429999999999859, -0.6148178995056982 
1.4399999999998578, -0.627725830590083 
1.4499999999998567, -0.6459409311618778 
1.4599999999998556, -0.6691033741212253 
1.4699999999998545, -0.6948730703528989 
1.4799999999998534, -0.7193846005327453 
1.4899999999998523, -0.7392728267274926 
1.4999999999998512, -0.7533653784960864 
1.5099999999998501, -0.7624345357052402 
1.519999999999849, -0.7679402407515452 
1.529999999999848, -0.7711693106537943 
1.5399999999998468, -0.77300236245177 
1.5499999999998457, -0.7739749287455667 
1.5599999999998446, -0.7743902733567964 
1.5699999999998435, -0.774403966043575 
1.5799999999998424, -0.7740714209725172 
1.5899999999998413, -0.7733652001226157 
1.5999999999998402, -0.7721665316574964 
1.6099999999998391, -0.7702301428008813 
1.619999999999838, -0.7671200578317261 
1.629999999999837, -0.7621288582737222 
1.6399999999998358, -0.7542504207531733 
1.6499999999998347, -0.7423877682465236 
1.6599999999998336, -0.7259996544161244 
1.6699999999998325, -0.7059552972551988 
1.6799999999998314, -0.6846590879638076 
1.6899999999998303, -0.6649292377925666 
1.6999999999998292, -0.6486509881808906 
1.709999999999828, -0.6363716984806741 
1.719999999999827, -0.6277155382920816 
1.729999999999826, -0.6219349729251615 
1.7399999999998248, -0.6182588702841332 
1.7499999999998237, -0.6160380833455282 
1.7599999999998226, -0.6147779609950867 
1.7699999999998215, -0.6141238055821121 
1.7799999999998204, -0.6138321166405769 
1.7899999999998193, -0.6137412108333916 
1.7999999999998182, -0.6137461908584855 
1.809999999999817, -0.6137797587621299 
1.819999999999816, -0.6137990352305692 
1.8299999999998149, -0.6137780335744922 
1.8399999999998138, -0.6137049582609799 
1.8499999999998127, -0.613582446751757 
1.8599999999998116, -0.6134273785943724 
1.8699999999998105, -0.6132664813472612 
1.8799999999998094, -0.6131264726765109 
1.8899999999998083, -0.6130220074926467 
1.8999999999998072, -0.6129475335769671 
1.909999999999806, -0.61287783640571 
1.919999999999805, -0.6127774384364933 
1.9299999999998039, -0.6126138574001201 
1.9399999999998028, -0.612367726622215 
1.9499999999998017, -0.6120360419475857 
1.9599999999998006, -0.6116303577285198 
1.9699999999997995, -0.6111746704154501 
1.9799999999997984, -0.6107070503707631 
1.9899999999997973, -0.610287375988442 
1.9999999999997962, -0.6100127718522236 
2.0099999999998173, -0.6100426018584888 
2.0199999999998384, -0.6106351912968162 
2.0299999999998595, -0.6121975041182333 
2.0399999999998806, -0.615344251568714 
2.0499999999999017, -0.6209484908446303 
2.059999999999923, -0.6301301996297383 
2.069999999999944, -0.6440629191584842 
2.079999999999965, -0.6634242405677597 
2.089999999999986, -0.6874828125733519 
2.100000000000007, -0.7134708976861641 
2.1100000000000283, -0.7374141196918521 
2.1200000000000494, -0.7562906266104886 
2.1300000000000705, -0.7693795810128436 
2.1400000000000916, -0.7776845694890765 
2.1500000000001127, -0.7826806968051858 
2.160000000000134, -0.7855874212365409 
2.170000000000155, -0.787216479226006 
2.180000000000176, -0.7880542141487801 
2.190000000000197, -0.7883718919828511 
2.2000000000002182, -0.7883033775793639 
2.2100000000002393, -0.7878865268644774 
2.2200000000002604, -0.7870750695424389 
2.2300000000002815, -0.785724029175767 
2.2400000000003026, -0.783545966233956 
2.2500000000003237, -0.7800341673569757 
2.260000000000345, -0.7743671170748259 
2.270000000000366, -0.7653788531043053 
2.280000000000387, -0.7518167879399353 
2.290000000000408, -0.7331308752784211 
2.3000000000004293, -0.7104846237313517 
2.3100000000004504, -0.6868141997416087 
2.3200000000004715, -0.6653813306786786 
2.3300000000004926, -0.6481880656514157 
2.3400000000005137, -0.6356279105345082 
2.3500000000005348, -0.6270816350634528 
2.360000000000556, -0.6215912373396602 
2.370000000000577, -0.6182459798838895 
2.380000000000598, -0.6163213091317875 
2.390000000000619, -0.6152918832656991 
2.4000000000006403, -0.6147984659927412 
2.4100000000006614, -0.614605482155105 
2.4200000000006825, -0.614563005004461 
2.4300000000007036, -0.6145771019428196 
2.4400000000007247, -0.6145887679319091 
2.450000000000746, -0.6145605584774556 
2.460000000000767, -0.6144698610027979 
2.470000000000788, -0.6143074732053893 
2.480000000000809, -0.6140790587769773 
2.49000000000083, -0.6138054549317986 
2.5000000000008513, -0.6135177494852019 
2.5100000000008724, -0.6132464190690008 
2.5200000000008935, -0.6130088803851963 
2.5300000000009146, -0.6128020469262438 
2.5400000000009357, -0.6126039923001014 
2.550000000000957, -0.6123837177187825 
2.560000000000978, -0.6121135974755217 
2.570000000000999, -0.6117783061060398 
2.58000000000102, -0.6113776679306652 
2.5900000000010412, -0.6109256430212984 
2.6000000000010624, -0.6104497092925136 
2.6100000000010835, -0.6099940414774851 
2.6200000000011046, -0.6096283831968508 
2.6300000000011257, -0.6094637831958059 
2.6400000000011468, -0.6096762870597625 
2.650000000001168, -0.6105394243050586 
2.660000000001189, -0.6124647824473496 
2.67000000000121, -0.6160449463676456 
2.680000000001231, -0.6220796618969808 
2.6900000000012523, -0.6315354983864485 
2.7000000000012734, -0.6453379682891066 
2.7100000000012945, -0.6638694549701541 
2.7200000000013156, -0.6862221550703732 
2.7300000000013367, -0.7097976937893183 
2.740000000001358, -0.7311537364217007 
2.750000000001379, -0.7478229828195295 
2.7600000000014, -0.7593280315816446 
2.770000000001421, -0.7666156104477535 
2.780000000001442, -0.7709933983202133 
2.7900000000014633, -0.7735293326287814 
2.8000000000014844, -0.7749318177267466 
2.8100000000015055, -0.7756237667032714 
2.8200000000015266, -0.7758381604057832 
2.8300000000015477, -0.7756842835536744 
2.840000000001569, -0.7751813300870224 
2.85000000000159, -0.7742644529778915 
2.860000000001611, -0.7727645984533709 
2.870000000001632, -0.770358232284557 
2.8800000000016532, -0.766483804577686 
2.8900000000016743, -0.7602465727542356 
2.9000000000016954, -0.750418576746702 
2.9100000000017165, -0.735785555192946 
2.9200000000017377, -0.7160483753394408 
2.9300000000017588, -0.6927819622190045 
2.94000000000178, -0.6691817820995011 
2.950000000001801, -0.6483913830568654 
2.960000000001822, -0.6320731860356879 
2.970000000001843, -0.6203330702194737 
2.9800000000018643, -0.6124189300173508 
2.9900000000018854, -0.6073567635816791 
3.0000000000019065, -0.6042733070966475 
3.0100000000019276, -0.6024937534664859 
3.0200000000019487, -0.6015363464397137 
3.03000000000197, -0.601073971283559 
3.040000000001991, -0.6008923105581829 
3.050000000002012, -0.6008544552067295 
3.060000000002033, -0.6008741135280463 
3.070000000002054, -0.6008969698804916 
3.0800000000020753, -0.6008891365677432 
3.0900000000020964, -0.600831594663585 
3.1000000000021175, -0.6007191519568869 
3.1100000000021386, -0.6005612890868747 
3.1200000000021597, -0.6003809847933899 
3.130000000002181, -0.6002082131477219 
3.140000000002202, -0.6000684564762918 
3.150000000002223, -0.5999710107286285 
3.160000000002244, -0.599903271453291 
3.1700000000022652, -0.5998344756637717 
3.1800000000022863, -0.599727275572256 
3.1900000000023074, -0.5995509733747575 
3.2000000000023285, -0.5992898160914383 
3.2100000000023496, -0.5989442569137866 
3.2200000000023707, -0.598528320514286 
3.230000000002392, -0.5980679476331059 
3.240000000002413, -0.5976039223525931 
3.250000000002434, -0.5972015299992756 
3.260000000002455, -0.5969689124014537 
3.2700000000024763, -0.5970868864439922 
3.2800000000024974, -0.5978537431358276 
3.2900000000025185, -0.5997475195491437 
3.3000000000025396, -0.6035013900927815 
3.3100000000025607, -0.610165302461442 
3.3200000000025818, -0.6210705884257718 
3.330000000002603, -0.6375165645088451 
3.340000000002624, -0.659961871643334 
3.350000000002645, -0.6868904838648239 
3.360000000002666, -0.7145024731004583 
3.3700000000026873, -0.7384363635089158 
3.3800000000027084, -0.7562622025321055 
3.3900000000027295, -0.7681110107502881 
3.4000000000027506, -0.7754450293962762 
3.4100000000027717, -0.7798084974783823 
3.420000000002793, -0.7823366730144422 
3.430000000002814, -0.7837454713858031 
3.440000000002835, -0.784452763226623 
3.450000000002856, -0.784686845030659 
3.460000000002877, -0.7845543080610764 
3.4700000000028983, -0.7840728579624467 
3.4800000000029194, -0.7831765619012021 
3.4900000000029405, -0.7816956990576578 
3.5000000000029616, -0.7793091274430393 
3.5100000000029827, -0.77547153841931 
3.520000000003004, -0.7693493293673721 
3.530000000003025, -0.7598821912286773 
3.540000000003046, -0.7461804144997609 
3.550000000003067, -0.7283090632921916 
3.5600000000030882, -0.7078766823451098 
3.5700000000031094, -0.6875502758389189 
3.5800000000031305, -0.6697251432745368 
3.5900000000031516, -0.6556131815435534 
3.6000000000031727, -0.6452865836600801 
3.6100000000031938, -0.6381833257466519 
3.620000000003215, -0.6335509615406482 
3.630000000003236, -0.6306846841432926 
3.640000000003257, -0.6290141411113196 
3.650000000003278, -0.628114028424289 
3.6600000000032993, -0.6276843950059595 
3.6700000000033204, -0.6275225088703094 
3.6800000000033415, -0.6274956210061438 
3.6900000000033626, -0.62751834179801 
3.7000000000033837, -0.6275358688334627 
3.710000000003405, -0.6275132296818081 
3.720000000003426, -0.6274301508842235 
3.730000000003447, -0.6272803732452219 
3.740000000003468, -0.6270727355757956 
3.750000000003489, -0.6268299239957066 
3.7600000000035103, -0.6265816134989478 
3.7700000000035314, -0.6263528208649007 
3.7800000000035525, -0.6261527992464472 
3.7900000000035736, -0.6259706097453608 
3.8000000000035947, -0.6257799392351793 
3.810000000003616, -0.6255504449081913 
3.820000000003637, -0.6252593762519523 
3.830000000003658, -0.6248981704209086 
3.840000000003679, -0.6244733695130527 
3.8500000000037002, -0.6240052943552631 
3.8600000000037213, -0.6235286419357802 
3.8700000000037424, -0.6230977116785053 
3.8800000000037635, -0.6227975438675413 
3.8900000000037847, -0.6227616210615857 
3.9000000000038058, -0.6231964261074835 
3.910000000003827, -0.6244122272236347 
3.920000000003848, -0.6268568978037534 
3.930000000003869, -0.6311431729805121 
3.94000000000389, -0.6380447831109992 
3.9500000000039113, -0.648407253695015 
3.9600000000039324, -0.6628819079660817 
3.9700000000039535, -0.6814136111455433 
3.9800000000039746, -0.7026540879911066 
3.9900000000039957, -0.7239301458983991 
4.000000000004016, -0.7423246055878756 
4.010000000003993, -0.7561683762214781 
4.02000000000397, -0.7654934578817598 
4.030000000003946, -0.7713135858719412 
4.040000000003923, -0.7747716050308424 
4.0500000000039, -0.7767427286319357 
4.0600000000038765, -0.7777910867140172 
4.070000000003853, -0.7782464840805727 
4.08000000000383, -0.778283152379381 
4.090000000003807, -0.7779698977921256 
4.100000000003783, -0.7772913113232882 
4.11000000000376, -0.7761430368940709 
4.120000000003737, -0.7742994160116285 
4.130000000003713, -0.7713469797874157 
4.14000000000369, -0.7665814718348694 
4.150000000003667, -0.7589050415035832 
4.1600000000036434, -0.7468804515239555 
4.17000000000362, -0.729270082616169 
4.180000000003597, -0.7062107958952817 
4.1900000000035735, -0.680142146398186 
4.20000000000355, -0.6549756353357424 
4.210000000003527, -0.633915192924433 
4.220000000003504, -0.618180381795234 
4.23000000000348, -0.6073696637397837 
4.240000000003457, -0.6003926825164074 
4.250000000003434, -0.5961167723989531 
4.26000000000341, -0.5936254354495243 
4.270000000003387, -0.5922578880286197 
4.280000000003364, -0.5915676255897973 
4.2900000000033405, -0.5912653156811429 
4.300000000003317, -0.5911688098237277 
4.310000000003294, -0.5911653905006207 
4.320000000003271, -0.5911854950845611 
4.330000000003247, -0.5911858450257296 
4.340000000003224, -0.5911400907571187 
4.350000000003201, -0.5910353766832463 
4.360000000003177, -0.5908727974061282 
4.370000000003154, -0.5906684087390766 
4.380000000003131, -0.5904505964134403 
4.390000000003107, -0.5902514051224225 
4.400000000003084, -0.5900939661884582 
4.410000000003061, -0.5899819423279433 
4.4200000000030375, -0.5898966933798608 
4.430000000003014, -0.589803999076201 
4.440000000002991, -0.5896669841563551 
4.450000000002968, -0.5894584231352342 
4.460000000002944, -0.589166877844413 
4.470000000002921, -0.5887963545089584 
4.480000000002898, -0.5883635173898976 
4.490000000002874, -0.5878970803524252 
4.500000000002851, -0.5874424563696665 
4.510000000002828, -0.587073707182895 
4.520000000002804, -0.5869151685785441 
4.530000000002781, -0.5871762951161854 
4.540000000002758, -0.588204140396925 
4.5500000000027345, -0.5905561670556391 
4.560000000002711, -0.5950857284636689 
4.570000000002688, -0.6029990401831279 
4.580000000002665, -0.6157622959225664 
4.590000000002641, -0.6346199686140764 
4.600000000002618, -0.6595321146394808 
4.610000000002595, -0.6880335149224986 
4.620000000002571, -0.7155924490528671 
4.630000000002548, -0.7381053492117287 
4.640000000002525, -0.7540851738578612 
4.6500000000025015, -0.7643839290021346 
4.660000000002478, -0.7706631086800467 
4.670000000002455, -0.7743797266832402 
4.6800000000024315, -0.7765274347613129 
4.690000000002408, -0.7777123421425839 
4.700000000002385, -0.778282291664662 
4.710000000002362, -0.7784229874583233 
4.720000000002338, -0.778213523692762 
4.730000000002315, -0.7776502270459102 
4.740000000002292, -0.7766452875358251 
4.750000000002268, -0.7750014823696166 
4.760000000002245, -0.7723627408344871 
4.770000000002222, -0.7681519035752332 
4.7800000000021985, -0.7615506844244688 
4.790000000002175, -0.7516582344964912 
4.800000000002152, -0.7379787558463382 
4.810000000002129, -0.7210811146450702 
4.820000000002105, -0.7027629791610538 
4.830000000002082, -0.6852908521342924 
4.840000000002059, -0.6703605216742893 
4.850000000002035, -0.6586628070494469 
4.860000000002012, -0.6500938758462839 
4.870000000001989, -0.6441529578064461 
4.880000000001965, -0.6402363069255027 
4.890000000001942, -0.6377864640045234 
4.900000000001919, -0.6363469606291368 
4.9100000000018955, -0.6355700134279453 
4.920000000001872, -0.6352042499362401 
