t, s[1].omega / s[0].omega 
0, -1.1299982745953916 
0.009999999999999995, -1.129700666809924 
0.019999999999999934, -1.1291694385904847 
0.029999999999999874, -1.1284973766064448 
0.04000000000000012, -1.1278850334763482 
0.050000000000000405, -1.1275442517488665 
0.06000000000000069, -1.127489343489294 
0.07000000000000098, -1.1274337543015795 
0.08000000000000126, -1.1270738400925304 
0.09000000000000155, -1.1262226627716658 
0.10000000000000184, -1.1248777459996806 
0.11000000000000212, -1.1231670413865587 
0.12000000000000241, -1.121313544608512 
0.130000000000002, -1.1198557998195204 
0.1400000000000009, -1.1193058891944392 
0.1499999999999998, -1.1192282473085404 
0.1599999999999987, -1.1189661312803423 
0.1699999999999976, -1.1179888147143662 
0.1799999999999965, -1.1154496089702917 
0.1899999999999954, -1.1107480502545315 
0.1999999999999943, -1.1044560081904407 
0.2099999999999932, -1.0985225413087627 
0.2199999999999921, -1.0957084863053246 
0.229999999999991, -1.0954246478581369 
0.2399999999999899, -1.095450030279004 
0.2499999999999888, -1.0950202201241113 
0.2599999999999877, -1.0932401401716598 
0.2699999999999866, -1.086967887474268 
0.2799999999999855, -1.0710374993081855 
0.2899999999999844, -1.0480175816048545 
0.2999999999999833, -1.0321195661496327 
0.3099999999999822, -1.0285829788186558 
0.3199999999999811, -1.0288547634505236 
0.32999999999998, -1.0290078504242492 
0.3399999999999789, -1.0286008321894322 
0.3499999999999778, -1.0268038637926855 
0.35999999999997667, -1.0196989930222613 
0.36999999999997557, -0.9980686477815378 
0.37999999999997447, -0.9637383438708239 
0.38999999999997337, -0.9397662059414943 
0.39999999999997227, -0.9333172244442802 
0.40999999999997117, -0.9331550507604387 
0.41999999999997006, -0.9334260360149604 
0.42999999999996896, -0.9332890704266675 
0.43999999999996786, -0.9324144662068928 
0.44999999999996676, -0.9294805704685181 
0.45999999999996566, -0.9219348274895572 
0.46999999999996456, -0.9101013924794843 
0.47999999999996346, -0.8987491279419256 
0.48999999999996235, -0.891602295776042 
0.49999999999996125, -0.8890160640435311 
0.5099999999999602, -0.8886594081556195 
0.519999999999959, -0.8886723951028415 
0.529999999999958, -0.8884462822540203 
0.5399999999999568, -0.8876438036220006 
0.5499999999999557, -0.8858582374868023 
0.5599999999999546, -0.8831939803650845 
0.5699999999999535, -0.8803615747801732 
0.5799999999999524, -0.8778784078069121 
0.5899999999999513, -0.8760400971551017 
0.5999999999999502, -0.8750493652018279 
0.6099999999999491, -0.8747606048621366 
0.619999999999948, -0.8747329798653424 
0.6299999999999469, -0.8746194979374706 
0.6399999999999458, -0.8742512440093466 
0.6499999999999447, -0.8736328287140674 
0.6599999999999436, -0.8729028991519416 
0.6699999999999425, -0.8721545472958275 
0.6799999999999414, -0.8714416511907164 
0.6899999999999403, -0.8708801186999867 
0.6999999999999392, -0.8706050854654155 
0.7099999999999381, -0.8706448855701509 
0.719999999999937, -0.8708810067785779 
0.7299999999999359, -0.8711560770302955 
0.7399999999999348, -0.8713934706264954 
0.7499999999999337, -0.8715731469777585 
0.7599999999999326, -0.8716234785484309 
0.7699999999999315, -0.8714732579909192 
0.7799999999999304, -0.8711878071362198 
0.7899999999999293, -0.870991251573848 
0.7999999999999282, -0.871216236369201 
0.8099999999999271, -0.8720557599021148 
0.819999999999926, -0.8734171832267226 
0.8299999999999249, -0.8751139635132844 
0.8399999999999238, -0.8769291740243946 
0.8499999999999227, -0.8784295356487024 
0.8599999999999216, -0.8791987466816081 
0.8699999999999205, -0.8793254324160473 
0.8799999999999194, -0.8791102768021951 
0.8899999999999183, -0.8789154698707728 
0.8999999999999172, -0.8797205519682008 
0.9099999999999161, -0.8832483520913185 
0.919999999999915, -0.8902198019762025 
0.9299999999999139, -0.8993067671859055 
0.9399999999999128, -0.9073860644036861 
0.9499999999999117, -0.9116879038288118 
0.9599999999999106, -0.9130544518674605 
0.9699999999999095, -0.913224119574099 
0.9799999999999084, -0.9128803088270326 
0.9899999999999073, -0.9123033522187795 
0.9999999999999062, -0.9135626228838891 
1.0099999999999052, -0.9256177847981206 
1.019999999999904, -0.9565280669474052 
1.029999999999903, -0.989447143166967 
1.039999999999902, -1.0050963669776165 
1.0499999999999008, -1.0092683564328446 
1.0599999999998997, -1.0100694168606927 
1.0699999999998986, -1.0099359738977767 
1.0799999999998975, -1.009274698278769 
1.0899999999998964, -1.0088505759641153 
1.0999999999998953, -1.0156571673470944 
1.1099999999998942, -1.0409381808150735 
1.119999999999893, -1.0712059966877296 
1.129999999999892, -1.087257545977859 
1.1399999999998909, -1.091973729861956 
1.1499999999998898, -1.092917955001623 
1.1599999999998887, -1.0928365418326673 
1.1699999999998876, -1.0923793484740287 
1.1799999999998865, -1.0926929331786834 
1.1899999999998854, -1.0970581764178198 
1.1999999999998843, -1.1053261434163426 
1.2099999999998832, -1.1131694650713932 
1.219999999999882, -1.118118983857933 
1.229999999999881, -1.1201413932629924 
1.2399999999998799, -1.1205781438137616 
1.2499999999998788, -1.1204068496507789 
1.2599999999998777, -1.1201830098335843 
1.2699999999998766, -1.120748725680856 
1.2799999999998755, -1.122427324346558 
1.2899999999998744, -1.1244157686600542 
1.2999999999998733, -1.126114611005892 
1.3099999999998722, -1.1272749353199774 
1.319999999999871, -1.127778507201808 
1.32999999999987, -1.1277436595592576 
1.3399999999998689, -1.1274513774748292 
1.3499999999998678, -1.1272666233082964 
1.3599999999998666, -1.1274537246785143 
1.3699999999998655, -1.1278901196247044 
1.3799999999998644, -1.1283215701576654 
1.3899999999998633, -1.1285770765509067 
1.3999999999998622, -1.1285936315747878 
1.4099999999998611, -1.1283518972670368 
1.41999999999986, -1.1278755538812295 
1.429999999999859, -1.1273002019660845 
1.4399999999998578, -1.1268440687381196 
1.4499999999998567, -1.1266601089923665 
1.4599999999998556, -1.1266782820025558 
1.4699999999998545, -1.1266189848352866 
1.4799999999998534, -1.126243006873849 
1.4899999999998523, -1.12545313142713 
1.4999999999998512, -1.1242986381791344 
1.5099999999998501, -1.1228861618350001 
1.519999999999849, -1.1214274906425372 
1.529999999999848, -1.1203863291101712 
1.5399999999998468, -1.1200528563996563 
1.5499999999998457, -1.1199758428503013 
1.5599999999998446, -1.1196225408365317 
1.5699999999998435, -1.1184949123458068 
1.5799999999998424, -1.1159955515408586 
1.5899999999998413, -1.112022621110351 
1.5999999999998402, -1.107200156973838 
1.6099999999998391, -1.103039253149337 
1.619999999999838, -1.1013253601042816 
1.629999999999837, -1.1012049643081778 
1.6399999999998358, -1.101133926662868 
1.6499999999998347, -1.1004993652386308 
1.6599999999998336, -1.0981430214364405 
1.6699999999998325, -1.0909720137352978 
1.6799999999998314, -1.0763792238325762 
1.6899999999998303, -1.0589463574999216 
1.6999999999998292, -1.0488878061540947 
1.709999999999828, -1.0472698692327997 
1.719999999999827, -1.047554730382805 
1.729999999999826, -1.0475365776151269 
1.7399999999998248, -1.0468320472797592 
1.7499999999998237, -1.0439478643362556 
1.7599999999998226, -1.0330185248956942 
1.7699999999998215, -1.0053934529896085 
1.7799999999998204, -0.9718427915774754 
1.7899999999998193, -0.9550482283362627 
1.7999999999998182, -0.9524607070111941 
1.809999999999817, -0.9528085759992926 
1.819999999999816, -0.9529454674417605 
1.8299999999998149, -0.952558853217643 
1.8399999999998138, -0.9509768548621963 
1.8499999999998127, -0.9457308242580308 
1.8599999999998116, -0.9334209198466075 
1.8699999999998105, -0.9169612993941791 
1.8799999999998094, -0.9039929401938275 
1.8899999999998083, -0.898102197121888 
1.8999999999998072, -0.8969091165068017 
1.909999999999806, -0.8969360312409367 
1.919999999999805, -0.8968796896924164 
1.9299999999998039, -0.8963753088276203 
1.9399999999998028, -0.8949136690311896 
1.9499999999998017, -0.8919746491850095 
1.9599999999998006, -0.8880716428151707 
1.9699999999997995, -0.8842857129330373 
1.9799999999997984, -0.8812777684782871 
1.9899999999997973, -0.8794443574602357 
1.9999999999997962, -0.8787605417447908 
2.0099999999998173, -0.8786550767472714 
2.0199999999998384, -0.8785843442325739 
2.0299999999998595, -0.8782652102616476 
2.0399999999998806, -0.8775700070910791 
2.0499999999999017, -0.8765941040079991 
2.059999999999923, -0.8755493831511487 
2.069999999999944, -0.8745527970705428 
2.079999999999965, -0.8736969421778126 
2.089999999999986, -0.8731185689264876 
2.100000000000007, -0.872902888808888 
2.1100000000000283, -0.8729669149086362 
2.1200000000000494, -0.8731135671407124 
2.1300000000000705, -0.8731990210225348 
2.1400000000000916, -0.8731971213823493 
2.1500000000001127, -0.8731182027226181 
2.160000000000134, -0.8729204066163863 
2.170000000000155, -0.8725956900748124 
2.180000000000176, -0.8722692948074512 
2.190000000000197, -0.872180569325089 
2.2000000000002182, -0.8725201343774985 
2.2100000000002393, -0.8732668492696397 
2.2200000000002604, -0.8742761005230545 
2.2300000000002815, -0.8754210798188666 
2.2400000000003026, -0.8765372328316943 
2.2500000000003237, -0.8773155796107441 
2.260000000000345, -0.8775761381055615 
2.270000000000366, -0.8774542323854297 
2.280000000000387, -0.8772123203731954 
2.290000000000408, -0.8773814842311503 
2.3000000000004293, -0.8789277080725212 
2.3100000000004504, -0.8824591786844604 
2.3200000000004715, -0.8876057584054169 
2.3300000000004926, -0.893292856227898 
2.3400000000005137, -0.8976867766651164 
2.3500000000005348, -0.8997421336248225 
2.360000000000556, -0.9002768765261561 
2.370000000000577, -0.9001539434813782 
2.380000000000598, -0.899720587320147 
2.390000000000619, -0.8997719493407215 
2.4000000000006403, -0.9042623906811321 
2.4100000000006614, -0.9201893959739811 
2.4200000000006825, -0.9456187048840008 
2.4300000000007036, -0.9659807113693494 
2.4400000000007247, -0.9742462659639411 
2.450000000000746, -0.9763452439614685 
2.460000000000767, -0.9766462590199437 
2.470000000000788, -0.9763024451757929 
2.480000000000809, -0.9755060419285942 
2.49000000000083, -0.9761614281839615 
2.5000000000008513, -0.9893992048296746 
2.5100000000008724, -1.0241960231548701 
2.5200000000008935, -1.0566817218300482 
2.5300000000009146, -1.0700969404717462 
2.5400000000009357, -1.0733975661293973 
2.550000000000957, -1.073948666200101 
2.560000000000978, -1.073715293743912 
2.570000000000999, -1.0731552808969513 
2.58000000000102, -1.0740683542430707 
2.5900000000010412, -1.0815608252005036 
2.6000000000010624, -1.0945945760046571 
2.6100000000010835, -1.1057869861593381 
2.6200000000011046, -1.1116788357701153 
2.6300000000011257, -1.113609199914997 
2.6400000000011468, -1.1139195519860445 
2.650000000001168, -1.1136811215206972 
2.660000000001189, -1.1135010647769141 
2.67000000000121, -1.1145769846452036 
2.680000000001231, -1.1172910595959655 
2.6900000000012523, -1.120353881178982 
2.7000000000012734, -1.122862446896712 
2.7100000000012945, -1.1244332044060352 
2.7200000000013156, -1.125030252547731 
2.7300000000013367, -1.124994088280048 
2.740000000001358, -1.1247211183800543 
2.750000000001379, -1.1246664021414128 
2.7600000000014, -1.1251302824555418 
2.770000000001421, -1.1258734056510673 
2.780000000001442, -1.1265684483379381 
2.7900000000014633, -1.1270532427481688 
2.8000000000014844, -1.1272578803224351 
2.8100000000015055, -1.1271448121832512 
2.8200000000015266, -1.1267713535048691 
2.8300000000015477, -1.1263313191961746 
2.840000000001569, -1.126062284487314 
2.85000000000159, -1.126048775954748 
2.860000000001611, -1.1261665544184822 
2.870000000001632, -1.126175565858131 
2.8800000000016532, -1.1259108170563126 
2.8900000000016743, -1.1253416686070739 
2.9000000000016954, -1.124511172476545 
2.9100000000017165, -1.1234956228191484 
2.9200000000017377, -1.122479894379101 
2.9300000000017588, -1.1217925106950326 
2.94000000000178, -1.1215871336762253 
2.950000000001801, -1.1215113309607783 
2.960000000001822, -1.1211409188694266 
2.970000000001843, -1.1201055252478407 
2.9800000000018643, -1.118159913041951 
2.9900000000018854, -1.115429497336775 
3.0000000000019065, -1.1123062887125583 
3.0100000000019276, -1.1096806109761426 
3.0200000000019487, -1.1085972187497393 
3.03000000000197, -1.1084954377325242 
3.040000000001991, -1.1083452770982534 
3.050000000002012, -1.107574427054632 
3.060000000002033, -1.1050665747157928 
3.070000000002054, -1.0989048860316566 
3.0800000000020753, -1.0887428762178533 
3.0900000000020964, -1.0778879610194245 
3.1000000000021175, -1.0719522829196193 
3.1100000000021386, -1.0710931319591444 
3.1200000000021597, -1.0712631487332254 
3.130000000002181, -1.0710900500045129 
3.140000000002202, -1.0700419268958024 
3.150000000002223, -1.0659080909258896 
3.160000000002244, -1.0520356967317266 
3.1700000000022652, -1.0240836206230302 
3.1800000000022863, -0.9973006314090405 
3.1900000000023074, -0.9873942769752032 
3.2000000000023285, -0.986768005910022 
3.2100000000023496, -0.9871447881410125 
3.2200000000023707, -0.9870911612101361 
3.230000000002392, -0.9863225070384553 
3.240000000002413, -0.9833656664426221 
3.250000000002434, -0.9734388089681821 
3.260000000002455, -0.9523099856854981 
3.2700000000024763, -0.9289350347323321 
3.2800000000024974, -0.9156934847243162 
3.2900000000025185, -0.912385784294018 
3.3000000000025396, -0.9123139612603044 
3.3100000000025607, -0.9124196096205752 
3.3200000000025818, -0.9121467757079555 
3.330000000002603, -0.9110567185579268 
3.340000000002624, -0.9080720585679167 
3.350000000002645, -0.9024871899675208 
3.360000000002666, -0.8958135356674041 
3.3700000000026873, -0.890061782372934 
3.3800000000027084, -0.8863751743590594 
3.3900000000027295, -0.8849022946063672 
3.4000000000027506, -0.8846456831258768 
3.4100000000027717, -0.8846081804004338 
3.420000000002793, -0.8843458565786407 
3.430000000002814, -0.8835951868667037 
3.440000000002835, -0.8822419747422308 
3.450000000002856, -0.8805610571287839 
3.460000000002877, -0.8789060482401521 
3.4700000000028983, -0.8774601178219987 
3.4800000000029194, -0.8763826608333641 
3.4900000000029405, -0.875812454322155 
3.5000000000029616, -0.8756799756044475 
3.5100000000029827, -0.8757116785413112 
3.520000000003004, -0.8756675617644809 
3.530000000003025, -0.875452939392583 
3.540000000003046, -0.8751087425927837 
3.550000000003067, -0.8746935791923511 
3.5600000000030882, -0.8742144831771363 
3.5700000000031094, -0.8737277705871708 
3.5800000000031305, -0.8733903017682739 
3.5900000000031516, -0.8733571465809129 
3.6000000000031727, -0.8736428742175556 
3.6100000000031938, -0.8741295328526943 
3.620000000003215, -0.8746898355934984 
3.630000000003236, -0.8752543208425432 
3.640000000003257, -0.8757229353415942 
3.650000000003278, -0.8759292510006897 
3.6600000000032993, -0.87583346052532 
3.6700000000033204, -0.8755829199662274 
3.6800000000033415, -0.8754987427341239 
3.6900000000033626, -0.8760868219484732 
3.7000000000033837, -0.8776592901272289 
3.710000000003405, -0.8800697387657983 
3.720000000003426, -0.8829834394738094 
3.730000000003447, -0.8858412766079763 
3.740000000003468, -0.887783397076864 
3.750000000003489, -0.8885503570052445 
3.7600000000035103, -0.8885979756110087 
3.7700000000035314, -0.8883127023321437 
3.7800000000035525, -0.8881580179107201 
3.7900000000035736, -0.8898102205520647 
3.8000000000035947, -0.8964011679900935 
3.810000000003616, -0.9087956471602501 
3.820000000003637, -0.923007068424498 
3.830000000003658, -0.9326311741516972 
3.840000000003679, -0.9363092659118848 
3.8500000000037002, -0.9371986136486014 
3.8600000000037213, -0.9371542559370106 
3.8700000000037424, -0.9366305916767874 
3.8800000000037635, -0.9360661709193548 
3.8900000000037847, -0.9398927519544158 
3.9000000000038058, -0.9615297864199701 
3.910000000003827, -1.0001266869803225 
3.920000000003848, -1.0275940394327796 
3.930000000003869, -1.0368380952411735 
3.94000000000389, -1.0388979800147462 
3.9500000000039113, -1.0391405924444577 
3.9600000000039324, -1.0387514747206654 
3.9700000000039535, -1.0380637506492147 
3.9800000000039746, -1.0399990480117929 
3.9900000000039957, -1.0532547027025578 
4.000000000004016, -1.0755566722687169 
4.010000000003993, -1.092440233539558 
4.02000000000397, -1.0994298786055408 
4.030000000003946, -1.1012479221369236 
4.040000000003923, -1.1014556069552541 
4.0500000000039, -1.1011394870291877 
4.0600000000038765, -1.1009638553776653 
4.070000000003853, -1.1028754494958923 
4.08000000000383, -1.1077997714044399 
4.090000000003807, -1.1133405941741559 
4.100000000003783, -1.1175967376480271 
4.11000000000376, -1.1199049797574094 
4.120000000003737, -1.120651013236842 
4.130000000003713, -1.120624159345373 
4.14000000000369, -1.1203577862665293 
4.150000000003667, -1.120453383294983 
4.1600000000036434, -1.1213873240683088 
4.17000000000362, -1.122755560872745 
4.180000000003597, -1.1240314696801172 
4.1900000000035735, -1.1249898052589828 
4.20000000000355, -1.1255066108401515 
4.210000000003527, -1.125553405754103 
4.220000000003504, -1.1252787024614506 
4.23000000000348, -1.124960676546341 
4.240000000003457, -1.1248929737533027 
4.250000000003434, -1.1251067783476845 
4.26000000000341, -1.1254126628979813 
4.270000000003387, -1.1256011491330125 
4.280000000003364, -1.125561984106917 
4.2900000000033405, -1.1252772719538235 
4.300000000003317, -1.1247581804643991 
4.310000000003294, -1.1240780817358167 
4.320000000003271, -1.1234213225119303 
4.330000000003247, -1.123011898272665 
4.340000000003224, -1.1229177587898262 
4.350000000003201, -1.122884434123186 
4.360000000003177, -1.1225921318262537 
4.370000000003154, -1.1218281797423024 
4.380000000003131, -1.120556338460467 
4.390000000003107, -1.118895681614033 
4.400000000003084, -1.1170421229465468 
4.410000000003061, -1.11546013058774 
4.4200000000030375, -1.1147431995005292 
4.430000000003014, -1.1146347711908347 
4.440000000002991, -1.1144487335534614 
4.450000000002968, -1.1136790302599964 
4.460000000002944, -1.1115756904450804 
4.470000000002921, -1.107461851276773 
4.480000000002898, -1.1016787948549158 
4.490000000002874, -1.0957441555878058 
4.500000000002851, -1.0922948416908476 
4.510000000002828, -1.0916890376026913 
4.520000000002804, -1.091737239924169 
4.530000000002781, -1.0914475416589067 
4.540000000002758, -1.0901387705036736 
4.5500000000027345, -1.0854993917659508 
4.560000000002711, -1.0730313715840556 
4.570000000002688, -1.0529281244589743 
4.580000000002665, -1.0359691902850507 
4.590000000002641, -1.0304860795680162 
4.600000000002618, -1.0304160335236157 
4.610000000002595, -1.0306431090928876 
4.620000000002571, -1.0303833773563742 
4.630000000002548, -1.0290668423569058 
4.640000000002525, -1.0238904105319326 
4.6500000000025015, -1.0071323836154795 
4.660000000002478, -0.9765734010616793 
4.670000000002455, -0.9506772283653321 
4.6800000000024315, -0.9416346449415816 
4.690000000002408, -0.94090327569886 
4.700000000002385, -0.9412041557562794 
4.710000000002362, -0.9411579458762126 
4.720000000002338, -0.9404796088844912 
4.730000000002315, -0.9381020283616424 
4.740000000002292, -0.9314739724108861 
4.750000000002268, -0.9198126036068721 
4.760000000002245, -0.9075373858825287 
4.770000000002222, -0.8991814929155197 
4.7800000000021985, -0.8958596512780992 
4.790000000002175, -0.8953184320149836 
4.800000000002152, -0.8953429372335606 
4.810000000002129, -0.895171489900534 
4.820000000002105, -0.8944624335708309 
4.830000000002082, -0.8927451352824949 
4.840000000002059, -0.8899373909704675 
4.850000000002035, -0.8867661163221262 
4.860000000002012, -0.8839088536871843 
4.870000000001989, -0.8817463431953358 
4.880000000001965, -0.8805391681224047 
4.890000000001942, -0.8801611244664743 
4.900000000001919, -0.8801174854230663 
4.9100000000018955, -0.8800070195193127 
4.920000000001872, -0.8796244218804904 
4.930000000001849, -0.8789345481842818 
