t, s[1].omega / s[0].omega 
0, -1.359968294327862 
0.009999999999999995, -1.3622352610417023 
0.019999999999999934, -1.3718755988501146 
0.029999999999999874, -1.382117595274551 
0.04000000000000012, -1.3894110040587413 
0.050000000000000405, -1.393675825670816 
0.06000000000000069, -1.395892756245871 
0.07000000000000098, -1.3969008582995714 
0.08000000000000126, -1.39720533575175 
0.09000000000000155, -1.3970716744141298 
0.10000000000000184, -1.3966381817577807 
0.11000000000000212, -1.3960164801424246 
0.12000000000000241, -1.395403497279229 
0.130000000000002, -1.3951745351833718 
0.1400000000000009, -1.3957995011754964 
0.1499999999999998, -1.397501024993461 
0.1599999999999987, -1.4000166847691091 
0.1699999999999976, -1.4028093789202774 
0.1799999999999965, -1.405419980573245 
0.1899999999999954, -1.4075985629576462 
0.1999999999999943, -1.4092575692603966 
0.2099999999999932, -1.410396749894096 
0.2199999999999921, -1.4110554754800604 
0.229999999999991, -1.4112893810375986 
0.2399999999999899, -1.4111593503344753 
0.2499999999999888, -1.410726837059411 
0.2599999999999877, -1.4100550761725963 
0.2699999999999866, -1.4092158065622524 
0.2799999999999855, -1.4082960532568793 
0.2899999999999844, -1.407397045844944 
0.2999999999999833, -1.4066239665405362 
0.3099999999999822, -1.406066457672261 
0.3199999999999811, -1.4057619861434933 
0.32999999999998, -1.4056604487727398 
0.3399999999999789, -1.405638180115713 
0.3499999999999778, -1.4055531643284065 
0.35999999999997667, -1.4052772604475232 
0.36999999999997557, -1.4046804270161108 
0.37999999999997447, -1.4035889097458503 
0.38999999999997337, -1.4017405295910386 
0.39999999999997227, -1.398754011504804 
0.40999999999997117, -1.3941418647905277 
0.41999999999997006, -1.3874261516098105 
0.42999999999996896, -1.3784478289790667 
0.43999999999996786, -1.3679059727493779 
0.44999999999996676, -1.3577696213945365 
0.45999999999996566, -1.3505702751862239 
0.46999999999996456, -1.3474307605743863 
0.47999999999996346, -1.3472371252212034 
0.48999999999996235, -1.3481549773975767 
0.49999999999996125, -1.3490597344514639 
0.5099999999999602, -1.3495923063895732 
0.519999999999959, -1.3497281112877744 
0.529999999999958, -1.349499931303066 
0.5399999999999568, -1.34889380246347 
0.5499999999999557, -1.3478193515628092 
0.5599999999999546, -1.3461284400295463 
0.5699999999999535, -1.3437671435238365 
0.5799999999999524, -1.341266791547549 
0.5899999999999513, -1.3405488845439975 
0.5999999999999502, -1.3447356826408168 
0.6099999999999491, -1.3553002069722022 
0.619999999999948, -1.3695963661769626 
0.6299999999999469, -1.3832015857719648 
0.6399999999999458, -1.3935102337354328 
0.6499999999999447, -1.4002451309120192 
0.6599999999999436, -1.4042173744874367 
0.6699999999999425, -1.40635854417639 
0.6799999999999414, -1.4073692103000095 
0.6899999999999403, -1.4076939708488885 
0.6999999999999392, -1.4075952335614867 
0.7099999999999381, -1.4072361141874912 
0.719999999999937, -1.4067527466972083 
0.7299999999999359, -1.4063056015745374 
0.7399999999999348, -1.406076453208827 
0.7499999999999337, -1.4061911138669003 
0.7599999999999326, -1.4066418701549808 
0.7699999999999315, -1.4073072223303602 
0.7799999999999304, -1.4080342371531243 
0.7899999999999293, -1.408692925231637 
0.7999999999999282, -1.4091883438937791 
0.8099999999999271, -1.4094556286571636 
0.819999999999926, -1.4094508336101197 
0.8299999999999249, -1.4091422678614478 
0.8399999999999238, -1.4085053756970531 
0.8499999999999227, -1.4075217223454375 
0.8599999999999216, -1.406181838535406 
0.8699999999999205, -1.4044934719144833 
0.8799999999999194, -1.402499021159609 
0.8899999999999183, -1.4003058107155284 
0.8999999999999172, -1.3981220813817967 
0.9099999999999161, -1.3962537447006371 
0.919999999999915, -1.3949852084163357 
0.9299999999999139, -1.3943806316165752 
0.9399999999999128, -1.3942330947115429 
0.9499999999999117, -1.394239188681953 
0.9599999999999106, -1.394166574048326 
0.9699999999999095, -1.3938682248113994 
0.9799999999999084, -1.39320795120078 
0.9899999999999073, -1.3919669054123704 
0.9999999999999062, -1.3897330800988716 
1.0099999999999052, -1.3857611192519141 
1.019999999999904, -1.3788724345615708 
1.029999999999903, -1.3677412642405038 
1.039999999999902, -1.3522910297604638 
1.0499999999999008, -1.3360564821208873 
1.0599999999998997, -1.3256740499792536 
1.0699999999998986, -1.3245539322108413 
1.0799999999998975, -1.3293571228788157 
1.0899999999998964, -1.3350315420454746 
1.0999999999998953, -1.3391921264215938 
1.1099999999998942, -1.341661398325398 
1.119999999999893, -1.342925394859256 
1.129999999999892, -1.3434275777740248 
1.1399999999998909, -1.343437791377678 
1.1499999999998898, -1.3430897133130821 
1.1599999999998887, -1.3424441557200213 
1.1699999999998876, -1.3415743183608604 
1.1799999999998865, -1.3407131778317996 
1.1899999999998854, -1.3404401909746493 
1.1999999999998843, -1.3416430834758146 
1.2099999999998832, -1.3449316151934008 
1.219999999999882, -1.3499751358774827 
1.229999999999881, -1.3557015753250372 
1.2399999999998799, -1.3610713067002842 
1.2499999999998788, -1.3655016193638772 
1.2599999999998777, -1.3688236151930537 
1.2699999999998766, -1.3711045174957528 
1.2799999999998755, -1.3725125242572498 
1.2899999999998744, -1.3732390581748732 
1.2999999999998733, -1.3734580624311727 
1.3099999999998722, -1.373310711098871 
1.319999999999871, -1.372910012530394 
1.32999999999987, -1.3723583206081327 
1.3399999999998689, -1.3717645315285432 
1.3499999999998678, -1.3712421824858831 
1.3599999999998666, -1.370882154357282 
1.3699999999998655, -1.370724292757399 
1.3799999999998644, -1.3707531315853134 
1.3899999999998633, -1.3709089293399621 
1.3999999999998622, -1.3711016650234373 
1.4099999999998611, -1.3712308098331498 
1.41999999999986, -1.3712030092324388 
1.429999999999859, -1.3709349361238352 
1.4399999999998578, -1.3703448198112202 
1.4499999999998567, -1.369345159488701 
1.4599999999998556, -1.367844082407504 
1.4699999999998545, -1.3657558392127798 
1.4799999999998534, -1.3630197479692086 
1.4899999999998523, -1.3596329406984835 
1.4999999999998512, -1.35570957267783 
1.5099999999998501, -1.3515665755976358 
1.519999999999849, -1.3477664811396635 
1.529999999999848, -1.3449522595617953 
1.5399999999998468, -1.3434435902637571 
1.5499999999998457, -1.342999163522403 
1.5599999999998446, -1.343078047032936 
1.5699999999998435, -1.3432347470227566 
1.5799999999998424, -1.3432367613692662 
1.5899999999998413, -1.342974842680519 
1.5999999999998402, -1.3423481857783668 
1.6099999999998391, -1.3411731011549786 
1.619999999999838, -1.3390908245050324 
1.629999999999837, -1.3354629138935514 
1.6399999999998358, -1.3293500465952093 
1.6499999999998347, -1.3199595002650157 
1.6599999999998336, -1.3081877046428492 
1.6699999999998325, -1.2984805165333917 
1.6799999999998314, -1.2967657368443866 
1.6899999999998303, -1.303870493455398 
1.6999999999998292, -1.3144938003507953 
1.709999999999828, -1.3235554809725667 
1.719999999999827, -1.329503719967837 
1.729999999999826, -1.33288641370578 
1.7399999999998248, -1.334621110392618 
1.7499999999998237, -1.3353790051896048 
1.7599999999998226, -1.3355489538357346 
1.7699999999998215, -1.335331952815246 
1.7799999999998204, -1.3348319021470758 
1.7899999999998193, -1.3341423029822799 
1.7999999999998182, -1.3334581864451187 
1.809999999999817, -1.333192487762569 
1.819999999999816, -1.3339335715566008 
1.8299999999998149, -1.3360802521051451 
1.8399999999998138, -1.339452655624099 
1.8499999999998127, -1.3434004175222158 
1.8599999999998116, -1.347250477705383 
1.8699999999998105, -1.3505776129637357 
1.8799999999998094, -1.3532048726406203 
1.8899999999998083, -1.3551113801647174 
1.8999999999998072, -1.3563569305089258 
1.909999999999806, -1.357037657477988 
1.919999999999805, -1.3572598959904032 
1.9299999999998039, -1.3571246879790266 
1.9399999999998028, -1.3567228858613432 
1.9499999999998017, -1.3561410863690573 
1.9599999999998006, -1.3554724581004183 
1.9699999999997995, -1.3548192381168154 
1.9799999999997984, -1.354277246161426 
1.9899999999997973, -1.3539121554519933 
1.9999999999997962, -1.3537452073978773 
2.0099999999998173, -1.3537485068338693 
2.0199999999998384, -1.3538476508484978 
2.0299999999998595, -1.3539403728666688 
2.0399999999998806, -1.3539227889972554 
2.0499999999999017, -1.3537007268140564 
2.059999999999923, -1.3531821066992937 
2.069999999999944, -1.3522644179099657 
2.079999999999965, -1.3508303498501368 
2.089999999999986, -1.3487565882620525 
2.100000000000007, -1.3459355760202916 
2.1100000000000283, -1.34231159603062 
2.1200000000000494, -1.337940915580718 
2.1300000000000705, -1.333085872430975 
2.1400000000000916, -1.3283036783908393 
2.1500000000001127, -1.3243729764896979 
2.160000000000134, -1.3219033151277577 
2.170000000000155, -1.3208934049599268 
2.180000000000176, -1.320798448350567 
2.190000000000197, -1.3210129962496544 
2.2000000000002182, -1.3211689537591038 
2.2100000000002393, -1.3211073426002795 
2.2200000000002604, -1.320747100998387 
2.2300000000002815, -1.3199801041023425 
2.2400000000003026, -1.3185899242068237 
2.2500000000003237, -1.3161639470097874 
2.260000000000345, -1.3120102758471692 
2.270000000000366, -1.305238272459145 
2.280000000000387, -1.2954669822449048 
2.290000000000408, -1.2845635156390451 
2.3000000000004293, -1.2776872895015923 
2.3100000000004504, -1.2795931824270228 
2.3200000000004715, -1.2889287472612614 
2.3300000000004926, -1.299926252870169 
2.3400000000005137, -1.3085097357470001 
2.3500000000005348, -1.3139231747843225 
2.360000000000556, -1.3169427777397535 
2.370000000000577, -1.3184660207238774 
2.380000000000598, -1.3191041594555923 
2.390000000000619, -1.3192023298049207 
2.4000000000006403, -1.3189368327665645 
2.4100000000006614, -1.318400924810842 
2.4200000000006825, -1.3176902266184987 
2.4300000000007036, -1.3170165768955209 
2.4400000000007247, -1.316820799486414 
2.450000000000746, -1.317710906605201 
2.460000000000767, -1.3200763098533643 
2.470000000000788, -1.3237056372882519 
2.480000000000809, -1.3279163659005855 
2.49000000000083, -1.3320107842956066 
2.5000000000008513, -1.3355467595516761 
2.5100000000008724, -1.3383389114513502 
2.5200000000008935, -1.340366443538258 
2.5300000000009146, -1.3416959483796518 
2.5400000000009357, -1.3424339444163762 
2.550000000000957, -1.3426973620594689 
2.560000000000978, -1.3425956945738848 
2.570000000000999, -1.3422253528048023 
2.58000000000102, -1.3416761465685485 
2.5900000000010412, -1.3410433870001137 
2.6000000000010624, -1.3404315651554446 
2.6100000000010835, -1.3399382750715287 
2.6200000000011046, -1.3396277114503454 
2.6300000000011257, -1.339515742001531 
2.6400000000011468, -1.3395700421650645 
2.650000000001168, -1.3397173064473782 
2.660000000001189, -1.3398602973259568 
2.67000000000121, -1.3399005882686332 
2.680000000001231, -1.3397502846428482 
2.6900000000012523, -1.3393279785408043 
2.7000000000012734, -1.3385499015143156 
2.7100000000012945, -1.3373273221141369 
2.7200000000013156, -1.3355735615398954 
2.7300000000013367, -1.333218797887468 
2.740000000001358, -1.3302321979637777 
2.750000000001379, -1.326657873346616 
2.7600000000014, -1.3226739063482666 
2.770000000001421, -1.3186591789896944 
2.780000000001442, -1.3151803251974354 
2.7900000000014633, -1.3127699504698085 
2.8000000000014844, -1.3115765565751085 
2.8100000000015055, -1.3112753126891152 
2.8200000000015266, -1.311367688466158 
2.8300000000015477, -1.3114832100650116 
2.840000000001569, -1.3114313313343324 
2.85000000000159, -1.3111110624583906 
2.860000000001611, -1.3104118071962167 
2.870000000001632, -1.3091294536825924 
2.8800000000016532, -1.3068729326739557 
2.8900000000016743, -1.302950971554427 
2.9000000000016954, -1.2963217674784193 
2.9100000000017165, -1.2859362648437083 
2.9200000000017377, -1.2720476278512527 
2.9300000000017588, -1.258100089616295 
2.94000000000178, -1.2499202744669602 
2.950000000001801, -1.2503671774099383 
2.960000000001822, -1.25642932754053 
2.970000000001843, -1.263316517836067 
2.9800000000018643, -1.2685180406786039 
2.9900000000018854, -1.2717461725818984 
3.0000000000019065, -1.2735146022102533 
3.0100000000019276, -1.2743487368136912 
3.0200000000019487, -1.2745937123186144 
3.03000000000197, -1.2744350839642324 
3.040000000001991, -1.2739547054208278 
3.050000000002012, -1.2731885784715566 
3.060000000002033, -1.2722134236878377 
3.070000000002054, -1.2713064342381952 
3.0800000000020753, -1.2711462721275277 
3.0900000000020964, -1.2727744853992535 
3.1000000000021175, -1.2769669737306912 
3.1100000000021386, -1.2834459900799622 
3.1200000000021597, -1.290961670640273 
3.130000000002181, -1.2981470980514094 
3.140000000002202, -1.3041407773718692 
3.150000000002223, -1.3086477169667003 
3.160000000002244, -1.3117445811475625 
3.1700000000022652, -1.313680942040071 
3.1800000000022863, -1.3147444564579374 
3.1900000000023074, -1.3151877602817508 
3.2000000000023285, -1.315203407862852 
3.2100000000023496, -1.3149312374802336 
3.2200000000023707, -1.314483686827726 
3.230000000002392, -1.3139754364939091 
3.240000000002413, -1.3135379811139 
3.250000000002434, -1.3132978346568653 
3.260000000002455, -1.31332641737334 
3.2700000000024763, -1.3136103469402063 
3.2800000000024974, -1.3140706241868352 
3.2900000000025185, -1.3146022810885643 
3.3000000000025396, -1.315102655587534 
3.3100000000025607, -1.3154852889513802 
3.3200000000025818, -1.3156842509259596 
3.330000000002603, -1.3156517255713145 
3.340000000002624, -1.3153533499223355 
3.350000000002645, -1.3147652210842933 
3.360000000002666, -1.3138733823741586 
3.3700000000026873, -1.3126753382484286 
3.3800000000027084, -1.311184271376099 
3.3900000000027295, -1.309437777880835 
3.4000000000027506, -1.3075122925315146 
3.4100000000027717, -1.3055405480744517 
3.420000000002793, -1.3037181763707095 
3.430000000002814, -1.3022673436380061 
3.440000000002835, -1.301336940454447 
3.450000000002856, -1.3009032423810454 
3.460000000002877, -1.3007847974172353 
3.4700000000028983, -1.3007592492948923 
3.4800000000029194, -1.3006517575346026 
3.4900000000029405, -1.3003362696420733 
3.5000000000029616, -1.2996864922516604 
3.5100000000029827, -1.2985141222175662 
3.520000000003004, -1.2965025142606792 
3.530000000003025, -1.2931411441965814 
3.540000000003046, -1.2877014494762837 
3.550000000003067, -1.2793668907992966 
3.5600000000030882, -1.2676907938891886 
3.5700000000031094, -1.2534144819597155 
3.5800000000031305, -1.2390611532295965 
3.5900000000031516, -1.2280627045545365 
3.6000000000031727, -1.2223575124080814 
3.6100000000031938, -1.2210856569829474 
3.620000000003215, -1.2219959930940136 
3.630000000003236, -1.2233490597565089 
3.640000000003257, -1.2243989795729848 
3.650000000003278, -1.2249946383263972 
3.6600000000032993, -1.2251818135744101 
3.6700000000033204, -1.2250157858848127 
3.6800000000033415, -1.2244978832265245 
3.6900000000033626, -1.2235530433967527 
3.7000000000033837, -1.2220198198435794 
3.710000000003405, -1.219678743599059 
3.720000000003426, -1.2164290001581217 
3.730000000003447, -1.2128112208515687 
3.740000000003468, -1.2108309981669882 
3.750000000003489, -1.2139277144195064 
3.7600000000035103, -1.2244095026871886 
3.7700000000035314, -1.2403192917745791 
3.7800000000035525, -1.2566381026865021 
3.7900000000035736, -1.2695281472669537 
3.8000000000035947, -1.2780809308295826 
3.810000000003616, -1.2831477237480025 
3.820000000003637, -1.2859149205175062 
3.830000000003658, -1.2872946619375119 
3.840000000003679, -1.2878548389937268 
3.8500000000037002, -1.2879145877326554 
3.8600000000037213, -1.287647189996136 
3.8700000000037424, -1.2871626835853536 
3.8800000000037635, -1.2865847626084161 
3.8900000000037847, -1.2861282296595302 
3.9000000000038058, -1.2861286547284954 
3.910000000003827, -1.2869288166833488 
3.920000000003848, -1.2886464262669015 
3.930000000003869, -1.2910654017496912 
3.94000000000389, -1.2937837360306954 
3.9500000000039113, -1.2964301852766293 
3.9600000000039324, -1.2987627925096372 
3.9700000000039535, -1.300659711539541 
3.9800000000039746, -1.3020791719744647 
3.9900000000039957, -1.3030279124067976 
4.000000000004016, -1.3035425715465863 
4.010000000003993, -1.303677805660896 
4.02000000000397, -1.303497068297256 
4.030000000003946, -1.3030670923014227 
4.040000000003923, -1.3024586974787349 
4.0500000000039, -1.3017523896111505 
4.0600000000038765, -1.301040430282482 
4.070000000003853, -1.3004164015469375 
4.08000000000383, -1.2999549257826364 
4.090000000003807, -1.2996940116380729 
4.100000000003783, -1.2996249944868308 
4.11000000000376, -1.2996905659117928 
4.120000000003737, -1.2997983646082765 
4.130000000003713, -1.29984684754142 
4.14000000000369, -1.2997433827316625 
4.150000000003667, -1.299404259732303 
4.1600000000036434, -1.2987455571291 
4.17000000000362, -1.297677931220331 
4.180000000003597, -1.2961115422309706 
4.1900000000035735, -1.293970095663012 
4.20000000000355, -1.2912104605065975 
4.210000000003527, -1.2878484663775667 
4.220000000003504, -1.283997826061143 
4.23000000000348, -1.2799232499104647 
4.240000000003457, -1.276070850345412 
4.250000000003434, -1.2729801847983162 
4.26000000000341, -1.2710230896711923 
4.270000000003387, -1.2701580624132591 
4.280000000003364, -1.2699950523693178 
4.2900000000033405, -1.2700942864036675 
4.300000000003317, -1.2701624874789672 
4.310000000003294, -1.2700487902709736 
4.320000000003271, -1.2696585333443484 
4.330000000003247, -1.268869836578175 
4.340000000003224, -1.267457912869486 
4.350000000003201, -1.2650050596489266 
4.360000000003177, -1.2607923948344002 
4.370000000003154, -1.2537505891374046 
4.380000000003131, -1.2427403217742978 
4.390000000003107, -1.2276009625165591 
4.400000000003084, -1.2107564217972793 
4.410000000003061, -1.1971794812881242 
4.4200000000030375, -1.1907884236931099 
4.430000000003014, -1.1910381514723993 
4.440000000002991, -1.194431919117106 
4.450000000002968, -1.1980428939849346 
4.460000000002944, -1.200704372651665 
4.470000000002921, -1.2023363607408382 
4.480000000002898, -1.2031866440451893 
4.490000000002874, -1.2034929092482243 
4.500000000002851, -1.203401153680986 
4.510000000002828, -1.2029680666531228 
4.520000000002804, -1.2021789104461305 
4.530000000002781, -1.200976193902204 
4.540000000002758, -1.1993391772938746 
4.5500000000027345, -1.1975002850933671 
4.560000000002711, -1.196354117837856 
4.570000000002688, -1.1977627585135981 
4.580000000002665, -1.2038751711949276 
4.590000000002641, -1.2152128166487328 
4.600000000002618, -1.2295738753612355 
4.610000000002595, -1.2435268171330551 
4.620000000002571, -1.2546850081462266 
4.630000000002548, -1.2624291287523273 
4.640000000002525, -1.2672729674593455 
4.6500000000025015, -1.2700578639726605 
4.660000000002478, -1.2715148147337134 
4.670000000002455, -1.2721487325372955 
4.6800000000024315, -1.2722695557406145 
4.690000000002408, -1.2720595649790192 
4.700000000002385, -1.271639199318935 
4.710000000002362, -1.2711290019348147 
4.720000000002338, -1.2707040472441977 
4.730000000002315, -1.270606013257312 
4.740000000002292, -1.2710628526009327 
4.750000000002268, -1.2721495190105325 
4.760000000002245, -1.2737324466780373 
4.770000000002222, -1.2755592820368882 
4.7800000000021985, -1.2773856022934549 
4.790000000002175, -1.2790374250556051 
4.800000000002152, -1.28041248304042 
4.810000000002129, -1.2814601449741216 
4.820000000002105, -1.2821630427953024 
4.830000000002082, -1.2825258728642308 
4.840000000002059, -1.282569515135962 
4.850000000002035, -1.2823273540459699 
4.860000000002012, -1.2818427176407172 
4.870000000001989, -1.2811687731842771 
4.880000000001965, -1.2803714906612769 
4.890000000001942, -1.2795318727909852 
4.900000000001919, -1.2787407797644428 
4.9100000000018955, -1.2780845132854646 
4.920000000001872, -1.2776262646388206 
4.930000000001849, -1.2773872189481263 
4.940000000001826, -1.2773326565753549 
