t, s[1].omega / s[0].omega 
0, -1.159996280741348 
0.009999999999999995, -1.1594886811232439 
0.019999999999999934, -1.158712914579641 
0.029999999999999874, -1.1576708191336151 
0.04000000000000012, -1.1563671868536194 
0.050000000000000405, -1.1548120561500401 
0.06000000000000069, -1.1530230513824733 
0.07000000000000098, -1.1510273072312651 
0.08000000000000126, -1.1488626065160517 
0.09000000000000155, -1.1465774046095667 
0.10000000000000184, -1.1442295475500617 
0.11000000000000212, -1.1418838836243739 
0.12000000000000241, -1.1396094806284287 
0.130000000000002, -1.1374772203257921 
0.1400000000000009, -1.1355576340337872 
0.1499999999999998, -1.1339173690732947 
0.1599999999999987, -1.1326121351406622 
0.1699999999999976, -1.1316757701871127 
0.1799999999999965, -1.131108671322216 
0.1899999999999954, -1.1308714001135138 
0.1999999999999943, -1.13088786222343 
0.2099999999999932, -1.1310573945872937 
0.2199999999999921, -1.1312702783227175 
0.229999999999991, -1.1314203131263456 
0.2399999999999899, -1.13141107175157 
0.2499999999999888, -1.1311563672101186 
0.2599999999999877, -1.1305778168124134 
0.2699999999999866, -1.1296027002728755 
0.2799999999999855, -1.1281643196468074 
0.2899999999999844, -1.1262055259420445 
0.2999999999999833, -1.123684427897517 
0.3099999999999822, -1.1205800019048113 
0.3199999999999811, -1.1168950034471217 
0.32999999999998, -1.1126546225207057 
0.3399999999999789, -1.1079013012245744 
0.3499999999999778, -1.1026878887812661 
0.35999999999997667, -1.0970718442839495 
0.36999999999997557, -1.0911124296103503 
0.37999999999997447, -1.0848714888314845 
0.38999999999997337, -1.0784172872159714 
0.39999999999997227, -1.0718303100901778 
0.40999999999997117, -1.065209709129188 
0.41999999999997006, -1.0586787942464067 
0.42999999999996896, -1.0523872892148731 
0.43999999999996786, -1.0465072041638557 
0.44999999999996676, -1.0412191109028002 
0.45999999999996566, -1.0366877683624998 
0.46999999999996456, -1.0330310086317245 
0.47999999999996346, -1.0302915995906587 
0.48999999999996235, -1.0284240060249592 
0.49999999999996125, -1.0273030794976747 
0.5099999999999602, -1.0267515484248397 
0.519999999999959, -1.026574611542808 
0.529999999999958, -1.0265887101205744 
0.5399999999999568, -1.0266371367447835 
0.5499999999999557, -1.0265923593816544 
0.5599999999999546, -1.0263494049575779 
0.5699999999999535, -1.0258155461527991 
0.5799999999999524, -1.024900455144028 
0.5899999999999513, -1.0235096490258415 
0.5999999999999502, -1.0215431737183476 
0.6099999999999491, -1.0189007986545504 
0.619999999999948, -1.015493795879191 
0.6299999999999469, -1.0112611668666411 
0.6399999999999458, -1.006185490631288 
0.6499999999999447, -1.0003021701169326 
0.6599999999999436, -0.9936975820567963 
0.6699999999999425, -0.9864963087422722 
0.6799999999999414, -0.978842467225314 
0.6899999999999403, -0.9708820157751447 
0.6999999999999392, -0.9627511091710045 
0.7099999999999381, -0.9545720021017147 
0.719999999999937, -0.946455019816518 
0.7299999999999359, -0.9385037773712124 
0.7399999999999348, -0.9308208474881607 
0.7499999999999337, -0.9235116980692567 
0.7599999999999326, -0.9166854007816815 
0.7699999999999315, -0.9104512179005769 
0.7799999999999304, -0.9049108729999125 
0.7899999999999293, -0.9001473253276374 
0.7999999999999282, -0.8962121835318689 
0.8099999999999271, -0.8931150616369627 
0.819999999999926, -0.8908184289915405 
0.8299999999999249, -0.8892402638653357 
0.8399999999999238, -0.8882643192293309 
0.8499999999999227, -0.8877551836157729 
0.8599999999999216, -0.8875739219791414 
0.8699999999999205, -0.8875905236759093 
0.8799999999999194, -0.887691176202146 
0.8899999999999183, -0.8877804341104022 
0.8999999999999172, -0.8877797779062027 
0.9099999999999161, -0.8876245860594137 
0.919999999999915, -0.8872613755810285 
0.9299999999999139, -0.8866466136388006 
0.9399999999999128, -0.8857476467640555 
0.9499999999999117, -0.8845453982916893 
0.9599999999999106, -0.8830375722963527 
0.9699999999999095, -0.8812405117872346 
0.9799999999999084, -0.8791880412716264 
0.9899999999999073, -0.8769267403327815 
0.9999999999999062, -0.8745086725944204 
1.0099999999999052, -0.8719837305509391 
1.019999999999904, -0.8693938144801016 
1.029999999999903, -0.8667701555439057 
1.039999999999902, -0.8641338696157771 
1.0499999999999008, -0.8614989026131994 
1.0599999999998997, -0.8588761403025212 
1.0699999999998986, -0.8562775261099883 
1.0799999999998975, -0.8537193558723036 
1.0899999999998964, -0.8512243043709282 
1.0999999999998953, -0.8488220553908499 
1.1099999999998942, -0.8465486096757676 
1.119999999999893, -0.8444444604122978 
1.129999999999892, -0.8425519065103074 
1.1399999999998909, -0.8409118469141884 
1.1499999999998898, -0.8395604485918308 
1.1599999999998887, -0.8385260754023532 
1.1699999999998876, -0.8378267993765739 
1.1799999999998865, -0.8374687233036928 
1.1899999999998854, -0.8374452659411243 
1.1999999999998843, -0.8377375071750635 
1.2099999999998832, -0.8383156256408975 
1.219999999999882, -0.8391413456782024 
1.229999999999881, -0.8401711479835805 
1.2399999999998799, -0.8413598479497391 
1.2499999999998788, -0.8426640791999225 
1.2599999999998777, -0.8440452629840223 
1.2699999999998766, -0.8454717551445379 
1.2799999999998755, -0.8469199676401549 
1.2899999999998744, -0.848374318580136 
1.2999999999998733, -0.8498259010158633 
1.3099999999998722, -0.8512698565797754 
1.319999999999871, -0.8527016634638541 
1.32999999999987, -0.8541128905316581 
1.3399999999998689, -0.8554873290049981 
1.3499999999998678, -0.8567986297170799 
1.3599999999998666, -0.8580104763808627 
1.3699999999998655, -0.8590797906985363 
1.3799999999998644, -0.8599625292153006 
1.3899999999998633, -0.8606206163625884 
1.3999999999998622, -0.861028018854493 
1.4099999999998611, -0.8611743289615846 
1.41999999999986, -0.8610653674281658 
1.429999999999859, -0.8607215880132041 
1.4399999999998578, -0.8601757845780813 
1.4499999999998567, -0.8594715386015506 
1.4599999999998556, -0.8586632319088356 
1.4699999999998545, -0.8578176539936818 
1.4799999999998534, -0.8570164968855946 
1.4899999999998523, -0.8563584528056373 
1.4999999999998512, -0.8559592994503027 
1.5099999999998501, -0.8559484450964194 
1.519999999999849, -0.8564611033749088 
1.529999999999848, -0.8576265842170511 
1.5399999999998468, -0.8595547489669072 
1.5499999999998457, -0.8623237707508964 
1.5599999999998446, -0.8659723002841894 
1.5699999999998435, -0.8704978373224079 
1.5799999999998424, -0.8758611263745606 
1.5899999999998413, -0.8819946500196301 
1.5999999999998402, -0.8888124523431145 
1.6099999999998391, -0.8962186761645667 
1.619999999999838, -0.9041129731570358 
1.629999999999837, -0.9123918962994094 
1.6399999999998358, -0.9209462746705794 
1.6499999999998347, -0.929655440124564 
1.6599999999998336, -0.9383801868340023 
1.6699999999998325, -0.9469575180378501 
1.6799999999998314, -0.9552011520531682 
1.6899999999998303, -0.9629114437709921 
1.6999999999998292, -0.9698957413370859 
1.709999999999828, -0.9759952967352901 
1.719999999999827, -0.9811100533719497 
1.729999999999826, -0.9852117189909468 
1.7399999999998248, -0.9883402430323833 
1.7499999999998237, -0.990586378581821 
1.7599999999998226, -0.9920682992583986 
1.7699999999998215, -0.992910532062951 
1.7799999999998204, -0.9932301698261283 
1.7899999999998193, -0.993131576550989 
1.7999999999998182, -0.9927085660232762 
1.809999999999817, -0.992052418133334 
1.819999999999816, -0.9912641805816925 
1.8299999999998149, -0.9904694626824546 
1.8399999999998138, -0.9898327125770935 
1.8499999999998127, -0.9895658533983709 
1.8599999999998116, -0.9899243661136814 
1.8699999999998105, -0.9911848414936533 
1.8799999999998094, -0.9936038225760164 
1.8899999999998083, -0.9973674588697383 
1.8999999999998072, -1.0025494773623316 
1.909999999999806, -1.0090943201597735 
1.919999999999805, -1.0168315702462942 
1.9299999999998039, -1.025513718905256 
1.9399999999998028, -1.0348611134459755 
1.9499999999998017, -1.0445992348970905 
1.9599999999998006, -1.0544808152974796 
1.9699999999997995, -1.0642928864715964 
1.9799999999997984, -1.073853275217667 
1.9899999999997973, -1.0830022649514104 
1.9999999999997962, -1.0915945818395503 
2.0099999999998173, -1.0994956596802212 
2.0199999999998384, -1.1065844708434718 
2.0299999999998595, -1.1127627829291173 
2.0399999999998806, -1.117967700735223 
2.0499999999999017, -1.1221820645048652 
2.059999999999923, -1.1254374540396328 
2.069999999999944, -1.1278077020111659 
2.079999999999965, -1.1293951962469473 
2.089999999999986, -1.1303151071860014 
2.100000000000007, -1.13068265071146 
2.1100000000000283, -1.1306064129767033 
2.1200000000000494, -1.130188323736817 
2.1300000000000705, -1.1295290609404234 
2.1400000000000916, -1.1287364045427584 
2.1500000000001127, -1.127932828646648 
2.160000000000134, -1.1272575016081205 
2.170000000000155, -1.1268580938940407 
2.180000000000176, -1.1268711432141205 
2.190000000000197, -1.127396185770476 
2.2000000000002182, -1.1284745850596414 
2.2100000000002393, -1.1300834305574583 
2.2200000000002604, -1.1321469472477454 
2.2300000000002815, -1.1345585100146198 
2.2400000000003026, -1.137202779551439 
2.2500000000003237, -1.1399709000164429 
2.260000000000345, -1.142767627670233 
2.270000000000366, -1.145513054777104 
2.280000000000387, -1.1481420452954432 
2.290000000000408, -1.1506031060358102 
2.3000000000004293, -1.1528570298547833 
2.3100000000004504, -1.1548750846731781 
2.3200000000004715, -1.1566366359203257 
2.3300000000004926, -1.1581264397781939 
2.3400000000005137, -1.1593321347071779 
2.3500000000005348, -1.1602425652379715 
2.360000000000556, -1.1608474369792767 
2.370000000000577, -1.1611384247114755 
2.380000000000598, -1.1611113615806525 
2.390000000000619, -1.1607687771156874 
2.4000000000006403, -1.1601220522827658 
2.4100000000006614, -1.1591928221103942 
2.4200000000006825, -1.1580136993423147 
2.4300000000007036, -1.1566285443588362 
2.4400000000007247, -1.1550922103253451 
2.450000000000746, -1.1534691862438948 
2.460000000000767, -1.1518303880946454 
2.470000000000788, -1.150247972862885 
2.480000000000809, -1.1487893036595151 
2.49000000000083, -1.1475120607350937 
2.5000000000008513, -1.1464618469678445 
2.5100000000008724, -1.1456715984234698 
2.5200000000008935, -1.1451604415817314 
2.5300000000009146, -1.1449302098295715 
2.5400000000009357, -1.144960545645408 
2.550000000000957, -1.1452060122491037 
2.560000000000978, -1.1455984124630185 
2.570000000000999, -1.1460544949339506 
2.58000000000102, -1.1464860027549684 
2.5900000000010412, -1.146808190529053 
2.6000000000010624, -1.1469446782836157 
2.6100000000010835, -1.1468289798254105 
2.6200000000011046, -1.1464044947329444 
2.6300000000011257, -1.1456247300555698 
2.6400000000011468, -1.1444545258875731 
2.650000000001168, -1.1428718560074602 
2.660000000001189, -1.1408690091815672 
2.67000000000121, -1.1384520160791392 
2.680000000001231, -1.1356380216590554 
2.6900000000012523, -1.132451387671939 
2.7000000000012734, -1.1289199673597292 
2.7100000000012945, -1.1250728863378523 
2.7200000000013156, -1.1209404820157503 
2.7300000000013367, -1.1165562742512334 
2.740000000001358, -1.1119603479065514 
2.750000000001379, -1.1072034345375648 
2.7600000000014, -1.102351141230662 
2.770000000001421, -1.0974878729094262 
2.780000000001442, -1.0927196527045104 
2.7900000000014633, -1.0881740792904566 
2.8000000000014844, -1.0839945085851443 
2.8100000000015055, -1.080325519493296 
2.8200000000015266, -1.0772893852792158 
2.8300000000015477, -1.0749586928260906 
2.840000000001569, -1.073335399987886 
2.85000000000159, -1.0723465967710029 
2.860000000001611, -1.0718600186153067 
2.870000000001632, -1.0717123236597739 
2.8800000000016532, -1.0717377390880716 
2.8900000000016743, -1.0717871118986455 
2.9000000000016954, -1.0717342430577423 
2.9100000000017165, -1.0714722109657866 
2.9200000000017377, -1.0709046907661142 
2.9300000000017588, -1.0699368804566676 
2.94000000000178, -1.0684693870871802 
2.950000000001801, -1.066397349723699 
2.960000000001822, -1.0636161149534902 
2.970000000001843, -1.0600333042356582 
2.9800000000018643, -1.05558477349979 
2.9900000000018854, -1.0502494826019402 
3.0000000000019065, -1.0440574424648281 
3.0100000000019276, -1.0370871363876384 
3.0200000000019487, -1.0294534125001107 
3.03000000000197, -1.0212909760925015 
3.040000000001991, -1.0127397048548046 
3.050000000002012, -1.0039359531853946 
3.060000000002033, -0.9950107352144272 
3.070000000002054, -0.9860931205160012 
3.0800000000020753, -0.9773160166691492 
3.0900000000020964, -0.96882137245191 
3.1000000000021175, -0.9607621117978603 
3.1100000000021386, -0.9532985581615161 
3.1200000000021597, -0.9465879682816319 
3.130000000002181, -0.9407674969853882 
3.140000000002202, -0.9359335202340283 
3.150000000002223, -0.9321228992906292 
3.160000000002244, -0.9293027967558355 
3.1700000000022652, -0.9273736459831657 
3.1800000000022863, -0.92618516173759 
3.1900000000023074, -0.9255602623505026 
3.2000000000023285, -0.9253193125077473 
3.2100000000023496, -0.9252982916421963 
3.2200000000023707, -0.9253580419158033 
3.230000000002392, -0.925385334371679 
3.240000000002413, -0.9252885700390473 
3.250000000002434, -0.9249913559685596 
3.260000000002455, -0.9244266498360154 
3.2700000000024763, -0.9235333537546387 
3.2800000000024974, -0.922256447981337 
3.2900000000025185, -0.9205508829776008 
3.3000000000025396, -0.9183882898150527 
3.3100000000025607, -0.9157642223539544 
3.3200000000025818, -0.9127027492431021 
3.330000000002603, -0.909255653069021 
3.340000000002624, -0.9054955391646928 
3.350000000002645, -0.9015048436656066 
3.360000000002666, -0.897364412780266 
3.3700000000026873, -0.8931450609297247 
3.3800000000027084, -0.888903785686397 
3.3900000000027295, -0.8846843787844989 
3.4000000000027506, -0.8805209642239915 
3.4100000000027717, -0.876442699996474 
3.420000000002793, -0.8724781939385958 
3.430000000002814, -0.8686587238088296 
3.440000000002835, -0.8650198629607914 
3.450000000002856, -0.8616014875134452 
3.460000000002877, -0.8584463640425174 
3.4700000000028983, -0.8555976187011319 
3.4800000000029194, -0.8530954175310117 
3.4900000000029405, -0.8509731999585477 
3.5000000000029616, -0.8492538553182483 
3.5100000000029827, -0.8479463337265869 
3.520000000003004, -0.8470432881431854 
3.530000000003025, -0.8465203416946666 
3.540000000003046, -0.8463373576680694 
3.550000000003067, -0.8464416590332686 
3.5600000000030882, -0.8467726487142733 
3.5700000000031094, -0.8472669473484618 
3.5800000000031305, -0.8478631501390774 
3.5900000000031516, -0.8485055935584195 
3.6000000000031727, -0.8491469439155297 
3.6100000000031938, -0.8497497564249785 
3.620000000003215, -0.8502872629693939 
3.630000000003236, -0.8507435212201776 
3.640000000003257, -0.851112817791329 
3.650000000003278, -0.851398055842943 
3.6600000000032993, -0.8516079376783254 
3.6700000000033204, -0.8517531033183005 
3.6800000000033415, -0.8518418561049276 
3.6900000000033626, -0.8518764499378406 
3.7000000000033837, -0.851850940557934 
3.710000000003405, -0.8517512749946191 
3.720000000003426, -0.851557702395258 
3.730000000003447, -0.8512489181939695 
3.740000000003468, -0.850806847599619 
3.750000000003489, -0.8502208721243949 
3.7600000000035103, -0.8494906809672043 
3.7700000000035314, -0.8486275939744636 
3.7800000000035525, -0.8476547890129215 
3.7900000000035736, -0.8466070844424372 
3.8000000000035947, -0.8455307320106327 
3.810000000003616, -0.8444832336820938 
3.820000000003637, -0.8435327463701953 
3.830000000003658, -0.8427563863262135 
3.840000000003679, -0.8422368213178164 
3.8500000000037002, -0.8420569733900956 
3.8600000000037213, -0.8422933339364066 
3.8700000000037424, -0.8430090505560518 
3.8800000000037635, -0.8442482599412781 
3.8900000000037847, -0.8460329180368177 
3.9000000000038058, -0.8483626932177251 
3.910000000003827, -0.8512176537408901 
3.920000000003848, -0.8545628500042446 
3.930000000003869, -0.8583536491498167 
3.94000000000389, -0.8625407770967122 
3.9500000000039113, -0.8670742798263338 
3.9600000000039324, -0.8719058643037259 
3.9700000000039535, -0.8769892573443245 
3.9800000000039746, -0.8822783749581166 
3.9900000000039957, -0.8877233348825732 
4.000000000004016, -0.8932647859084147 
4.010000000003993, -0.8988277260259235 
4.02000000000397, -0.9043168433938251 
4.030000000003946, -0.9096160715403552 
4.040000000003923, -0.914594824875777 
4.0500000000039, -0.9191215986642564 
4.0600000000038765, -0.9230823917762859 
4.070000000003853, -0.9263982976216545 
4.08000000000383, -0.9290359595494192 
4.090000000003807, -0.9310074558835898 
4.100000000003783, -0.9323609032604725 
4.11000000000376, -0.9331665674976751 
4.120000000003737, -0.9335038073814568 
4.130000000003713, -0.9334524195136038 
4.14000000000369, -0.933089689373299 
4.150000000003667, -0.9324929121115632 
4.1600000000036434, -0.9317464725274255 
4.17000000000362, -0.9309522516855303 
4.180000000003597, -0.9302415466744272 
4.1900000000035735, -0.9297855316183735 
4.20000000000355, -0.929799814331578 
4.210000000003527, -0.9305378800253048 
4.220000000003504, -0.9322696877436898 
4.23000000000348, -0.9352463290295671 
4.240000000003457, -0.9396582910110116 
4.250000000003434, -0.9455998525940071 
4.26000000000341, -0.9530515927209222 
4.270000000003387, -0.9618862235225347 
4.280000000003364, -0.9718936948749682 
4.2900000000033405, -0.9828150759083515 
4.300000000003317, -0.9943739595367463 
4.310000000003294, -1.006298002697057 
4.320000000003271, -1.0183286030833365 
4.330000000003247, -1.030221097525304 
4.340000000003224, -1.0417403892823196 
4.350000000003201, -1.0526577802365127 
4.360000000003177, -1.0627541809925558 
4.370000000003154, -1.0718324905021612 
4.380000000003131, -1.079737622122757 
4.390000000003107, -1.0863776720221425 
4.400000000003084, -1.0917370841515233 
4.410000000003061, -1.0958750364258076 
4.4200000000030375, -1.098908914796664 
4.430000000003014, -1.1009893167759879 
4.440000000002991, -1.1022754044651917 
4.450000000002968, -1.1029172155253688 
4.460000000002944, -1.1030474747870098 
4.470000000002921, -1.1027822781637227 
4.480000000002898, -1.1022286014689378 
4.490000000002874, -1.10149617679034 
4.500000000002851, -1.1007106870326098 
4.510000000002828, -1.1000237976884009 
4.520000000002804, -1.0996138991638438 
4.530000000002781, -1.09967180186419 
4.540000000002758, -1.1003706174939187 
4.5500000000027345, -1.1018282757089615 
4.560000000002711, -1.1040786461319245 
4.570000000002688, -1.107065406285653 
4.580000000002665, -1.1106609647386507 
4.590000000002641, -1.1146998364355853 
4.600000000002618, -1.1190114563360352 
4.610000000002595, -1.123442443704046 
4.620000000002571, -1.1278664468348405 
4.630000000002548, -1.1321849661504089 
4.640000000002525, -1.1363235914496765 
4.6500000000025015, -1.1402267192558768 
4.660000000002478, -1.1438521871203433 
4.670000000002455, -1.147166391575627 
4.6800000000024315, -1.150140317687177 
4.690000000002408, -1.1527470463363967 
4.700000000002385, -1.1549612901506316 
4.710000000002362, -1.1567611168998595 
4.720000000002338, -1.1581313056095637 
4.730000000002315, -1.1590670904659288 
4.740000000002292, -1.1595768546753755 
4.750000000002268, -1.1596828896642635 
4.760000000002245, -1.159420376459957 
4.770000000002222, -1.1588356324519056 
4.7800000000021985, -1.157984832743863 
4.790000000002175, -1.1569337409273461 
4.800000000002152, -1.1557578071719192 
4.810000000002129, -1.154540943817767 
4.820000000002105, -1.1533711406869385 
4.830000000002082, -1.1523323991731809 
4.840000000002059, -1.1514948942383538 
4.850000000002035, -1.1509071397246402 
4.860000000002012, -1.1505933070430496 
4.870000000001989, -1.1505557158647324 
4.880000000001965, -1.150779400126074 
4.890000000001942, -1.1512352728593656 
4.900000000001919, -1.1518808892274628 
4.9100000000018955, -1.1526606496250145 
4.920000000001872, -1.153507971686389 
4.930000000001849, -1.1543502472254965 
