t, s[1].omega / s[0].omega 
0, -1.4601260736395552 
0.009999999999999995, -1.4750533792005478 
0.019999999999999934, -1.4890400796221743 
0.029999999999999874, -1.4983447533774936 
0.04000000000000012, -1.5035321793036274 
0.050000000000000405, -1.5061358915615783 
0.06000000000000069, -1.5072926376285802 
0.07000000000000098, -1.5076475073754803 
0.08000000000000126, -1.5075354300944996 
0.09000000000000155, -1.5071427782427704 
0.10000000000000184, -1.5066279857437188 
0.11000000000000212, -1.5062047212256495 
0.12000000000000241, -1.5061268029335693 
0.130000000000002, -1.5065352674647814 
0.1400000000000009, -1.5073398888657388 
0.1499999999999998, -1.5083102781185433 
0.1599999999999987, -1.5092339925932046 
0.1699999999999976, -1.5099736506480932 
0.1799999999999965, -1.5104512713273066 
0.1899999999999954, -1.5106226605814084 
0.1999999999999943, -1.5104587768806614 
0.2099999999999932, -1.5099345518947744 
0.2199999999999921, -1.5090244323791209 
0.229999999999991, -1.50770390036759 
0.2399999999999899, -1.5059588099757277 
0.2499999999999888, -1.503809588467561 
0.2599999999999877, -1.501362007362058 
0.2699999999999866, -1.498881043243219 
0.2799999999999855, -1.4968025449108067 
0.2899999999999844, -1.4955202810264416 
0.2999999999999833, -1.4950509213775258 
0.3099999999999822, -1.495038154323298 
0.3199999999999811, -1.4950904071423339 
0.32999999999998, -1.4949710222370949 
0.3399999999999789, -1.4945427364387527 
0.3499999999999778, -1.493643053317723 
0.35999999999997667, -1.4919617968661159 
0.36999999999997557, -1.4889118212213301 
0.37999999999997447, -1.4835874529744049 
0.38999999999997337, -1.4753488853559458 
0.39999999999997227, -1.466072567811531 
0.40999999999997117, -1.4623891253194365 
0.41999999999997006, -1.4700658247302698 
0.42999999999996896, -1.484928384460007 
0.43999999999996786, -1.4985393661570585 
0.44999999999996676, -1.5074369979720583 
0.45999999999996566, -1.5123336494624335 
0.46999999999996456, -1.5147612680746145 
0.47999999999996346, -1.5158161547242313 
0.48999999999996235, -1.5161103589533766 
0.49999999999996125, -1.5159598731206638 
0.5099999999999602, -1.5155445774414844 
0.519999999999959, -1.5150276476390856 
0.529999999999958, -1.5146326121522384 
0.5399999999999568, -1.5146096102533142 
0.5499999999999557, -1.5150710037249622 
0.5599999999999546, -1.515897001155032 
0.5699999999999535, -1.5168521002791564 
0.5799999999999524, -1.5177348583839088 
0.5899999999999513, -1.5184189119820153 
0.5999999999999502, -1.5188325433861827 
0.6099999999999491, -1.5189337495142656 
0.619999999999948, -1.5186926771580764 
0.6299999999999469, -1.5180813903885606 
0.6399999999999458, -1.5170703228455158 
0.6499999999999447, -1.5156309989352479 
0.6599999999999436, -1.51374797304122 
0.6699999999999425, -1.5114492430062463 
0.6799999999999414, -1.5088685986534096 
0.6899999999999403, -1.5063264099669493 
0.6999999999999392, -1.5043079270005568 
0.7099999999999381, -1.503175797394778 
0.719999999999937, -1.5028422790936342 
0.7299999999999359, -1.502887290802112 
0.7399999999999348, -1.5029303203389062 
0.7499999999999337, -1.502762634618707 
0.7599999999999326, -1.5022546323424724 
0.7699999999999315, -1.501226156880303 
0.7799999999999304, -1.4993247244736951 
0.7899999999999293, -1.4959114458236757 
0.7999999999999282, -1.490136690039552 
0.8099999999999271, -1.4819417292566757 
0.819999999999926, -1.474733299291088 
0.8299999999999249, -1.4758419618628826 
0.8399999999999238, -1.4879114266866056 
0.8499999999999227, -1.50380375318718 
0.8599999999999216, -1.5162960290084155 
0.8699999999999205, -1.5238766977044176 
0.8799999999999194, -1.5278904905166244 
0.8899999999999183, -1.529815175355403 
0.8999999999999172, -1.5305906703328829 
0.9099999999999161, -1.5307224517074673 
0.919999999999915, -1.5304740501295648 
0.9299999999999139, -1.5300131235122834 
0.9399999999999128, -1.5295171170785538 
0.9499999999999117, -1.5292151203475637 
0.9599999999999106, -1.5293025710724162 
0.9699999999999095, -1.5297954755831302 
0.9799999999999084, -1.5305311713455 
0.9899999999999073, -1.5313068986951717 
0.9999999999999062, -1.5319693567611108 
1.0099999999999052, -1.532419515122869 
1.019999999999904, -1.532593272253122 
1.029999999999903, -1.532443526549165 
1.039999999999902, -1.5319264826901784 
1.0499999999999008, -1.5309941578814747 
1.0599999999998997, -1.5295937264689756 
1.0699999999998986, -1.5276752688861288 
1.0799999999998975, -1.5252165167571052 
1.0899999999998964, -1.522284221248928 
1.0999999999998953, -1.5191454794804302 
1.1099999999998942, -1.5163455535153043 
1.119999999999893, -1.51449698351681 
1.129999999999892, -1.5137688550921187 
1.1399999999998909, -1.5137480288475893 
1.1499999999998898, -1.5138981590720346 
1.1599999999998887, -1.5139001131442154 
1.1699999999998876, -1.5136106696404474 
1.1799999999998865, -1.512909278089933 
1.1899999999998854, -1.5115745668078104 
1.1999999999998843, -1.5091913887152357 
1.2099999999998832, -1.5051809328470045 
1.219999999999882, -1.4994436295045626 
1.229999999999881, -1.4943686826192197 
1.2399999999998799, -1.4960105951694718 
1.2499999999998788, -1.5078790099588288 
1.2599999999998777, -1.5244708709100352 
1.2699999999998766, -1.5383745914539735 
1.2799999999998755, -1.547265532011639 
1.2899999999998744, -1.5521795470418835 
1.2999999999998733, -1.5546440683876948 
1.3099999999998722, -1.5557267998470479 
1.319999999999871, -1.5560345527451656 
1.32999999999987, -1.555890954707643 
1.3399999999998689, -1.5554863473651206 
1.3499999999998678, -1.5549843514519028 
1.3599999999998666, -1.5545736211941663 
1.3699999999998655, -1.5544232129250914 
1.3799999999998644, -1.554579962745976 
1.3899999999998633, -1.5549543367056944 
1.3999999999998622, -1.5554067819055832 
1.4099999999998611, -1.5558093953547805 
1.41999999999986, -1.5560564792762182 
1.429999999999859, -1.5560611173407286 
1.4399999999998578, -1.5557447753983709 
1.4499999999998567, -1.5550211644817566 
1.4599999999998556, -1.5537834355250222 
1.4699999999998545, -1.5519008002728503 
1.4799999999998534, -1.5492298369412643 
1.4899999999998523, -1.545659383266743 
1.4999999999998512, -1.5412362226131207 
1.5099999999998501, -1.536408361578458 
1.519999999999849, -1.5321878471206485 
1.529999999999848, -1.529653047724104 
1.5399999999998468, -1.5289283959500284 
1.5499999999998457, -1.5291707004295985 
1.5599999999998446, -1.5295516844113055 
1.5699999999998435, -1.529699472954617 
1.5799999999998424, -1.5295119607110936 
1.5899999999998413, -1.5289285177392364 
1.5999999999998402, -1.5278173881942543 
1.6099999999998391, -1.5259593269657858 
1.619999999999838, -1.5232549326001243 
1.629999999999837, -1.520541400888671 
1.6399999999998358, -1.5207666728350633 
1.6499999999998347, -1.5274273442643733 
1.6599999999998336, -1.5395578197383266 
1.6699999999998325, -1.5521773166624648 
1.6799999999998314, -1.5618330798110833 
1.6899999999998303, -1.5680382701410025 
1.6999999999998292, -1.5716108265534134 
1.709999999999828, -1.5734675804343372 
1.719999999999827, -1.5742713532908799 
1.729999999999826, -1.5744334583144055 
1.7399999999998248, -1.5741981437880213 
1.7499999999998237, -1.5737273657652118 
1.7599999999998226, -1.5731649111037957 
1.7699999999998215, -1.572656094407978 
1.7799999999998204, -1.5723105630232066 
1.7899999999998193, -1.5721624635776565 
1.7999999999998182, -1.572181390623089 
1.809999999999817, -1.5722939756431011 
1.819999999999816, -1.5723920798412954 
1.8299999999998149, -1.572353674935985 
1.8399999999998138, -1.5720585165288656 
1.8499999999998127, -1.5713711890552688 
1.8599999999998116, -1.5701022498137511 
1.8699999999998105, -1.567968573655198 
1.8799999999998094, -1.5645713192980435 
1.8899999999998083, -1.5594321267415634 
1.8999999999998072, -1.5522010552612837 
1.909999999999806, -1.5432323875582392 
1.919999999999805, -1.5343786514881377 
1.9299999999998039, -1.5285063923799285 
1.9399999999998028, -1.5267498402781639 
1.9499999999998017, -1.5274494530143314 
1.9599999999998006, -1.5286061355458775 
1.9699999999997995, -1.5293749903307292 
1.9799999999997984, -1.5296487882998802 
1.9899999999997973, -1.5294971235360306 
1.9999999999997962, -1.528955685918293 
2.0099999999998173, -1.5280061049822378 
2.0199999999998384, -1.5266867553920282 
2.0299999999998595, -1.525428663515909 
2.0399999999998806, -1.5254941010674687 
2.0499999999999017, -1.528469944779935 
2.059999999999923, -1.5343867502966577 
2.069999999999944, -1.5413553237234299 
2.079999999999965, -1.547515218591955 
2.089999999999986, -1.5521213212240819 
2.100000000000007, -1.5552078732027546 
2.1100000000000283, -1.5570768427100747 
2.1200000000000494, -1.558047144593702 
2.1300000000000705, -1.55837646690117 
2.1400000000000916, -1.5582522733049127 
2.1500000000001127, -1.5578093499977455 
2.160000000000134, -1.557158141505098 
2.170000000000155, -1.5564090848897334 
2.180000000000176, -1.5556755584884687 
2.190000000000197, -1.5550585752033268 
2.2000000000002182, -1.5546335257879718 
2.2100000000002393, -1.554425643364444 
2.2200000000002604, -1.55437253271733 
2.2300000000002815, -1.554336838721029 
2.2400000000003026, -1.5541653931877002 
2.2500000000003237, -1.5537103176716722 
2.260000000000345, -1.5527865926848787 
2.270000000000366, -1.5510932660664616 
2.280000000000387, -1.548116846564662 
2.290000000000408, -1.543048018322617 
2.3000000000004293, -1.5348509677348827 
2.3100000000004504, -1.5228803786885083 
2.3200000000004715, -1.5084952695661293 
2.3300000000004926, -1.4963052406731479 
2.3400000000005137, -1.4908722640258947 
2.3500000000005348, -1.4914292700122103 
2.360000000000556, -1.4939884040611264 
2.370000000000577, -1.4961159832501383 
2.380000000000598, -1.4973282135050439 
2.390000000000619, -1.4978149347013738 
2.4000000000006403, -1.4977973465680354 
2.4100000000006614, -1.4973969241798188 
2.4200000000006825, -1.4966690743787152 
2.4300000000007036, -1.4957178371248991 
2.4400000000007247, -1.494920325742803 
2.450000000000746, -1.4951103150011307 
2.460000000000767, -1.497161661726827 
2.470000000000788, -1.5010154922975452 
2.480000000000809, -1.505609386251728 
2.49000000000083, -1.5098629696759107 
2.5000000000008513, -1.513248542569516 
2.5100000000008724, -1.5156769141399984 
2.5200000000008935, -1.517250854486479 
2.5300000000009146, -1.518123463288539 
2.5400000000009357, -1.51844203323652 
2.550000000000957, -1.5183304016946746 
2.560000000000978, -1.5178886735006343 
2.570000000000999, -1.5172041401088339 
2.58000000000102, -1.5163671793764453 
2.5900000000010412, -1.5154803546325832 
2.6000000000010624, -1.5146546648370878 
2.6100000000010835, -1.5139989524542048 
2.6200000000011046, -1.5135910817744602 
2.6300000000011257, -1.5134215035473082 
2.6400000000011468, -1.5133740965245157 
2.650000000001168, -1.5132861495210617 
2.660000000001189, -1.513005562670569 
2.67000000000121, -1.5123781697858705 
2.680000000001231, -1.5111829248298045 
2.6900000000012523, -1.5090419286377155 
2.7000000000012734, -1.5053186654899657 
2.7100000000012945, -1.4990624358822484 
2.7200000000013156, -1.4892196587016868 
2.7300000000013367, -1.4755869590572552 
2.740000000001358, -1.4606021419296527 
2.750000000001379, -1.4495131325959352 
2.7600000000014, -1.4457052843879414 
2.770000000001421, -1.4470694275018474 
2.780000000001442, -1.4497287255662115 
2.7900000000014633, -1.4517613925640986 
2.8000000000014844, -1.4528914982334078 
2.8100000000015055, -1.453333338965395 
2.8200000000015266, -1.4532934021443908 
2.8300000000015477, -1.4528790983930056 
2.840000000001569, -1.4521326110344375 
2.85000000000159, -1.4511338001146434 
2.860000000001611, -1.4502161774591373 
2.870000000001632, -1.450205936528775 
2.8800000000016532, -1.4521553366397264 
2.8900000000016743, -1.4563168699031572 
2.9000000000016954, -1.4616938143884428 
2.9100000000017165, -1.4669567900009057 
2.9200000000017377, -1.4713084696624863 
2.9300000000017588, -1.4745278660882895 
2.94000000000178, -1.4766975864301224 
2.950000000001801, -1.4780024270084766 
2.960000000001822, -1.4786359681874401 
2.970000000001843, -1.4787651428569286 
2.9800000000018643, -1.4785222951921768 
2.9900000000018854, -1.4780138484798104 
3.0000000000019065, -1.4773384601907047 
3.0100000000019276, -1.476601409102131 
3.0200000000019487, -1.4759103076134017 
3.03000000000197, -1.4753562352590317 
3.040000000001991, -1.4749977845322808 
3.050000000002012, -1.4748423087834561 
3.060000000002033, -1.4748252071095738 
3.070000000002054, -1.4748247610898138 
3.0800000000020753, -1.4747069217664601 
3.0900000000020964, -1.4743445411568676 
3.1000000000021175, -1.473593274538271 
3.1100000000021386, -1.4722465918955419 
3.1200000000021597, -1.4699916075098949 
3.130000000002181, -1.466385985333287 
3.140000000002202, -1.460899241297534 
3.150000000002223, -1.4531149815899123 
3.160000000002244, -1.4432365430489074 
3.1700000000022652, -1.4328080219154096 
3.1800000000022863, -1.4246377945205637 
3.1900000000023074, -1.4207271169330873 
3.2000000000023285, -1.4203590687883163 
3.2100000000023496, -1.4214157759424493 
3.2200000000023707, -1.4224764062715378 
3.230000000002392, -1.4230990735289843 
3.240000000002413, -1.423273152085766 
3.250000000002434, -1.423057459895077 
3.260000000002455, -1.4224598750808792 
3.2700000000024763, -1.421423829864144 
3.2800000000024974, -1.4198994003885148 
3.2900000000025185, -1.4181118654510887 
3.3000000000025396, -1.4171237893910857 
3.3100000000025607, -1.4190633426068628 
3.3200000000025818, -1.425540730714585 
3.330000000002603, -1.4354089495440296 
3.340000000002624, -1.4456571852092652 
3.350000000002645, -1.4540634461471194 
3.360000000002666, -1.4600012054038332 
3.3700000000026873, -1.463777452137108 
3.3800000000027084, -1.4659599902187863 
3.3900000000027295, -1.4670630534140914 
3.4000000000027506, -1.4674619071879775 
3.4100000000027717, -1.4674044052832222 
3.420000000002793, -1.4670548659472522 
3.430000000002814, -1.4665438065039857 
3.440000000002835, -1.4660047305590267 
3.450000000002856, -1.465572277009994 
3.460000000002877, -1.4653383342438489 
3.4700000000028983, -1.4653176867929336 
3.4800000000029194, -1.4654612861476033 
3.4900000000029405, -1.4656841706421855 
3.5000000000029616, -1.465883165923589 
3.5100000000029827, -1.4659540585101711 
3.520000000003004, -1.465801949806979 
3.530000000003025, -1.4653344735639575 
3.540000000003046, -1.4644466412790087 
3.550000000003067, -1.4630110781154397 
3.5600000000030882, -1.4608805356063717 
3.5700000000031094, -1.4579069295575384 
3.5800000000031305, -1.4539902447080402 
3.5900000000031516, -1.4491894004468224 
3.6000000000031727, -1.4439162483011936 
3.6100000000031938, -1.4390768177726516 
3.620000000003215, -1.4357480385520796 
3.630000000003236, -1.4343314817293433 
3.640000000003257, -1.4342376677695814 
3.650000000003278, -1.4345949739447243 
3.6600000000032993, -1.434873353145292 
3.6700000000033204, -1.4348820388040946 
3.6800000000033415, -1.4345567862475652 
3.6900000000033626, -1.4338123412212214 
3.7000000000033837, -1.4324629619796763 
3.710000000003405, -1.4301920042168539 
3.720000000003426, -1.4266937762005099 
3.730000000003447, -1.422391842884425 
3.740000000003468, -1.4199353732986741 
3.750000000003489, -1.4241222767207762 
3.7600000000035103, -1.4367364927292567 
3.7700000000035314, -1.4529566873481286 
3.7800000000035525, -1.4668065509033352 
3.7900000000035736, -1.476116153878986 
3.8000000000035947, -1.4815542797402548 
3.810000000003616, -1.484443454265112 
3.820000000003637, -1.4858216905283759 
3.830000000003658, -1.486328027970608 
3.840000000003679, -1.4863199381818921 
3.8500000000037002, -1.4860014785248419 
3.8600000000037213, -1.4855240244862262 
3.8700000000037424, -1.4850558286098474 
3.8800000000037635, -1.484787303671573 
3.8900000000037847, -1.4848471902690574 
3.9000000000038058, -1.4852194768662526 
3.910000000003827, -1.4857755199500418 
3.920000000003848, -1.48636525973281 
3.930000000003869, -1.4868646105834944 
3.94000000000389, -1.4871804040067453 
3.9500000000039113, -1.487243444216479 
3.9600000000039324, -1.486997729987341 
3.9700000000039535, -1.4863899617078342 
3.9800000000039746, -1.4853641512993794 
3.9900000000039957, -1.4838627067262355 
4.000000000004016, -1.481835295150422 
4.010000000003993, -1.4792630308998036 
4.02000000000397, -1.476214704846071 
4.030000000003946, -1.4729452797548386 
4.040000000003923, -1.4699680844938894 
4.0500000000039, -1.4678877896690607 
4.0600000000038765, -1.466944409021943 
4.070000000003853, -1.466808402012282 
4.08000000000383, -1.4669486180254387 
4.090000000003807, -1.4670059346231743 
4.100000000003783, -1.4668134354423015 
4.11000000000376, -1.4662612844380878 
4.120000000003737, -1.4651732278549228 
4.130000000003713, -1.46320228336213 
4.14000000000369, -1.4597540988166067 
4.150000000003667, -1.4541581597439712 
4.1600000000036434, -1.4467902014205196 
4.17000000000362, -1.4414447462743634 
4.180000000003597, -1.4447589753304082 
4.1900000000035735, -1.4580538905589848 
4.20000000000355, -1.4742317272930519 
4.210000000003527, -1.4868016703929356 
4.220000000003504, -1.4945006235615588 
4.23000000000348, -1.4986412251328178 
4.240000000003457, -1.5006661387127227 
4.250000000003434, -1.5015123348921346 
4.26000000000341, -1.5016936981010047 
4.270000000003387, -1.5014803990559058 
4.280000000003364, -1.5010387949921407 
4.2900000000033405, -1.5005354274686185 
4.300000000003317, -1.5001909362639239 
4.310000000003294, -1.5002205370983464 
4.320000000003271, -1.5006857370729039 
4.330000000003247, -1.501451509337962 
4.340000000003224, -1.5023078521091473 
4.350000000003201, -1.5030826451630401 
4.360000000003177, -1.5036641428374167 
4.370000000003154, -1.5039838926260534 
4.380000000003131, -1.503997714785314 
4.390000000003107, -1.5036713142191196 
4.400000000003084, -1.5029718245655261 
4.410000000003061, -1.5018655013148698 
4.4200000000030375, -1.5003215892513562 
4.430000000003014, -1.4983259929158304 
4.440000000002991, -1.4959148078580398 
4.450000000002968, -1.4932402551960253 
4.460000000002944, -1.4906478401645755 
4.470000000002921, -1.4886329932725728 
4.480000000002898, -1.4875335487089096 
4.490000000002874, -1.4872263181591836 
4.500000000002851, -1.4872807395469345 
4.510000000002828, -1.4873240128777798 
4.520000000002804, -1.4871546656620063 
4.530000000002781, -1.4866462477942632 
4.540000000002758, -1.4856208810228893 
4.5500000000027345, -1.4837303515016766 
4.560000000002711, -1.4803401153644575 
4.570000000002688, -1.474576377726293 
4.580000000002665, -1.4662115662267468 
4.590000000002641, -1.4582042786682181 
4.600000000002618, -1.4576934618580835 
4.610000000002595, -1.4683272149950404 
4.620000000002571, -1.4838963139352743 
4.630000000002548, -1.4967725109622356 
4.640000000002525, -1.504809478519721 
4.6500000000025015, -1.5091387209396172 
4.660000000002478, -1.5112505472592772 
4.670000000002455, -1.5121352584255618 
4.6800000000024315, -1.5123339810828387 
4.690000000002408, -1.512127220018454 
4.700000000002385, -1.511683944846458 
4.710000000002362, -1.5111730302908035 
4.720000000002338, -1.5108251054975508 
4.730000000002315, -1.5108732979410964 
4.740000000002292, -1.5113884016840626 
4.750000000002268, -1.512223911061766 
4.760000000002245, -1.5131501862750654 
4.770000000002222, -1.513983062168624 
4.7800000000021985, -1.51460819963213 
4.790000000002175, -1.514959395236609 
4.800000000002152, -1.514996138110924 
4.810000000002129, -1.5146878464115754 
4.820000000002105, -1.514004969769948 
4.830000000002082, -1.5129165176429875 
4.840000000002059, -1.5113939511606875 
4.850000000002035, -1.50942523470601 
4.860000000002012, -1.5070493972671677 
4.870000000001989, -1.5044242261396676 
4.880000000001965, -1.5019029021148247 
4.890000000001942, -1.4999795533192015 
4.900000000001919, -1.4989672390098794 
4.9100000000018955, -1.4987113256624676 
4.920000000001872, -1.4987755254071167 
4.930000000001849, -1.4988015533991168 
