t, s[1].omega / s[0].omega 
0, -0.5400653091775809 
0.009999999999999995, -0.5467528623383618 
0.019999999999999934, -0.5532850503931729 
0.029999999999999874, -0.5589938247846674 
0.04000000000000012, -0.5634696191611367 
0.050000000000000405, -0.566664281203235 
0.06000000000000069, -0.5687769790977946 
0.07000000000000098, -0.5700805187091111 
0.08000000000000126, -0.5708124647679188 
0.09000000000000155, -0.5711406970169411 
0.10000000000000184, -0.5711664898754882 
0.11000000000000212, -0.5709362243110198 
0.12000000000000241, -0.5704490837955785 
0.130000000000002, -0.569657104746061 
0.1400000000000009, -0.568457853537093 
0.1499999999999998, -0.566684086949705 
0.1599999999999987, -0.5641040726668419 
0.1699999999999976, -0.5604616542254458 
0.1799999999999965, -0.5555887384401571 
0.1899999999999954, -0.549570043445321 
0.1999999999999943, -0.5428317754171936 
0.2099999999999932, -0.5360185683249077 
0.2199999999999921, -0.529725613709804 
0.229999999999991, -0.5243072947218357 
0.2399999999999899, -0.5198643184041315 
0.2499999999999888, -0.5163346312587805 
0.2599999999999877, -0.5135883294370133 
0.2699999999999866, -0.5114866423897861 
0.2799999999999855, -0.5099080754468176 
0.2899999999999844, -0.5087555599135255 
0.2999999999999833, -0.5079553229786391 
0.3099999999999822, -0.5074533042510045 
0.3199999999999811, -0.5072116908915115 
0.32999999999998, -0.5072064767802191 
0.3399999999999789, -0.5074262264597114 
0.3499999999999778, -0.5078719328902745 
0.35999999999997667, -0.5085576643356536 
0.36999999999997557, -0.5095113463677619 
0.37999999999997447, -0.510774299373164 
0.38999999999997337, -0.5123969323203489 
0.39999999999997227, -0.5144265587058904 
0.40999999999997117, -0.5168830547399603 
0.41999999999997006, -0.5197226019062738 
0.42999999999996896, -0.5228034445018568 
0.43999999999996786, -0.5258854579832026 
0.44999999999996676, -0.5286904248186055 
0.45999999999996566, -0.5310004865951712 
0.46999999999996456, -0.532724821940449 
0.47999999999996346, -0.5338917449767908 
0.48999999999996235, -0.5345927401613352 
0.49999999999996125, -0.5349278857753836 
0.5099999999999602, -0.534975153079468 
0.519999999999959, -0.534779295480883 
0.529999999999958, -0.5343487012150604 
0.5399999999999568, -0.5336513508847578 
0.5499999999999557, -0.5326045535459492 
0.5599999999999546, -0.5310555244415134 
0.5699999999999535, -0.5287543720320403 
0.5799999999999524, -0.5253355076428525 
0.5899999999999513, -0.5203562327512642 
0.5999999999999502, -0.5134715839752048 
0.6099999999999491, -0.5047521488544071 
0.619999999999948, -0.494905927729695 
0.6299999999999469, -0.4850659588322525 
0.6399999999999458, -0.47624517991441734 
0.6499999999999447, -0.46896579817452483 
0.6599999999999436, -0.46328117624745485 
0.6699999999999425, -0.4589876347047251 
0.6799999999999414, -0.4558074160879587 
0.6899999999999403, -0.4534830425236989 
0.6999999999999392, -0.4518083070522921 
0.7099999999999381, -0.4506294629456713 
0.719999999999937, -0.44983661184191587 
0.7299999999999359, -0.44935404028132975 
0.7399999999999348, -0.44913246282736596 
0.7499999999999337, -0.44914376799103584 
0.7599999999999326, -0.4493780933704861 
0.7699999999999315, -0.44984287367243453 
0.7799999999999304, -0.4505634004374709 
0.7899999999999293, -0.45158408373358955 
0.7999999999999282, -0.4529687203738743 
0.8099999999999271, -0.45479637870987755 
0.819999999999926, -0.4571470667390846 
0.8299999999999249, -0.46006974981556886 
0.8399999999999238, -0.46353011230160457 
0.8499999999999227, -0.46735577244624676 
0.8599999999999216, -0.47122812126629743 
0.8699999999999205, -0.4747676492507721 
0.8799999999999194, -0.47768017353581393 
0.8899999999999183, -0.47985257955554667 
0.8999999999999172, -0.4813347563950101 
0.9099999999999161, -0.482255980441732 
0.919999999999915, -0.48275099048195225 
0.9299999999999139, -0.4829233777576289 
0.9399999999999128, -0.48283598270624595 
0.9499999999999117, -0.4825115768984709 
0.9599999999999106, -0.4819335675042617 
0.9699999999999095, -0.4810427700705076 
0.9799999999999084, -0.47973100431148524 
0.9899999999999073, -0.4778386248434595 
0.9999999999999062, -0.47517376644624837 
1.0099999999999052, -0.4715793356664702 
1.019999999999904, -0.46705199273614245 
1.029999999999903, -0.46184347653652624 
1.039999999999902, -0.4564240403431838 
1.0499999999999008, -0.4512935725653408 
1.0599999999998997, -0.4467932208196367 
1.0699999999998986, -0.44305039228372 
1.0799999999998975, -0.44003637373931104 
1.0899999999998964, -0.43764960614747483 
1.0999999999998953, -0.43577448893848647 
1.1099999999998942, -0.43431013263679547 
1.119999999999893, -0.4331797966631898 
1.129999999999892, -0.4323312998371769 
1.1399999999998909, -0.4317345515090637 
1.1499999999998898, -0.431379189917798 
1.1599999999998887, -0.43127361337355613 
1.1699999999998876, -0.43144596620299425 
1.1799999999998865, -0.431947424566811 
1.1899999999998854, -0.43285805926354926 
1.1999999999998843, -0.43429525460338 
1.2099999999998832, -0.4364234839527178 
1.219999999999882, -0.4394608851163511 
1.229999999999881, -0.44367038719011076 
1.2399999999998799, -0.4493098851178473 
1.2499999999998788, -0.4565059856375262 
1.2599999999998777, -0.4650471211094532 
1.2699999999998766, -0.4742170317097224 
1.2799999999998755, -0.482922265413801 
1.2899999999998744, -0.490181651557989 
1.2999999999998733, -0.4955740266912764 
1.3099999999998722, -0.4992422048525046 
1.319999999999871, -0.5015915556247842 
1.32999999999987, -0.5030286244922911 
1.3399999999998689, -0.5038574624095203 
1.3499999999998678, -0.5042749286936592 
1.3599999999998666, -0.5043960000430927 
1.3699999999998655, -0.5042777600612875 
1.3799999999998644, -0.5039347066240507 
1.3899999999998633, -0.5033467612648506 
1.3999999999998622, -0.5024642625430634 
1.4099999999998611, -0.5012165602244278 
1.41999999999986, -0.49953292162747004 
1.429999999999859, -0.49738103514086146 
1.4399999999998578, -0.49481185589926335 
1.4499999999998567, -0.4919772345761436 
1.4599999999998556, -0.4890921456344338 
1.4699999999998545, -0.48636000814600927 
1.4799999999998534, -0.48391416767139805 
1.4899999999998523, -0.48180583672357635 
1.4999999999998512, -0.48002630593401924 
1.5099999999998501, -0.47853740195600425 
1.519999999999849, -0.47729481702934695 
1.529999999999848, -0.476261315354597 
1.5399999999998468, -0.4754124506062884 
1.5499999999998457, -0.4747383196008915 
1.5599999999998446, -0.4742440448233288 
1.5699999999998435, -0.4739506390124408 
1.5799999999998424, -0.47389718250935087 
1.5899999999998413, -0.47414490779614776 
1.5999999999998402, -0.47478369319151603 
1.6099999999998391, -0.47594134120001225 
1.619999999999838, -0.47779534461509676 
1.629999999999837, -0.4805845601143841 
1.6399999999998358, -0.48461223126971786 
1.6499999999998347, -0.4902193067498624 
1.6599999999998336, -0.4976892889016503 
1.6699999999998325, -0.5070457135070647 
1.6799999999998314, -0.5177850386363598 
1.6899999999998303, -0.5287816094749014 
1.6999999999998292, -0.5386573696034627 
1.709999999999828, -0.5464560480412299 
1.719999999999827, -0.5519929159917473 
1.729999999999826, -0.5556394544204859 
1.7399999999998248, -0.5579259534163128 
1.7499999999998237, -0.5593033483778531 
1.7599999999998226, -0.5600836632497979 
1.7699999999998215, -0.5604603643064189 
1.7799999999998204, -0.5605425878978361 
1.7899999999998193, -0.5603807691683313 
1.7999999999998182, -0.5599809275486259 
1.809999999999817, -0.5593104625458982 
1.819999999999816, -0.5583001144277722 
1.8299999999998149, -0.5568495589876759 
1.8399999999998138, -0.5548482817213497 
1.8499999999998127, -0.5522225322593574 
1.8599999999998116, -0.5490004178224834 
1.8699999999998105, -0.545352232120092 
1.8799999999998094, -0.5415563746746603 
1.8899999999998083, -0.5379006059112748 
1.8999999999998072, -0.5345912100203448 
1.909999999999806, -0.5317240489564005 
1.919999999999805, -0.5293084398283858 
1.9299999999998039, -0.527307161927643 
1.9399999999998028, -0.5256683788496425 
1.9499999999998017, -0.5243437949428852 
1.9599999999998006, -0.5232962830006272 
1.9699999999997995, -0.5225016466089494 
1.9799999999997984, -0.5219479299434375 
1.9899999999997973, -0.5216342212909799 
1.9999999999997962, -0.5215699063787625 
2.0099999999998173, -0.5217747985382275 
2.0199999999998384, -0.5222803014495926 
2.0299999999998595, -0.5231315237086016 
2.0399999999998806, -0.5243898244676186 
2.0499999999999017, -0.5261343164539026 
2.059999999999923, -0.5284589984187666 
2.069999999999944, -0.5314592584132384 
2.079999999999965, -0.5351987339661277 
2.089999999999986, -0.5396504203291319 
2.100000000000007, -0.544625640144093 
2.1100000000000283, -0.5497438620386987 
2.1200000000000494, -0.5545130735023032 
2.1300000000000705, -0.5585126552119661 
2.1400000000000916, -0.5615473385540934 
2.1500000000001127, -0.5636555967473041 
2.160000000000134, -0.565006122708689 
2.170000000000155, -0.5657896360407838 
2.180000000000176, -0.5661605922442672 
2.190000000000197, -0.5662212554476925 
2.2000000000002182, -0.5660241161306228 
2.2100000000002393, -0.5655763698934467 
2.2200000000002604, -0.5648390965757548 
2.2300000000002815, -0.5637184628005175 
2.2400000000003026, -0.5620495110842676 
2.2500000000003237, -0.5595803318549393 
2.260000000000345, -0.5559818916406718 
2.270000000000366, -0.550932570549947 
2.280000000000387, -0.5443131068002456 
2.290000000000408, -0.5364268307589566 
2.3000000000004293, -0.5280130218356829 
2.3100000000004504, -0.519946703438557 
2.3200000000004715, -0.5128706567613495 
2.3300000000004926, -0.5070526689628062 
2.3400000000005137, -0.5024697672562161 
2.3500000000005348, -0.4989564915900823 
2.360000000000556, -0.49631270939264355 
2.370000000000577, -0.49435610776150873 
2.380000000000598, -0.4929389737028253 
2.390000000000619, -0.49194844472343224 
2.4000000000006403, -0.49130126107011396 
2.4100000000006614, -0.4909379497222036 
2.4200000000006825, -0.4908181921078736 
2.4300000000007036, -0.4909177694372017 
2.4400000000007247, -0.4912269931154339 
2.450000000000746, -0.4917503493448076 
2.460000000000767, -0.4925068776331364 
2.470000000000788, -0.49353031461108915 
2.480000000000809, -0.49486709133455137 
2.49000000000083, -0.4965689106836562 
2.5000000000008513, -0.49867553160858735 
2.5100000000008724, -0.5011848022248961 
2.5200000000008935, -0.5040152948983285 
2.5300000000009146, -0.5069839279543387 
2.5400000000009357, -0.5098320356895043 
2.550000000000957, -0.5123075603770264 
2.560000000000978, -0.5142540792806206 
2.570000000000999, -0.5156417821911922 
2.58000000000102, -0.5165321407271936 
2.5900000000010412, -0.5170202668874258 
2.6000000000010624, -0.5171927790639383 
2.6100000000010835, -0.5171083379778121 
2.6200000000011046, -0.5167914863303407 
2.6300000000011257, -0.5162294855128685 
2.6400000000011468, -0.515365484673415 
2.650000000001168, -0.51408435059728 
2.660000000001189, -0.5121909596367457 
2.67000000000121, -0.5093903027286146 
2.680000000001231, -0.5053023198197174 
2.6900000000012523, -0.4995753012104397 
2.7000000000012734, -0.49213582730653427 
2.7100000000012945, -0.48343898677438996 
2.7200000000013156, -0.4744132213306985 
2.7300000000013367, -0.4660359246771514 
2.740000000001358, -0.4589221050222201 
2.750000000001379, -0.4532408746377844 
2.7600000000014, -0.4488709786655739 
2.770000000001421, -0.44558005345832885 
2.780000000001442, -0.4431325139736019 
2.7900000000014633, -0.4413323522649172 
2.8000000000014844, -0.44003104667755666 
2.8100000000015055, -0.43912211095096654 
2.8200000000015266, -0.4385327578279237 
2.8300000000015477, -0.4382166788584376 
2.840000000001569, -0.4381490606333628 
2.85000000000159, -0.43832391638736545 
2.860000000001611, -0.43875352726226324 
2.870000000001632, -0.43946969119264506 
2.8800000000016532, -0.44052621103423195 
2.8900000000016743, -0.4420012551886291 
2.9000000000016954, -0.4439964174183012 
2.9100000000017165, -0.4466260429279639 
2.9200000000017377, -0.44998636728882346 
2.9300000000017588, -0.4540944612101662 
2.94000000000178, -0.45880541711305456 
2.950000000001801, -0.4637619730038245 
2.960000000001822, -0.4684618969310225 
2.970000000001843, -0.4724514869302894 
2.9800000000018643, -0.47550379601486076 
2.9900000000018854, -0.47764004230460405 
3.0000000000019065, -0.4790231764788322 
3.0100000000019276, -0.47984291890814096 
3.0200000000019487, -0.48025400965189585 
3.03000000000197, -0.48035977314800177 
3.040000000001991, -0.4802153317499311 
3.050000000002012, -0.47983383945414076 
3.060000000002033, -0.479189359623705 
3.070000000002054, -0.4782160760937192 
3.0800000000020753, -0.476808298478383 
3.0900000000020964, -0.4748321801593258 
3.1000000000021175, -0.47216587251718034 
3.1100000000021386, -0.4687757478566744 
3.1200000000021597, -0.46479550737854725 
3.130000000002181, -0.46053182114077246 
3.140000000002202, -0.45635892891453683 
3.150000000002223, -0.45257626132612827 
3.160000000002244, -0.44933525007788455 
3.1700000000022652, -0.4466558808559463 
3.1800000000022863, -0.44448264893658707 
3.1900000000023074, -0.4427343386938598 
3.2000000000023285, -0.44133335576863314 
3.2100000000023496, -0.4402183922264885 
3.2200000000023707, -0.4393477953347647 
3.230000000002392, -0.4386991501704374 
3.240000000002413, -0.43826823196317505 
3.250000000002434, -0.43806892277532095 
3.260000000002455, -0.43813490787781373 
3.2700000000024763, -0.43852370105271843 
3.2800000000024974, -0.4393235087155474 
3.2900000000025185, -0.4406632846157604 
3.3000000000025396, -0.4427254267622578 
3.3100000000025607, -0.44575758595186443 
3.3200000000025818, -0.45007240301143525 
3.330000000002603, -0.4560086576149732 
3.340000000002624, -0.46380874083201995 
3.350000000002645, -0.47338110566132396 
3.360000000002666, -0.48404013994342854 
3.3700000000026873, -0.4945269023503605 
3.3800000000027084, -0.5035340607922099 
3.3900000000027295, -0.510358139738784 
3.4000000000027506, -0.5150500561619596 
3.4100000000027717, -0.5180750708686807 
3.420000000002793, -0.519945948680064 
3.430000000002814, -0.5210578342087169 
3.440000000002835, -0.5216702805983464 
3.450000000002856, -0.5219387271944184 
3.460000000002877, -0.5219472811470324 
3.4700000000028983, -0.521730612268392 
3.4800000000029194, -0.5212858687328821 
3.4900000000029405, -0.5205787762226767 
3.5000000000029616, -0.5195495823361417 
3.5100000000029827, -0.5181265740921239 
3.520000000003004, -0.5162549183657803 
3.530000000003025, -0.5139393258418168 
3.540000000003046, -0.5112781070756419 
3.550000000003067, -0.5084543995580796 
3.5600000000030882, -0.5056776623995832 
3.5700000000031094, -0.5031147842692747 
3.5800000000031305, -0.5008556529772327 
3.5900000000031516, -0.49892034560638915 
3.6000000000031727, -0.49728630254791295 
3.6100000000031938, -0.4959147208975372 
3.620000000003215, -0.49476793157688304 
3.630000000003236, -0.4938181358003967 
3.640000000003257, -0.4930506733735197 
3.650000000003278, -0.4924648272099814 
3.6600000000032993, -0.49207417693199185 
3.6700000000033204, -0.49190762915545394 
3.6800000000033415, -0.49201173164164624 
3.6900000000033626, -0.4924546629480261 
3.7000000000033837, -0.4933321693566991 
3.710000000003405, -0.49477535800644823 
3.720000000003426, -0.49695904033788524 
3.730000000003447, -0.5001061072744297 
3.740000000003468, -0.504476460628371 
3.750000000003489, -0.5103176573602377 
3.7600000000035103, -0.5177466051188143 
3.7700000000035314, -0.5265588891006168 
3.7800000000035525, -0.5360687390006655 
3.7900000000035736, -0.5452045918205704 
3.8000000000035947, -0.5529509312194982 
3.810000000003616, -0.5588057612452831 
3.820000000003637, -0.5628455666693971 
3.830000000003658, -0.5654569031688035 
3.840000000003679, -0.5670617170882715 
3.8500000000037002, -0.5679897619327107 
3.8600000000037213, -0.5684604426291854 
3.8700000000037424, -0.5686042961898216 
3.8800000000037635, -0.5684870106670339 
3.8900000000037847, -0.5681248657833735 
3.9000000000038058, -0.5674909599380792 
3.910000000003827, -0.5665149745912195 
3.920000000003848, -0.5650822065444283 
3.930000000003869, -0.5630434340784294 
3.94000000000389, -0.5602535746623977 
3.9500000000039113, -0.556649857702394 
3.9600000000039324, -0.5523404836342303 
3.9700000000039535, -0.5476263279587238 
3.9800000000039746, -0.5429061772095001 
3.9900000000039957, -0.5385276791638667 
4.000000000004016, -0.5346952994677654 
4.010000000003993, -0.5314712836186966 
4.02000000000397, -0.5288265471124834 
4.030000000003946, -0.5266926311821584 
4.040000000003923, -0.524995065986724 
4.0500000000039, -0.5236691081607393 
4.0600000000038765, -0.5226646522136797 
4.070000000003853, -0.5219460688772561 
4.08000000000383, -0.521490404710498 
4.090000000003807, -0.5212856402095248 
4.100000000003783, -0.5213297213773227 
4.11000000000376, -0.5216305950824718 
4.120000000003737, -0.5222072173060412 
4.130000000003713, -0.5230912352533824 
4.14000000000369, -0.5243285392874287 
4.150000000003667, -0.5259788775001301 
4.1600000000036434, -0.5281100294003455 
4.17000000000362, -0.5307809829763604 
4.180000000003597, -0.5340082787376744 
4.1900000000035735, -0.5377168015095576 
4.20000000000355, -0.5416971649781754 
4.210000000003527, -0.5456163237814378 
4.220000000003504, -0.5491131303118785 
4.23000000000348, -0.5519328374078947 
4.240000000003457, -0.5539992551979793 
4.250000000003434, -0.5553829952455916 
4.26000000000341, -0.5562192806922249 
4.270000000003387, -0.5566410172253773 
4.280000000003364, -0.5567472353669193 
4.2900000000033405, -0.55659533009263 
4.300000000003317, -0.556201360881387 
4.310000000003294, -0.5555385496287096 
4.320000000003271, -0.5545289649487415 
4.330000000003247, -0.5530261408428425 
4.340000000003224, -0.5507908671657302 
4.350000000003201, -0.5474759761847474 
4.360000000003177, -0.5426654061768427 
4.370000000003154, -0.5360377692125737 
4.380000000003131, -0.5276565299045112 
4.390000000003107, -0.5181720524912017 
4.400000000003084, -0.5086359738059772 
4.410000000003061, -0.5000108538302375 
4.4200000000030375, -0.4928206454900237 
4.430000000003014, -0.4871510682393499 
4.440000000002991, -0.48283400884954525 
4.450000000002968, -0.47961756513741866 
4.460000000002944, -0.47725904161523786 
4.470000000002921, -0.475558734517035 
4.480000000002898, -0.47436412998165467 
4.490000000002874, -0.47356342191432843 
4.500000000002851, -0.47307711151239024 
4.510000000002828, -0.47285088345916826 
4.520000000002804, -0.47285054600833715 
4.530000000002781, -0.4730589700650638 
4.540000000002758, -0.4734747215010982 
4.5500000000027345, -0.474111953680053 
4.560000000002711, -0.47500081021713525 
4.570000000002688, -0.4761868539062391 
4.580000000002665, -0.47772676802957115 
4.590000000002641, -0.47967602023592343 
4.600000000002618, -0.48206371110121327 
4.610000000002595, -0.4848542411549205 
4.620000000002571, -0.4879098438923686 
4.630000000002548, -0.49098781687691717 
4.640000000002525, -0.49380224423070807 
4.6500000000025015, -0.49612724583108225 
4.660000000002478, -0.4978673360275428 
4.670000000002455, -0.4990494907889757 
4.6800000000024315, -0.4997653223106465 
4.690000000002408, -0.5001151873146912 
4.700000000002385, -0.5001771269308438 
4.710000000002362, -0.4999958444681153 
4.720000000002338, -0.49957979964558624 
4.730000000002315, -0.4988977282233794 
4.740000000002292, -0.4978700388852107 
4.750000000002268, -0.4963541326124175 
4.760000000002245, -0.49412931533761545 
4.770000000002222, -0.4909024696646302 
4.7800000000021985, -0.4863784685766661 
4.790000000002175, -0.4804332183174676 
4.800000000002152, -0.47332277983573096 
4.810000000002129, -0.46571401241248 
4.820000000002105, -0.4584145919767676 
4.830000000002082, -0.4520203651184091 
4.840000000002059, -0.44677252485969615 
4.850000000002035, -0.44263812197541663 
4.860000000002012, -0.4394544230333839 
4.870000000001989, -0.4370325372564402 
4.880000000001965, -0.4352062668291216 
4.890000000001942, -0.43384646216367423 
