t, s[1].omega / s[0].omega 
0, -1.319989334297786 
0.009999999999999995, -1.318744099616509 
0.019999999999999934, -1.3171446711897021 
0.029999999999999874, -1.31520954670951 
0.04000000000000012, -1.312996033510895 
0.050000000000000405, -1.3106243363778114 
0.06000000000000069, -1.3083007719755195 
0.07000000000000098, -1.306304689870866 
0.08000000000000126, -1.3048904543150803 
0.09000000000000155, -1.304134088224186 
0.10000000000000184, -1.3038788746112844 
0.11000000000000212, -1.3038549777728807 
0.12000000000000241, -1.3038289638729699 
0.130000000000002, -1.3036472648392037 
0.1400000000000009, -1.3031929359042587 
0.1499999999999998, -1.3023173069027927 
0.1599999999999987, -1.3007661889627928 
0.1699999999999976, -1.2980945165285294 
0.1799999999999965, -1.2935808781716374 
0.1899999999999954, -1.2862289390925166 
0.1999999999999943, -1.2750834605350805 
0.2099999999999932, -1.260140093257516 
0.2199999999999921, -1.243562349222989 
0.229999999999991, -1.2295633881011943 
0.2399999999999899, -1.2216028116989788 
0.2499999999999888, -1.2195975562302142 
0.2599999999999877, -1.2208624041125855 
0.2699999999999866, -1.2229030089811537 
0.2799999999999855, -1.2245577596975843 
0.2899999999999844, -1.2255839374567539 
0.2999999999999833, -1.2260679593155788 
0.3099999999999822, -1.2261315632519847 
0.3199999999999811, -1.2258409249257771 
0.32999999999998, -1.225189095534017 
0.3399999999999789, -1.2240974861928668 
0.3499999999999778, -1.222441772127964 
0.35999999999997667, -1.2201700551707755 
0.36999999999997557, -1.2176514497994886 
0.37999999999997447, -1.216292047713814 
0.38999999999997337, -1.2187634563496197 
0.39999999999997227, -1.2274631087924281 
0.40999999999997117, -1.2417673993529315 
0.41999999999997006, -1.2578274514437313 
0.42999999999996896, -1.2716845067979656 
0.43999999999996786, -1.281623176635622 
0.44999999999996676, -1.287902044251027 
0.45999999999996566, -1.291525681554278 
0.46999999999996456, -1.2934509025533716 
0.47999999999996346, -1.2943471125032535 
0.48999999999996235, -1.2946204599025455 
0.49999999999996125, -1.2945015871110088 
0.5099999999999602, -1.2941279499559324 
0.519999999999959, -1.293615662084387 
0.529999999999958, -1.2931266244054593 
0.5399999999999568, -1.2929065738814722 
0.5499999999999557, -1.2932299003355077 
0.5599999999999546, -1.2942420849129566 
0.5699999999999535, -1.2958475742773312 
0.5799999999999524, -1.2977769613574826 
0.5899999999999513, -1.2997436370685906 
0.5999999999999502, -1.3015386221094625 
0.6099999999999491, -1.3030409621739407 
0.619999999999948, -1.3041935372592008 
0.6299999999999469, -1.3049789289753226 
0.6399999999999458, -1.3054043502607688 
0.6499999999999447, -1.3054936756422832 
0.6599999999999436, -1.305282769343376 
0.6699999999999425, -1.3048165063532753 
0.6799999999999414, -1.3041486068282302 
0.6899999999999403, -1.3033449630753806 
0.6999999999999392, -1.3024867316499629 
0.7099999999999381, -1.3016662843924802 
0.719999999999937, -1.3009737428475296 
0.7299999999999359, -1.3004784533824532 
0.7399999999999348, -1.300207805959162 
0.7499999999999337, -1.3001292594661729 
0.7599999999999326, -1.3001546006202873 
0.7699999999999315, -1.3001709619201762 
0.7799999999999304, -1.300070756832618 
0.7899999999999293, -1.299757088389303 
0.7999999999999282, -1.2991302161088472 
0.8099999999999271, -1.2980727742906903 
0.819999999999926, -1.2964465614090148 
0.8299999999999249, -1.2941064113456318 
0.8399999999999238, -1.2909309344379012 
0.8499999999999227, -1.2868681192193672 
0.8599999999999216, -1.2819988211906437 
0.8699999999999205, -1.276620895052338 
0.8799999999999194, -1.2713157990555142 
0.8899999999999183, -1.2668677522397391 
0.8999999999999172, -1.2639129773809574 
0.9099999999999161, -1.2625267820107113 
0.919999999999915, -1.2622256353172197 
0.9299999999999139, -1.262387973740332 
0.9399999999999128, -1.262587453061358 
0.9499999999999117, -1.2626216840233597 
0.9599999999999106, -1.2624007699467534 
0.9699999999999095, -1.261842533592553 
0.9799999999999084, -1.2607958871061105 
0.9899999999999073, -1.2589648993516371 
0.9999999999999062, -1.2558133533701947 
1.0099999999999052, -1.250483024498562 
1.019999999999904, -1.2419128316904575 
1.029999999999903, -1.2295932872294129 
1.039999999999902, -1.2151636837531867 
1.0499999999999008, -1.2032264876059409 
1.0599999999998997, -1.1984315537352015 
1.0699999999998986, -1.2009648015461853 
1.0799999999998975, -1.206970843086335 
1.0899999999998964, -1.2127828447860933 
1.0999999999998953, -1.216942869900094 
1.1099999999998942, -1.2194802063375816 
1.119999999999893, -1.2208536777695256 
1.129999999999892, -1.2214711542065815 
1.1399999999998909, -1.2215905922780854 
1.1499999999998898, -1.2213432883360427 
1.1599999999998887, -1.220774131705697 
1.1699999999998876, -1.2198842628638573 
1.1799999999998865, -1.2187057481712764 
1.1899999999998854, -1.2174659238062104 
1.1999999999998843, -1.216860467465144 
1.2099999999998832, -1.2182045331713836 
1.219999999999882, -1.2229102061171484 
1.229999999999881, -1.2312742352313764 
1.2399999999998799, -1.2418927118602423 
1.2499999999998788, -1.2525725411078115 
1.2599999999998777, -1.261630837191077 
1.2699999999998766, -1.268389501656752 
1.2799999999998755, -1.2729453201220349 
1.2899999999998744, -1.275753697465969 
1.2999999999998733, -1.277322121435023 
1.3099999999998722, -1.2780644775178607 
1.319999999999871, -1.2782691947052929 
1.32999999999987, -1.278122921543624 
1.3399999999998689, -1.2777532586576525 
1.3499999999998678, -1.277275723777328 
1.3599999999998666, -1.2768339176792973 
1.3699999999998655, -1.2766066758304244 
1.3799999999998644, -1.2767541194816396 
1.3899999999998633, -1.2773315259082758 
1.3999999999998622, -1.2782587994029935 
1.4099999999998611, -1.2793759959392992 
1.41999999999986, -1.2805193935524992 
1.429999999999859, -1.2815617473100456 
1.4399999999998578, -1.2824182743599624 
1.4499999999998567, -1.2830385227373533 
1.4599999999998556, -1.2833961305097763 
1.4699999999998545, -1.2834809984598063 
1.4799999999998534, -1.2832949080971638 
1.4899999999998523, -1.2828499404105584 
1.4999999999998512, -1.282168830206204 
1.5099999999998501, -1.281287139706679 
1.519999999999849, -1.2802572316845158 
1.529999999999848, -1.2791521328096958 
1.5399999999998468, -1.2780652172700275 
1.5499999999998457, -1.2771019338221419 
1.5599999999998446, -1.276359859663288 
1.5699999999998435, -1.2758944051633465 
1.5799999999998424, -1.2756850529372135 
1.5899999999998413, -1.2756362726286636 
1.5999999999998402, -1.2756190227791664 
1.6099999999998391, -1.275512051101412 
1.619999999999838, -1.2752102729938684 
1.629999999999837, -1.2746064405213668 
1.6399999999998358, -1.2735671455344626 
1.6499999999998347, -1.2719188402091286 
1.6599999999998336, -1.2694545946703433 
1.6699999999998325, -1.2659693641621526 
1.6799999999998314, -1.2613259194258029 
1.6899999999998303, -1.2555487858817365 
1.6999999999998292, -1.248939297694564 
1.709999999999828, -1.2421700806851628 
1.719999999999827, -1.236222146828759 
1.729999999999826, -1.232001083990708 
1.7399999999998248, -1.22979385757257 
1.7499999999998237, -1.229134037329713 
1.7599999999998226, -1.2292514105886223 
1.7699999999998215, -1.2295525832538767 
1.7799999999998204, -1.229738897155062 
1.7899999999998193, -1.2296954341223485 
1.7999999999998182, -1.2293627161741467 
1.809999999999817, -1.2286513876999074 
1.819999999999816, -1.2273776921065498 
1.8299999999998149, -1.2251895305782805 
1.8399999999998138, -1.2214768430144924 
1.8499999999998127, -1.2153332155560235 
1.8599999999998116, -1.2058109514037076 
1.8699999999998105, -1.1928776758014186 
1.8799999999998094, -1.1789021285928216 
1.8899999999998083, -1.1686031652048445 
1.8999999999998072, -1.1655559876628423 
1.909999999999806, -1.1688530675518272 
1.919999999999805, -1.1746849292191448 
1.9299999999998039, -1.1800069244045768 
1.9399999999998028, -1.183752002248037 
1.9499999999998017, -1.1860307284203133 
1.9599999999998006, -1.1872628332262385 
1.9699999999997995, -1.187806281699136 
1.9799999999997984, -1.1878847980832965 
1.9899999999997973, -1.1876083987058714 
1.9999999999997962, -1.1870054437428568 
2.0099999999998173, -1.1860553466549901 
2.0199999999998384, -1.1847487874992233 
2.0299999999998595, -1.1832358900121085 
2.0399999999998806, -1.1821191679409548 
2.0499999999999017, -1.182754346545881 
2.059999999999923, -1.1869839004602145 
2.069999999999944, -1.1958372018261154 
2.079999999999965, -1.2082444910680528 
2.089999999999986, -1.2215135117310676 
2.100000000000007, -1.2331161465800862 
2.1100000000000283, -1.2418373429158052 
2.1200000000000494, -1.2476839352584357 
2.1300000000000705, -1.2512630887753733 
2.1400000000000916, -1.253273324189186 
2.1500000000001127, -1.2542716984828501 
2.160000000000134, -1.2546322664247715 
2.170000000000155, -1.2545845735017942 
2.180000000000176, -1.2542703492010312 
2.190000000000197, -1.2538002472168395 
2.2000000000002182, -1.2533088701860386 
2.2100000000002393, -1.2529929783786091 
2.2200000000002604, -1.253089403690743 
2.2300000000002815, -1.253768641248373 
2.2400000000003026, -1.2550238516893921 
2.2500000000003237, -1.2566756505239483 
2.260000000000345, -1.2584801144829914 
2.270000000000366, -1.2602268394640512 
2.280000000000387, -1.2617731741253542 
2.290000000000408, -1.2630365843590692 
2.3000000000004293, -1.263976619302369 
2.3100000000004504, -1.2645807544834262 
2.3200000000004715, -1.2648563709997855 
2.3300000000004926, -1.2648264528582063 
2.3400000000005137, -1.2645263817878905 
2.3500000000005348, -1.2640016588907117 
2.360000000000556, -1.263308294247461 
2.370000000000577, -1.2625157729329772 
2.380000000000598, -1.261707724088738 
2.390000000000619, -1.2609739235441333 
2.4000000000006403, -1.2603938027876456 
2.4100000000006614, -1.2600180898625741 
2.4200000000006825, -1.2598529228094464 
2.4300000000007036, -1.2598519214566264 
2.4400000000007247, -1.2599271025962158 
2.450000000000746, -1.259976006612595 
2.460000000000767, -1.2599036579883038 
2.470000000000788, -1.2596259486485402 
2.480000000000809, -1.2590613179982133 
2.49000000000083, -1.2581242271119857 
2.5000000000008513, -1.256728299049367 
2.5100000000008724, -1.2547992081440953 
2.5200000000008935, -1.2522926119974422 
2.5300000000009146, -1.2492137896879707 
2.5400000000009357, -1.2456420517370734 
2.550000000000957, -1.2417649098680301 
2.560000000000978, -1.2379103277843453 
2.570000000000999, -1.2345255809000217 
2.58000000000102, -1.2320334781297793 
2.5900000000010412, -1.2306033084143633 
2.6000000000010624, -1.2300493122561154 
2.6100000000010835, -1.2299863108324902 
2.6200000000011046, -1.2300636307309785 
2.6300000000011257, -1.230063497418641 
2.6400000000011468, -1.2298662226180483 
2.650000000001168, -1.2293761769402423 
2.660000000001189, -1.2284532413277152 
2.67000000000121, -1.2268453648153552 
2.680000000001231, -1.2241085394183675 
2.6900000000012523, -1.2195257293989676 
2.7000000000012734, -1.2121110419471282 
2.7100000000012945, -1.2009141118101405 
2.7200000000013156, -1.1858637165162045 
2.7300000000013367, -1.1688591189383262 
2.740000000001358, -1.1537241003018526 
2.750000000001379, -1.1439417236403282 
2.7600000000014, -1.1401278210049526 
2.770000000001421, -1.1402622724712133 
2.780000000001442, -1.141902559673093 
2.7900000000014633, -1.1435826692600168 
2.8000000000014844, -1.1447902527116331 
2.8100000000015055, -1.1454821430483428 
2.8200000000015266, -1.1457454529183249 
2.8300000000015477, -1.145655391325263 
2.840000000001569, -1.1452308113880778 
2.85000000000159, -1.1444179762778846 
2.860000000001611, -1.1430751415861133 
2.870000000001632, -1.140961249154954 
2.8800000000016532, -1.1377749704182507 
2.8900000000016743, -1.133368705270307 
2.9000000000016954, -1.1283092348818342 
2.9100000000017165, -1.1246319071109272 
2.9200000000017377, -1.1256503362027417 
2.9300000000017588, -1.1335691908864338 
2.94000000000178, -1.1468065694195066 
2.950000000001801, -1.1609740948553702 
2.960000000001822, -1.1724986631983556 
2.970000000001843, -1.1803310556578612 
2.9800000000018643, -1.1850753419427351 
2.9900000000018854, -1.187729229564097 
3.0000000000019065, -1.1890941367541088 
3.0100000000019276, -1.1896797476931127 
3.0200000000019487, -1.1897729701801043 
3.03000000000197, -1.1895198375532785 
3.040000000001991, -1.1889883793618865 
3.050000000002012, -1.1882264676529708 
3.060000000002033, -1.1873457481355891 
3.070000000002054, -1.1866564801949449 
3.0800000000020753, -1.186801328609076 
3.0900000000020964, -1.1886749346025103 
3.1000000000021175, -1.1929345903817947 
3.1100000000021386, -1.199419121254636 
3.1200000000021597, -1.2071361226878659 
3.130000000002181, -1.2148375081918292 
3.140000000002202, -1.221571242514186 
3.150000000002223, -1.2268686752131888 
3.160000000002244, -1.2306697073489785 
3.1700000000022652, -1.2331637119640892 
3.1800000000022863, -1.2346393003309946 
3.1900000000023074, -1.2353794496941028 
3.2000000000023285, -1.2356107625694672 
3.2100000000023496, -1.2354963051210253 
3.2200000000023707, -1.235154494077491 
3.230000000002392, -1.2346902378731985 
3.240000000002413, -1.234226364446426 
3.250000000002434, -1.2339151590887982 
3.260000000002455, -1.2339063525984169 
3.2700000000024763, -1.2342809800519512 
3.2800000000024974, -1.2350097431667808 
3.2900000000025185, -1.2359768325607228 
3.3000000000025396, -1.237038573904943 
3.3100000000025607, -1.2380674561904623 
3.3200000000025818, -1.2389684439346684 
3.330000000002603, -1.239678401749532 
3.340000000002624, -1.2401593835904055 
3.350000000002645, -1.2403915806103134 
3.360000000002666, -1.2403685012108014 
3.3700000000026873, -1.2400947961396664 
3.3800000000027084, -1.2395859779626424 
3.3900000000027295, -1.2388693774314867 
3.4000000000027506, -1.2379863823869846 
3.4100000000027717, -1.2369955541261504 
3.420000000002793, -1.235973920737989 
3.430000000002814, -1.2350123423945023 
3.440000000002835, -1.2342028410137835 
3.450000000002856, -1.233617908718725 
3.460000000002877, -1.2332841764709122 
3.4700000000028983, -1.2331640034470475 
3.4800000000029194, -1.2331650312007698 
3.4900000000029405, -1.2331742187736432 
3.5000000000029616, -1.233086765613065 
3.5100000000029827, -1.2328111161341202 
3.520000000003004, -1.2322572447337585 
3.530000000003025, -1.2313244476591119 
3.540000000003046, -1.229899996517558 
3.550000000003067, -1.2278727486431373 
3.5600000000030882, -1.2251588172172059 
3.5700000000031094, -1.221732199782036 
3.5800000000031305, -1.2176566146626073 
3.5900000000031516, -1.2131213437944104 
3.6000000000031727, -1.208475820723196 
3.6100000000031938, -1.2042213735698541 
3.620000000003215, -1.2008853306311402 
3.630000000003236, -1.1987747662642394 
3.640000000003257, -1.1977986347776357 
3.650000000003278, -1.197562922346999 
3.6600000000032993, -1.1976368073071135 
3.6700000000033204, -1.1977242904181842 
3.6800000000033415, -1.1976675871559088 
3.6900000000033626, -1.1973753107886727 
3.7000000000033837, -1.1967499687442156 
3.710000000003405, -1.1956262985183934 
3.720000000003426, -1.1937058451207259 
3.730000000003447, -1.1904797041554815 
3.740000000003468, -1.1851688638493671 
3.750000000003489, -1.1767969309542277 
3.7600000000035103, -1.1646129116515422 
3.7700000000035314, -1.1489794090139642 
3.7800000000035525, -1.132186729337005 
3.7900000000035736, -1.1178998086306526 
3.8000000000035947, -1.1089069945208523 
3.810000000003616, -1.105325357752017 
3.820000000003637, -1.105227074183154 
3.830000000003658, -1.1065013748725172 
3.840000000003679, -1.107885297421577 
3.8500000000037002, -1.1089075162760245 
3.8600000000037213, -1.1094979131310534 
3.8700000000037424, -1.1097091113870325 
3.8800000000037635, -1.1095912352334047 
3.8900000000037847, -1.1091461763925743 
3.9000000000038058, -1.1083049385461246 
3.910000000003827, -1.1069013207646619 
3.920000000003848, -1.104636085402086 
3.930000000003869, -1.101054484686323 
3.94000000000389, -1.0956239598426356 
3.9500000000039113, -1.0880926348292788 
3.9600000000039324, -1.0792463996207762 
3.9700000000039535, -1.0715455936314124 
3.9800000000039746, -1.0682663328985247 
3.9900000000039957, -1.070929903395776 
4.000000000004016, -1.0778390316564497 
4.010000000003993, -1.0857507237347046 
4.02000000000397, -1.092353497677726 
4.030000000003946, -1.096956939752531 
4.040000000003923, -1.0998237979876768 
4.0500000000039, -1.1014584686303095 
4.0600000000038765, -1.1022841139816786 
4.070000000003853, -1.1025765065033488 
4.08000000000383, -1.102486243826924 
4.090000000003807, -1.1020713607857378 
4.100000000003783, -1.1013204552856934 
4.11000000000376, -1.1001725944035672 
4.120000000003737, -1.0985607071968997 
4.130000000003713, -1.096535833648628 
4.14000000000369, -1.094550058451894 
4.150000000003667, -1.0938665619100703 
4.1600000000036434, -1.09665605500858 
4.17000000000362, -1.1049862232621521 
4.180000000003597, -1.1188714009574354 
4.1900000000035735, -1.1354949048026342 
4.20000000000355, -1.1510160390225237 
4.210000000003527, -1.1629971410254918 
4.220000000003504, -1.1710445605470405 
4.23000000000348, -1.1759447733525183 
4.240000000003457, -1.1787142549018432 
4.250000000003434, -1.1801564146333132 
4.26000000000341, -1.180791519932535 
4.270000000003387, -1.1809220185618183 
4.280000000003364, -1.1807125351372854 
4.2900000000033405, -1.1802550285721676 
4.300000000003317, -1.179628546342499 
4.310000000003294, -1.1789727677272877 
4.320000000003271, -1.1785759346182512 
4.330000000003247, -1.1789133961976062 
4.340000000003224, -1.1805118457865005 
4.350000000003201, -1.1836327466079095 
4.360000000003177, -1.1880469134128624 
4.370000000003154, -1.1931474351350602 
4.380000000003131, -1.198260173994834 
4.390000000003107, -1.2028685745143837 
4.400000000003084, -1.206674564811022 
4.410000000003061, -1.2095706242503097 
4.4200000000030375, -1.2115892997850766 
4.430000000003014, -1.2128500322157072 
4.440000000002991, -1.2135080101156233 
4.450000000002968, -1.2137141651092518 
4.460000000002944, -1.2135950372786335 
4.470000000002921, -1.2132534138478204 
4.480000000002898, -1.2127838532347326 
4.490000000002874, -1.2122925785134537 
4.500000000002851, -1.2119050300337277 
4.510000000002828, -1.2117440583169263 
4.520000000002804, -1.2118844563910862 
4.530000000002781, -1.2123211695292213 
4.540000000002758, -1.2129795147363107 
4.5500000000027345, -1.2137521037020953 
4.560000000002711, -1.2145319104143515 
4.570000000002688, -1.21522993538676 
4.580000000002665, -1.21578061801046 
4.590000000002641, -1.2161401588339062 
4.600000000002618, -1.2162820403917876 
4.610000000002595, -1.216192832069721 
4.620000000002571, -1.2158696805372284 
4.630000000002548, -1.2153196733130758 
4.640000000002525, -1.214560831649252 
4.6500000000025015, -1.2136245279395932 
4.660000000002478, -1.2125589482014583 
4.670000000002455, -1.2114319502766366 
4.6800000000024315, -1.2103299676956392 
4.690000000002408, -1.2093495929948332 
4.700000000002385, -1.2085797316345848 
4.710000000002362, -1.2080743859304002 
4.720000000002338, -1.2078259487059237 
4.730000000002315, -1.2077612060310574 
4.740000000002292, -1.2077691903535699 
4.750000000002268, -1.2077375912118313 
4.760000000002245, -1.2075694995813675 
4.770000000002222, -1.2071774346716126 
4.7800000000021985, -1.206469339371571 
4.790000000002175, -1.2053407779234786 
4.800000000002152, -1.2036809322988336 
4.810000000002129, -1.2013929756209083 
4.820000000002105, -1.1984225364333416 
4.830000000002082, -1.194785968843862 
4.840000000002059, -1.1905963998623965 
4.850000000002035, -1.1860905002621385 
4.860000000002012, -1.1816453160658476 
4.870000000001989, -1.1777406967888377 
4.880000000001965, -1.1748140559716755 
4.890000000001942, -1.1730483219242729 
4.900000000001919, -1.1722750783571547 
4.9100000000018955, -1.1721095638969767 
4.920000000001872, -1.1721765616321709 
4.930000000001849, -1.1722278468781262 
