t, s[1].omega / s[0].omega 
0, -1.41999431867278 
0.009999999999999995, -1.4191997319129557 
0.019999999999999934, -1.4179569955436044 
0.029999999999999874, -1.4162665980951517 
0.04000000000000012, -1.4141293205245407 
0.050000000000000405, -1.4115465747110452 
0.06000000000000069, -1.4085208597314165 
0.07000000000000098, -1.405056321756801 
0.08000000000000126, -1.4011593998843836 
0.09000000000000155, -1.396839545848663 
0.10000000000000184, -1.3921100333768104 
0.11000000000000212, -1.3869889364190835 
0.12000000000000241, -1.3815004550465606 
0.130000000000002, -1.3756768719458807 
0.1400000000000009, -1.369561454695903 
0.1499999999999998, -1.3632124684362463 
0.1599999999999987, -1.3567080310288824 
0.1699999999999976, -1.350150818099621 
0.1799999999999965, -1.3436707679316076 
0.1899999999999954, -1.3374233167765681 
0.1999999999999943, -1.331580838809044 
0.2099999999999932, -1.3263163312721202 
0.2199999999999921, -1.32178098340628 
0.229999999999991, -1.3180802974566899 
0.2399999999999899, -1.3152553579334403 
0.2499999999999888, -1.313275205483965 
0.2599999999999877, -1.312042830720124 
0.2699999999999866, -1.3114125716368086 
0.2799999999999855, -1.3112130777593674 
0.2899999999999844, -1.311269143261301 
0.2999999999999833, -1.3114174992705825 
0.3099999999999822, -1.3115146303563234 
0.3199999999999811, -1.311437246959849 
0.32999999999998, -1.3110773822072346 
0.3399999999999789, -1.3103342335088144 
0.3499999999999778, -1.309104328767881 
0.35999999999997667, -1.3072708685018988 
0.36999999999997557, -1.3046924946345073 
0.37999999999997447, -1.3011913948923928 
0.38999999999997337, -1.2965406008524292 
0.39999999999997227, -1.2904505933170456 
0.40999999999997117, -1.2825559344335273 
0.41999999999997006, -1.272403675907758 
0.42999999999996896, -1.2594468072119325 
0.43999999999996786, -1.243047947622892 
0.44999999999996676, -1.2225004885439021 
0.45999999999996566, -1.1970755503063528 
0.46999999999996456, -1.166101809946656 
0.47999999999996346, -1.1290793806163395 
0.48999999999996235, -1.0858170090705557 
0.49999999999996125, -1.036565277888231 
0.5099999999999602, -0.9821037538762418 
0.519999999999959, -0.9237381741649242 
0.529999999999958, -0.8631840121740579 
0.5399999999999568, -0.8023522972096487 
0.5499999999999557, -0.7430934857997263 
0.5599999999999546, -0.6869714997462113 
0.5699999999999535, -0.635122942204375 
0.5799999999999524, -0.5882185450233869 
0.5899999999999513, -0.5465083201167061 
0.5999999999999502, -0.5099143268905179 
0.6099999999999491, -0.4781361615614001 
0.619999999999948, -0.45074570400989417 
0.6299999999999469, -0.42726040307652247 
0.6399999999999458, -0.4071936295265832 
0.6499999999999447, -0.3900854956124345 
0.6599999999999436, -0.37551912283492017 
0.6699999999999425, -0.3631270933864677 
0.6799999999999414, -0.35259184586303804 
0.6899999999999403, -0.3436426957574494 
0.6999999999999392, -0.3360512462526823 
0.7099999999999381, -0.32962627495879887 
0.719999999999937, -0.324208717287373 
0.7299999999999359, -0.31966706834433783 
0.7399999999999348, -0.3158933434434024 
0.7499999999999337, -0.31279963308239755 
0.7599999999999326, -0.3103152329667948 
0.7699999999999315, -0.30838430415185025 
0.7799999999999304, -0.3069640101979949 
0.7899999999999293, -0.30602307968779935 
0.7999999999999282, -0.30554074891037225 
0.8099999999999271, -0.30550604829496003 
0.819999999999926, -0.3059174057653415 
0.8299999999999249, -0.30678254976962926 
0.8399999999999238, -0.3081187038521865 
0.8499999999999227, -0.3099530729393907 
0.8599999999999216, -0.3123236286167887 
0.8699999999999205, -0.31528020594749906 
0.8799999999999194, -0.3188859267116144 
0.8899999999999183, -0.32321896142146844 
0.8999999999999172, -0.3283746318903221 
0.9099999999999161, -0.3344678323264968 
0.919999999999915, -0.3416357017956105 
0.9299999999999139, -0.3500404022807267 
0.9399999999999128, -0.359871727165347 
0.9499999999999117, -0.3713490620316889 
0.9599999999999106, -0.38472191727329236 
0.9699999999999095, -0.4002678291223648 
0.9799999999999084, -0.41828588575312003 
0.9899999999999073, -0.43908354493300056 
0.9999999999999062, -0.4629539630209852 
1.0099999999999052, -0.490141152147483 
1.019999999999904, -0.5207915750519836 
1.029999999999903, -0.5548940663071528 
1.039999999999902, -0.5922157036405746 
1.0499999999999008, -0.6322486777344957 
1.0599999999998997, -0.6741893221743163 
1.0699999999998986, -0.7169701388662306 
1.0799999999998975, -0.7593543253309779 
1.0899999999998964, -0.8000808696133024 
1.0999999999998953, -0.8380259865700281 
1.1099999999998942, -0.8723369104348766 
1.119999999999893, -0.9025040931402732 
1.129999999999892, -0.9283620736554455 
1.1399999999998909, -0.9500335595532856 
1.1499999999998898, -0.9678440555318933 
1.1599999999998887, -0.9822335557285958 
1.1699999999998876, -0.9936827603271344 
1.1799999999998865, -1.0026608381602726 
1.1899999999998854, -1.0095941415540373 
1.1999999999998843, -1.0148514714081587 
1.2099999999998832, -1.018740604906413 
1.219999999999882, -1.021511500448874 
1.229999999999881, -1.023362844440555 
1.2399999999998799, -1.024449822154529 
1.2499999999998788, -1.0248919542684132 
1.2599999999998777, -1.0247805153636034 
1.2699999999998766, -1.0241854969659479 
1.2799999999998755, -1.0231623690907508 
1.2899999999998744, -1.0217590917356723 
1.2999999999998733, -1.0200239687735644 
1.3099999999998722, -1.0180150308739018 
1.319999999999871, -1.015811660106553 
1.32999999999987, -1.0135290714331224 
1.3399999999998689, -1.0113359563657627 
1.3499999999998678, -1.0094749593139551 
1.3599999999998666, -1.0082845900301078 
1.3699999999998655, -1.0082196238207561 
1.3799999999998644, -1.0098650757953713 
1.3899999999998633, -1.0139367240578498 
1.3999999999998622, -1.0212594376255149 
1.4099999999998611, -1.0327141401060513 
1.41999999999986, -1.049146496183423 
1.429999999999859, -1.0712371996072854 
1.4399999999998578, -1.0993466851893359 
1.4499999999998567, -1.1333653817555012 
1.4599999999998556, -1.1726176891355495 
1.4699999999998545, -1.2158703100754595 
1.4799999999998534, -1.2614704163112733 
1.4899999999998523, -1.3075891101441 
1.4999999999998512, -1.3524973227989783 
1.5099999999998501, -1.3947882108536718 
1.519999999999849, -1.4334915546738003 
1.529999999999848, -1.468077220710388 
1.5399999999998468, -1.4983828698448125 
1.5499999999998457, -1.524511023781081 
1.5599999999998446, -1.5467296538931823 
1.5699999999998435, -1.5653933360597136 
1.5799999999998424, -1.5808885587377077 
1.5899999999998413, -1.5935996440442264 
1.5999999999998402, -1.6038895474593706 
1.6099999999998391, -1.6120902534981132 
1.619999999999838, -1.6184988696002018 
1.629999999999837, -1.6233769264401494 
1.6399999999998358, -1.6269514728672032 
1.6499999999998347, -1.6294172574547465 
1.6599999999998336, -1.6309396846801096 
1.6699999999998325, -1.6316584149784388 
1.6799999999998314, -1.6316915184174139 
1.6899999999998303, -1.6311400331196262 
1.6999999999998292, -1.6300926388721255 
1.709999999999828, -1.6286299549210246 
1.719999999999827, -1.6268277789264172 
1.729999999999826, -1.6247585553664454 
1.7399999999998248, -1.6224907032776539 
1.7499999999998237, -1.620086254205876 
1.7599999999998226, -1.6175983347180662 
1.7699999999998215, -1.6150707414320638 
1.7799999999998204, -1.6125414499498536 
1.7899999999998193, -1.6100501096208206 
1.7999999999998182, -1.6076470291075098 
1.809999999999817, -1.6053991386196897 
1.819999999999816, -1.6033882143077778 
1.8299999999998149, -1.6016989632848835 
1.8399999999998138, -1.600399008023941 
1.8499999999998127, -1.5995175063178024 
1.8599999999998116, -1.5990311412568863 
1.8699999999998105, -1.5988634507673558 
1.8799999999998094, -1.5988970778389915 
1.8899999999998083, -1.5989925859972995 
1.8999999999998072, -1.599005624634102 
1.909999999999806, -1.5987966482270861 
1.919999999999805, -1.5982314336817878 
1.9299999999998039, -1.5971735851130502 
1.9399999999998028, -1.5954710969049322 
1.9499999999998017, -1.5929383939289954 
1.9599999999998006, -1.5893340266457145 
1.9699999999997995, -1.584333034781446 
1.9799999999997984, -1.5774922209954634 
1.9899999999997973, -1.5682063977063418 
1.9999999999997962, -1.55565447336136 
2.0099999999998173, -1.5387368885517276 
2.0199999999998384, -1.5160119927054845 
2.0299999999998595, -1.4856508499841954 
2.0399999999998806, -1.445449966646159 
2.0499999999999017, -1.3929682554118115 
2.059999999999923, -1.3258750896938631 
2.069999999999944, -1.242574522336896 
2.079999999999965, -1.143051637064365 
2.089999999999986, -1.0296541977024072 
2.100000000000007, -0.9073108618729582 
2.1100000000000283, -0.7827874724817886 
2.1200000000000494, -0.6631252409629353 
2.1300000000000705, -0.5539962185384051 
2.1400000000000916, -0.45875378991660326 
2.1500000000001127, -0.3784187159211563 
2.160000000000134, -0.31228847959779454 
2.170000000000155, -0.25870330491245724 
2.180000000000176, -0.21566538488695844 
2.190000000000197, -0.18122299447519935 
2.2000000000002182, -0.15365613680008897 
2.2100000000002393, -0.13153476307757322 
2.2200000000002604, -0.1137099495120457 
2.2300000000002815, -0.09927696368255778 
2.2400000000003026, -0.0875313366671437 
2.2500000000003237, -0.07792770555641129 
2.260000000000345, -0.07004498235362527 
2.270000000000366, -0.06355840873213904 
2.280000000000387, -0.058217814653868785 
2.290000000000408, -0.053831023805551007 
2.3000000000004293, -0.050251357847938626 
2.3100000000004504, -0.04736834422072638 
2.3200000000004715, -0.04510091872932065 
2.3300000000004926, -0.043392589930068025 
2.3400000000005137, -0.04220818397595374 
2.3500000000005348, -0.04153191631130311 
2.360000000000556, -0.04136664619254615 
2.370000000000577, -0.04173426933608605 
2.380000000000598, -0.0426773018643515 
2.390000000000619, -0.044261814862966 
2.4000000000006403, -0.04658200445447673 
2.4100000000006614, -0.04976684074779781 
2.4200000000006825, -0.05398944668114838 
2.4300000000007036, -0.059480133931698716 
2.4400000000007247, -0.06654438787815421 
2.450000000000746, -0.07558756071338109 
2.460000000000767, -0.0871485885923107 
2.470000000000788, -0.10194560950103472 
2.480000000000809, -0.12093666196982322 
2.49000000000083, -0.1453980436561531 
2.5000000000008513, -0.1770199760259139 
2.5100000000008724, -0.21801110625316217 
2.5200000000008935, -0.2711850357405009 
2.5300000000009146, -0.33996621865812715 
2.5400000000009357, -0.42819327548766595 
2.550000000000957, -0.5395244274809534 
2.560000000000978, -0.676222093644722 
2.570000000000999, -0.8372731422639799 
2.58000000000102, -1.016421288324856 
2.5900000000010412, -1.2016526971709947 
2.6000000000010624, -1.3778035892306806 
2.6100000000010835, -1.5317266939588676 
2.6200000000011046, -1.656519802024857 
2.6300000000011257, -1.7519862849189727 
2.6400000000011468, -1.8221666842830933 
2.650000000001168, -1.8725124719341286 
2.660000000001189, -1.908137529485118 
2.67000000000121, -1.9331557123651006 
2.680000000001231, -1.9506297722848218 
2.6900000000012523, -1.9627504669315405 
2.7000000000012734, -1.9710540208437997 
2.7100000000012945, -1.9766083233418426 
2.7200000000013156, -1.9801539618734794 
2.7300000000013367, -1.9822057213524025 
2.740000000001358, -1.983124435309395 
2.750000000001379, -1.9831680200506883 
2.7600000000014, -1.9825280197251107 
2.770000000001421, -1.9813552926443372 
2.780000000001442, -1.9797761198766788 
2.7900000000014633, -1.9778987973043036 
2.8000000000014844, -1.9758117618649287 
2.8100000000015055, -1.9735777441588622 
2.8200000000015266, -1.97123214780441 
2.8300000000015477, -1.9687936834529722 
2.840000000001569, -1.966288848405233 
2.85000000000159, -1.9637816885640913 
2.860000000001611, -1.9613922254015723 
2.870000000001632, -1.9592864565040335 
2.8800000000016532, -1.9576317606408624 
2.8900000000016743, -1.9565327542565374 
2.9000000000016954, -1.9559812002294483 
2.9100000000017165, -1.9558495461137064 
2.9200000000017377, -1.9559285422656347 
2.9300000000017588, -1.955980731498435 
2.94000000000178, -1.9557781976516855 
2.950000000001801, -1.9551103798112333 
2.960000000001822, -1.953764741514384 
2.970000000001843, -1.9514878896880428 
2.9800000000018643, -1.9479297677081768 
2.9900000000018854, -1.9425648604924435 
3.0000000000019065, -1.9345747827176147 
3.0100000000019276, -1.9226661751897516 
3.0200000000019487, -1.9047875766764792 
3.03000000000197, -1.8777082047314544 
3.040000000001991, -1.8364628549354334 
3.050000000002012, -1.7738265418215735 
3.060000000002033, -1.68034782877031 
3.070000000002054, -1.545848399266337 
3.0800000000020753, -1.3626059667912083 
3.0900000000020964, -1.1275425998092046 
3.1000000000021175, -0.8392351784607129 
3.1100000000021386, -0.4935891157441746 
3.1200000000021597, -0.09548532649201043 
3.130000000002181, 0.3083590521375401 
3.140000000002202, 0.6389971299508843 
3.150000000002223, 0.8573767887166396 
3.160000000002244, 0.9841632005462648 
3.1700000000022652, 1.0549836378893696 
3.1800000000022863, 1.0950377128394961 
3.1900000000023074, 1.1183912790104418 
3.2000000000023285, 1.1324284610033022 
3.2100000000023496, 1.1410441181230844 
3.2200000000023707, 1.1463514466849707 
3.230000000002392, 1.1495361636340484 
3.240000000002413, 1.151284266877065 
3.250000000002434, 1.1520019227005998 
3.260000000002455, 1.1519327335051046 
3.2700000000024763, 1.1512231616251105 
3.2800000000024974, 1.1499612343408592 
3.2900000000025185, 1.1482013787318244 
3.3000000000025396, 1.1459821047112513 
3.3100000000025607, 1.1433399270500462 
3.3200000000025818, 1.1403208387332275 
3.330000000002603, 1.1369891546480246 
3.340000000002624, 1.1334325012145072 
3.350000000002645, 1.129761339271517 
3.360000000002666, 1.1261019801113759 
3.3700000000026873, 1.1225836335410475 
3.3800000000027084, 1.119322082557054 
3.3900000000027295, 1.1164040720949882 
3.4000000000027506, 1.1138764681441908 
3.4100000000027717, 1.1117425316035163 
3.420000000002793, 1.1099650955985085 
3.430000000002814, 1.108474280951928 
3.440000000002835, 1.1071764438368328 
3.450000000002856, 1.1059613093322496 
3.460000000002877, 1.10470510275881 
3.4700000000028983, 1.103268240683573 
3.4800000000029194, 1.101486279898152 
3.4900000000029405, 1.0991520364285876 
3.5000000000029616, 1.0959847462494552 
3.5100000000029827, 1.0915781675009313 
3.520000000003004, 1.0853121799908738 
3.530000000003025, 1.0761989955077271 
3.540000000003046, 1.0626113690702563 
3.550000000003067, 1.0418038110376433 
3.5600000000030882, 1.009109240894845 
3.5700000000031094, 0.9568085866689071 
3.5800000000031305, 0.8734668709388432 
3.5900000000031516, 0.7472239669824022 
3.6000000000031727, 0.5803432951186362 
3.6100000000031938, 0.41482460758656486 
3.620000000003215, 0.3413049496037687 
3.630000000003236, 0.46277079268519566 
3.640000000003257, 0.8015834126681188 
3.650000000003278, 1.1946721412937709 
3.6600000000032993, 1.458831508100432 
3.6700000000033204, 1.5919557880647817 
3.6800000000033415, 1.6549171904861646 
3.6900000000033626, 1.6857621480098588 
3.7000000000033837, 1.701690447853388 
3.710000000003405, 1.7101999500897298 
3.720000000003426, 1.7146854926384896 
3.730000000003447, 1.7167505966248873 
3.740000000003468, 1.7171566617870393 
3.750000000003489, 1.7162261592509487 
3.7600000000035103, 1.7140179807486156 
3.7700000000035314, 1.710403678470594 
3.7800000000035525, 1.7051059334693779 
3.7900000000035736, 1.6977449629975576 
3.8000000000035947, 1.687949129068843 
3.810000000003616, 1.675597203273894 
3.820000000003637, 1.6612059197328608 
3.830000000003658, 1.6462639305445788 
3.840000000003679, 1.6330411154855515 
3.8500000000037002, 1.623609828983139 
3.8600000000037213, 1.618729719396442 
3.8700000000037424, 1.6176462370318874 
3.8800000000037635, 1.618851133185245 
3.8900000000037847, 1.6209336785106976 
3.9000000000038058, 1.6229546498717478 
3.910000000003827, 1.6244180296183983 
3.920000000003848, 1.6251059236005239 
3.930000000003869, 1.6249321235718308 
3.94000000000389, 1.623854192939273 
3.9500000000039113, 1.6218396380483264 
3.9600000000039324, 1.6188819460052428 
3.9700000000039535, 1.6150785158330017 
3.9800000000039746, 1.6107955855562146 
3.9900000000039957, 1.6069210318529648 
4.000000000004016, 1.605077957508236 
4.010000000003993, 1.6074273415330123 
4.02000000000397, 1.615656742498579 
4.030000000003946, 1.6295566883968213 
4.040000000003923, 1.6466704061513295 
4.0500000000039, 1.6637148339811838 
4.0600000000038765, 1.6783250606628188 
4.070000000003853, 1.6896122636244966 
4.08000000000383, 1.6977118166007765 
4.090000000003807, 1.7031640178623675 
4.100000000003783, 1.7065308426364758 
4.11000000000376, 1.7082378158141085 
4.120000000003737, 1.7085270672230908 
4.130000000003713, 1.7074358217787855 
4.14000000000369, 1.704746473939059 
4.150000000003667, 1.6998550409596846 
4.1600000000036434, 1.691459565764968 
4.17000000000362, 1.6768348917679121 
4.180000000003597, 1.6501114965529575 
4.1900000000035735, 1.5982006415175127 
4.20000000000355, 1.492454532292348 
4.210000000003527, 1.2830621540603202 
4.220000000003504, 0.9488336972713765 
4.23000000000348, 0.6156518544106238 
4.240000000003457, 0.45548955477532127 
4.250000000003434, 0.4816977404572793 
4.26000000000341, 0.6059171808027677 
4.270000000003387, 0.7434450284151246 
4.280000000003364, 0.852574610628995 
4.2900000000033405, 0.9271539892666256 
4.300000000003317, 0.9750892166163406 
4.310000000003294, 1.0054280375807763 
4.320000000003271, 1.0247319484182436 
4.330000000003247, 1.037156091927171 
4.340000000003224, 1.0452272461861163 
4.350000000003201, 1.050480304763474 
4.360000000003177, 1.0538642575101962 
4.370000000003154, 1.0559830099166907 
4.380000000003131, 1.0572362072783215 
4.390000000003107, 1.0579025452531736 
4.400000000003084, 1.0581902515692343 
4.410000000003061, 1.0582684440573191 
4.4200000000030375, 1.0582866783074374 
4.430000000003014, 1.058386261604678 
4.440000000002991, 1.0587047106593495 
4.450000000002968, 1.0593735919980238 
4.460000000002944, 1.0605098408570788 
4.470000000002921, 1.062201588060173 
4.480000000002898, 1.064491395928421 
4.490000000002874, 1.0673618799350402 
4.500000000002851, 1.070729602573599 
4.510000000002828, 1.0744515356288946 
4.520000000002804, 1.07834420034762 
4.530000000002781, 1.0822106178344824 
4.540000000002758, 1.085867202303844 
4.5500000000027345, 1.0891633588882195 
4.560000000002711, 1.0919900734295152 
4.570000000002688, 1.094277871597388 
4.580000000002665, 1.095987124722259 
4.590000000002641, 1.0970941579417215 
4.600000000002618, 1.0975755312332904 
4.610000000002595, 1.097391083151468 
4.620000000002571, 1.0964643588333869 
4.630000000002548, 1.0946568148600717 
4.640000000002525, 1.0917290256365522 
4.6500000000025015, 1.087276559040702 
4.660000000002478, 1.0806174074380417 
4.670000000002455, 1.0705862427669703 
4.6800000000024315, 1.055147633380996 
4.690000000002408, 1.0306593721373138 
4.700000000002385, 0.9904969624449477 
4.710000000002362, 0.9227459433572128 
4.720000000002338, 0.8076759580134051 
4.730000000002315, 0.6203054134221755 
4.740000000002292, 0.3500944496220857 
4.750000000002268, 0.030401237538801914 
4.760000000002245, -0.27498758575486437 
4.770000000002222, -0.5275596099949187 
4.7800000000021985, -0.7240764417443557 
4.790000000002175, -0.8758314227022652 
4.800000000002152, -0.993919321126011 
4.810000000002129, -1.0859974448732805 
4.820000000002105, -1.157271886892808 
4.830000000002082, -1.2117352923262947 
4.840000000002059, -1.2527732798447746 
4.850000000002035, -1.2833147790494779 
4.860000000002012, -1.3058211173330672 
4.870000000001989, -1.3222758603653642 
4.880000000001965, -1.3342177419921941 
4.890000000001942, -1.3428051967664978 
4.900000000001919, -1.3488910864025638 
4.9100000000018955, -1.3530926560157988 
4.920000000001872, -1.3558499584527248 
4.930000000001849, -1.3574714794807548 
4.940000000001826, -1.3581684359219814 
4.950000000001802, -1.3580802476029998 
4.960000000001779, -1.35729393132612 
