t, s[1].omega / s[0].omega 
0, -1.3899931082821484 
0.009999999999999995, -1.3890879841607955 
0.019999999999999934, -1.3877557056219345 
0.029999999999999874, -1.385997237640796 
0.04000000000000012, -1.383813978536787 
0.050000000000000405, -1.3812079238883674 
0.06000000000000069, -1.3781818871545588 
0.07000000000000098, -1.374739771206668 
0.08000000000000126, -1.370886882977235 
0.09000000000000155, -1.3666302814825682 
0.10000000000000184, -1.3619791483707806 
0.11000000000000212, -1.356945171447438 
0.12000000000000241, -1.351542937445913 
0.130000000000002, -1.3457903424714535 
0.1400000000000009, -1.3397090471296123 
0.1499999999999998, -1.3333250248815225 
0.1599999999999987, -1.326669268376988 
0.1699999999999976, -1.3197787166943242 
0.1799999999999965, -1.3126974323185223 
0.1899999999999954, -1.305477979986402 
0.1999999999999943, -1.2981828405751776 
0.2099999999999932, -1.290885548846159 
0.2199999999999921, -1.2836711095684887 
0.229999999999991, -1.2766351727897105 
0.2399999999999899, -1.2698814902519222 
0.2499999999999888, -1.263517371471144 
0.2599999999999877, -1.2576472134091186 
0.2699999999999866, -1.2523646396375274 
0.2799999999999855, -1.247744241418452 
0.2899999999999844, -1.2438342159041549 
0.2999999999999833, -1.2406512125688107 
0.3099999999999822, -1.2381783720781054 
0.3199999999999811, -1.236366933667068 
0.32999999999998, -1.235141067045284 
0.3399999999999789, -1.2344049669584445 
0.3499999999999778, -1.234050905008529 
0.35999999999997667, -1.2339669293797202 
0.36999999999997557, -1.2340431850439493 
0.37999999999997447, -1.2341762627072101 
0.38999999999997337, -1.2342714278193818 
0.39999999999997227, -1.2342429240689359 
0.40999999999997117, -1.2340127432566879 
0.41999999999997006, -1.2335083141765604 
0.42999999999996896, -1.2326595276381214 
0.43999999999996786, -1.2313954315318578 
0.44999999999996676, -1.229640839711683 
0.45999999999996566, -1.2273130285776237 
0.46999999999996456, -1.2243186596006288 
0.47999999999996346, -1.2205510689740005 
0.48999999999996235, -1.21588810506041 
0.49999999999996125, -1.210190763585483 
0.5099999999999602, -1.2033029578605765 
0.519999999999959, -1.1950528481572165 
0.529999999999958, -1.1852562132335305 
0.5399999999999568, -1.1737223408644593 
0.5499999999999557, -1.1602627996146937 
0.5599999999999546, -1.1447031907808887 
0.5699999999999535, -1.1268975474629224 
0.5799999999999524, -1.1067444696838034 
0.5899999999999513, -1.0842034451404046 
0.5999999999999502, -1.0593092555632064 
0.6099999999999491, -1.0321821010036962 
0.619999999999948, -1.003031263206511 
0.6299999999999469, -0.972150852950311 
0.6399999999999458, -0.9399073632382736 
0.6499999999999447, -0.906720130236969 
0.6599999999999436, -0.8730370354460084 
0.6699999999999425, -0.8393085367605077 
0.6799999999999414, -0.8059632099451236 
0.6899999999999403, -0.7733874408792407 
0.6999999999999392, -0.7419109392336873 
0.7099999999999381, -0.7117986386416398 
0.719999999999937, -0.6832485755522112 
0.7299999999999359, -0.6563946675537571 
0.7399999999999348, -0.6313129903718416 
0.7499999999999337, -0.6080301340749332 
0.7599999999999326, -0.5865324066884863 
0.7699999999999315, -0.5667749437541411 
0.7799999999999304, -0.5486900916658326 
0.7899999999999293, -0.5321947072701183 
0.7999999999999282, -0.5171962308806668 
0.8099999999999271, -0.5035975398117645 
0.819999999999926, -0.4913006821611096 
0.8299999999999249, -0.48020963841808884 
0.8399999999999238, -0.47023227473185286 
0.8499999999999227, -0.4612816477864826 
0.8599999999999216, -0.45327680601256276 
0.8699999999999205, -0.44614321150788605 
0.8799999999999194, -0.4398128855365094 
0.8899999999999183, -0.43422436015712707 
0.8999999999999172, -0.42932250057804044 
0.9099999999999161, -0.4250582476824817 
0.919999999999915, -0.4213883178078407 
0.9299999999999139, -0.4182748870522182 
0.9399999999999128, -0.4156852797743961 
0.9499999999999117, -0.4135916751765553 
0.9599999999999106, -0.41197084155898506 
0.9699999999999095, -0.4108039046972794 
0.9799999999999084, -0.41007615454477975 
0.9899999999999073, -0.4097768928792335 
0.9999999999999062, -0.40989932340344654 
1.0099999999999052, -0.41044048501566294 
1.019999999999904, -0.4114012283489646 
1.029999999999903, -0.41278623511603113 
1.039999999999902, -0.4146040791677227 
1.0499999999999008, -0.41686732736046783 
1.0599999999998997, -0.41959267719812426 
1.0699999999998986, -0.42280112662110725 
1.0799999999998975, -0.42651816908674317 
1.0899999999998964, -0.43077400401498117 
1.0999999999998953, -0.4356037485186401 
1.1099999999998942, -0.44104763080969883 
1.119999999999893, -0.4471511384435034 
1.129999999999892, -0.4539650852745337 
1.1399999999998909, -0.46154554930466535 
1.1499999999998898, -0.46995361925149176 
1.1599999999998887, -0.47925487062904537 
1.1699999999998876, -0.4895184728738671 
1.1799999999998865, -0.5008158088800366 
1.1899999999998854, -0.5132184699352258 
1.1999999999998843, -0.5267954772610995 
1.2099999999998832, -0.5416095837501099 
1.219999999999882, -0.5577125369840062 
1.229999999999881, -0.5751392512846355 
1.2399999999998799, -0.5939009578803208 
1.2499999999998788, -0.6139775909380101 
1.2599999999998777, -0.635309925403501 
1.2699999999998766, -0.6577922912005921 
1.2799999999998755, -0.681266995575291 
1.2899999999998744, -0.7055218010540949 
1.2999999999998733, -0.7302918114207502 
1.3099999999998722, -0.7552667970904404 
1.319999999999871, -0.7801042890720714 
1.32999999999987, -0.8044477527870708 
1.3399999999998689, -0.8279480342903829 
1.3499999999998678, -0.8502853766033266 
1.3599999999998666, -0.8711889524214407 
1.3699999999998655, -0.8904512205900617 
1.3799999999998644, -0.9079354117425769 
1.3899999999998633, -0.9235757822071761 
1.3999999999998622, -0.9373715471135668 
1.4099999999998611, -0.9493762848528614 
1.41999999999986, -0.959684947746842 
1.429999999999859, -0.9684204638467745 
1.4399999999998578, -0.9757214439617596 
1.4499999999998567, -0.9817319193635293 
1.4599999999998556, -0.986593491024087 
1.4699999999998545, -0.9904398611020739 
1.4799999999998534, -0.9933934657751777 
1.4899999999998523, -0.9955638159768014 
1.4999999999998512, -0.9970471406327053 
1.5099999999998501, -0.9979269756992721 
1.519999999999849, -0.9982754195121105 
1.529999999999848, -0.99815485879414 
1.5399999999998468, -0.9976200473772435 
1.5499999999998457, -0.9967204849238184 
1.5599999999998446, -0.9955030930323593 
1.5699999999998435, -0.9940152198597669 
1.5799999999998424, -0.9923080204978578 
1.5899999999998413, -0.9904402565871828 
1.5999999999998402, -0.9884825317072592 
1.6099999999998391, -0.9865219249460337 
1.619999999999838, -0.9846669001344167 
1.629999999999837, -0.9830522510360858 
1.6399999999998358, -0.9818436959719933 
1.6499999999998347, -0.9812415678479807 
1.6599999999998336, -0.981482874150144 
1.6699999999998325, -0.982840851752505 
1.6799999999998314, -0.9856210479286187 
1.6899999999998303, -0.9901529655559254 
1.6999999999998292, -0.9967764706190892 
1.709999999999828, -1.0058225360981643 
1.719999999999827, -1.0175885516956007 
1.729999999999826, -1.0323094039660037 
1.7399999999998248, -1.050126793363436 
1.7499999999998237, -1.0710606260250926 
1.7599999999998226, -1.094987419114665 
1.7699999999998215, -1.1216309341983817 
1.7799999999998204, -1.1505691569473009 
1.7899999999998193, -1.1812590704205095 
1.7999999999998182, -1.2130768858796699 
1.809999999999817, -1.2453676570161332 
1.819999999999816, -1.277495922831305 
1.8299999999998149, -1.308889131445754 
1.8399999999998138, -1.3390679969417862 
1.8499999999998127, -1.3676615777227683 
1.8599999999998116, -1.3944083398485434 
1.8699999999998105, -1.4191467524459633 
1.8799999999998094, -1.4417997420827098 
1.8899999999998083, -1.4623569073439873 
1.8999999999998072, -1.480857328957407 
1.909999999999806, -1.4973746233768763 
1.919999999999805, -1.5120048995581545 
1.9299999999998039, -1.524857608426696 
1.9399999999998028, -1.5360489064376328 
1.9499999999998017, -1.5456970130418275 
1.9599999999998006, -1.5539190428106098 
1.9699999999997995, -1.5608288685794838 
1.9799999999997984, -1.5665356763038596 
1.9899999999997973, -1.5711429780016695 
1.9999999999997962, -1.5747479416104886 
2.0099999999998173, -1.5774409690868139 
2.0199999999998384, -1.5793055044578153 
2.0299999999998595, -1.580418082201714 
2.0399999999998806, -1.5808486349577617 
2.0499999999999017, -1.5806610701975041 
2.059999999999923, -1.5799141001121773 
2.069999999999944, -1.5786622699358 
2.079999999999965, -1.576957081582386 
2.089999999999986, -1.5748480609103486 
2.100000000000007, -1.5723835845651568 
2.1100000000000283, -1.5696112898699488 
2.1200000000000494, -1.5665779633578447 
2.1300000000000705, -1.5633289519323685 
2.1400000000000916, -1.5599073454702486 
2.1500000000001127, -1.5563533780069736 
2.160000000000134, -1.5527045902105052 
2.170000000000155, -1.54899719637998 
2.180000000000176, -1.5452687678256138 
2.190000000000197, -1.5415618357890604 
2.2000000000002182, -1.5379274739895483 
2.2100000000002393, -1.534427534335226 
2.2200000000002604, -1.5311341631627733 
2.2300000000002815, -1.528125642605355 
2.2400000000003026, -1.525478487312431 
2.2500000000003237, -1.5232569062390373 
2.260000000000345, -1.5215018359421462 
2.270000000000366, -1.5202222803996597 
2.280000000000387, -1.5193912937256189 
2.290000000000408, -1.518947644842473 
2.3000000000004293, -1.5188024964714022 
2.3100000000004504, -1.5188490305753186 
2.3200000000004715, -1.5189723946227374 
2.3300000000004926, -1.5190577042518336 
2.3400000000005137, -1.5189947719166004 
2.3500000000005348, -1.5186792430914444 
2.360000000000556, -1.5180105453706314 
2.370000000000577, -1.516887368037287 
2.380000000000598, -1.5152013613668367 
2.390000000000619, -1.5128295275147143 
2.4000000000006403, -1.5096255094568833 
2.4100000000006614, -1.5054097650457159 
2.4200000000006825, -1.4999584914781061 
2.4300000000007036, -1.4929911738122865 
2.4400000000007247, -1.48415680729732 
2.450000000000746, -1.4730192484519182 
2.460000000000767, -1.4590428777995184 
2.470000000000788, -1.4415809274029256 
2.480000000000809, -1.4198705460123764 
2.49000000000083, -1.3930409402421728 
2.5000000000008513, -1.3601434303077045 
2.5100000000008724, -1.3202140607656656 
2.5200000000008935, -1.2723786179814593 
2.5300000000009146, -1.2160036652741086 
2.5400000000009357, -1.1508827253033045 
2.550000000000957, -1.0774241363492945 
2.560000000000978, -0.9967834563390502 
2.570000000000999, -0.9108741174159838 
2.58000000000102, -0.8222123342329706 
2.5900000000010412, -0.7336083317448362 
2.6000000000010624, -0.6477813481174224 
2.6100000000010835, -0.5670105798134876 
2.6200000000011046, -0.49291477447681686 
2.6300000000011257, -0.42639391214526867 
2.6400000000011468, -0.36770584117954414 
2.650000000001168, -0.3166188521278391 
2.660000000001189, -0.27258207132749246 
2.67000000000121, -0.23487505659979452 
2.680000000001231, -0.20271997314677187 
2.6900000000012523, -0.1753553891798019 
2.7000000000012734, -0.152078548980197 
2.7100000000012945, -0.13226508690795022 
2.7200000000013156, -0.11537424730484505 
2.7300000000013367, -0.10094572706567292 
2.740000000001358, -0.08859230149039296 
2.750000000001379, -0.07799083224167168 
2.7600000000014, -0.06887315282537464 
2.770000000001421, -0.061017609268378944 
2.780000000001442, -0.05424159707053273 
2.7900000000014633, -0.04839518700005244 
2.8000000000014844, -0.043355802154630356 
2.8100000000015055, -0.039023849343199996 
2.8200000000015266, -0.035319188737274486 
2.8300000000015477, -0.03217832824102897 
2.840000000001569, -0.029552242234743727 
2.85000000000159, -0.02740473221603578 
2.860000000001611, -0.025711266313835815 
2.870000000001632, -0.02445825436209835 
2.8800000000016532, -0.023642734923107794 
2.8900000000016743, -0.023272470714129134 
2.9000000000016954, -0.02336647011506053 
2.9100000000017165, -0.023955975958960464 
2.9200000000017377, -0.025085990106392723 
2.9300000000017588, -0.026817435233555828 
2.94000000000178, -0.029230096138741078 
2.950000000001801, -0.0324265345610965 
2.960000000001822, -0.03653723750728924 
2.970000000001843, -0.0417273435167124 
2.9800000000018643, -0.04820539871375175 
2.9900000000018854, -0.05623472927625917 
3.0000000000019065, -0.06614818192597602 
3.0100000000019276, -0.07836717768630973 
3.0200000000019487, -0.0934262351513615 
3.03000000000197, -0.11200431680490167 
3.040000000001991, -0.1349644664510834 
3.050000000002012, -0.16340309644472 
3.060000000002033, -0.19870966957270098 
3.070000000002054, -0.242635837442046 
3.0800000000020753, -0.297369165109676 
3.0900000000020964, -0.3655978380574819 
3.1000000000021175, -0.45053373594345747 
3.1100000000021386, -0.5558213454131977 
3.1200000000021597, -0.6851843237216914 
3.130000000002181, -0.8415520917699949 
3.140000000002202, -1.02536563050761 
3.150000000002223, -1.2321245113933554 
3.160000000002244, -1.4504406841049762 
3.1700000000022652, -1.6632179218528347 
3.1800000000022863, -1.8532365098135624 
3.1900000000023074, -2.0097068548063106 
3.2000000000023285, -2.130585684480938 
3.2100000000023496, -2.2200730676473053 
3.2200000000023707, -2.2847573398548056 
3.230000000002392, -2.3310199839946772 
3.240000000002413, -2.3640101978839363 
3.250000000002434, -2.387536393020049 
3.260000000002455, -2.404299706761182 
3.2700000000024763, -2.4161815430076072 
3.2800000000024974, -2.4244850193822005 
3.2900000000025185, -2.4301128691314284 
3.3000000000025396, -2.4336913742673505 
3.3100000000025607, -2.435654721331652 
3.3200000000025818, -2.4363020404214373 
3.330000000002603, -2.4358359623507138 
3.340000000002624, -2.434388481047081 
3.350000000002645, -2.43203756400331 
3.360000000002666, -2.4288163915777505 
3.3700000000026873, -2.424716589520691 
3.3800000000027084, -2.4196878124965155 
3.3900000000027295, -2.4136388084581215 
3.4000000000027506, -2.406449100028671 
3.4100000000027717, -2.3980039347618365 
3.420000000002793, -2.3882651084987723 
3.430000000002814, -2.3773812225018296 
3.440000000002835, -2.365814358072842 
3.450000000002856, -2.3544127449248653 
3.460000000002877, -2.3443195340537426 
3.4700000000028983, -2.33665324621846 
3.4800000000029194, -2.332071314338925 
3.4900000000029405, -2.3304972869242846 
3.5000000000029616, -2.3312139553720868 
3.5100000000029827, -2.3332280661578753 
3.520000000003004, -2.335631850952433 
3.530000000003025, -2.337781744368005 
3.540000000003046, -2.3393004335898206 
3.550000000003067, -2.3399941986725596 
3.5600000000030882, -2.339760851042867 
3.5700000000031094, -2.338520315816817 
3.5800000000031305, -2.3361730025035525 
3.5900000000031516, -2.3325846966337567 
3.6000000000031727, -2.327603345066111 
3.6100000000031938, -2.321127085664691 
3.620000000003215, -2.3132577887244485 
3.630000000003236, -2.3045708205384443 
3.640000000003257, -2.296463561416089 
3.650000000003278, -2.2913640578406533 
3.6600000000032993, -2.2923726579462196 
3.6700000000033204, -2.3020492990483556 
3.6800000000033415, -2.320860836052639 
3.6900000000033626, -2.3465754907378584 
3.7000000000033837, -2.37530246951746 
3.710000000003405, -2.4032992009404137 
3.720000000003426, -2.4281539130650502 
3.730000000003447, -2.448909048463504 
3.740000000003468, -2.465593490041695 
3.750000000003489, -2.478701459911115 
3.7600000000035103, -2.488845101385806 
3.7700000000035314, -2.4965835738823423 
3.7800000000035525, -2.5023639648215794 
3.7900000000035736, -2.506516675850627 
3.8000000000035947, -2.509270470356098 
3.810000000003616, -2.51076998552509 
3.820000000003637, -2.5110888244496823 
3.830000000003658, -2.510236299627531 
3.840000000003679, -2.5081576374152523 
3.8500000000037002, -2.5047275059889835 
3.8600000000037213, -2.4997359927810883 
3.8700000000037424, -2.492865048751759 
3.8800000000037635, -2.483652122897596 
3.8900000000037847, -2.4714365153988282 
3.9000000000038058, -2.4552837929222004 
3.910000000003827, -2.4338870085905366 
3.920000000003848, -2.405456696637982 
3.930000000003869, -2.3676475366777225 
3.94000000000389, -2.317647630195518 
3.9500000000039113, -2.252681165409942 
3.9600000000039324, -2.1712530863813337 
3.9700000000039535, -2.0751703671070136 
3.9800000000039746, -1.9713400846585303 
3.9900000000039957, -1.8712552459659508 
4.000000000004016, -1.7871441131699806 
4.010000000003993, -1.727094795444965 
4.02000000000397, -1.6927246755053207 
4.030000000003946, -1.68027690965029 
4.040000000003923, -1.6833640411908208 
4.0500000000039, -1.6954656777510388 
4.0600000000038765, -1.7113781961134262 
4.070000000003853, -1.727652199837947 
4.08000000000383, -1.7423911011428728 
4.090000000003807, -1.7547993800904038 
4.100000000003783, -1.7647373042706573 
4.11000000000376, -1.7723903796130263 
4.120000000003737, -1.7780640805661072 
4.130000000003713, -1.7820738863618453 
4.14000000000369, -1.7846953789780644 
4.150000000003667, -1.7861475376750109 
4.1600000000036434, -1.7865925305133448 
4.17000000000362, -1.7861431499017688 
4.180000000003597, -1.7848741967209303 
4.1900000000035735, -1.7828373458153652 
4.20000000000355, -1.7800810618757943 
4.210000000003527, -1.7766782663008789 
4.220000000003504, -1.7727643145606449 
4.23000000000348, -1.7685853032305867 
4.240000000003457, -1.7645502035123175 
4.250000000003434, -1.7612691822275015 
4.26000000000341, -1.7595480134306976 
4.270000000003387, -1.7603048217732595 
4.280000000003364, -1.7643948818061619 
4.2900000000033405, -1.7723768903030275 
4.300000000003317, -1.7843082769811918 
4.310000000003294, -1.799672310887181 
4.320000000003271, -1.8174862188522902 
4.330000000003247, -1.8365449515852075 
4.340000000003224, -1.85568994600445 
4.350000000003201, -1.8740011352981598 
4.360000000003177, -1.8908723430336425 
4.370000000003154, -1.905990476977886 
4.380000000003131, -1.9192645793642467 
4.390000000003107, -1.9307452489060422 
4.400000000003084, -1.9405572815240941 
4.410000000003061, -1.9488527918530871 
4.4200000000030375, -1.9557831412540856 
4.430000000003014, -1.9614846611631138 
4.440000000002991, -1.966073015766355 
4.450000000002968, -1.9696422076468838 
4.460000000002944, -1.9722656193572803 
4.470000000002921, -1.9739976241461057 
4.480000000002898, -1.974875061615138 
4.490000000002874, -1.9749183032145785 
4.500000000002851, -1.9741318314755902 
4.510000000002828, -1.972504324601584 
4.520000000002804, -1.9700082444117655 
4.530000000002781, -1.9665989113218285 
4.540000000002758, -1.9622130369949693 
4.5500000000027345, -1.9567666899766702 
4.560000000002711, -1.9501527163024597 
4.570000000002688, -1.9422377706115905 
4.580000000002665, -1.9328594098217664 
4.590000000002641, -1.9218242702141466 
4.600000000002618, -1.9089093119860463 
4.610000000002595, -1.893869543208792 
4.620000000002571, -1.876457404565169 
4.630000000002548, -1.856460532255453 
4.640000000002525, -1.833764510115397 
4.6500000000025015, -1.808442921815042 
4.660000000002478, -1.7808653356553035 
4.670000000002455, -1.7517937085963704 
4.6800000000024315, -1.7224156209765182 
4.690000000002408, -1.6942570416063985 
4.700000000002385, -1.6689500054118964 
4.710000000002362, -1.6479022675939812 
4.720000000002338, -1.6319860895797473 
4.730000000002315, -1.621373433625822 
4.740000000002292, -1.615576901967355 
4.750000000002268, -1.6136565099414126 
4.760000000002245, -1.6144894281048665 
4.770000000002222, -1.6170023274448417 
4.7800000000021985, -1.620312771149598 
4.790000000002175, -1.6237774304248491 
4.800000000002152, -1.6269749704900476 
4.810000000002129, -1.6296572461447196 
4.820000000002105, -1.6316940187711184 
4.830000000002082, -1.6330246495498788 
4.840000000002059, -1.6336211293064882 
4.850000000002035, -1.6334617352921366 
4.860000000002012, -1.6325126423668184 
4.870000000001989, -1.6307146158047652 
4.880000000001965, -1.6279725019391302 
4.890000000001942, -1.6241461375957178 
4.900000000001919, -1.619042439020918 
4.9100000000018955, -1.6124100010664288 
4.920000000001872, -1.6039399340559586 
