t, s[1].omega / s[0].omega 
0, -1.119998248164193 
0.009999999999999995, -1.1197013161388116 
0.019999999999999934, -1.1191715114027745 
0.029999999999999874, -1.1184717916727396 
0.04000000000000012, -1.117757943292222 
0.050000000000000405, -1.1172291259896723 
0.06000000000000069, -1.1170167427672433 
0.07000000000000098, -1.1170239907100155 
0.08000000000000126, -1.1169694236166656 
0.09000000000000155, -1.116607925017016 
0.10000000000000184, -1.1157960089017531 
0.11000000000000212, -1.1145344499571288 
0.12000000000000241, -1.1129239038126273 
0.130000000000002, -1.1111002264957404 
0.1400000000000009, -1.1093407063780172 
0.1499999999999998, -1.1081469664248922 
0.1599999999999987, -1.107749033638767 
0.1699999999999976, -1.107688109445041 
0.1799999999999965, -1.1074456580339525 
0.1899999999999954, -1.106612489800487 
0.1999999999999943, -1.104633078144961 
0.2099999999999932, -1.1010849114171415 
0.2199999999999921, -1.096179316770064 
0.229999999999991, -1.0906774290117756 
0.2399999999999899, -1.0860439222013198 
0.2499999999999888, -1.083856708040678 
0.2599999999999877, -1.0835412341343043 
0.2699999999999866, -1.0835645430877543 
0.2799999999999855, -1.0832523664570632 
0.2899999999999844, -1.0820616506601388 
0.2999999999999833, -1.0785540159654314 
0.3099999999999822, -1.0702427013350992 
0.3199999999999811, -1.0563741787582506 
0.32999999999998, -1.0406757230856658 
0.3399999999999789, -1.0296744941032059 
0.3499999999999778, -1.026090639715917 
0.35999999999997667, -1.0259569025485107 
0.36999999999997557, -1.0261430076446532 
0.37999999999997447, -1.0259375361870924 
0.38999999999997337, -1.024931700151166 
0.39999999999997227, -1.0216794093180788 
0.40999999999997117, -1.0125318266567835 
0.41999999999997006, -0.99434305515199 
0.42999999999996896, -0.9717999643013338 
0.43999999999996786, -0.954751257354 
0.44999999999996676, -0.9477293827114093 
0.45999999999996566, -0.9466243442016614 
0.46999999999996456, -0.9468159704691066 
0.47999999999996346, -0.9468499063303399 
0.48999999999996235, -0.9464139267895637 
0.49999999999996125, -0.9449724308584543 
0.5099999999999602, -0.9411924323904726 
0.519999999999959, -0.93373509037155 
0.529999999999958, -0.9237357466510193 
0.5399999999999568, -0.9141011908363206 
0.5499999999999557, -0.9071092193985881 
0.5599999999999546, -0.9036507443788727 
0.5699999999999535, -0.9027233390777075 
0.5799999999999524, -0.9026738534656775 
0.5899999999999513, -0.9026222823073043 
0.5999999999999502, -0.9022316101658896 
0.6099999999999491, -0.901183947375314 
0.619999999999948, -0.8991795427575802 
0.6299999999999469, -0.8963974838551103 
0.6399999999999458, -0.8934228507112538 
0.6499999999999447, -0.8906916435777099 
0.6599999999999436, -0.8884728504537127 
0.6699999999999425, -0.8870085616165333 
0.6799999999999414, -0.886353677623231 
0.6899999999999403, -0.8862167825705086 
0.6999999999999392, -0.8861995385140318 
0.7099999999999381, -0.8860369959916256 
0.719999999999937, -0.8855956998372025 
0.7299999999999359, -0.8848840762129841 
0.7399999999999348, -0.8840316126384755 
0.7499999999999337, -0.8831433867374029 
0.7599999999999326, -0.8822706640802711 
0.7699999999999315, -0.8814969068100199 
0.7799999999999304, -0.880951872239099 
0.7899999999999293, -0.8807305529457583 
0.7999999999999282, -0.8808087448435271 
0.8099999999999271, -0.8810475029692888 
0.819999999999926, -0.8812967889108186 
0.8299999999999249, -0.8814837001554897 
0.8399999999999238, -0.8816012800430324 
0.8499999999999227, -0.881622686569955 
0.8599999999999216, -0.8814841998714096 
0.8699999999999205, -0.8811837106529428 
0.8799999999999194, -0.8808380874093753 
0.8899999999999183, -0.8806741690202097 
0.8999999999999172, -0.8809336673814381 
0.9099999999999161, -0.881692759942473 
0.919999999999915, -0.8828424572165978 
0.9299999999999139, -0.8842326242180615 
0.9399999999999128, -0.8857353771704878 
0.9499999999999117, -0.8871454741412839 
0.9599999999999106, -0.8881380029244594 
0.9699999999999095, -0.8885486425010003 
0.9799999999999084, -0.8885086425480544 
0.9899999999999073, -0.8882458931572275 
0.9999999999999062, -0.8881143239040659 
1.0099999999999052, -0.8888599436169191 
1.019999999999904, -0.8913931763399141 
1.029999999999903, -0.8959308989555532 
1.039999999999902, -0.9018868929096644 
1.0499999999999008, -0.9081783852427415 
1.0599999999998997, -0.913179176726471 
1.0699999999998986, -0.9158633181279375 
1.0799999999998975, -0.9168008322487428 
1.0899999999998964, -0.9168849932886344 
1.0999999999998953, -0.9165523522649194 
1.1099999999998942, -0.9161311913152754 
1.119999999999893, -0.9170011156133964 
1.129999999999892, -0.9231911635179373 
1.1399999999998909, -0.9385613965146387 
1.1499999999998898, -0.9600879471390933 
1.1599999999998887, -0.9787584534361127 
1.1699999999998876, -0.9886200890372733 
1.1799999999998865, -0.9920383534042472 
1.1899999999998854, -0.9928937248138403 
1.1999999999998843, -0.9928473748191727 
1.2099999999998832, -0.9923348477179662 
1.219999999999882, -0.991776703913627 
1.229999999999881, -0.9939872845450143 
1.2399999999998799, -1.006103018243927 
1.2499999999998788, -1.0293413740361876 
1.2599999999998777, -1.052585217278695 
1.2699999999998766, -1.0663756310425667 
1.2799999999998755, -1.0716069840545919 
1.2899999999998744, -1.073037586330891 
1.2999999999998733, -1.073190170399934 
1.3099999999998722, -1.0728348227717852 
1.319999999999871, -1.0724507496514204 
1.32999999999987, -1.073798863719381 
1.3399999999998689, -1.0794782340096956 
1.3499999999998678, -1.0882840700909833 
1.3599999999998666, -1.0967404695606284 
1.3699999999998655, -1.1027085198000912 
1.3799999999998644, -1.1057224448761507 
1.3899999999998633, -1.1067351045181248 
1.3999999999998622, -1.1068163296285731 
1.4099999999998611, -1.1065340335799676 
1.41999999999986, -1.1064126116892752 
1.429999999999859, -1.107295221994573 
1.4399999999998578, -1.1093709881500067 
1.4499999999998567, -1.1118490207408551 
1.4599999999998556, -1.114099358027149 
1.4699999999998545, -1.1158296412943598 
1.4799999999998534, -1.116858722390051 
1.4899999999998523, -1.1171959731013477 
1.4999999999998512, -1.1170633446784528 
1.5099999999998501, -1.1167514329650265 
1.519999999999849, -1.1166203885529882 
1.529999999999848, -1.1169211833040915 
1.5399999999998468, -1.1175325419074924 
1.5499999999998457, -1.1181937089772256 
1.5599999999998446, -1.1187205710041372 
1.5699999999998435, -1.1190270231148123 
1.5799999999998424, -1.1190742961500404 
1.5899999999998413, -1.1188419681460753 
1.5999999999998402, -1.1183780750420285 
1.6099999999998391, -1.1178368608811984 
1.619999999999838, -1.1174258663534216 
1.629999999999837, -1.1172717354836448 
1.6399999999998358, -1.117340528309863 
1.6499999999998347, -1.1174341381785777 
1.6599999999998336, -1.1173345248069446 
1.6699999999998325, -1.1169217601295272 
1.6799999999998314, -1.1161879905625471 
1.6899999999998303, -1.11518532493537 
1.6999999999998292, -1.1139855264433212 
1.709999999999828, -1.1127362259810964 
1.719999999999827, -1.1117224856045202 
1.729999999999826, -1.1112307440051707 
1.7399999999998248, -1.1111383693650665 
1.7499999999998237, -1.1110243615345587 
1.7599999999998226, -1.1105352577785232 
1.7699999999998215, -1.1093372240291646 
1.7799999999998204, -1.1072120664996983 
1.7899999999998193, -1.104269814526012 
1.7999999999998182, -1.100834548925326 
1.809999999999817, -1.0975000764622318 
1.819999999999816, -1.0953047957414126 
1.8299999999998149, -1.0946417238701591 
1.8399999999998138, -1.094606745502919 
1.8499999999998127, -1.0944227784289215 
1.8599999999998116, -1.0936273109859667 
1.8699999999998105, -1.0913535061296962 
1.8799999999998094, -1.0861923390935861 
1.8899999999998083, -1.0775863294357797 
1.8999999999998072, -1.0670735671416807 
1.909999999999806, -1.058066679745772 
1.919999999999805, -1.0538514792826454 
1.9299999999998039, -1.0532462213805813 
1.9399999999998028, -1.053391619920719 
1.9499999999998017, -1.053258063440968 
1.9599999999998006, -1.052439043218529 
1.9699999999997995, -1.0497540459053125 
1.9799999999997984, -1.042056309013407 
1.9899999999997973, -1.0258917411673345 
1.9999999999997962, -1.0041916402430295 
2.0099999999998173, -0.9863683079023167 
2.0199999999998384, -0.9786123010798642 
2.0299999999998595, -0.9774147079875007 
2.0399999999998806, -0.9776530183565088 
2.0499999999999017, -0.977703503692994 
2.059999999999923, -0.9772515430556403 
2.069999999999944, -0.9756862951000833 
2.079999999999965, -0.9712047313707096 
2.089999999999986, -0.9612381737763558 
2.100000000000007, -0.9465239447306317 
2.1100000000000283, -0.9319978131544608 
2.1200000000000494, -0.9222100883287643 
2.1300000000000705, -0.9182329332915403 
2.1400000000000916, -0.9175286020123862 
2.1500000000001127, -0.9175966328884069 
2.160000000000134, -0.917527133038375 
2.170000000000155, -0.9170076095789572 
2.180000000000176, -0.9155705067601654 
2.190000000000197, -0.9125764787228352 
2.2000000000002182, -0.908090522059433 
2.2100000000002393, -0.9031383511875608 
2.2200000000002604, -0.8986669063780017 
2.2300000000002815, -0.895285617094936 
2.2400000000003026, -0.8933657005289731 
2.2500000000003237, -0.8927000111444322 
2.260000000000345, -0.8926064046522972 
2.270000000000366, -0.8925400712446432 
2.280000000000387, -0.8922177076509759 
2.290000000000408, -0.8914585955484187 
2.3000000000004293, -0.8902428794574467 
2.3100000000004504, -0.888784700000192 
2.3200000000004715, -0.8873112951762726 
2.3300000000004926, -0.885944196626552 
2.3400000000005137, -0.8847967742500247 
2.3500000000005348, -0.8840106657503354 
2.360000000000556, -0.8836593966053883 
2.370000000000577, -0.8836390904194789 
2.380000000000598, -0.883727600584223 
2.390000000000619, -0.883742424993278 
2.4000000000006403, -0.8836115205023857 
2.4100000000006614, -0.8833613144928261 
2.4200000000006825, -0.8830297869291839 
2.4300000000007036, -0.8826101550445328 
2.4400000000007247, -0.882119151547653 
2.450000000000746, -0.8816650485264264 
2.460000000000767, -0.881422003360471 
2.470000000000788, -0.8815164662919427 
2.480000000000809, -0.8819361204763905 
2.49000000000083, -0.8825655493824612 
2.5000000000008513, -0.8832853617600369 
2.5100000000008724, -0.8840236212739108 
2.5200000000008935, -0.8846961456975946 
2.5300000000009146, -0.8851429542445806 
2.5400000000009357, -0.8852506818643832 
2.550000000000957, -0.885076197871492 
2.560000000000978, -0.8848036861925881 
2.570000000000999, -0.8847698707079672 
2.58000000000102, -0.8854547980132355 
2.5900000000010412, -0.8871425175738951 
2.6000000000010624, -0.8897039765119882 
2.6100000000010835, -0.8928316033492741 
2.6200000000011046, -0.8961216294742144 
2.6300000000011257, -0.8988863605652092 
2.6400000000011468, -0.900508202070179 
2.650000000001168, -0.9010858165966449 
2.660000000001189, -0.9010597464608869 
2.67000000000121, -0.9007445743654005 
2.680000000001231, -0.9005651857505219 
2.6900000000012523, -0.9018263871990928 
2.7000000000012734, -0.9068374263903743 
2.7100000000012945, -0.9166531572690371 
2.7200000000013156, -0.9294392642276279 
2.7300000000013367, -0.9412394028749784 
2.740000000001358, -0.9484254430296 
2.750000000001379, -0.9512873183369738 
2.7600000000014, -0.9520625652031217 
2.770000000001421, -0.9520161269990796 
2.780000000001442, -0.9515405445473505 
2.7900000000014633, -0.9510349083701006 
2.8000000000014844, -0.9529505610179259 
2.8100000000015055, -0.9641083271155789 
2.8200000000015266, -0.9879773560685834 
2.8300000000015477, -1.014759883341987 
2.840000000001569, -1.032026732154809 
2.85000000000159, -1.0388487127276 
2.860000000001611, -1.0407828926605063 
2.870000000001632, -1.041103809101002 
2.8800000000016532, -1.0408063500343494 
2.8900000000016743, -1.0402290615895402 
2.9000000000016954, -1.0407413860193282 
2.9100000000017165, -1.0466505335109344 
2.9200000000017377, -1.0599565000978273 
2.9300000000017588, -1.0751631457848576 
2.94000000000178, -1.0864015418816233 
2.950000000001801, -1.0919965459712582 
2.960000000001822, -1.0939088156720194 
2.970000000001843, -1.0942821987710984 
2.9800000000018643, -1.0940663515084394 
2.9900000000018854, -1.0937335820791045 
3.0000000000019065, -1.0943012362506388 
3.0100000000019276, -1.0970613556266966 
3.0200000000019487, -1.1014096830018598 
3.03000000000197, -1.105789081831977 
3.040000000001991, -1.1092988291959416 
3.050000000002012, -1.111499322650538 
3.060000000002033, -1.1124362021056897 
3.070000000002054, -1.112566581540222 
3.0800000000020753, -1.112324004484282 
3.0900000000020964, -1.1121181280053414 
3.1000000000021175, -1.112462310609141 
3.1100000000021386, -1.1134675720576588 
3.1200000000021597, -1.1147273725401532 
3.130000000002181, -1.11589468893372 
3.140000000002202, -1.1168094517946443 
3.150000000002223, -1.1173768336530165 
3.160000000002244, -1.1175356993278158 
3.1700000000022652, -1.1173351392241515 
3.1800000000022863, -1.1169476146373067 
3.1900000000023074, -1.1166323208728122 
3.2000000000023285, -1.116591154123017 
3.2100000000023496, -1.1168066172588451 
3.2200000000023707, -1.1171147455679626 
3.230000000002392, -1.1173232965926587 
3.240000000002413, -1.1173135729211419 
3.250000000002434, -1.1170578497276429 
3.260000000002455, -1.1165651798001544 
3.2700000000024763, -1.1158643243627027 
3.2800000000024974, -1.1150550376447692 
3.2900000000025185, -1.1143228508322875 
3.3000000000025396, -1.1138712433097193 
3.3100000000025607, -1.1137567253434109 
3.3200000000025818, -1.113752810738607 
3.330000000002603, -1.1135575996239928 
3.340000000002624, -1.112948039184126 
3.350000000002645, -1.111817387350913 
3.360000000002666, -1.1102237974985765 
3.3700000000026873, -1.1083029532942892 
3.3800000000027084, -1.106257063276684 
3.3900000000027295, -1.1045238667224924 
3.4000000000027506, -1.1036344776647788 
3.4100000000027717, -1.103456389432169 
3.420000000002793, -1.1033684059802946 
3.430000000002814, -1.102919279219059 
3.440000000002835, -1.101625334009395 
3.450000000002856, -1.0988364780747704 
3.460000000002877, -1.094302749159517 
3.4700000000028983, -1.0885406411821348 
3.4800000000029194, -1.082710410411995 
3.4900000000029405, -1.0787312495009367 
3.5000000000029616, -1.0774735945778882 
3.5100000000029827, -1.0774460943481272 
3.520000000003004, -1.0773890543059326 
3.530000000003025, -1.0768240268517766 
3.540000000003046, -1.0749604019942285 
3.550000000003067, -1.0697998390045087 
3.5600000000030882, -1.0589562812602575 
3.5700000000031094, -1.043369095605588 
3.5800000000031305, -1.0284647796502164 
3.5900000000031516, -1.0203224070206747 
3.6000000000031727, -1.018572585338485 
3.6100000000031938, -1.0187328166018423 
3.620000000003215, -1.0188078975628903 
3.630000000003236, -1.0183937285833298 
3.640000000003257, -1.0168719709758416 
3.650000000003278, -1.012200941780329 
3.6600000000032993, -1.0005950784304742 
3.6700000000033204, -0.9814377469692769 
3.6800000000033415, -0.9615214448821158 
3.6900000000033626, -0.9488026246962742 
3.7000000000033837, -0.9445608431629617 
3.710000000003405, -0.9441644848066064 
3.720000000003426, -0.9443402935147314 
3.730000000003447, -0.9442445315765123 
3.740000000003468, -0.9435788144625427 
3.750000000003489, -0.9416200470895456 
3.7600000000035103, -0.9369981027963472 
3.7700000000035314, -0.9291980045670236 
3.7800000000035525, -0.9200763528885453 
3.7900000000035736, -0.9120377750017041 
3.8000000000035947, -0.9066880711101468 
3.810000000003616, -0.9043610128564152 
3.820000000003637, -0.9038640964821001 
3.830000000003658, -0.9038583167319614 
3.840000000003679, -0.9037264121472072 
3.8500000000037002, -0.9031774390327305 
3.8600000000037213, -0.9018922254234738 
3.8700000000037424, -0.8997182400467383 
3.8800000000037635, -0.89701437586222 
3.8900000000037847, -0.8942992239458676 
3.9000000000038058, -0.8918880029627143 
3.910000000003827, -0.8900171772960318 
3.920000000003848, -0.8888915522332896 
3.930000000003869, -0.8884706603669681 
3.94000000000389, -0.8884171956935875 
3.9500000000039113, -0.8883800212881509 
3.9600000000039324, -0.8881469314104329 
3.9700000000039535, -0.8876323246203693 
3.9800000000039746, -0.886896495594476 
3.9900000000039957, -0.8860670354313074 
4.000000000004016, -0.8852154610349908 
4.010000000003993, -0.8843933996658329 
4.02000000000397, -0.8837063707831122 
4.030000000003946, -0.8832854098814555 
4.040000000003923, -0.8831918579719691 
4.0500000000039, -0.8833566951792754 
4.0600000000038765, -0.8836254699272225 
4.070000000003853, -0.883870712863464 
4.08000000000383, -0.8840490215225009 
4.090000000003807, -0.8841536635060748 
4.100000000003783, -0.8841351748978659 
4.11000000000376, -0.8839389202316491 
4.120000000003737, -0.8836054705670584 
4.130000000003713, -0.8832968671475717 
4.14000000000369, -0.8832664838777367 
4.150000000003667, -0.8837157255920813 
4.1600000000036434, -0.8846406682623111 
4.17000000000362, -0.8858974261462892 
4.180000000003597, -0.8873436979669995 
4.1900000000035735, -0.8888389918596433 
4.20000000000355, -0.8901234412040614 
4.210000000003527, -0.8908931816636934 
4.220000000003504, -0.8911071329069609 
4.23000000000348, -0.8909536644977756 
4.240000000003457, -0.8906837285676066 
4.250000000003434, -0.890772155569709 
4.26000000000341, -0.8920882181404688 
4.270000000003387, -0.8953279569975843 
4.280000000003364, -0.9003323422661371 
4.2900000000033405, -0.906342682842881 
4.300000000003317, -0.9121212463752745 
4.310000000003294, -0.9161313859648491 
4.320000000003271, -0.9179799125209656 
4.330000000003247, -0.9184966396759526 
4.340000000003224, -0.9183870369939223 
4.350000000003201, -0.9179696536604143 
4.360000000003177, -0.9177929529988618 
4.370000000003154, -0.9201011888274792 
4.380000000003131, -0.9292599985199634 
4.390000000003107, -0.9466708023075563 
4.400000000003084, -0.9668074770487876 
4.410000000003061, -0.9814384598421327 
4.4200000000030375, -0.9880297910289618 
4.430000000003014, -0.9900858750091255 
4.440000000002991, -0.9904869710985927 
4.450000000002968, -0.9902397260482051 
4.460000000002944, -0.9896240532445301 
4.470000000002921, -0.989574184929651 
4.480000000002898, -0.9946241404445917 
4.490000000002874, -1.0111473193670633 
4.500000000002851, -1.0351483091036129 
4.510000000002828, -1.0548512887010486 
4.520000000002804, -1.064732167629648 
4.530000000002781, -1.0680486735314956 
4.540000000002758, -1.0688374538514362 
4.5500000000027345, -1.0687568776465373 
4.560000000002711, -1.0683056520527257 
4.570000000002688, -1.0682335000864331 
4.580000000002665, -1.070982750851627 
4.590000000002641, -1.078298516695857 
4.600000000002618, -1.0875646055820527 
4.610000000002595, -1.095517039910555 
4.620000000002571, -1.1005291486321238 
4.630000000002548, -1.1027357025641515 
4.640000000002525, -1.103337860861243 
4.6500000000025015, -1.1032464934250243 
4.660000000002478, -1.1029390212318613 
4.670000000002455, -1.1030721319604377 
4.6800000000024315, -1.1044699690559951 
4.690000000002408, -1.1069119546164683 
4.700000000002385, -1.1095133967771438 
4.710000000002362, -1.111751187559382 
4.720000000002338, -1.113357890742668 
4.730000000002315, -1.1141914287070989 
4.740000000002292, -1.1143623489371262 
4.750000000002268, -1.1141441594376151 
4.760000000002245, -1.1138556848474843 
4.770000000002222, -1.1138764108382826 
4.7800000000021985, -1.1143544414458566 
4.790000000002175, -1.1150715975485372 
4.800000000002152, -1.115768720636248 
4.810000000002129, -1.1162935094250614 
4.820000000002105, -1.1165792397369343 
4.830000000002082, -1.1165854589785928 
4.840000000002059, -1.1163052863863308 
4.850000000002035, -1.1158255164794981 
4.860000000002012, -1.1153361608180241 
4.870000000001989, -1.1150368876140753 
4.880000000001965, -1.1150004417229877 
4.890000000001942, -1.1151313555491673 
4.900000000001919, -1.1152143017250462 
4.9100000000018955, -1.1150665311114714 
4.920000000001872, -1.1146146515833468 
4.930000000001849, -1.113877826538468 
