t, s[1].omega / s[0].omega 
0, -1.6199683116724333 
0.009999999999999995, -1.6241807520344367 
0.019999999999999934, -1.6364968129128326 
0.029999999999999874, -1.6470036745232863 
0.04000000000000012, -1.653114660587553 
0.050000000000000405, -1.6561068470456362 
0.06000000000000069, -1.6573810344299016 
0.07000000000000098, -1.657748033946978 
0.08000000000000126, -1.6576111177784554 
0.09000000000000155, -1.657188222853342 
0.10000000000000184, -1.656670892087171 
0.11000000000000212, -1.6563042078869354 
0.12000000000000241, -1.6563059872951729 
0.130000000000002, -1.6566913446328617 
0.1400000000000009, -1.6572819073917064 
0.1499999999999998, -1.6578761238640891 
0.1599999999999987, -1.658331075404113 
0.1699999999999976, -1.6585492123405738 
0.1799999999999965, -1.6584536054283876 
0.1899999999999954, -1.6579649187268586 
0.1999999999999943, -1.6569787662384918 
0.2099999999999932, -1.6553492666537324 
0.2199999999999921, -1.6528851000836458 
0.229999999999991, -1.6493792532495195 
0.2399999999999899, -1.6447431139535773 
0.2499999999999888, -1.639359623578392 
0.2599999999999877, -1.634483027434393 
0.2699999999999866, -1.6316716287544755 
0.2799999999999855, -1.6311227039236786 
0.2899999999999844, -1.6316274184809347 
0.2999999999999833, -1.6321466462657288 
0.3099999999999822, -1.6323214218675157 
0.3199999999999811, -1.6321037014988864 
0.32999999999998, -1.6314685155657949 
0.3399999999999789, -1.6303381487258057 
0.3499999999999778, -1.6287053386416397 
0.35999999999997667, -1.6271385670430458 
0.36999999999997557, -1.6274594434122498 
0.37999999999997447, -1.6316449100034682 
0.38999999999997337, -1.6388998897833496 
0.39999999999997227, -1.6463502057432684 
0.40999999999997117, -1.6521599602099832 
0.41999999999997006, -1.6560512773154166 
0.42999999999996896, -1.6583927646350578 
0.43999999999996786, -1.6596251116978293 
0.44999999999996676, -1.6600928176590066 
0.45999999999996566, -1.660031750470941 
0.46999999999996456, -1.6595984502734697 
0.47999999999996346, -1.6589089714237464 
0.48999999999996235, -1.6580723669895168 
0.49999999999996125, -1.657204056329127 
0.5099999999999602, -1.6564253200479864 
0.519999999999959, -1.6558573321141985 
0.529999999999958, -1.6555634150768217 
0.5399999999999568, -1.655466311761313 
0.5499999999999557, -1.6553812537560997 
0.5599999999999546, -1.6551183374702032 
0.5699999999999535, -1.654493862690672 
0.5799999999999524, -1.6532368365847094 
0.5899999999999513, -1.6508259551808995 
0.5999999999999502, -1.6462557480953877 
0.6099999999999491, -1.6378694521430437 
0.619999999999948, -1.6241317306678102 
0.6299999999999469, -1.6072178730389193 
0.6399999999999458, -1.5963218589854127 
0.6499999999999447, -1.5979096121655627 
0.6599999999999436, -1.6058539740243334 
0.6699999999999425, -1.6126554993679805 
0.6799999999999414, -1.6165904662323591 
0.6899999999999403, -1.6184792404383816 
0.6999999999999392, -1.619207118109798 
0.7099999999999381, -1.6192859123531194 
0.719999999999937, -1.6189743144158797 
0.7299999999999359, -1.6184394566159053 
0.7399999999999348, -1.6179012632643126 
0.7499999999999337, -1.6176964668250076 
0.7599999999999326, -1.6181047757568305 
0.7699999999999315, -1.619070344241344 
0.7799999999999304, -1.6202631882383227 
0.7899999999999293, -1.6213724981735624 
0.7999999999999282, -1.6222264690564803 
0.8099999999999271, -1.6227506898139292 
0.819999999999926, -1.6229126662717168 
0.8299999999999249, -1.6226897660385373 
0.8399999999999238, -1.6220529418752925 
0.8499999999999227, -1.6209603537015689 
0.8599999999999216, -1.619359692726027 
0.8699999999999205, -1.6172057155102106 
0.8799999999999194, -1.6145149310917728 
0.8899999999999183, -1.611490782959887 
0.8999999999999172, -1.6086690350320478 
0.9099999999999161, -1.606765812705524 
0.919999999999915, -1.6060511123646979 
0.9299999999999139, -1.6060810660161149 
0.9399999999999128, -1.6062538349962654 
0.9499999999999117, -1.6062345638832398 
0.9599999999999106, -1.605884955149643 
0.9699999999999095, -1.605077325195421 
0.9799999999999084, -1.6035711554218903 
0.9899999999999073, -1.6009947236627706 
0.9999999999999062, -1.597234086735648 
1.0099999999999052, -1.5939243928056857 
1.019999999999904, -1.595811214465615 
1.029999999999903, -1.6060962877691527 
1.039999999999902, -1.6203887211182557 
1.0499999999999008, -1.6324720485231015 
1.0599999999998997, -1.6403586321136938 
1.0699999999998986, -1.6448356896416971 
1.0799999999998975, -1.6471313691479488 
1.0899999999998964, -1.6481405806795284 
1.0999999999998953, -1.6483974979768417 
1.1099999999998942, -1.6482024434462694 
1.119999999999893, -1.647740148795983 
1.129999999999892, -1.647163435148683 
1.1399999999998909, -1.646622124509 
1.1499999999998898, -1.6462277448682605 
1.1599999999998887, -1.6460185003081684 
1.1699999999998876, -1.6459741512639467 
1.1799999999998865, -1.6460254470335176 
1.1899999999998854, -1.6460538232704853 
1.1999999999998843, -1.6459206050110589 
1.2099999999998832, -1.6454827336164537 
1.219999999999882, -1.6445564828695987 
1.229999999999881, -1.6428447265443384 
1.2399999999998799, -1.6398483111348567 
1.2499999999998788, -1.634796860172085 
1.2599999999998777, -1.6267540314675824 
1.2699999999998766, -1.6153571285626636 
1.2799999999998755, -1.6026169999588618 
1.2899999999998744, -1.593545164413245 
1.2999999999998733, -1.591224438557314 
1.3099999999998722, -1.5930217458157325 
1.319999999999871, -1.595303184554154 
1.32999999999987, -1.5967545276903556 
1.3399999999998689, -1.597391576880534 
1.3499999999998678, -1.5974573498773188 
1.3599999999998666, -1.597110551849153 
1.3699999999998655, -1.5964349625004588 
1.3799999999998644, -1.5955689373789317 
1.3899999999998633, -1.5949351198183106 
1.3999999999998622, -1.5953190648109614 
1.4099999999998611, -1.5972655274595167 
1.41999999999986, -1.60034535477043 
1.429999999999859, -1.603588752539586 
1.4399999999998578, -1.606326748316545 
1.4499999999998567, -1.6083449170682413 
1.4599999999998556, -1.6096659833977984 
1.4699999999998545, -1.610382649011644 
1.4799999999998534, -1.6105899014876741 
1.4899999999998523, -1.6103658763171782 
1.4999999999998512, -1.6097709233215582 
1.5099999999998501, -1.6088559689859696 
1.519999999999849, -1.607678630188887 
1.529999999999848, -1.6063261351021283 
1.5399999999998468, -1.604946345720522 
1.5499999999998457, -1.6037662905818657 
1.5599999999998446, -1.6030095284433012 
1.5699999999998435, -1.6027049411386058 
1.5799999999998424, -1.6026422487821095 
1.5899999999998413, -1.602554798250702 
1.5999999999998402, -1.6022437605798612 
1.6099999999998391, -1.6015297306420024 
1.619999999999838, -1.6001222796102224 
1.629999999999837, -1.5974430376749438 
1.6399999999998358, -1.5924178844826646 
1.6499999999998347, -1.5835828559781704 
1.6599999999998336, -1.5708831721612595 
1.6699999999998325, -1.559998904288146 
1.6799999999998314, -1.5605252721533558 
1.6899999999998303, -1.5719641148570842 
1.6999999999998292, -1.584491859861496 
1.709999999999828, -1.5928382700992516 
1.719999999999827, -1.5973034880335315 
1.729999999999826, -1.5994137014281375 
1.7399999999998248, -1.6002519932860806 
1.7499999999998237, -1.6003975081969795 
1.7599999999998226, -1.600141450995718 
1.7699999999998215, -1.5996640508970301 
1.7799999999998204, -1.5991620971255505 
1.7899999999998193, -1.598893559817007 
1.7999999999998182, -1.59905788406686 
1.809999999999817, -1.5996268665026894 
1.819999999999816, -1.600389964036345 
1.8299999999998149, -1.6011319719589843 
1.8399999999998138, -1.6017091122265508 
1.8499999999998127, -1.602033122917852 
1.8599999999998116, -1.6020436995979224 
1.8699999999998105, -1.6016870890401584 
1.8799999999998094, -1.6009003819240974 
1.8899999999998083, -1.5996033583671907 
1.8999999999998072, -1.5976996539871675 
1.909999999999806, -1.595095692022824 
1.919999999999805, -1.5917662057077449 
1.9299999999998039, -1.5879152271995773 
1.9399999999998028, -1.5841905594641281 
1.9499999999998017, -1.5815579198874388 
1.9599999999998006, -1.5804955853475975 
1.9699999999997995, -1.5805096736483784 
1.9799999999997984, -1.580808891160013 
1.9899999999997973, -1.5809427312760902 
1.9999999999997962, -1.5807592715087997 
2.0099999999998173, -1.5801772618869125 
2.0199999999998384, -1.5790480415450083 
2.0299999999998595, -1.577122380378181 
2.0399999999998806, -1.574271237186923 
2.0499999999999017, -1.571428259393458 
2.059999999999923, -1.5719096190322346 
2.069999999999944, -1.579257398638633 
2.079999999999965, -1.5916471121480031 
2.089999999999986, -1.60367696064631 
2.100000000000007, -1.6123809574061831 
2.1100000000000283, -1.6177398967260896 
2.1200000000000494, -1.6207098063384127 
2.1300000000000705, -1.622174032692214 
2.1400000000000916, -1.6227254259715445 
2.1500000000001127, -1.622718773128538 
2.160000000000134, -1.622365862714989 
2.170000000000155, -1.621818347595743 
2.180000000000176, -1.6212195994165515 
2.190000000000197, -1.6207022866597067 
2.2000000000002182, -1.6203485470478847 
2.2100000000002393, -1.6201780668342551 
2.2200000000002604, -1.6201596444407016 
2.2300000000002815, -1.6202053586658174 
2.2400000000003026, -1.6201841147984049 
2.2500000000003237, -1.6199568014146994 
2.260000000000345, -1.6193745174163592 
2.270000000000366, -1.6182281387244841 
2.280000000000387, -1.616172596620887 
2.290000000000408, -1.6126458719842003 
2.3000000000004293, -1.606837353119135 
2.3100000000004504, -1.5979124890743013 
2.3200000000004715, -1.5859725078810767 
2.3300000000004926, -1.5737685182075856 
2.3400000000005137, -1.5661771147053885 
2.3500000000005348, -1.564901555197397 
2.360000000000556, -1.5668132584410863 
2.370000000000577, -1.5688538475816636 
2.380000000000598, -1.5700894592077792 
2.390000000000619, -1.5705934258067107 
2.4000000000006403, -1.5705769298037144 
2.4100000000006614, -1.570166874733975 
2.4200000000006825, -1.5694286321103241 
2.4300000000007036, -1.5685013233886018 
2.4400000000007247, -1.5678457453664052 
2.450000000000746, -1.5683353612945738 
2.460000000000767, -1.5705970036303893 
2.470000000000788, -1.5741717933721548 
2.480000000000809, -1.577959764098249 
2.49000000000083, -1.5811794321804566 
2.5000000000008513, -1.5835741214856498 
2.5100000000008724, -1.5851722995484563 
2.5200000000008935, -1.5860907502793327 
2.5300000000009146, -1.5864518533332919 
2.5400000000009357, -1.5863590220764163 
2.550000000000957, -1.5858941076766395 
2.560000000000978, -1.5851254025681634 
2.570000000000999, -1.5841229201653746 
2.58000000000102, -1.5829758551081068 
2.5900000000010412, -1.5818090778335732 
2.6000000000010624, -1.5807933702835535 
2.6100000000010835, -1.5801022565716139 
2.6200000000011046, -1.5797840977948092 
2.6300000000011257, -1.5796955953402072 
2.6400000000011468, -1.5796111905291788 
2.650000000001168, -1.5793389255366574 
2.660000000001189, -1.5787056148266392 
2.67000000000121, -1.5774537017464207 
2.680000000001231, -1.5750875619651443 
2.6900000000012523, -1.5706635680709742 
2.7000000000012734, -1.562653797112754 
2.7100000000012945, -1.5496395890608903 
2.7200000000013156, -1.5333799198614952 
2.7300000000013367, -1.521969740931829 
2.740000000001358, -1.5225039936682507 
2.750000000001379, -1.5307318338922984 
2.7600000000014, -1.5387866578540141 
2.770000000001421, -1.543879471460657 
2.780000000001442, -1.546527083853531 
2.7900000000014633, -1.547708683602195 
2.8000000000014844, -1.548067895316105 
2.8100000000015055, -1.547942081626474 
2.8200000000015266, -1.5475095043880809 
2.8300000000015477, -1.546925867991967 
2.840000000001569, -1.546447510521963 
2.85000000000159, -1.5464451837065645 
2.860000000001611, -1.5471680627538664 
2.870000000001632, -1.548486674635663 
2.8800000000016532, -1.5500187642462424 
2.8900000000016743, -1.5514310799587283 
2.9000000000016954, -1.5525466823083338 
2.9100000000017165, -1.5532985363087979 
2.9200000000017377, -1.553670447473739 
2.9300000000017588, -1.5536634136818872 
2.94000000000178, -1.5532803138755575 
2.950000000001801, -1.552520879074875 
2.960000000001822, -1.551383647858923 
2.970000000001843, -1.5498761055366344 
2.9800000000018643, -1.5480386749791655 
2.9900000000018854, -1.545991550352527 
3.0000000000019065, -1.5439953224434364 
3.0100000000019276, -1.542431586692617 
3.0200000000019487, -1.5415724398152602 
3.03000000000197, -1.5413250497478763 
3.040000000001991, -1.5413383528915832 
3.050000000002012, -1.5412982986113897 
3.060000000002033, -1.5410181963932215 
3.070000000002054, -1.5403464229605524 
3.0800000000020753, -1.5390353316878742 
3.0900000000020964, -1.5365974395152686 
3.1000000000021175, -1.5321741373403486 
3.1100000000021386, -1.524757580238253 
3.1200000000021597, -1.5148823866806738 
3.130000000002181, -1.5079629905282277 
3.140000000002202, -1.5119493514771107 
3.150000000002223, -1.5257869500065548 
3.160000000002244, -1.5403117536872266 
3.1700000000022652, -1.5502678462044266 
3.1800000000022863, -1.555813820589845 
3.1900000000023074, -1.5585683386681068 
3.2000000000023285, -1.5597777462202416 
3.2100000000023496, -1.5601450281194817 
3.2200000000023707, -1.5600306401886785 
3.230000000002392, -1.5596341328951366 
3.240000000002413, -1.5591247663365537 
3.250000000002434, -1.5587198430134583 
3.260000000002455, -1.5586476570267314 
3.2700000000024763, -1.5589943893560807 
3.2800000000024974, -1.5596394902516442 
3.2900000000025185, -1.5603770674456636 
3.3000000000025396, -1.5610369247364826 
3.3100000000025607, -1.5615062671964828 
3.3200000000025818, -1.5617109196621535 
3.330000000002603, -1.561595722561434 
3.340000000002624, -1.561108261772193 
3.350000000002645, -1.5601881974162362 
3.360000000002666, -1.5587640761885395 
3.3700000000026873, -1.5567594607478703 
3.3800000000027084, -1.5541181266564534 
3.3900000000027295, -1.5508746354966094 
3.4000000000027506, -1.5472986380551204 
3.4100000000027717, -1.5440281728754028 
3.420000000002793, -1.5418479050364227 
3.430000000002814, -1.5410168696017135 
3.440000000002835, -1.541040014883233 
3.450000000002856, -1.5412646688156946 
3.460000000002877, -1.5413247264542673 
3.4700000000028983, -1.5410796859142866 
3.4800000000029194, -1.5404288595447537 
3.4900000000029405, -1.5391853450720285 
3.5000000000029616, -1.537015711571955 
3.5100000000029827, -1.5335760271425418 
3.520000000003004, -1.5293635705792128 
3.530000000003025, -1.5275390478763191 
3.540000000003046, -1.533246070027893 
3.550000000003067, -1.546757853177239 
3.5600000000030882, -1.5617691436976195 
3.5700000000031094, -1.5732170200939684 
3.5800000000031305, -1.580328830727612 
3.5900000000031516, -1.5842531645057445 
3.6000000000031727, -1.5862136314502773 
3.6100000000031938, -1.5870344886400845 
3.620000000003215, -1.5871924518123144 
3.630000000003236, -1.5869541648585257 
3.640000000003257, -1.5864918847854508 
3.650000000003278, -1.5859628861637833 
3.6600000000032993, -1.5855289558558954 
3.6700000000033204, -1.5853023759194116 
3.6800000000033415, -1.5852944821534485 
3.6900000000033626, -1.5854410801400918 
3.7000000000033837, -1.5856465231295032 
3.710000000003405, -1.585799301872623 
3.720000000003426, -1.5857853060665668 
3.730000000003447, -1.585494129511206 
3.740000000003468, -1.584800815802834 
3.750000000003489, -1.583533792387978 
3.7600000000035103, -1.581446756853487 
3.7700000000035314, -1.5782094825056485 
3.7800000000035525, -1.5734517594493107 
3.7900000000035736, -1.56695787184879 
3.8000000000035947, -1.5591660404541328 
3.810000000003616, -1.5517731318591386 
3.820000000003637, -1.5471235609787783 
3.830000000003658, -1.5458865376538629 
3.840000000003679, -1.5465276959993155 
3.8500000000037002, -1.5474399780129664 
3.8600000000037213, -1.5479878011006425 
3.8700000000037424, -1.5480951635815228 
3.8800000000037635, -1.5478016849820109 
3.8900000000037847, -1.547103868367 
3.9000000000038058, -1.5459575748264944 
3.910000000003827, -1.5444477250346815 
3.920000000003848, -1.5432537920277833 
3.930000000003869, -1.5440522568096142 
3.94000000000389, -1.5483753183031246 
3.9500000000039113, -1.5554480702122813 
3.9600000000039324, -1.5628477983101037 
3.9700000000039535, -1.5688752194588467 
3.9800000000039746, -1.5731161794476791 
3.9900000000039957, -1.5758078834394234 
4.000000000004016, -1.5773351822174144 
4.010000000003993, -1.5780373362600442 
4.02000000000397, -1.5781657099433894 
4.030000000003946, -1.5778945985881667 
4.040000000003923, -1.5773507581584192 
4.0500000000039, -1.5766462915455877 
4.0600000000038765, -1.575896639933543 
4.070000000003853, -1.5752125187019854 
4.08000000000383, -1.574684508193987 
4.090000000003807, -1.5743690901894947 
4.100000000003783, -1.5742514381400572 
4.11000000000376, -1.5742232414634663 
4.120000000003737, -1.5741290079103116 
4.130000000003713, -1.5738164469034643 
4.14000000000369, -1.573120390684596 
4.150000000003667, -1.5717918585538766 
4.1600000000036434, -1.5693972860042757 
4.17000000000362, -1.565204594346062 
4.180000000003597, -1.55814224040274 
4.1900000000035735, -1.5471615042748375 
4.20000000000355, -1.5326568169618935 
4.210000000003527, -1.5185618554268634 
4.220000000003504, -1.5107461759590164 
4.23000000000348, -1.5103263727811034 
4.240000000003457, -1.5131530653967284 
4.250000000003434, -1.515821223693366 
4.26000000000341, -1.517435157669134 
4.270000000003387, -1.5181676011901912 
4.280000000003364, -1.5183066052093848 
4.2900000000033405, -1.5180285808748235 
4.300000000003317, -1.5174190385102944 
4.310000000003294, -1.516574321918248 
4.320000000003271, -1.5157911964089381 
4.330000000003247, -1.5157457076532912 
4.340000000003224, -1.5172132572392718 
4.350000000003201, -1.520254816347142 
4.360000000003177, -1.524040094041901 
4.370000000003154, -1.5276369037953892 
4.380000000003131, -1.5305519645286398 
4.390000000003107, -1.5326718303501594 
4.400000000003084, -1.5340571657756212 
4.410000000003061, -1.534818744838855 
4.4200000000030375, -1.5350679555801297 
4.430000000003014, -1.5349012670855808 
4.440000000002991, -1.534399152867198 
4.450000000002968, -1.5336343249597684 
4.460000000002944, -1.5326857050179004 
4.470000000002921, -1.531650346020828 
4.480000000002898, -1.5306486711793141 
4.490000000002874, -1.5298205469061827 
4.500000000002851, -1.52928367957739 
4.510000000002828, -1.5290461040846923 
4.520000000002804, -1.5289756354064075 
4.530000000002781, -1.5288835220918686 
4.540000000002758, -1.5286021221560722 
4.5500000000027345, -1.527969129388485 
4.560000000002711, -1.5267464514867355 
4.570000000002688, -1.5245025021359546 
4.580000000002665, -1.5204609008686378 
4.590000000002641, -1.5133874915715475 
4.600000000002618, -1.5018825509402798 
4.610000000002595, -1.485931364212927 
4.620000000002571, -1.4696285767119368 
4.630000000002548, -1.4601464620187397 
4.640000000002525, -1.4598126006838297 
4.6500000000025015, -1.463956674595694 
4.660000000002478, -1.468008602321388 
4.670000000002455, -1.4705901670401074 
4.6800000000024315, -1.4719142342644114 
4.690000000002408, -1.4724218295220242 
4.700000000002385, -1.4724093438618568 
4.710000000002362, -1.472028599530667 
4.720000000002338, -1.4713659982966085 
4.730000000002315, -1.4705660358939654 
4.740000000002292, -1.470007619851922 
4.750000000002268, -1.470360396472797 
4.760000000002245, -1.472170335308462 
4.770000000002222, -1.4752531797368083 
4.7800000000021985, -1.478817971214163 
4.790000000002175, -1.4821266056160431 
4.800000000002152, -1.4848082636554139 
4.810000000002129, -1.4867757456681006 
4.820000000002105, -1.4880744733458848 
4.830000000002082, -1.488793749146607 
4.840000000002059, -1.4890289875848057 
4.850000000002035, -1.4888677437915412 
4.860000000002012, -1.4883871039201748 
4.870000000001989, -1.4876596598489884 
4.880000000001965, -1.4867650882319896 
4.890000000001942, -1.485799120074 
4.900000000001919, -1.4848735612592137 
4.9100000000018955, -1.4841080262374613 
4.920000000001872, -1.4836000332847277 
4.930000000001849, -1.4833629173701341 
4.940000000001826, -1.4832940213203847 
