t, s[1].omega / s[0].omega 
0, -1.2399977662368467 
0.009999999999999995, -1.2396109837146212 
0.019999999999999934, -1.2389046892371194 
0.029999999999999874, -1.2378983729943625 
0.04000000000000012, -1.2366428874304018 
0.050000000000000405, -1.2352322268995308 
0.06000000000000069, -1.2338075964410429 
0.07000000000000098, -1.2325658839909943 
0.08000000000000126, -1.2317278130332854 
0.09000000000000155, -1.2313746406442019 
0.10000000000000184, -1.2313234882396205 
0.11000000000000212, -1.2312639983781204 
0.12000000000000241, -1.2309176293434378 
0.130000000000002, -1.2300093903942775 
0.1400000000000009, -1.2281694260189422 
0.1499999999999998, -1.2249173402319222 
0.1599999999999987, -1.219790270937913 
0.1699999999999976, -1.2125242979048152 
0.1799999999999965, -1.203153902513815 
0.1899999999999954, -1.192162147283409 
0.1999999999999943, -1.180926481733409 
0.2099999999999932, -1.1719058878205482 
0.2199999999999921, -1.1670603166006197 
0.229999999999991, -1.165768319142724 
0.2399999999999899, -1.1659567053226416 
0.2499999999999888, -1.1662635716616776 
0.2599999999999877, -1.1662123739520172 
0.2699999999999866, -1.1655758812668244 
0.2799999999999855, -1.1638876815383952 
0.2899999999999844, -1.15987916535787 
0.2999999999999833, -1.1503147637412452 
0.3099999999999822, -1.1280115383275577 
0.3199999999999811, -1.081784714279554 
0.32999999999998, -1.0069160314757324 
0.3399999999999789, -0.9218556355786846 
0.3499999999999778, -0.855950231575452 
0.35999999999997667, -0.8194264384366556 
0.36999999999997557, -0.8041701558160298 
0.37999999999997447, -0.799487821786947 
0.38999999999997337, -0.7987857621079181 
0.39999999999997227, -0.7991500368812242 
0.40999999999997117, -0.7995642705762592 
0.41999999999997006, -0.7997377822638686 
0.42999999999996896, -0.7995749957329287 
0.43999999999996786, -0.7989672705780949 
0.44999999999996676, -0.7977085291511986 
0.45999999999996566, -0.7954891853481894 
0.46999999999996456, -0.7920311056723666 
0.47999999999996346, -0.7873689054353187 
0.48999999999996235, -0.7819876325288824 
0.49999999999996125, -0.7765526220085829 
0.5099999999999602, -0.771544342212264 
0.519999999999959, -0.7671738030050855 
0.529999999999958, -0.7634954208824093 
0.5399999999999568, -0.7605163092928597 
0.5499999999999557, -0.7582371655581122 
0.5599999999999546, -0.7566427858418397 
0.5699999999999535, -0.7556761270927262 
0.5799999999999524, -0.7552258573700659 
0.5899999999999513, -0.7551420648992135 
0.5999999999999502, -0.7552706150896098 
0.6099999999999491, -0.7554837245684093 
0.619999999999948, -0.755694937560732 
0.6299999999999469, -0.7558630492385165 
0.6399999999999458, -0.7559897524412966 
0.6499999999999447, -0.7561044099764868 
0.6599999999999436, -0.7562314437276024 
0.6699999999999425, -0.7563573424291562 
0.6799999999999414, -0.7564259846339458 
0.6899999999999403, -0.7563711386682871 
0.6999999999999392, -0.756158958681679 
0.7099999999999381, -0.7558069244367281 
0.719999999999937, -0.7553819631079733 
0.7299999999999359, -0.755003878313594 
0.7399999999999348, -0.7548633773365394 
0.7499999999999337, -0.755235984813502 
0.7599999999999326, -0.7564617810609857 
0.7699999999999315, -0.7588826797821184 
0.7799999999999304, -0.7627729849362305 
0.7899999999999293, -0.7683099378613707 
0.7999999999999282, -0.7755768964236044 
0.8099999999999271, -0.7845186285744784 
0.819999999999926, -0.7947497970493762 
0.8299999999999249, -0.8052680042661615 
0.8399999999999238, -0.8145229925398675 
0.8499999999999227, -0.8212646232402501 
0.8599999999999216, -0.8253499500004244 
0.8699999999999205, -0.8274587206493491 
0.8799999999999194, -0.8283480842506807 
0.8899999999999183, -0.8285089941819948 
0.8999999999999172, -0.8281720717894194 
0.9099999999999161, -0.8273973380487278 
0.919999999999915, -0.8261779189862972 
0.9299999999999139, -0.8246792029050144 
0.9399999999999128, -0.8240181784600441 
0.9499999999999117, -0.8284681727144476 
0.9599999999999106, -0.8497836557708169 
0.9699999999999095, -0.9091722005218097 
0.9799999999999084, -1.0181855640681667 
0.9899999999999073, -1.1400890110519946 
0.9999999999999062, -1.2218487994716862 
1.0099999999999052, -1.2597337428629094 
1.019999999999904, -1.274430141202186 
1.029999999999903, -1.2798116663598182 
1.039999999999902, -1.2816725593878289 
1.0499999999999008, -1.2821081469932334 
1.0599999999998997, -1.2818514679115425 
1.0699999999998986, -1.2812310937404903 
1.0799999999998975, -1.2807604772193182 
1.0899999999998964, -1.2815757058655928 
1.0999999999998953, -1.2847565896276838 
1.1099999999998942, -1.289807121406473 
1.119999999999893, -1.2951978987521282 
1.129999999999892, -1.2999150777542516 
1.1399999999998909, -1.303653796904314 
1.1499999999998898, -1.3064076925393722 
1.1599999999998887, -1.308243282541165 
1.1699999999998876, -1.3092608075816534 
1.1799999999998865, -1.3096025802875524 
1.1899999999998854, -1.3094379067732962 
1.1999999999998843, -1.3089432485572308 
1.2099999999998832, -1.308308904833968 
1.219999999999882, -1.3077284557080187 
1.229999999999881, -1.3073325996545402 
1.2399999999998799, -1.3071644134638565 
1.2499999999998788, -1.3072099521393545 
1.2599999999998777, -1.3073699544005386 
1.2699999999998766, -1.307457960695162 
1.2799999999998755, -1.3072729095294995 
1.2899999999998744, -1.306628480688601 
1.2999999999998733, -1.305341014278016 
1.3099999999998722, -1.3032430115212257 
1.319999999999871, -1.3002103000543612 
1.32999999999987, -1.2961618101204644 
1.3399999999998689, -1.2910707194844937 
1.3499999999998678, -1.2851198045340624 
1.3599999999998666, -1.2790972085513324 
1.3699999999998655, -1.2745381522808736 
1.3799999999998644, -1.2724838447906524 
1.3899999999998633, -1.2722210758011816 
1.3999999999998622, -1.2724338926562089 
1.4099999999998611, -1.2724115883837745 
1.41999999999986, -1.2718330025044704 
1.429999999999859, -1.2701988441497252 
1.4399999999998578, -1.266115360623474 
1.4499999999998567, -1.2556841681333322 
1.4599999999998556, -1.2289742356410012 
1.4699999999998545, -1.1673277602544847 
1.4799999999998534, -1.059982997675841 
1.4899999999998523, -0.9416424388063155 
1.4999999999998512, -0.862676846863811 
1.5099999999998501, -0.8281591617552149 
1.519999999999849, -0.8178890462913457 
1.529999999999848, -0.8164996534262311 
1.5399999999998468, -0.8173132359890649 
1.5499999999998457, -0.818226522226654 
1.5599999999998446, -0.8187718554214856 
1.5699999999998435, -0.8189020138915646 
1.5799999999998424, -0.8185913150652117 
1.5899999999998413, -0.8176983519328477 
1.5999999999998402, -0.8158823703479077 
1.6099999999998391, -0.8125656629828681 
1.619999999999838, -0.8071138844437357 
1.629999999999837, -0.7993887983333197 
1.6399999999998358, -0.7901936654466958 
1.6499999999998347, -0.7808445031236758 
1.6599999999998336, -0.7723549621736958 
1.6699999999998325, -0.7651814982748738 
1.6799999999998314, -0.7594300717737782 
1.6899999999998303, -0.7550680587405312 
1.6999999999998292, -0.7520002816454309 
1.709999999999828, -0.7500639659880892 
1.719999999999827, -0.7490219066272427 
1.729999999999826, -0.7485945798216104 
1.7399999999998248, -0.7485171602233458 
1.7499999999998237, -0.7485818455392522 
1.7599999999998226, -0.7486471789859954 
1.7699999999998215, -0.7486282840960138 
1.7799999999998204, -0.7484896756619884 
1.7899999999998193, -0.748244589935415 
1.7999999999998182, -0.7479431401150233 
1.809999999999817, -0.7476374397675233 
1.819999999999816, -0.7473442192684385 
1.8299999999998149, -0.7470367190585169 
1.8399999999998138, -0.7466715178993917 
1.8499999999998127, -0.746225862185407 
1.8599999999998116, -0.7457193386568559 
1.8699999999998105, -0.7452189949437318 
1.8799999999998094, -0.7448416264099661 
1.8899999999998083, -0.7447548467390295 
1.8999999999998072, -0.745163798569083 
1.909999999999806, -0.746275935649975 
1.919999999999805, -0.7482596597145762 
1.9299999999998039, -0.7512255306321427 
1.9399999999998028, -0.7552395068229911 
1.9499999999998017, -0.7603417334137698 
1.9599999999998006, -0.7665182098706443 
1.9699999999997995, -0.7735713410752904 
1.9799999999997984, -0.7809160699742311 
1.9899999999997973, -0.7875633130463217 
1.9999999999997962, -0.792600960461087 
2.0099999999998173, -0.7957797322846755 
2.0199999999998384, -0.7974631251099549 
2.0299999999998595, -0.7981579638970379 
2.0399999999998806, -0.7982255556385851 
2.0499999999999017, -0.7978448771785366 
2.059999999999923, -0.7970691243143052 
2.069999999999944, -0.795924642717052 
2.079999999999965, -0.7946669634540743 
2.089999999999986, -0.7945698331991539 
2.100000000000007, -0.8000361790374029 
2.1100000000000283, -0.8226233518516923 
2.1200000000000494, -0.8829546273342659 
2.1300000000000705, -0.9929593784670183 
2.1400000000000916, -1.1175326477536651 
2.1500000000001127, -1.2025159514373445 
2.160000000000134, -1.242307463886462 
2.170000000000155, -1.2578032438874622 
2.180000000000176, -1.2634929259903507 
2.190000000000197, -1.265480050890259 
2.2000000000002182, -1.2659752070909451 
2.2100000000002393, -1.2657471315012931 
2.2200000000002604, -1.2651140036360016 
2.2300000000002815, -1.2645350865828886 
2.2400000000003026, -1.2651574106732422 
2.2500000000003237, -1.268381618570309 
2.260000000000345, -1.274049653254951 
2.270000000000366, -1.280457603326143 
2.280000000000387, -1.2862305460119803 
2.290000000000408, -1.290875597392349 
2.3000000000004293, -1.2943393998664459 
2.3100000000004504, -1.296693646398445 
2.3200000000004715, -1.2980659769621223 
2.3300000000004926, -1.2986410523474252 
2.3400000000005137, -1.29863153085581 
2.3500000000005348, -1.2982429560878803 
2.360000000000556, -1.2976812427786761 
2.370000000000577, -1.2971622807134389 
2.380000000000598, -1.2968460468094782 
2.390000000000619, -1.2967732280681383 
2.4000000000006403, -1.2969062291292621 
2.4100000000006614, -1.2971534694321998 
2.4200000000006825, -1.2973573923871426 
2.4300000000007036, -1.2973394643815923 
2.4400000000007247, -1.2969423672855374 
2.450000000000746, -1.296032075332797 
2.460000000000767, -1.2945031053875693 
2.470000000000788, -1.292288598789448 
2.480000000000809, -1.2893513694788332 
2.49000000000083, -1.285678647175151 
2.5000000000008513, -1.281349218370836 
2.5100000000008724, -1.2767477155245228 
2.5200000000008935, -1.2727955367730721 
2.5300000000009146, -1.2705054231546633 
2.5400000000009357, -1.2698625581278538 
2.550000000000957, -1.2699333290849182 
2.560000000000978, -1.2699505486361493 
2.570000000000999, -1.2695309081598356 
2.58000000000102, -1.2682652421215173 
2.5900000000010412, -1.26516100791899 
2.6000000000010624, -1.2576316060784523 
2.6100000000010835, -1.2395710490814382 
2.6200000000011046, -1.1998854037399156 
2.6300000000011257, -1.1292760386788356 
2.6400000000011468, -1.0407941268593803 
2.650000000001168, -0.969746142249028 
2.660000000001189, -0.9337042389846592 
2.67000000000121, -0.9223798120904141 
2.680000000001231, -0.9211054077099089 
2.6900000000012523, -0.9222156971653936 
2.7000000000012734, -0.9232765730007461 
2.7100000000012945, -0.9238340380949536 
2.7200000000013156, -0.9238859697294516 
2.7300000000013367, -0.9233964803335343 
2.740000000001358, -0.9221131065040057 
2.750000000001379, -0.9193604682786848 
2.7600000000014, -0.9137158110125636 
2.770000000001421, -0.9028599505541582 
2.780000000001442, -0.8846529500226531 
2.7900000000014633, -0.8597662332242666 
2.8000000000014844, -0.83251592098087 
2.8100000000015055, -0.8078195609284496 
2.8200000000015266, -0.788475559998183 
2.8300000000015477, -0.77507793568641 
2.840000000001569, -0.7668898591141244 
2.85000000000159, -0.762562577244678 
2.860000000001611, -0.760664385912778 
2.870000000001632, -0.7600422303194796 
2.8800000000016532, -0.7599490083312479 
2.8900000000016743, -0.759975079276633 
2.9000000000016954, -0.7599109419201963 
2.9100000000017165, -0.7596350571862068 
2.9200000000017377, -0.7590586617965955 
2.9300000000017588, -0.7581297583766667 
2.94000000000178, -0.7568741761129536 
2.950000000001801, -0.755411442836741 
2.960000000001822, -0.7538982264707715 
2.970000000001843, -0.7524478010583566 
2.9800000000018643, -0.7511025268213973 
2.9900000000018854, -0.7498626224252117 
3.0000000000019065, -0.7487283719919863 
3.0100000000019276, -0.7477258201839022 
3.0200000000019487, -0.7469104119733294 
3.03000000000197, -0.7463544220437511 
3.040000000001991, -0.7461258530557907 
3.050000000002012, -0.7462679574996511 
3.060000000002033, -0.7467888881877803 
3.070000000002054, -0.7476661586831655 
3.0800000000020753, -0.7488631798002541 
3.0900000000020964, -0.7503494965414079 
3.1000000000021175, -0.7521128847205312 
3.1100000000021386, -0.7541493205816548 
3.1200000000021597, -0.7564200081671794 
3.130000000002181, -0.7587868697794234 
3.140000000002202, -0.7609883161703052 
3.150000000002223, -0.7627338219987714 
3.160000000002244, -0.7638659284804795 
3.1700000000022652, -0.7644128902006907 
3.1800000000022863, -0.7645002372486541 
3.1900000000023074, -0.7642556538133966 
3.2000000000023285, -0.7637896377636642 
3.2100000000023496, -0.763258778559235 
3.2200000000023707, -0.7630354349683589 
3.230000000002392, -0.7640519367678154 
3.240000000002413, -0.7683516245417495 
3.250000000002434, -0.7796203685118996 
3.260000000002455, -0.8029269240577844 
3.2700000000024763, -0.8423522175639391 
3.2800000000024974, -0.895871213820332 
3.2900000000025185, -0.9516571673471088 
3.3000000000025396, -0.9948806459480083 
3.3100000000025607, -1.0203145335336117 
3.3200000000025818, -1.0326145797290465 
3.330000000002603, -1.037954316474591 
3.340000000002624, -1.0401038336904758 
3.350000000002645, -1.040797697660679 
3.360000000002666, -1.0407304918470421 
3.3700000000026873, -1.0401360523431646 
3.3800000000027084, -1.0391035368757233 
3.3900000000027295, -1.0380021485663675 
3.4000000000027506, -1.0385003307694938 
3.4100000000027717, -1.0449483286168082 
3.420000000002793, -1.0629928582136088 
3.430000000002814, -1.093233690651891 
3.440000000002835, -1.1283640729567055 
3.450000000002856, -1.1593515122436684 
3.460000000002877, -1.1813848035056795 
3.4700000000028983, -1.1944523642760536 
3.4800000000029194, -1.2011126151641356 
3.4900000000029405, -1.2040998447603506 
3.5000000000029616, -1.2052226730328555 
3.5100000000029827, -1.2054138671469925 
3.520000000003004, -1.2051175901455133 
3.530000000003025, -1.2046446938406634 
3.540000000003046, -1.2044714110714982 
3.550000000003067, -1.205283169702913 
3.5600000000030882, -1.2074459144575493 
3.5700000000031094, -1.2105615192991699 
3.5800000000031305, -1.2139119779062835 
3.5900000000031516, -1.2170086775414244 
3.6000000000031727, -1.219641751386855 
3.6100000000031938, -1.2217364809638276 
3.620000000003215, -1.223260106538028 
3.630000000003236, -1.224202167602326 
3.640000000003257, -1.2245941697239147 
3.650000000003278, -1.2245207896327919 
3.6600000000032993, -1.2241065310970343 
3.6700000000033204, -1.2235065283234305 
3.6800000000033415, -1.222903006412571 
3.6900000000033626, -1.2224606155969135 
3.7000000000033837, -1.2222613226053225 
3.710000000003405, -1.2223035369883228 
3.720000000003426, -1.222523778799192 
3.730000000003447, -1.2227915789096753 
3.740000000003468, -1.2229412537876507 
3.750000000003489, -1.2228249323796794 
3.7600000000035103, -1.2223318237411682 
3.7700000000035314, -1.221391865548365 
3.7800000000035525, -1.2199795926540546 
3.7900000000035736, -1.218103537700979 
3.8000000000035947, -1.2157882753844091 
3.810000000003616, -1.213079167262412 
3.820000000003637, -1.2100884768415632 
3.830000000003658, -1.2070870298673253 
3.840000000003679, -1.2045667314740947 
3.8500000000037002, -1.2030204871008408 
3.8600000000037213, -1.202464254703516 
3.8700000000037424, -1.2024148631519957 
3.8800000000037635, -1.2023645986960916 
3.8900000000037847, -1.201977937311974 
3.9000000000038058, -1.2009208117169783 
3.910000000003827, -1.1985983396266182 
3.920000000003848, -1.1939163595043558 
3.930000000003869, -1.1852640542144175 
3.94000000000389, -1.1710698983089236 
3.9500000000039113, -1.150874575978665 
3.9600000000039324, -1.1263539175920274 
3.9700000000039535, -1.101917668053974 
3.9800000000039746, -1.0835152073780467 
3.9900000000039957, -1.0742243700860143 
4.000000000004016, -1.0717112853532345 
4.010000000003993, -1.0719097477361412 
4.02000000000397, -1.0725028763435311 
4.030000000003946, -1.0727761852758564 
4.040000000003923, -1.0725646240793643 
4.0500000000039, -1.0716730121369786 
4.0600000000038765, -1.0695303482649603 
4.070000000003853, -1.064656924988094 
4.08000000000383, -1.0536502320311028 
4.090000000003807, -1.030247122834378 
4.100000000003783, -0.9878568242563253 
4.11000000000376, -0.9286366806955587 
4.120000000003737, -0.8678321686377436 
4.130000000003713, -0.8212018784985922 
4.14000000000369, -0.7932339149033419 
4.150000000003667, -0.7796719577009703 
4.1600000000036434, -0.7743914270531211 
4.17000000000362, -0.7729073869357843 
4.180000000003597, -0.7727976824923187 
4.1900000000035735, -0.773002914563145 
4.20000000000355, -0.7731243246050289 
4.210000000003527, -0.7730063233891238 
4.220000000003504, -0.7725390847395942 
4.23000000000348, -0.7715818797683215 
4.240000000003457, -0.7699725610880555 
4.250000000003434, -0.767629990044567 
4.26000000000341, -0.7646845362335347 
4.270000000003387, -0.7614639280756516 
4.280000000003364, -0.7583071147254625 
4.2900000000033405, -0.7554166797009874 
4.300000000003317, -0.7528624745618197 
4.310000000003294, -0.7506550518525532 
4.320000000003271, -0.7488018803503099 
4.330000000003247, -0.7473250102514448 
4.340000000003224, -0.7462514687359775 
4.350000000003201, -0.7455928525036073 
4.360000000003177, -0.7453281095463907 
4.370000000003154, -0.7453995283406414 
4.380000000003131, -0.7457249792715184 
4.390000000003107, -0.7462202767660742 
4.400000000003084, -0.7468208931922438 
4.410000000003061, -0.7474948686321702 
4.4200000000030375, -0.748241444391466 
4.430000000003014, -0.7490699471788875 
4.440000000002991, -0.7499612687213997 
4.450000000002968, -0.7508351411090157 
4.460000000002944, -0.7515613131071875 
4.470000000002921, -0.7520233823246704 
4.480000000002898, -0.7521788310660186 
4.490000000002874, -0.7520607544745678 
4.500000000002851, -0.7517465856543273 
4.510000000002828, -0.7513508011864778 
4.520000000002804, -0.7510678335547605 
4.530000000002781, -0.751262435468747 
4.540000000002758, -0.7525766094346381 
4.5500000000027345, -0.7559780384811216 
4.560000000002711, -0.7626616424784248 
4.570000000002688, -0.7737911991121933 
4.580000000002665, -0.7901355818476274 
4.590000000002641, -0.8115421173352403 
4.600000000002618, -0.8361239067598929 
4.610000000002595, -0.8598291037899096 
4.620000000002571, -0.8782080437937958 
4.630000000002548, -0.8896318413221979 
4.640000000002525, -0.895604645983736 
4.6500000000025015, -0.8983774394581487 
4.660000000002478, -0.899491600628477 
4.670000000002455, -0.8997235860119622 
4.6800000000024315, -0.8993835809050664 
4.690000000002408, -0.8985258763937213 
4.700000000002385, -0.8970862057900296 
4.710000000002362, -0.8951662089338702 
4.720000000002338, -0.8940683367968347 
4.730000000002315, -0.8993077205140136 
4.740000000002292, -0.9256183828500899 
4.750000000002268, -0.9943803740234852 
4.760000000002245, -1.103448251532185 
4.770000000002222, -1.2051600574630041 
4.7800000000021985, -1.2646629044953484 
4.790000000002175, -1.2906795433589502 
4.800000000002152, -1.3006855228668583 
4.810000000002129, -1.3043400775604985 
4.820000000002105, -1.3055268732421417 
4.830000000002082, -1.305657091911358 
4.840000000002059, -1.3052552783800988 
4.850000000002035, -1.3046860845283335 
4.860000000002012, -1.3046536225902374 
4.870000000001989, -1.3061556412320656 
4.880000000001965, -1.3093774534660667 
4.890000000001942, -1.3133309946689375 
4.900000000001919, -1.3170292923484896 
4.9100000000018955, -1.3200641295427848 
4.920000000001872, -1.3223677356387935 
4.930000000001849, -1.3239704050375223 
