t, s[1].omega / s[0].omega 
0, -0.5399977485217632 
0.009999999999999995, -0.5398122319356399 
0.019999999999999934, -0.5396913421701525 
0.029999999999999874, -0.5395990557737919 
0.04000000000000012, -0.5394905531882495 
0.050000000000000405, -0.5393271255073135 
0.06000000000000069, -0.5390856889288302 
0.07000000000000098, -0.5387604029690081 
0.08000000000000126, -0.5383594704778248 
0.09000000000000155, -0.53790229948575 
0.10000000000000184, -0.537421049344937 
0.11000000000000212, -0.5369692596744989 
0.12000000000000241, -0.5366406900399633 
0.130000000000002, -0.5366038569451345 
0.1400000000000009, -0.5371614757683838 
0.1499999999999998, -0.5388472463316452 
0.1599999999999987, -0.5425676510962182 
0.1699999999999976, -0.549758507095223 
0.1799999999999965, -0.5623951262171649 
0.1899999999999954, -0.5824247373295545 
0.1999999999999943, -0.6101126552775018 
0.2099999999999932, -0.6420874904254028 
0.2199999999999921, -0.6721588432676882 
0.229999999999991, -0.6955960805457241 
0.2399999999999899, -0.7116469646266306 
0.2499999999999888, -0.7219707111360362 
0.2599999999999877, -0.7284787460279311 
0.2699999999999866, -0.7325584742472886 
0.2799999999999855, -0.7350953685869389 
0.2899999999999844, -0.7366379510933639 
0.2999999999999833, -0.7375217108934552 
0.3099999999999822, -0.7379450400489406 
0.3199999999999811, -0.7380132207815125 
0.32999999999998, -0.7377610386153924 
0.3399999999999789, -0.7371594764433547 
0.3499999999999778, -0.7361096623894297 
0.35999999999997667, -0.7344288768589389 
0.36999999999997557, -0.7318425043271961 
0.37999999999997447, -0.7280144928492802 
0.38999999999997337, -0.7226610965433993 
0.39999999999997227, -0.7157470807606571 
0.40999999999997117, -0.7076384605058939 
0.41999999999997006, -0.699033623017743 
0.42999999999996896, -0.6906866927373788 
0.43999999999996786, -0.6831519662798471 
0.44999999999996676, -0.6767071205692334 
0.45999999999996566, -0.6714141226872854 
0.46999999999996456, -0.6672123592891082 
0.47999999999996346, -0.6639868160063574 
0.48999999999996235, -0.661604213720921 
0.49999999999996125, -0.659928599848793 
0.5099999999999602, -0.6588279552009347 
0.519999999999959, -0.6581784162324092 
0.529999999999958, -0.6578682967026783 
0.5399999999999568, -0.6578016195375224 
0.5499999999999557, -0.6579002605077402 
0.5599999999999546, -0.6581043736503718 
0.5699999999999535, -0.6583716114236997 
0.5799999999999524, -0.6586760083162941 
0.5899999999999513, -0.659006866040051 
0.5999999999999502, -0.6593667073091398 
0.6099999999999491, -0.6597662987533848 
0.619999999999948, -0.6602153622706821 
0.6299999999999469, -0.6607105116228903 
0.6399999999999458, -0.6612256632894855 
0.6499999999999447, -0.6617116632218171 
0.6599999999999436, -0.6621083057998801 
0.6699999999999425, -0.6623636011029823 
0.6799999999999414, -0.6624488691883771 
0.6899999999999403, -0.6623617755070678 
0.6999999999999392, -0.6621195806555894 
0.7099999999999381, -0.6617509186485441 
0.719999999999937, -0.6612929853249673 
0.7299999999999359, -0.6607973599440193 
0.7399999999999348, -0.6603462192985222 
0.7499999999999337, -0.6600815403034679 
0.7599999999999326, -0.66025113621132 
0.7699999999999315, -0.661274763540212 
0.7799999999999304, -0.6638278377506817 
0.7899999999999293, -0.6689232648667944 
0.7999999999999282, -0.6779315736103529 
0.8099999999999271, -0.6924028882046113 
0.819999999999926, -0.713474081340757 
0.8299999999999249, -0.7407715826948014 
0.8399999999999238, -0.7714259292487514 
0.8499999999999227, -0.8006569320699375 
0.8599999999999216, -0.8242988189695813 
0.8699999999999205, -0.8408991238556819 
0.8799999999999194, -0.851417096810416 
0.8899999999999183, -0.8576641138224975 
0.8999999999999172, -0.8612280022046477 
0.9099999999999161, -0.8631826195473451 
0.919999999999915, -0.8641691610911671 
0.9299999999999139, -0.8645418091735666 
0.9399999999999128, -0.8644756873658025 
0.9499999999999117, -0.8640266948676537 
0.9599999999999106, -0.8631529521447293 
0.9699999999999095, -0.8617043926032849 
0.9799999999999084, -0.8593795257756358 
0.9899999999999073, -0.8556430857227524 
0.9999999999999062, -0.8496035338932669 
1.0099999999999052, -0.8398885636484884 
1.019999999999904, -0.8246784329184929 
1.029999999999903, -0.8022806689139458 
1.039999999999902, -0.7726370481648043 
1.0499999999999008, -0.7390142456230311 
1.0599999999998997, -0.7073577367585097 
1.0699999999998986, -0.6826802470576998 
1.0799999999998975, -0.6664017910660504 
1.0899999999998964, -0.6570672800181628 
1.0999999999998953, -0.6523572747202389 
1.1099999999998942, -0.6503148559715126 
1.119999999999893, -0.6496442040545609 
1.129999999999892, -0.6495945552844057 
1.1399999999998909, -0.6497678074970412 
1.1499999999998898, -0.6499661850895336 
1.1599999999998887, -0.6500947852011592 
1.1699999999998876, -0.6501052562589762 
1.1799999999998865, -0.6499652171797147 
1.1899999999998854, -0.6496431883465796 
1.1999999999998843, -0.6491043300450662 
1.2099999999998832, -0.6483161194058075 
1.219999999999882, -0.6472632635044906 
1.229999999999881, -0.6459658474687182 
1.2399999999998799, -0.6444874864959751 
1.2499999999998788, -0.6429222879476464 
1.2599999999998777, -0.6413654447435914 
1.2699999999998766, -0.6398863682967456 
1.2799999999998755, -0.6385189510850489 
1.2899999999998744, -0.637268609302812 
1.2999999999998733, -0.636126884966293 
1.3099999999998722, -0.6350851003762228 
1.319999999999871, -0.6341431978424752 
1.32999999999987, -0.6333138387152157 
1.3399999999998689, -0.6326235211069261 
1.3499999999998678, -0.6321122823664985 
1.3599999999998666, -0.6318326911921037 
1.3699999999998655, -0.6318482898160525 
1.3799999999998644, -0.6322316876501926 
1.3899999999998633, -0.6330628517200996 
1.3999999999998622, -0.6344282934824116 
1.4099999999998611, -0.6364213538396208 
1.41999999999986, -0.639142297518587 
1.429999999999859, -0.6426942089003288 
1.4399999999998578, -0.6471668015670231 
1.4499999999998567, -0.6525968729252679 
1.4599999999998556, -0.6588978734761933 
1.4699999999998545, -0.6657757457404132 
1.4799999999998534, -0.672698540681992 
1.4899999999998523, -0.6790104390318146 
1.4999999999998512, -0.684178442300871 
1.5099999999998501, -0.6879912924425995 
1.519999999999849, -0.6905526324738733 
1.529999999999848, -0.6921250752864699 
1.5399999999998468, -0.6929802412240675 
1.5499999999998457, -0.6933256177839616 
1.5599999999998446, -0.6932901196882214 
1.5699999999998435, -0.6929316240249422 
1.5799999999998424, -0.6922437254147925 
1.5899999999998413, -0.6911513176327065 
1.5999999999998402, -0.6894881001039306 
1.6099999999998391, -0.6869456689289185 
1.619999999999838, -0.6829756818536324 
1.629999999999837, -0.676621378743957 
1.6399999999998358, -0.6662945448866173 
1.6499999999998347, -0.6497326541786166 
1.6599999999998336, -0.6248627048573266 
1.6699999999998325, -0.5921575935701412 
1.6799999999998314, -0.5564129029498085 
1.6899999999998303, -0.5242663509577611 
1.6999999999998292, -0.49967963640373847 
1.709999999999828, -0.48284481381000843 
1.719999999999827, -0.47204873100611283 
1.729999999999826, -0.465372424363738 
1.7399999999998248, -0.4613342582833068 
1.7499999999998237, -0.45893848539742504 
1.7599999999998226, -0.4575539394001889 
1.7699999999998215, -0.4567900576560537 
1.7799999999998204, -0.4564074365865392 
1.7899999999998193, -0.4562601618035106 
1.7999999999998182, -0.4562603605674421 
1.809999999999817, -0.45635715845576713 
1.819999999999816, -0.45652492065654016 
1.8299999999998149, -0.4567575315530127 
1.8399999999998138, -0.45706624500073056 
1.8499999999998127, -0.45747849501229876 
1.8599999999998116, -0.4580345973859957 
1.8699999999998105, -0.45877940403675843 
1.8799999999998094, -0.4597472512058639 
1.8899999999998083, -0.460941197550982 
1.8999999999998072, -0.46231261331802304 
1.909999999999806, -0.46375441534306966 
1.919999999999805, -0.46512218317975984 
1.9299999999998039, -0.4662800059412756 
1.9399999999998028, -0.46714290099799377 
1.9499999999998017, -0.46768801886365113 
1.9599999999998006, -0.4679352421784504 
1.9699999999997995, -0.46791792915060776 
1.9799999999997984, -0.4676596201805732 
1.9899999999997973, -0.4671588156667551 
1.9999999999997962, -0.466375832422708 
2.0099999999998173, -0.46521293994393415 
2.0199999999998384, -0.4634763445983692 
2.0299999999998595, -0.4608040276595947 
2.0399999999998806, -0.45654484817584307 
2.0499999999999017, -0.4496208174397319 
2.059999999999923, -0.4385869936215158 
2.069999999999944, -0.4223796819570088 
2.079999999999965, -0.4018152791042455 
2.089999999999986, -0.38011759925887895 
2.100000000000007, -0.3609236117690355 
2.1100000000000283, -0.3460383765856093 
2.1200000000000494, -0.33535936782100956 
2.1300000000000705, -0.32796324630584744 
2.1400000000000916, -0.3228870402176143 
2.1500000000001127, -0.31939145702165705 
2.160000000000134, -0.31697113060302373 
2.170000000000155, -0.31529789294505817 
2.180000000000176, -0.314165258507892 
2.190000000000197, -0.31344891092927873 
2.2000000000002182, -0.31308214270081786 
2.2100000000002393, -0.31304266308908507 
2.2200000000002604, -0.3133481767394799 
2.2300000000002815, -0.31405974167191186 
2.2400000000003026, -0.31529351293960983 
2.2500000000003237, -0.3172429147322481 
2.260000000000345, -0.32021389737484496 
2.270000000000366, -0.32467285277676294 
2.280000000000387, -0.33129080624512014 
2.290000000000408, -0.3409175417196831 
2.3000000000004293, -0.35431796286201933 
2.3100000000004504, -0.37146143586133 
2.3200000000004715, -0.39062173743859 
2.3300000000004926, -0.4085763564210456 
2.3400000000005137, -0.42259070613193606 
2.3500000000005348, -0.4320285760949819 
2.360000000000556, -0.4378355750370294 
2.370000000000577, -0.4412705625160299 
2.380000000000598, -0.4432778533852759 
2.390000000000619, -0.44443354619889197 
2.4000000000006403, -0.4450604633208758 
2.4100000000006614, -0.4453315299784852 
2.4200000000006825, -0.44533264179397014 
2.4300000000007036, -0.4450964828899619 
2.4400000000007247, -0.4446210903807959 
2.450000000000746, -0.4438836554277842 
2.460000000000767, -0.4428576450090221 
2.470000000000788, -0.4415373742406496 
2.480000000000809, -0.4399644676506102 
2.49000000000083, -0.43823852301458394 
2.5000000000008513, -0.4364961516598912 
2.5100000000008724, -0.4348667958399483 
2.5200000000008935, -0.4334347812767517 
2.5300000000009146, -0.4322279021626462 
2.5400000000009357, -0.43122893838181015 
2.550000000000957, -0.4303959351778611 
2.560000000000978, -0.4296809491611017 
2.570000000000999, -0.42904308438735084 
2.58000000000102, -0.42845524646721833 
2.5900000000010412, -0.4279062388567447 
2.6000000000010624, -0.4274011446120124 
2.6100000000010835, -0.426963139928289 
2.6200000000011046, -0.4266395457911104 
2.6300000000011257, -0.4265151117249689 
2.6400000000011468, -0.4267369882305439 
2.650000000001168, -0.4275588854245148 
2.660000000001189, -0.42941611247069567 
2.67000000000121, -0.43304477849865786 
2.680000000001231, -0.43964046945817714 
2.6900000000012523, -0.45095946074916526 
2.7000000000012734, -0.4689946430744333 
2.7100000000012945, -0.49450756164593795 
2.7200000000013156, -0.5245021266457158 
2.7300000000013367, -0.5520543293214375 
2.740000000001358, -0.5715312306389254 
2.750000000001379, -0.5828333712478473 
2.7600000000014, -0.589010482585771 
2.770000000001421, -0.5926519395486245 
2.780000000001442, -0.5950514131119691 
2.7900000000014633, -0.5967334447305641 
2.8000000000014844, -0.5979205853588115 
2.8100000000015055, -0.5987324743636783 
2.8200000000015266, -0.5992471845693709 
2.8300000000015477, -0.5995164035910389 
2.840000000001569, -0.5995685814145306 
2.85000000000159, -0.5994094723615564 
2.860000000001611, -0.5990226390686914 
2.870000000001632, -0.5983722261956056 
2.8800000000016532, -0.5974120460410707 
2.8900000000016743, -0.5961053876810883 
2.9000000000016954, -0.5944542006202775 
2.9100000000017165, -0.5925231230797335 
2.9200000000017377, -0.5904360390676597 
2.9300000000017588, -0.5883391053273356 
2.94000000000178, -0.5863538433619458 
2.950000000001801, -0.5845504549601729 
2.960000000001822, -0.582949555241701 
2.970000000001843, -0.5815403257731522 
2.9800000000018643, -0.5803006621616162 
2.9900000000018854, -0.5792117941530643 
3.0000000000019065, -0.578266189720533 
3.0100000000019276, -0.5774706448176968 
3.0200000000019487, -0.5768470121707474 
3.03000000000197, -0.5764322967947042 
3.040000000001991, -0.5762789359086418 
3.050000000002012, -0.5764555687613276 
3.060000000002033, -0.5770485305725408 
3.070000000002054, -0.5781644067838345 
3.0800000000020753, -0.5799338582517266 
3.0900000000020964, -0.5825160456142578 
3.1000000000021175, -0.586100555527366 
3.1100000000021386, -0.5908986444586646 
3.1200000000021597, -0.5971072249520274 
3.130000000002181, -0.604821359445734 
3.140000000002202, -0.6138831934211859 
3.150000000002223, -0.6237241502213026 
3.160000000002244, -0.6333727697467999 
3.1700000000022652, -0.6417800962524451 
3.1800000000022863, -0.6482899729153082 
3.1900000000023074, -0.652837856232623 
3.2000000000023285, -0.6557639629727278 
3.2100000000023496, -0.6575154126728172 
3.2200000000023707, -0.6584667608585048 
3.230000000002392, -0.6588717469774996 
3.240000000002413, -0.6588756353441955 
3.250000000002434, -0.6585371482525635 
3.260000000002455, -0.6578391229042627 
3.2700000000024763, -0.656680389655506 
3.2800000000024974, -0.654842710100207 
3.2900000000025185, -0.6519244094544259 
3.3000000000025396, -0.6472393132528356 
3.3100000000025607, -0.6397278556800282 
3.3200000000025818, -0.6280667332267844 
3.330000000002603, -0.6113155006309058 
3.340000000002624, -0.5900804938070332 
3.350000000002645, -0.5670213514920176 
3.360000000002666, -0.545538276045137 
3.3700000000026873, -0.5278694084401485 
3.3800000000027084, -0.5145385121833017 
3.3900000000027295, -0.5050009896091164 
3.4000000000027506, -0.498387592444122 
3.4100000000027717, -0.49389365743082453 
3.420000000002793, -0.4908935131122725 
3.430000000002814, -0.488935168404649 
3.440000000002835, -0.4877024729380753 
3.450000000002856, -0.4869775586093185 
3.460000000002877, -0.4866118468029666 
3.4700000000028983, -0.4865056495330407 
3.4800000000029194, -0.48659451767059964 
3.4900000000029405, -0.48684059625059123 
3.5000000000029616, -0.4872276926436433 
3.5100000000029827, -0.48775894461245733 
3.520000000003004, -0.4884556528324161 
3.530000000003025, -0.48935504203774133 
3.540000000003046, -0.490503814547237 
3.550000000003067, -0.49194405349612075 
3.5600000000030882, -0.4936894709276912 
3.5700000000031094, -0.495695544734868 
3.5800000000031305, -0.49783865037919933 
3.5900000000031516, -0.49992886869873443 
3.6000000000031727, -0.5017667346085708 
3.6100000000031938, -0.5032131318593828 
3.620000000003215, -0.5042221498461475 
3.630000000003236, -0.5048220543890976 
3.640000000003257, -0.5050724617026495 
3.650000000003278, -0.505028183708091 
3.6600000000032993, -0.5047184741498785 
3.6700000000033204, -0.5041352379284224 
3.6800000000033415, -0.5032200956590792 
3.6900000000033626, -0.5018400087034858 
3.7000000000033837, -0.49973905891214565 
3.710000000003405, -0.4964513759100849 
3.720000000003426, -0.49117399797867733 
3.730000000003447, -0.482684234970455 
3.740000000003468, -0.4696130293403731 
3.750000000003489, -0.45149679365544726 
3.7600000000035103, -0.43008279557009005 
3.7700000000035314, -0.40892084011075963 
3.7800000000035525, -0.39103838438551003 
3.7900000000035736, -0.3774870922457576 
3.8000000000035947, -0.3678256527043673 
3.810000000003616, -0.3611165052438837 
3.820000000003637, -0.35648791262384105 
3.830000000003658, -0.3532899379339848 
3.840000000003679, -0.3510794900773938 
3.8500000000037002, -0.3495666420225617 
3.8600000000037213, -0.3485667731646289 
3.8700000000037424, -0.34796702588719286 
3.8800000000037635, -0.3477053474381854 
3.8900000000037847, -0.34775898846916625 
3.9000000000038058, -0.3481402056566564 
3.910000000003827, -0.3488980995492247 
3.920000000003848, -0.35012650296519177 
3.930000000003869, -0.35197833570149867 
3.94000000000389, -0.3546860675079352 
3.9500000000039113, -0.3585834856353912 
3.9600000000039324, -0.36411005883324604 
3.9700000000039535, -0.3717474442832207 
3.9800000000039746, -0.3817974445970961 
3.9900000000039957, -0.3939561371038047 
4.000000000004016, -0.4069521757010066 
4.010000000003993, -0.4188774876115985 
4.02000000000397, -0.4282594073660236 
4.030000000003946, -0.43476781808151055 
4.040000000003923, -0.43891930885824826 
4.0500000000039, -0.44144050548202934 
4.0600000000038765, -0.4429165554571461 
4.070000000003853, -0.44372856031557034 
4.08000000000383, -0.4440990190777039 
4.090000000003807, -0.4441454184312411 
4.100000000003783, -0.4439164791827125 
4.11000000000376, -0.44341279604532824 
4.120000000003737, -0.44259974710488803 
4.130000000003713, -0.441422140480155 
4.14000000000369, -0.4398303357188236 
4.150000000003667, -0.4378210641030186 
4.1600000000036434, -0.4354768063592706 
4.17000000000362, -0.4329688127861563 
4.180000000003597, -0.4305056364289396 
4.1900000000035735, -0.428259361770165 
4.20000000000355, -0.42632163693339076 
4.210000000003527, -0.4247060480567738 
4.220000000003504, -0.4233761663071201 
4.23000000000348, -0.42227533203222994 
4.240000000003457, -0.4213477169973371 
4.250000000003434, -0.42054992854574663 
4.26000000000341, -0.4198558043151236 
4.270000000003387, -0.4192577526107937 
4.280000000003364, -0.41876785469554567 
4.2900000000033405, -0.4184214621726607 
4.300000000003317, -0.418285760045471 
4.310000000003294, -0.4184763160509064 
4.320000000003271, -0.4191863707260177 
4.330000000003247, -0.4207366692610431 
4.340000000003224, -0.42365728621189475 
4.350000000003201, -0.42881249105609187 
4.360000000003177, -0.4375563739182848 
4.370000000003154, -0.451804878834906 
4.380000000003131, -0.47363860802384883 
4.390000000003107, -0.5037652255131057 
4.400000000003084, -0.5390868935090992 
4.410000000003061, -0.572646138325758 
4.4200000000030375, -0.5984099988194768 
4.430000000003014, -0.6152614140545849 
4.440000000002991, -0.6254442602524032 
4.450000000002968, -0.6315165550080608 
4.460000000002944, -0.6351964832405929 
4.470000000002921, -0.6374612808307241 
4.480000000002898, -0.6388508201756085 
4.490000000002874, -0.6396685626319967 
4.500000000002851, -0.6400859827784756 
4.510000000002828, -0.6401938903403992 
4.520000000002804, -0.6400268460794386 
4.530000000002781, -0.6395733581990086 
4.540000000002758, -0.6387790969703379 
4.5500000000027345, -0.6375506384349888 
4.560000000002711, -0.6357712496461831 
4.570000000002688, -0.6333421972271032 
4.580000000002665, -0.630249463370092 
4.590000000002641, -0.6266201742661835 
4.600000000002618, -0.6227117155355104 
4.610000000002595, -0.6188230858227053 
4.620000000002571, -0.6151935525960649 
4.630000000002548, -0.6119561956548957 
4.640000000002525, -0.6091512310935852 
4.6500000000025015, -0.6067641651809643 
4.660000000002478, -0.6047599395005283 
4.670000000002455, -0.6031035029985276 
4.6800000000024315, -0.6017685178241645 
4.690000000002408, -0.600738797116056 
4.700000000002385, -0.6000063547046016 
4.710000000002362, -0.5995685507010097 
4.720000000002338, -0.599425742411731 
4.730000000002315, -0.5995801805290044 
4.740000000002292, -0.6000364455615148 
4.750000000002268, -0.6008033401319797 
4.760000000002245, -0.6018967370630769 
4.770000000002222, -0.6033423040396932 
4.7800000000021985, -0.6051760883841872 
4.790000000002175, -0.6074395372603223 
4.800000000002152, -0.6101641072261412 
4.810000000002129, -0.6133412036442956 
4.820000000002105, -0.6168804112903863 
4.830000000002082, -0.620577110122103 
4.840000000002059, -0.6241291307452139 
4.850000000002035, -0.6272247934447727 
4.860000000002012, -0.6296571919612594 
4.870000000001989, -0.631378452541872 
4.880000000001965, -0.6324645065162879 
4.890000000001942, -0.6330403299518774 
4.900000000001919, -0.6332213874176433 
