t, s[1].omega / s[0].omega 
0, -0.5999355509363866 
0.009999999999999995, -0.5937235296396834 
0.019999999999999934, -0.5882022928945068 
0.029999999999999874, -0.583548123954407 
0.04000000000000012, -0.5797694165926657 
0.050000000000000405, -0.5767854041171352 
0.06000000000000069, -0.5744846242437329 
0.07000000000000098, -0.57275599421951 
0.08000000000000126, -0.5715010785425598 
0.09000000000000155, -0.5706368305495477 
0.10000000000000184, -0.570094692973941 
0.11000000000000212, -0.5698189405427453 
0.12000000000000241, -0.569765355819613 
0.130000000000002, -0.5699004733117665 
0.1400000000000009, -0.57020130875899 
0.1499999999999998, -0.5706553843887285 
0.1599999999999987, -0.5712607033378456 
0.1699999999999976, -0.5720249286897113 
0.1799999999999965, -0.5729623850156409 
0.1899999999999954, -0.5740870073097104 
0.1999999999999943, -0.5753999012026514 
0.2099999999999932, -0.5768729431092339 
0.2199999999999921, -0.5784352984899549 
0.229999999999991, -0.5799748358919018 
0.2399999999999899, -0.581362825227968 
0.2499999999999888, -0.5824932699299868 
0.2599999999999877, -0.5833122637950429 
0.2699999999999866, -0.5838197057650061 
0.2799999999999855, -0.5840489623880646 
0.2899999999999844, -0.5840422461739213 
0.2999999999999833, -0.5838333234865963 
0.3099999999999822, -0.5834386720597833 
0.3199999999999811, -0.5828531444719462 
0.32999999999998, -0.5820457730051973 
0.3399999999999789, -0.5809518962587383 
0.3499999999999778, -0.5794570078032352 
0.35999999999997667, -0.5773646222834619 
0.36999999999997557, -0.5743361919599275 
0.37999999999997447, -0.5697974985483072 
0.38999999999997337, -0.5628662463583329 
0.39999999999997227, -0.5525261392083705 
0.40999999999997117, -0.5383683325933988 
0.41999999999997006, -0.5215750599761624 
0.42999999999996896, -0.5047789358396939 
0.43999999999996786, -0.4904574253086225 
0.44999999999996676, -0.47967412367737283 
0.45999999999996566, -0.4722168353565495 
0.46999999999996456, -0.4673318189640949 
0.47999999999996346, -0.4642427310970791 
0.48999999999996235, -0.46234152661624206 
0.49999999999996125, -0.46120419011137653 
0.5099999999999602, -0.46055111182059577 
0.519999999999959, -0.46020312529799917 
0.529999999999958, -0.4600474055595418 
0.5399999999999568, -0.4600141427065596 
0.5499999999999557, -0.46006164265298183 
0.5599999999999546, -0.4601674499470308 
0.5699999999999535, -0.46032365639773315 
0.5799999999999524, -0.460534883600194 
0.5899999999999513, -0.46081727623892155 
0.5999999999999502, -0.4611964078403452 
0.6099999999999491, -0.4617018788748891 
0.619999999999948, -0.4623572520130179 
0.6299999999999469, -0.46316613504295717 
0.6399999999999458, -0.46409868833542556 
0.6499999999999447, -0.46508666829496265 
0.6599999999999436, -0.46603512710646877 
0.6699999999999425, -0.4668496598078863 
0.6799999999999414, -0.4674642954592533 
0.6899999999999403, -0.46785293850145415 
0.6999999999999392, -0.4680211939060488 
0.7099999999999381, -0.46798883732968416 
0.719999999999937, -0.46777364204450606 
0.7299999999999359, -0.4673801477242657 
0.7399999999999348, -0.46679125033483804 
0.7499999999999337, -0.46595823396536284 
0.7599999999999326, -0.46478393833131265 
0.7699999999999315, -0.463092645977798 
0.7799999999999304, -0.460580995477358 
0.7899999999999293, -0.456757647829082 
0.7999999999999282, -0.45093168259588623 
0.8099999999999271, -0.44240941643279086 
0.819999999999926, -0.4310435696421965 
0.8299999999999249, -0.41780663573275323 
0.8399999999999238, -0.40455940327816997 
0.8499999999999227, -0.39298735071836116 
0.8599999999999216, -0.38384626577562087 
0.8699999999999205, -0.3770645004467412 
0.8799999999999194, -0.37219700368626596 
0.8899999999999183, -0.3687539919452548 
0.8999999999999172, -0.3663330286468397 
0.9099999999999161, -0.36464070400989707 
0.919999999999915, -0.36347545779329316 
0.9299999999999139, -0.3627041947271711 
0.9399999999999128, -0.3622431556165813 
0.9499999999999117, -0.36204484508527957 
0.9599999999999106, -0.3620903285030286 
0.9699999999999095, -0.362385912128402 
0.9799999999999084, -0.36296349479990364 
0.9899999999999073, -0.36388408997968413 
0.9999999999999062, -0.3652437458503716 
1.0099999999999052, -0.36717969265362416 
1.019999999999904, -0.3698707985093566 
1.029999999999903, -0.3735187505662433 
1.039999999999902, -0.3782862243228714 
1.0499999999999008, -0.3841710759276634 
1.0599999999998997, -0.390849922640355 
1.0699999999998986, -0.39763765468379203 
1.0799999999998975, -0.40372020013121174 
1.0899999999998964, -0.40854194105142794 
1.0999999999998953, -0.41199294698676203 
1.1099999999998942, -0.414282859925419 
1.119999999999893, -0.4157175081497721 
1.129999999999892, -0.41656183816157333 
1.1399999999998909, -0.41700143216640206 
1.1499999999998898, -0.41715059230084695 
1.1599999999998887, -0.4170703143443161 
1.1699999999998876, -0.41678285492905054 
1.1799999999998865, -0.4162814988471065 
1.1899999999998854, -0.4155386703081746 
1.1999999999998843, -0.4145174655524991 
1.2099999999998832, -0.413191453651555 
1.219999999999882, -0.41157197124086353 
1.229999999999881, -0.4097299291992697 
1.2399999999998799, -0.4077914436642504 
1.2499999999998788, -0.4059010893278228 
1.2599999999998777, -0.4041751916823886 
1.2699999999998766, -0.40267516040271223 
1.2799999999998755, -0.4014093788550781 
1.2899999999998744, -0.4003514582440936 
1.2999999999998733, -0.3994603939748493 
1.3099999999998722, -0.39869544193376844 
1.319999999999871, -0.39802453890135253 
1.32999999999987, -0.3974277902106712 
1.3399999999998689, -0.39689839548414857 
1.3499999999998678, -0.3964433485240241 
1.3599999999998666, -0.3960858434925173 
1.3699999999998655, -0.39587104726431116 
1.3799999999998644, -0.3958770979916671 
1.3899999999998633, -0.3962338664304427 
1.3999999999998622, -0.3971526135351179 
1.4099999999998611, -0.3989680885499408 
1.41999999999986, -0.4021842230301652 
1.429999999999859, -0.4074790136857088 
1.4399999999998578, -0.4155417424765597 
1.4499999999998567, -0.42653515801149267 
1.4599999999998556, -0.43923060923654 
1.4699999999998545, -0.4508369901443997 
1.4799999999998534, -0.4587485745816696 
1.4899999999998523, -0.46260732066269766 
1.4999999999998512, -0.46389095993688534 
1.5099999999998501, -0.4641426775942212 
1.519999999999849, -0.46417811361983186 
1.529999999999848, -0.4642553583408682 
1.5399999999998468, -0.46439574098767133 
1.5499999999998457, -0.4645602622776841 
1.5599999999998446, -0.46471088374191594 
1.5699999999998435, -0.46482248658759995 
1.5799999999998424, -0.4648801942929017 
1.5899999999998413, -0.46487468376373886 
1.5999999999998402, -0.4647990658639129 
1.6099999999998391, -0.464648168561141 
1.619999999999838, -0.4644203799581595 
1.629999999999837, -0.4641216035382099 
1.6399999999998358, -0.46376954575109935 
1.6499999999998347, -0.46339504323767644 
1.6599999999998336, -0.46303738026827 
1.6699999999998325, -0.4627337824980092 
1.6799999999998314, -0.46250737596145736 
1.6899999999998303, -0.4623592153771173 
1.6999999999998292, -0.46226792017343954 
1.709999999999828, -0.46219706821261186 
1.719999999999827, -0.46210707956282143 
1.729999999999826, -0.4619660610195207 
1.7399999999998248, -0.4617550613082645 
1.7499999999998237, -0.46146716149659656 
1.7599999999998226, -0.46110326263141344 
1.7699999999998215, -0.460667917567745 
1.7799999999998204, -0.4601670911135211 
1.7899999999998193, -0.4596083009859334 
1.7999999999998182, -0.4590028556491183 
1.809999999999817, -0.45836912185294454 
1.819999999999816, -0.4577329752874747 
1.8299999999998149, -0.4571127754307492 
1.8399999999998138, -0.45645508344487923 
1.8499999999998127, -0.45545828345472666 
1.8599999999998116, -0.4532596733317325 
1.8699999999998105, -0.44828392479571033 
1.8799999999998094, -0.4390653292419803 
1.8899999999998083, -0.42605082648325554 
1.8999999999998072, -0.4119939757007257 
1.909999999999806, -0.39979925692018364 
1.919999999999805, -0.39071983495723117 
1.9299999999998039, -0.3845619667587036 
1.9399999999998028, -0.3805955862846687 
1.9499999999998017, -0.3781106940207127 
1.9599999999998006, -0.3765816327874908 
1.9699999999997995, -0.3756593856388826 
1.9799999999997984, -0.37512334568757033 
1.9899999999997973, -0.3748376402816576 
1.9999999999997962, -0.37472060433806775 
2.0099999999998173, -0.37472557646510957 
2.0199999999998384, -0.3748297037352264 
2.0299999999998595, -0.375028117668663 
2.0399999999998806, -0.37533158063771394 
2.0499999999999017, -0.3757659577717676 
2.059999999999923, -0.37637160697416927 
2.069999999999944, -0.3772001931482179 
2.079999999999965, -0.3783058383004767 
2.089999999999986, -0.3797275217133338 
2.100000000000007, -0.3814621376858881 
2.1100000000000283, -0.3834360706662189 
2.1200000000000494, -0.3854964305848505 
2.1300000000000705, -0.3874444377624236 
2.1400000000000916, -0.38910336076524904 
2.1500000000001127, -0.3903753993201976 
2.160000000000134, -0.3912497384651098 
2.170000000000155, -0.391770389877815 
2.180000000000176, -0.3919968249174422 
2.190000000000197, -0.39197757983396886 
2.2000000000002182, -0.39173763807675177 
2.2100000000002393, -0.39127269312418583 
2.2200000000002604, -0.39054436498975414 
2.2300000000002815, -0.3894741625495323 
2.2400000000003026, -0.38793933249732376 
2.2500000000003237, -0.3857824080939569 
2.260000000000345, -0.3828558715934094 
2.270000000000366, -0.3791156114737201 
2.280000000000387, -0.37472413966920576 
2.290000000000408, -0.3700596148648331 
2.3000000000004293, -0.36557493096814714 
2.3100000000004504, -0.3616114956687611 
2.3200000000004715, -0.3583153157664893 
2.3300000000004926, -0.35567309252017143 
2.3400000000005137, -0.353590666818801 
2.3500000000005348, -0.35195443437564766 
2.360000000000556, -0.35066323917811026 
2.370000000000577, -0.34963977970084 
2.380000000000598, -0.34883207023248164 
2.390000000000619, -0.34821165863208037 
2.4000000000006403, -0.34777215153675106 
2.4100000000006614, -0.3475299427494685 
2.4200000000006825, -0.3475284786495569 
2.4300000000007036, -0.34784757449940784 
2.4400000000007247, -0.3486199849330007 
2.450000000000746, -0.3500582467841574 
2.460000000000767, -0.3524944462564378 
2.470000000000788, -0.3564296399832184 
2.480000000000809, -0.36256611362540625 
2.49000000000083, -0.3717320817294515 
2.5000000000008513, -0.38450791556864594 
2.5100000000008724, -0.4004180261634323 
2.5200000000008935, -0.41723257403486247 
2.5300000000009146, -0.43176571323109103 
2.5400000000009357, -0.4420704599963564 
2.550000000000957, -0.44837891724943013 
2.560000000000978, -0.4519916298660259 
2.570000000000999, -0.45407663635965595 
2.58000000000102, -0.45533799785997664 
2.5900000000010412, -0.45613631823987344 
2.6000000000010624, -0.4566489550371757 
2.6100000000010835, -0.4569655194773847 
2.6200000000011046, -0.45713307578730006 
2.6300000000011257, -0.4571759127375025 
2.6400000000011468, -0.4571044053800006 
2.650000000001168, -0.4569199523645591 
2.660000000001189, -0.456619505389284 
2.67000000000121, -0.45620158866385135 
2.680000000001231, -0.4556740217948382 
2.6900000000012523, -0.45506090936448224 
2.7000000000012734, -0.4544041251527286 
2.7100000000012945, -0.4537557561208966 
2.7200000000013156, -0.4531636740135207 
2.7300000000013367, -0.4526575864992754 
2.740000000001358, -0.4522422964087277 
2.750000000001379, -0.45190004051263416 
2.7600000000014, -0.45159950697747436 
2.770000000001421, -0.4513070956625048 
2.780000000001442, -0.4509958719734608 
2.7900000000014633, -0.45064960942513055 
2.8000000000014844, -0.4502624095880199 
2.8100000000015055, -0.4498364395665738 
2.8200000000015266, -0.44938038329832153 
2.8300000000015477, -0.4489102635263609 
2.840000000001569, -0.448453609316741 
2.85000000000159, -0.44805783153379036 
2.860000000001611, -0.44780343879275336 
2.870000000001632, -0.4478203403185028 
2.8800000000016532, -0.4482957603130652 
2.8900000000016743, -0.4494347654595624 
2.9000000000016954, -0.45128355373970797 
2.9100000000017165, -0.45332000907594533 
2.9200000000017377, -0.4540274627147304 
2.9300000000017588, -0.45138537455669575 
2.94000000000178, -0.4447614193794137 
2.950000000001801, -0.43597817055819776 
2.960000000001822, -0.4276603835526453 
2.970000000001843, -0.42127415318317174 
2.9800000000018643, -0.41696129887223854 
2.9900000000018854, -0.41426512977739616 
3.0000000000019065, -0.41266110770044684 
3.0100000000019276, -0.41174363793780433 
3.0200000000019487, -0.41124152008946097 
3.03000000000197, -0.4109850556759899 
3.040000000001991, -0.4108715850937162 
3.050000000002012, -0.41084044492564054 
3.060000000002033, -0.41085709577899826 
3.070000000002054, -0.4109040312979603 
3.0800000000020753, -0.41097636590718717 
3.0900000000020964, -0.4110804570047629 
3.1000000000021175, -0.4112339118616736 
3.1100000000021386, -0.41146493125639844 
3.1200000000021597, -0.41180872302350213 
3.130000000002181, -0.41229934391116274 
3.140000000002202, -0.41295696400467896 
3.150000000002223, -0.41377310272322065 
3.160000000002244, -0.414699989133626 
3.1700000000022652, -0.4156530481404112 
3.1800000000022863, -0.41653159365178294 
3.1900000000023074, -0.4172495183716662 
3.2000000000023285, -0.4177572965251401 
3.2100000000023496, -0.4180434448535892 
3.2200000000023707, -0.41812014466315084 
3.230000000002392, -0.4180051934776209 
3.240000000002413, -0.41770774767727586 
3.250000000002434, -0.4172180770822229 
3.260000000002455, -0.4164976841326726 
3.2700000000024763, -0.41546509377964147 
3.2800000000024974, -0.41397286480208545 
3.2900000000025185, -0.4117746229045293 
3.3000000000025396, -0.4084953945897346 
3.3100000000025607, -0.40365769607558544 
3.3200000000025818, -0.3968646344921233 
3.330000000002603, -0.38817365103869494 
3.340000000002624, -0.37837663058683313 
3.350000000002645, -0.3687357035403229 
3.360000000002666, -0.36031161850853555 
3.3700000000026873, -0.3535605858918625 
3.3800000000027084, -0.34842825862816607 
3.3900000000027295, -0.34462770992980507 
3.4000000000027506, -0.34183975995853977 
3.4100000000027717, -0.3397976216939927 
3.420000000002793, -0.3383042655281115 
3.430000000002814, -0.3372243265763555 
3.440000000002835, -0.33647090901936194 
3.450000000002856, -0.3359946067987083 
3.460000000002877, -0.3357766257933266 
3.4700000000028983, -0.3358262202660295 
3.4800000000029194, -0.3361824935548501 
3.4900000000029405, -0.33692097493038486 
3.5000000000029616, -0.33816578164883 
3.5100000000029827, -0.3401079833588855 
3.520000000003004, -0.3430284121930912 
3.530000000003025, -0.3473145876401461 
3.540000000003046, -0.3534391032771142 
3.550000000003067, -0.3618274564743999 
3.5600000000030882, -0.37252970844007377 
3.5700000000031094, -0.38477549472785183 
3.5800000000031305, -0.396902283814644 
3.5900000000031516, -0.40713510267063313 
3.6000000000031727, -0.41461004307848404 
3.6100000000031938, -0.41953408675825565 
3.620000000003215, -0.4225974283438715 
3.630000000003236, -0.424457797759979 
3.640000000003257, -0.4255722514398734 
3.650000000003278, -0.42621865927234415 
3.6600000000032993, -0.42655613354048877 
3.6700000000033204, -0.4266719278017411 
3.6800000000033415, -0.42660981815680293 
3.6900000000033626, -0.42638622151951716 
3.7000000000033837, -0.42600039197389056 
3.710000000003405, -0.4254435580078028 
3.720000000003426, -0.42471022581974377 
3.730000000003447, -0.4238117755923857 
3.740000000003468, -0.4227873543468793 
3.750000000003489, -0.4217035968612408 
3.7600000000035103, -0.42063924982530293 
3.7700000000035314, -0.4196620804559655 
3.7800000000035525, -0.4188114576460539 
3.7900000000035736, -0.41809413278797763 
3.8000000000035947, -0.4174912605094856 
3.810000000003616, -0.41697052209021035 
3.820000000003637, -0.41649793378564953 
3.830000000003658, -0.4160460369245712 
3.840000000003679, -0.41559749887497155 
3.8500000000037002, -0.41514529943402234 
3.8600000000037213, -0.41469177989438977 
3.8700000000037424, -0.4142486995660188 
3.8800000000037635, -0.413839845508738 
3.8900000000037847, -0.4135074368054993 
3.9000000000038058, -0.41332364181698944 
3.910000000003827, -0.4134081803387269 
3.920000000003848, -0.4139496447030132 
3.930000000003869, -0.4152149247233464 
3.94000000000389, -0.4174940411692708 
3.9500000000039113, -0.42086209320544016 
3.9600000000039324, -0.42465093025497075 
3.9700000000039535, -0.42697694451233825 
3.9800000000039746, -0.4255235628777359 
3.9900000000039957, -0.4198044176920324 
4.000000000004016, -0.41194812876822295 
4.010000000003993, -0.40458585107114275 
4.02000000000397, -0.3990145839773042 
4.030000000003946, -0.3952873092423976 
4.040000000003923, -0.392965120498422 
4.0500000000039, -0.39158152295711907 
4.0600000000038765, -0.39078625838992714 
4.070000000003853, -0.3903484110187613 
4.08000000000383, -0.39012455527447876 
4.090000000003807, -0.39002845925342516 
4.100000000003783, -0.3900098348739648 
4.11000000000376, -0.39004123415102826 
4.120000000003737, -0.39011085677758117 
4.130000000003713, -0.3902193853489292 
4.14000000000369, -0.3903792759490378 
4.150000000003667, -0.3906147885121882 
4.1600000000036434, -0.39096063980431317 
4.17000000000362, -0.3914570566397545 
4.180000000003597, -0.3921396639568404 
4.1900000000035735, -0.3930242450712759 
4.20000000000355, -0.394089551626549 
4.210000000003527, -0.3952665489600816 
4.220000000003504, -0.396445915583064 
4.23000000000348, -0.39750797765093787 
4.240000000003457, -0.39836038118143613 
4.250000000003434, -0.39895927258337543 
4.26000000000341, -0.3993042031543105 
4.270000000003387, -0.39941750758575834 
4.280000000003364, -0.39932334337336645 
4.2900000000033405, -0.3990330379662165 
4.300000000003317, -0.3985352471128127 
4.310000000003294, -0.3977864647401911 
4.320000000003271, -0.39669775455541495 
4.330000000003247, -0.3951160181960962 
4.340000000003224, -0.3928055974033723 
4.350000000003201, -0.3894551086045936 
4.360000000003177, -0.38476279206681857 
4.370000000003154, -0.37864229642703623 
4.380000000003131, -0.3714505556062381 
4.390000000003107, -0.36396803286238094 
4.400000000003084, -0.3570368766922444 
4.410000000003061, -0.35118429551412483 
4.4200000000030375, -0.34654033928412076 
4.430000000003014, -0.34298093662576684 
4.440000000002991, -0.3402923529459518 
4.450000000002968, -0.33826703269607566 
4.460000000002944, -0.3367390919746757 
4.470000000002921, -0.3355891134103998 
4.480000000002898, -0.3347382787173955 
4.490000000002874, -0.33414116386300075 
4.500000000002851, -0.3337807335296561 
4.510000000002828, -0.33366676846513305 
4.520000000002804, -0.33383839718376024 
4.530000000002781, -0.33437164968089655 
4.540000000002758, -0.3353935466612956 
4.5500000000027345, -0.3371046949809446 
4.560000000002711, -0.3398113467329324 
4.570000000002688, -0.3439614095872923 
4.580000000002665, -0.3501571370915829 
4.590000000002641, -0.35906540382541746 
4.600000000002618, -0.3710805330862865 
4.610000000002595, -0.3856819979716512 
4.620000000002571, -0.40097251218925767 
4.630000000002548, -0.4143791582797937 
4.640000000002525, -0.4242879177192286 
4.6500000000025015, -0.43073525376492067 
4.660000000002478, -0.43465570092055 
4.670000000002455, -0.43699803512824714 
4.6800000000024315, -0.43840839537314735 
4.690000000002408, -0.4392624908359214 
4.700000000002385, -0.43976706634825885 
4.710000000002362, -0.4400344495292239 
4.720000000002338, -0.44012451289192994 
4.730000000002315, -0.4400664432771563 
4.740000000002292, -0.43987039430548514 
4.750000000002268, -0.43953524123935683 
4.760000000002245, -0.4390562962632017 
4.770000000002222, -0.4384349105722502 
4.7800000000021985, -0.4376888754581064 
4.790000000002175, -0.4368586721176233 
4.800000000002152, -0.4360035207893957 
4.810000000002129, -0.43518651802934327 
4.820000000002105, -0.43445637274999543 
4.830000000002082, -0.4338355318391586 
4.840000000002059, -0.43331901633028735 
4.850000000002035, -0.4328819023136797 
4.860000000002012, -0.43249068980104594 
4.870000000001989, -0.4321138816584159 
