t, s[1].omega / s[0].omega 
0, -0.5499977453443605 
0.009999999999999995, -0.5498083805034045 
0.019999999999999934, -0.5496772032998083 
0.029999999999999874, -0.5495697413784794 
0.04000000000000012, -0.5494433995882883 
0.050000000000000405, -0.5492618327814149 
0.06000000000000069, -0.5490039756320366 
0.07000000000000098, -0.5486655227231686 
0.08000000000000126, -0.5482559909690974 
0.09000000000000155, -0.5477963900492827 
0.10000000000000184, -0.5473213666053801 
0.11000000000000212, -0.5468884380609504 
0.12000000000000241, -0.5465973347999624 
0.130000000000002, -0.5466245925304934 
0.1400000000000009, -0.547281718437755 
0.1499999999999998, -0.5491076124627838 
0.1599999999999987, -0.5530005520399991 
0.1699999999999976, -0.5603600449538144 
0.1799999999999965, -0.5730940417517549 
0.1899999999999954, -0.593114069289324 
0.1999999999999943, -0.6208561032364426 
0.2099999999999932, -0.6534049759325844 
0.2199999999999921, -0.6848685846299155 
0.229999999999991, -0.7101375369610201 
0.2399999999999899, -0.7277818708572741 
0.2499999999999888, -0.73913699986325 
0.2599999999999877, -0.7461795252349509 
0.2699999999999866, -0.750483065732533 
0.2799999999999855, -0.7530835080859397 
0.2899999999999844, -0.7546169951709116 
0.2999999999999833, -0.7554617043986366 
0.3099999999999822, -0.7558334003499348 
0.3199999999999811, -0.7558413110536242 
0.32999999999998, -0.7555159007743364 
0.3399999999999789, -0.7548158856852587 
0.3499999999999778, -0.7536181648506737 
0.35999999999997667, -0.7516946448125525 
0.36999999999997557, -0.7486896368611424 
0.37999999999997447, -0.7441372517209304 
0.38999999999997337, -0.7375882287942559 
0.39999999999997227, -0.7288808975740547 
0.40999999999997117, -0.7184151112598166 
0.41999999999997006, -0.7071359053081838 
0.42999999999996896, -0.6961533145259051 
0.43999999999996786, -0.686319353060947 
0.44999999999996676, -0.6780642191910502 
0.45999999999996566, -0.6714706439918581 
0.46999999999996456, -0.6664189324665214 
0.47999999999996346, -0.6627001194033831 
0.48999999999996235, -0.6600799394665928 
0.49999999999996125, -0.6583297461873928 
0.5099999999999602, -0.6572411957943188 
0.519999999999959, -0.6566338354244114 
0.529999999999958, -0.6563587415748355 
0.5399999999999568, -0.6562988130192167 
0.5499999999999557, -0.6563661729913829 
0.5599999999999546, -0.6564978373018514 
0.5699999999999535, -0.656651270140671 
0.5799999999999524, -0.6568011995973325 
0.5899999999999513, -0.6569379850571966 
0.5999999999999502, -0.6570661463978382 
0.6099999999999491, -0.6572003849844475 
0.619999999999948, -0.657357186061639 
0.6299999999999469, -0.6575433845891929 
0.6399999999999458, -0.6577467643925964 
0.6499999999999447, -0.6579346405184483 
0.6599999999999436, -0.6580628366239158 
0.6699999999999425, -0.6580908917994089 
0.6799999999999414, -0.6579948039745087 
0.6899999999999403, -0.6577711807381591 
0.6999999999999392, -0.657434062925851 
0.7099999999999381, -0.6570104911315024 
0.719999999999937, -0.6565403375030616 
0.7299999999999359, -0.6560833108606073 
0.7399999999999348, -0.6557345103275464 
0.7499999999999337, -0.6556496351304175 
0.7599999999999326, -0.6560805905346306 
0.7699999999999315, -0.6574202684839142 
0.7799999999999304, -0.6602501096009329 
0.7899999999999293, -0.6653727897147168 
0.7999999999999282, -0.6737893357031498 
0.8099999999999271, -0.6865399890910904 
0.819999999999926, -0.7042926478139108 
0.8299999999999249, -0.7266456858180675 
0.8399999999999238, -0.751508048988713 
0.8499999999999227, -0.7754230420209826 
0.8599999999999216, -0.7951886239423338 
0.8699999999999205, -0.8094408038168895 
0.8799999999999194, -0.8186970268838278 
0.8899999999999183, -0.8243027980932716 
0.8999999999999172, -0.8275438669442907 
0.9099999999999161, -0.8293332096865222 
0.919999999999915, -0.8302326322838113 
0.9299999999999139, -0.8305579998747602 
0.9399999999999128, -0.8304662943410204 
0.9499999999999117, -0.8300057482510491 
0.9599999999999106, -0.8291332880751636 
0.9699999999999095, -0.8277030690712348 
0.9799999999999084, -0.8254234969510483 
0.9899999999999073, -0.8217741698772096 
0.9999999999999062, -0.8158766457732813 
1.0099999999999052, -0.8063493427574988 
1.019999999999904, -0.7913087893396555 
1.029999999999903, -0.7689447202927446 
1.039999999999902, -0.7391147190295894 
1.0499999999999008, -0.7050942597352317 
1.0599999999998997, -0.6727999912543783 
1.0699999999998986, -0.6471420037401769 
1.0799999999998975, -0.6295694851911537 
1.0899999999998964, -0.6188367142938992 
1.0999999999998953, -0.6128525641158012 
1.1099999999998942, -0.6097900254935931 
1.119999999999893, -0.6083797461805464 
1.129999999999892, -0.6078368625555913 
1.1399999999998909, -0.6077087341882657 
1.1499999999998898, -0.6077459327498599 
1.1599999999998887, -0.607814342871998 
1.1699999999998876, -0.6078408822145328 
1.1799999999998865, -0.607782059999967 
1.1899999999998854, -0.6076073857949494 
1.1999999999998843, -0.6072931246776193 
1.2099999999998832, -0.6068241482580918 
1.219999999999882, -0.6062013967903528 
1.229999999999881, -0.6054495368692191 
1.2399999999998799, -0.6046169319188094 
1.2499999999998788, -0.6037635632625972 
1.2599999999998777, -0.6029418962528873 
1.2699999999998766, -0.602181725686926 
1.2799999999998755, -0.6014865169093149 
1.2899999999998744, -0.6008407061372193 
1.2999999999998733, -0.6002222070989934 
1.3099999999998722, -0.5996138658993583 
1.319999999999871, -0.5990104087500716 
1.32999999999987, -0.5984212362505588 
1.3399999999998689, -0.5978717653998281 
1.3499999999998678, -0.5974060456169933 
1.3599999999998666, -0.5970921602912134 
1.3699999999998655, -0.5970307849707787 
1.3799999999998644, -0.5973666592717566 
1.3899999999998633, -0.5983024699277527 
1.3999999999998622, -0.6001143266697173 
1.4099999999998611, -0.6031668126263836 
1.41999999999986, -0.6079215853963239 
1.429999999999859, -0.6149230354278646 
1.4399999999998578, -0.6247236219114419 
1.4499999999998567, -0.63768658868678 
1.4599999999998556, -0.6536227014656466 
1.4699999999998545, -0.6713896959345599 
1.4799999999998534, -0.6889012998661345 
1.4899999999998523, -0.7039369217973366 
1.4999999999998512, -0.7152449001836714 
1.5099999999998501, -0.7228792132950127 
1.519999999999849, -0.727654056782341 
1.529999999999848, -0.7304857359039032 
1.5399999999998468, -0.732078877858552 
1.5499999999998457, -0.7328880857929022 
1.5599999999998446, -0.7331760394576595 
1.5699999999998435, -0.7330738025483289 
1.5799999999998424, -0.7326172486084377 
1.5899999999998413, -0.7317573780376001 
1.5999999999998402, -0.730344274105901 
1.6099999999998391, -0.7280797351135272 
1.619999999999838, -0.7244309746232284 
1.629999999999837, -0.7185139438595376 
1.6399999999998358, -0.7090315999997039 
1.6499999999998347, -0.6945279821205335 
1.6599999999998336, -0.6742999612573312 
1.6699999999998325, -0.6496518747709987 
1.6799999999998314, -0.6239819539076483 
1.6899999999998303, -0.6009591279229758 
1.6999999999998292, -0.5826486002059086 
1.709999999999828, -0.5692789244820584 
1.719999999999827, -0.5600625141992991 
1.729999999999826, -0.5539598523401237 
1.7399999999998248, -0.5500492892268072 
1.7499999999998237, -0.5476256781344888 
1.7599999999998226, -0.5461854985761951 
1.7699999999998215, -0.5453821246941352 
1.7799999999998204, -0.5449822877564385 
1.7899999999998193, -0.5448316675396028 
1.7999999999998182, -0.544829809837578 
1.809999999999817, -0.5449127732144109 
1.819999999999816, -0.5450419354301747 
1.8299999999998149, -0.545197681635528 
1.8399999999998138, -0.5453766092897882 
1.8499999999998127, -0.5455901921946669 
1.8599999999998116, -0.5458619665380489 
1.8699999999998105, -0.5462204166711864 
1.8799999999998094, -0.5466868132688895 
1.8899999999998083, -0.5472607513462405 
1.8999999999998072, -0.5479094809674925 
1.909999999999806, -0.5485685274132885 
1.919999999999805, -0.5491575010420047 
1.9299999999998039, -0.5496050040533286 
1.9399999999998028, -0.5498680241809865 
1.9499999999998017, -0.5499352996882283 
1.9599999999998006, -0.5498171747023296 
1.9699999999997995, -0.5495319248521501 
1.9799999999997984, -0.5490960296448419 
1.9899999999997973, -0.5485204688153869 
1.9999999999997962, -0.5478125096866427 
2.0099999999998173, -0.5469828286285086 
2.0199999999998384, -0.5460591529370477 
2.0299999999998595, -0.545107027237582 
2.0399999999998806, -0.5442486568039075 
2.0499999999999017, -0.5436328524244868 
2.059999999999923, -0.5432129447896304 
2.069999999999944, -0.5420938058837051 
2.079999999999965, -0.5376220163440285 
2.089999999999986, -0.5260265695091603 
2.100000000000007, -0.5064402848224362 
2.1100000000000283, -0.4836355706781865 
2.1200000000000494, -0.46382700913509317 
2.1300000000000705, -0.44975829358874425 
2.1400000000000916, -0.44091566683959893 
2.1500000000001127, -0.43573168435530835 
2.160000000000134, -0.4328189010180952 
2.170000000000155, -0.43123788897109866 
2.180000000000176, -0.4304157493970452 
2.190000000000197, -0.43001807299515277 
2.2000000000002182, -0.42985303853891155 
2.2100000000002393, -0.42981136590962443 
2.2200000000002604, -0.4298313605071697 
2.2300000000002815, -0.42987962949366115 
2.2400000000003026, -0.4299414684292998 
2.2500000000003237, -0.43001727929461486 
2.260000000000345, -0.43012227880194365 
2.270000000000366, -0.4302865474252586 
2.280000000000387, -0.4305521603120496 
2.290000000000408, -0.4309649551592279 
2.3000000000004293, -0.4315606110661931 
2.3100000000004504, -0.4323472567322571 
2.3200000000004715, -0.43328995522922253 
2.3300000000004926, -0.43430650155789674 
2.3400000000005137, -0.43528390828321084 
2.3500000000005348, -0.4361128060220901 
2.360000000000556, -0.43671982716845753 
2.370000000000577, -0.4370778441747064 
2.380000000000598, -0.43719318553542125 
2.390000000000619, -0.4370838194595642 
2.4000000000006403, -0.43676024864322055 
2.4100000000006614, -0.43621125238494135 
2.4200000000006825, -0.4353898730045563 
2.4300000000007036, -0.43419164796798393 
2.4400000000007247, -0.4324134758689066 
2.450000000000746, -0.42967657037557655 
2.460000000000767, -0.4253011063991846 
2.470000000000788, -0.41817997662831824 
2.480000000000809, -0.40690737454555653 
2.49000000000083, -0.39065751667719606 
2.5000000000008513, -0.37064773308731847 
2.5100000000008724, -0.3502438253607088 
2.5200000000008935, -0.33272352040851016 
2.5300000000009146, -0.31941337755486 
2.5400000000009357, -0.30997264453553003 
2.550000000000957, -0.30346287589049525 
2.560000000000978, -0.2989937852970568 
2.570000000000999, -0.2959064934751397 
2.58000000000102, -0.29375905112632444 
2.5900000000010412, -0.29226841034269535 
2.6000000000010624, -0.2912596755107276 
2.6100000000010835, -0.29063163212751203 
2.6200000000011046, -0.29033637768045134 
2.6300000000011257, -0.2903697814037508 
2.6400000000011468, -0.29077091175337033 
2.650000000001168, -0.2916304600414544 
2.660000000001189, -0.29311025204847707 
2.67000000000121, -0.295478098278664 
2.680000000001231, -0.2991633610617188 
2.6900000000012523, -0.3048332970723884 
2.7000000000012734, -0.3134602502946923 
2.7100000000012945, -0.32625296695529665 
2.7200000000013156, -0.34414069075467146 
2.7300000000013367, -0.3665278995495565 
2.740000000001358, -0.3901755357281376 
2.750000000001379, -0.4105135583626053 
2.7600000000014, -0.42494745396461475 
2.770000000001421, -0.4339084941688613 
2.780000000001442, -0.43913230415552135 
2.7900000000014633, -0.44214472030622465 
2.8000000000014844, -0.4439001180481326 
2.8100000000015055, -0.44492419870715694 
2.8200000000015266, -0.44549553601009084 
2.8300000000015477, -0.44575969032745827 
2.840000000001569, -0.4457890134199629 
2.85000000000159, -0.4456126347310051 
2.860000000001611, -0.44523275867919015 
2.870000000001632, -0.4446370385836428 
2.8800000000016532, -0.4438132387401069 
2.8900000000016743, -0.4427681601353637 
2.9000000000016954, -0.4415452388048779 
2.9100000000017165, -0.4402281706892097 
2.9200000000017377, -0.43892214528074647 
2.9300000000017588, -0.437721407472156 
2.94000000000178, -0.43668334191503666 
2.950000000001801, -0.43582132335120705 
2.960000000001822, -0.43511355874194757 
2.970000000001843, -0.4345189624128749 
2.9800000000018643, -0.43399291143353524 
2.9900000000018854, -0.433498743187221 
3.0000000000019065, -0.4330134384043496 
3.0100000000019276, -0.4325286299433958 
3.0200000000019487, -0.4320499469337481 
3.03000000000197, -0.43159796022944086 
3.040000000001991, -0.4312134872606236 
3.050000000002012, -0.43097010603271785 
3.060000000002033, -0.4309981563333866 
3.070000000002054, -0.43152726972703814 
3.0800000000020753, -0.4329571791531002 
3.0900000000020964, -0.4359622655282377 
3.1000000000021175, -0.44159812450393277 
3.1100000000021386, -0.4512398395364893 
3.1200000000021597, -0.465878269379911 
3.130000000002181, -0.484268852551409 
3.140000000002202, -0.5013358747958055 
3.150000000002223, -0.5110527462658763 
3.160000000002244, -0.5124537766263425 
3.1700000000022652, -0.5095790786244164 
3.1800000000022863, -0.5063110244694995 
3.1900000000023074, -0.5041422253965521 
3.2000000000023285, -0.5030777203149086 
3.2100000000023496, -0.5027232525316505 
3.2200000000023707, -0.5027320484016973 
3.230000000002392, -0.5028848553062794 
3.240000000002413, -0.5030608946548552 
3.250000000002434, -0.5031978518170421 
3.260000000002455, -0.50326336551208 
3.2700000000024763, -0.5032383005719431 
3.2800000000024974, -0.5031085585743409 
3.2900000000025185, -0.5028632168691688 
3.3000000000025396, -0.5024978797930731 
3.3100000000025607, -0.5020215941917459 
3.3200000000025818, -0.5014632385924538 
3.330000000002603, -0.5008712431790812 
3.340000000002624, -0.500302987837022 
3.350000000002645, -0.4998074455109293 
3.360000000002666, -0.49940990463268803 
3.3700000000026873, -0.4991058483594866 
3.3800000000027084, -0.49886554993670584 
3.3900000000027295, -0.498646462863523 
3.4000000000027506, -0.49840775492081296 
3.4100000000027717, -0.49812085642889875 
3.420000000002793, -0.4977729950123462 
3.430000000002814, -0.4973654629302854 
3.440000000002835, -0.496910939321737 
3.450000000002856, -0.496433758450659 
3.460000000002877, -0.49597582752665204 
3.4700000000028983, -0.4956109503776072 
3.4800000000029194, -0.4954721244977395 
3.4900000000029405, -0.4957995626706377 
3.5000000000029616, -0.49701995112410746 
3.5100000000029827, -0.49986217986973946 
3.520000000003004, -0.5054753619178246 
3.530000000003025, -0.5153792888546114 
3.540000000003046, -0.530809743407287 
3.550000000003067, -0.5510502781248724 
3.5600000000030882, -0.5719847707485213 
3.5700000000031094, -0.5882041354869294 
3.5800000000031305, -0.5976943340280808 
3.5900000000031516, -0.602428846861969 
3.6000000000031727, -0.6050216877664758 
3.6100000000031938, -0.606855860173653 
3.620000000003215, -0.608346971502122 
3.630000000003236, -0.609556353473855 
3.640000000003257, -0.6104858709555401 
3.650000000003278, -0.6111504483893382 
3.6600000000032993, -0.6115765202088326 
3.6700000000033204, -0.61178885740585 
3.6800000000033415, -0.611800936528455 
3.6900000000033626, -0.6116096003297631 
3.7000000000033837, -0.6111929965976017 
3.710000000003405, -0.6105127163000782 
3.720000000003426, -0.6095235070629172 
3.730000000003447, -0.6081939234624281 
3.740000000003468, -0.6065345311238491 
3.750000000003489, -0.604617555012837 
3.7600000000035103, -0.6025677682439625 
3.7700000000035314, -0.6005238057780626 
3.7800000000035525, -0.5985953886756697 
3.7900000000035736, -0.596842571302063 
3.8000000000035947, -0.5952808053235301 
3.810000000003616, -0.5938991695819178 
3.820000000003637, -0.592678906584368 
3.830000000003658, -0.5916061986965326 
3.840000000003679, -0.5906786960636565 
3.8500000000037002, -0.5899077973724636 
3.8600000000037213, -0.589318894605006 
3.8700000000037424, -0.588950997517278 
3.8800000000037635, -0.5888563664300354 
3.8900000000037847, -0.5891004368114257 
3.9000000000038058, -0.589762343054401 
3.910000000003827, -0.5909364231197818 
3.920000000003848, -0.5927348150446172 
3.930000000003869, -0.5952901806181929 
3.94000000000389, -0.5987551025569762 
3.9500000000039113, -0.6032901048799766 
3.9600000000039324, -0.6090258272719454 
3.9700000000039535, -0.6159819573015856 
3.9800000000039746, -0.6239437475971037 
3.9900000000039957, -0.6323601357683061 
4.000000000004016, -0.6404032491181745 
4.010000000003993, -0.647264115771008 
4.02000000000397, -0.6524972902690377 
4.030000000003946, -0.6561173476052141 
4.040000000003923, -0.6584241917683868 
4.0500000000039, -0.6597777846754653 
4.0600000000038765, -0.6604714100600364 
4.070000000003853, -0.6606997572388327 
4.08000000000383, -0.6605684355565465 
4.090000000003807, -0.660108233351062 
4.100000000003783, -0.6592783399656125 
4.11000000000376, -0.657951122834621 
4.120000000003737, -0.655870430704825 
4.130000000003713, -0.6525723420195414 
4.14000000000369, -0.6472655130918147 
4.150000000003667, -0.6387274959317251 
4.1600000000036434, -0.6254474957401225 
4.17000000000362, -0.6064298090875507 
4.180000000003597, -0.5825844362464427 
4.1900000000035735, -0.557183971338271 
4.20000000000355, -0.5341065244738581 
4.210000000003527, -0.5156422045565304 
4.220000000003504, -0.5020886333468499 
4.23000000000348, -0.4926437664321911 
4.240000000003457, -0.4862570104816176 
4.250000000003434, -0.482021038410908 
4.26000000000341, -0.47926006592609366 
4.270000000003387, -0.4775017370099719 
4.280000000003364, -0.4764249585009668 
4.2900000000033405, -0.47581430341899916 
4.300000000003317, -0.47552671244480826 
4.310000000003294, -0.4754688756239346 
4.320000000003271, -0.4755825371543554 
4.330000000003247, -0.47583548765574124 
4.340000000003224, -0.4762166385053154 
4.350000000003201, -0.476733794224997 
4.360000000003177, -0.47741239259612145 
4.370000000003154, -0.4782927035680246 
4.380000000003131, -0.47942224837659025 
4.390000000003107, -0.4808402392516168 
4.400000000003084, -0.4825528460867682 
4.410000000003061, -0.4845045017917677 
4.4200000000030375, -0.4865621789399964 
4.430000000003014, -0.48853598399013365 
4.440000000002991, -0.49023946750482744 
4.450000000002968, -0.4915533141361107 
4.460000000002944, -0.4924473438994544 
4.470000000002921, -0.4929557408889442 
4.480000000002898, -0.49313569533362517 
4.490000000002874, -0.4930352680791791 
4.500000000002851, -0.4926753074192073 
4.510000000002828, -0.49203805943233087 
4.520000000002804, -0.4910527046624556 
4.530000000002781, -0.489567802365765 
4.540000000002758, -0.4872988363568488 
4.5500000000027345, -0.4837401331438711 
4.560000000002711, -0.47805765720740545 
4.570000000002688, -0.46908994746888616 
4.580000000002665, -0.4557872102308613 
4.590000000002641, -0.4382957306748379 
4.600000000002618, -0.41876813342632885 
4.610000000002595, -0.40036637898399896 
4.620000000002571, -0.38526838882382586 
4.630000000002548, -0.37396004928372995 
4.640000000002525, -0.3658899651432713 
4.6500000000025015, -0.3602405889028907 
4.660000000002478, -0.35629981410055317 
4.670000000002455, -0.3535462304010094 
4.6800000000024315, -0.3516255226665409 
4.690000000002408, -0.350305976522482 
4.700000000002385, -0.3494410294909881 
4.710000000002362, -0.3489435562710472 
4.720000000002338, -0.34877026109119136 
4.730000000002315, -0.34891389827044617 
4.740000000002292, -0.34940185461694273 
4.750000000002268, -0.35030063660068284 
4.760000000002245, -0.3517266302783733 
4.770000000002222, -0.35386374324906333 
4.7800000000021985, -0.35698698528031364 
4.790000000002175, -0.3614842379582074 
4.800000000002152, -0.36784877724501475 
4.810000000002129, -0.3765746330013923 
4.820000000002105, -0.3878522209129862 
4.830000000002082, -0.4010765231090555 
4.840000000002059, -0.4146059159586084 
4.850000000002035, -0.4264181980175704 
4.860000000002012, -0.4352966966982155 
4.870000000001989, -0.44125042600465114 
4.880000000001965, -0.44496980888033655 
4.890000000001942, -0.4472024101948686 
4.900000000001919, -0.4484970809202905 
