t, s[1].omega / s[0].omega 
0, -0.5699977369973956 
0.009999999999999995, -0.5697823987106592 
0.019999999999999934, -0.5695818658680664 
0.029999999999999874, -0.5693785396765867 
0.04000000000000012, -0.569151372891953 
0.050000000000000405, -0.5688833535366231 
0.06000000000000069, -0.5685658594921633 
0.07000000000000098, -0.5681992597266836 
0.08000000000000126, -0.5677915902489755 
0.09000000000000155, -0.5673577350641541 
0.10000000000000184, -0.5669208466857626 
0.11000000000000212, -0.5665170073719478 
0.12000000000000241, -0.5662039314937832 
0.130000000000002, -0.5660746356739849 
0.1400000000000009, -0.5662768086881439 
0.1499999999999998, -0.5670369087210149 
0.1599999999999987, -0.5686824654583229 
0.1699999999999976, -0.5716428522561705 
0.1799999999999965, -0.5763860248978728 
0.1899999999999954, -0.583232503690033 
0.1999999999999943, -0.5920415907701424 
0.2099999999999932, -0.6019627500502983 
0.2199999999999921, -0.6116229112211167 
0.229999999999991, -0.6197993536561046 
0.2399999999999899, -0.6259778010390843 
0.2499999999999888, -0.6303091655590317 
0.2599999999999877, -0.6332251924113977 
0.2699999999999866, -0.6351482013353913 
0.2799999999999855, -0.6363937377299693 
0.2899999999999844, -0.6371740572289175 
0.2999999999999833, -0.6376255487129641 
0.3099999999999822, -0.6378322885366668 
0.3199999999999811, -0.6378413053225985 
0.32999999999998, -0.6376711374585011 
0.3399999999999789, -0.6373158205575333 
0.3499999999999778, -0.6367464088204974 
0.35999999999997667, -0.6359129288602934 
0.36999999999997557, -0.6347513903856415 
0.37999999999997447, -0.6332015114413201 
0.38999999999997337, -0.6312368491300224 
0.39999999999997227, -0.6288966404496812 
0.40999999999997117, -0.6262961386297488 
0.41999999999997006, -0.6235998356207753 
0.42999999999996896, -0.6209714623832946 
0.43999999999996786, -0.6185332335835306 
0.44999999999996676, -0.6163532229978339 
0.45999999999996566, -0.6144554680980991 
0.46999999999996456, -0.612837792823357 
0.47999999999996346, -0.6114868799665947 
0.48999999999996235, -0.6103873588631629 
0.49999999999996125, -0.6095257976423578 
0.5099999999999602, -0.6088916070193137 
0.519999999999959, -0.6084765836063877 
0.529999999999958, -0.6082742217261077 
0.5399999999999568, -0.6082794024432724 
0.5499999999999557, -0.6084886805053178 
0.5599999999999546, -0.6089010891163793 
0.5699999999999535, -0.6095191102135816 
0.5799999999999524, -0.610349142242707 
0.5899999999999513, -0.6114003754766599 
0.5999999999999502, -0.6126805323060873 
0.6099999999999491, -0.6141869106573525 
0.619999999999948, -0.6158926294919121 
0.6299999999999469, -0.6177320876309921 
0.6399999999999458, -0.6195955552625979 
0.6499999999999447, -0.6213444545463559 
0.6599999999999436, -0.6228478399902351 
0.6699999999999425, -0.6240210516394351 
0.6799999999999414, -0.6248417440688827 
0.6899999999999403, -0.6253371070081681 
0.6999999999999392, -0.6255572824428682 
0.7099999999999381, -0.6255522268525234 
0.719999999999937, -0.62535857650154 
0.7299999999999359, -0.6249943682792146 
0.7399999999999348, -0.6244571384285489 
0.7499999999999337, -0.6237218655603629 
0.7599999999999326, -0.62273639191419 
0.7699999999999315, -0.6214122413653056 
0.7799999999999304, -0.6196082504374495 
0.7899999999999293, -0.6171047501870464 
0.7999999999999282, -0.6135736517201732 
0.8099999999999271, -0.608580279102996 
0.819999999999926, -0.6017112234143356 
0.8299999999999249, -0.5929151168072437 
0.8399999999999238, -0.582874992115202 
0.8499999999999227, -0.5729129776501753 
0.8599999999999216, -0.5643178446753196 
0.8699999999999205, -0.5577453918741875 
0.8799999999999194, -0.553177616738985 
0.8899999999999183, -0.5502298834589886 
0.8999999999999172, -0.5484402734231908 
0.9099999999999161, -0.5474146923066694 
0.919999999999915, -0.5468641145203804 
0.9299999999999139, -0.5465933370684039 
0.9399999999999128, -0.5464767867379653 
0.9499999999999117, -0.5464358976109923 
0.9599999999999106, -0.5464220094323708 
0.9699999999999095, -0.5464047959702383 
0.9799999999999084, -0.5463652557957057 
0.9899999999999073, -0.5462923215484146 
0.9999999999999062, -0.5461822097426325 
1.0099999999999052, -0.5460392750820329 
1.019999999999904, -0.5458764119156331 
1.029999999999903, -0.5457127787504807 
1.039999999999902, -0.5455678756690561 
1.0499999999999008, -0.5454536279148411 
1.0599999999998997, -0.5453682398274352 
1.0699999999998986, -0.5452953390492876 
1.0799999999998975, -0.5452092615925452 
1.0899999999998964, -0.5450838120098479 
1.0999999999998953, -0.5448999075473132 
1.1099999999998942, -0.5446488425206945 
1.119999999999893, -0.5443312809076006 
1.129999999999892, -0.5439544934899706 
1.1399999999998909, -0.5435304740862579 
1.1499999999998898, -0.5430765099902557 
1.1599999999998887, -0.5426190021223929 
1.1699999999998876, -0.5422012734072983 
1.1799999999998865, -0.5418963869566322 
1.1899999999998854, -0.5418257398100847 
1.1999999999998843, -0.5421816465898729 
1.2099999999998832, -0.5432437385410477 
1.219999999999882, -0.5453600319250158 
1.229999999999881, -0.5488378826843688 
1.2399999999998799, -0.5537018677537648 
1.2499999999998788, -0.5594242774547816 
1.2599999999998777, -0.5649806413113357 
1.2699999999998766, -0.5694331230061281 
1.2799999999998755, -0.5725049609960854 
1.2899999999998744, -0.5745031950322722 
1.2999999999998733, -0.5758580296356541 
1.3099999999998722, -0.5768523035911578 
1.319999999999871, -0.5776156252681462 
1.32999999999987, -0.5781986367685052 
1.3399999999998689, -0.5786246429967381 
1.3499999999998678, -0.5789097385480437 
1.3599999999998666, -0.5790668012339636 
1.3699999999998655, -0.5791042676232508 
1.3799999999998644, -0.57902418913012 
1.3899999999998633, -0.5788210028165925 
1.3999999999998622, -0.5784817502808302 
1.4099999999998611, -0.577988777270414 
1.41999999999986, -0.577326114161594 
1.429999999999859, -0.576489493867218 
1.4399999999998578, -0.57549659997176 
1.4499999999998567, -0.5743907567377029 
1.4599999999998556, -0.5732328809221406 
1.4699999999998545, -0.5720845321866779 
1.4799999999998534, -0.5709919221402733 
1.4899999999998523, -0.5699791109983419 
1.4999999999998512, -0.5690511214183333 
1.5099999999998501, -0.5682022862730295 
1.519999999999849, -0.5674247518836985 
1.529999999999848, -0.566714470977863 
1.5399999999998468, -0.5660745023152491 
1.5499999999998457, -0.5655167215499448 
1.5599999999998446, -0.565063164887343 
1.5699999999998435, -0.564747780488502 
1.5799999999998424, -0.5646188927432634 
1.5899999999998413, -0.5647423928125663 
1.5999999999998402, -0.5652054822206577 
1.6099999999998391, -0.5661204808921798 
1.619999999999838, -0.5676273778038461 
1.629999999999837, -0.569891862632416 
1.6399999999998358, -0.5730919207500815 
1.6499999999998347, -0.5773811995501325 
1.6599999999998336, -0.5828162052930974 
1.6699999999998325, -0.5892508968395813 
1.6799999999998314, -0.5962515921786594 
1.6899999999998303, -0.6031387202129951 
1.6999999999998292, -0.6092125031395421 
1.709999999999828, -0.6140320198910587 
1.719999999999827, -0.6175246024916544 
1.729999999999826, -0.6198799009426073 
1.7399999999998248, -0.621376036773753 
1.7499999999998237, -0.6222643939249498 
1.7599999999998226, -0.6227296733970966 
1.7699999999998215, -0.6228910441351924 
1.7799999999998204, -0.6228149456854104 
1.7899999999998193, -0.6225259868903762 
1.7999999999998182, -0.6220119300373871 
1.809999999999817, -0.6212224836142765 
1.819999999999816, -0.6200634807654358 
1.8299999999998149, -0.6183913597057807 
1.8399999999998138, -0.61602007704465 
1.8499999999998127, -0.6127614708956673 
1.8599999999998116, -0.608515085806256 
1.8699999999998105, -0.6033800707771781 
1.8799999999998094, -0.597699215769234 
1.8899999999998083, -0.5919623902313471 
1.8999999999998072, -0.586625377199726 
1.909999999999806, -0.5819793870908676 
1.919999999999805, -0.578132892264634 
1.9299999999998039, -0.5750650167938438 
1.9399999999998028, -0.5726894631856225 
1.9499999999998017, -0.5708993918422237 
1.9599999999998006, -0.5695909780447025 
1.9699999999997995, -0.568672887411471 
1.9799999999997984, -0.568068614977541 
1.9899999999997973, -0.5677159489633381 
1.9999999999997962, -0.5675656245914115 
2.0099999999998173, -0.5675799814746376 
2.0199999999998384, -0.5677318705151235 
2.0299999999998595, -0.5680038381174113 
2.0399999999998806, -0.5683874768737616 
2.0499999999999017, -0.5688825804617668 
2.059999999999923, -0.5694953081138354 
2.069999999999944, -0.5702341306828241 
2.079999999999965, -0.5711024314070189 
2.089999999999986, -0.5720880251412039 
2.100000000000007, -0.5731529046321391 
2.1100000000000283, -0.5742299528521728 
2.1200000000000494, -0.5752332043668927 
2.1300000000000705, -0.5760805967721694 
2.1400000000000916, -0.5767171538125302 
2.1500000000001127, -0.5771245716996074 
2.160000000000134, -0.5773141427366412 
2.170000000000155, -0.5773113972169646 
2.180000000000176, -0.5771420661240706 
2.190000000000197, -0.5768233250727707 
2.2000000000002182, -0.5763594265691332 
2.2100000000002393, -0.5757392141217148 
2.2200000000002604, -0.5749331602558799 
2.2300000000002815, -0.5738877255044732 
2.2400000000003026, -0.5725140649003237 
2.2500000000003237, -0.5706663486884681 
2.260000000000345, -0.5681049062044131 
2.270000000000366, -0.5644529521572991 
2.280000000000387, -0.5592075907151826 
2.290000000000408, -0.5519437563160096 
2.3000000000004293, -0.5427674682336141 
2.3100000000004504, -0.5326419115288028 
2.3200000000004715, -0.5230260275545295 
2.3300000000004926, -0.5150626218971353 
2.3400000000005137, -0.5091477872154425 
2.3500000000005348, -0.505091445249316 
2.360000000000556, -0.502465654800705 
2.370000000000577, -0.500840490992195 
2.380000000000598, -0.49987514028581714 
2.390000000000619, -0.4993279272829575 
2.4000000000006403, -0.4990374601591009 
2.4100000000006614, -0.4988996293255082 
2.4200000000006825, -0.49884869055745557 
2.4300000000007036, -0.49884381108622433 
2.4400000000007247, -0.4988603563446115 
2.450000000000746, -0.49888487133157106 
2.460000000000767, -0.4989127968609159 
2.470000000000788, -0.49894786868722524 
2.480000000000809, -0.4990017355040542 
2.49000000000083, -0.49909195334632905 
2.5000000000008513, -0.4992369177620527 
2.5100000000008724, -0.4994479343715706 
2.5200000000008935, -0.49972093693973346 
2.5300000000009146, -0.5000319993510504 
2.5400000000009357, -0.500340329814104 
2.550000000000957, -0.5005989455727479 
2.560000000000978, -0.5007680552776498 
2.570000000000999, -0.5008238880799958 
2.58000000000102, -0.5007592415638368 
2.5900000000010412, -0.5005778119495068 
2.6000000000010624, -0.500286890305243 
2.6100000000010835, -0.49989155627662474 
2.6200000000011046, -0.49939100582195917 
2.6300000000011257, -0.49877611303786534 
2.6400000000011468, -0.49802665655573897 
2.650000000001168, -0.4971058228188368 
2.660000000001189, -0.49594751083691513 
2.67000000000121, -0.49442800271437226 
2.680000000001231, -0.49231100622078694 
2.6900000000012523, -0.4891719578973099 
2.7000000000012734, -0.48438443459176217 
2.7100000000012945, -0.4773722677098412 
2.7200000000013156, -0.4682044417762149 
2.7300000000013367, -0.4579824590592243 
2.740000000001358, -0.4483191029099832 
2.750000000001379, -0.4403759346199438 
2.7600000000014, -0.4344808428911116 
2.770000000001421, -0.4303910055694121 
2.780000000001442, -0.4276716606770208 
2.7900000000014633, -0.4259137682613618 
2.8000000000014844, -0.42480359327872064 
2.8100000000015055, -0.42412202004062766 
2.8200000000015266, -0.42372328067957515 
2.8300000000015477, -0.4235132720319923 
2.840000000001569, -0.42343297575024197 
2.85000000000159, -0.4234472250863767 
2.860000000001611, -0.42353773584275645 
2.870000000001632, -0.4236992453730156 
2.8800000000016532, -0.4239377005156618 
2.8900000000016743, -0.4242693167766933 
2.9000000000016954, -0.4247189644767008 
2.9100000000017165, -0.4253159862601435 
2.9200000000017377, -0.4260857106253965 
2.9300000000017588, -0.4270362354862131 
2.94000000000178, -0.42814324819102445 
2.950000000001801, -0.42934059655252205 
2.960000000001822, -0.4305271015122501 
2.970000000001843, -0.4315931422713747 
2.9800000000018643, -0.43245428701602656 
2.9900000000018854, -0.4330708232119197 
3.0000000000019065, -0.43344399070531586 
3.0100000000019276, -0.43359778007566885 
3.0200000000019487, -0.4335599796560043 
3.03000000000197, -0.43334915447827155 
3.040000000001991, -0.4329669053344801 
3.050000000002012, -0.43239191808328076 
3.060000000002033, -0.43157249404520454 
3.070000000002054, -0.4304157036139329 
3.0800000000020753, -0.4287746832286799 
3.0900000000020964, -0.4264440545250565 
3.1000000000021175, -0.42318906816486007 
3.1100000000021386, -0.41884339445108437 
3.1200000000021597, -0.41346853206958245 
3.130000000002181, -0.4074563816500051 
3.140000000002202, -0.40142191352543366 
3.150000000002223, -0.39593160088915813 
3.160000000002244, -0.3913026707055071 
3.1700000000022652, -0.38759445751084665 
3.1800000000022863, -0.3847107550940742 
3.1900000000023074, -0.38250114581308403 
3.2000000000023285, -0.38081970189495007 
3.2100000000023496, -0.3795479804616962 
3.2200000000023707, -0.37859912732456175 
3.230000000002392, -0.3779148198718669 
3.240000000002413, -0.37746091316982927 
3.250000000002434, -0.37722420099005904 
3.260000000002455, -0.3772111507303605 
3.2700000000024763, -0.37744892746745784 
3.2800000000024974, -0.3779888879694858 
3.2900000000025185, -0.3789125834508378 
3.3000000000025396, -0.380339668735339 
3.3100000000025607, -0.3824350799353648 
3.3200000000025818, -0.3854078163900736 
3.330000000002603, -0.3894840270769318 
3.340000000002624, -0.39482625712585573 
3.350000000002645, -0.4013807725971373 
3.360000000002666, -0.40871084374361377 
3.3700000000026873, -0.41600017689329033 
3.3800000000027084, -0.42236992685420793 
3.3900000000027295, -0.42730106651863425 
3.4000000000027506, -0.43076943572616777 
3.4100000000027717, -0.43305468971194017 
3.420000000002793, -0.4344974105957172 
3.430000000002814, -0.4353736427156676 
3.440000000002835, -0.4358712436723814 
3.450000000002856, -0.43610660839310517 
3.460000000002877, -0.4361464572545192 
3.4700000000028983, -0.4360240552777416 
3.4800000000029194, -0.4357496145867654 
3.4900000000029405, -0.43531748612317767 
3.5000000000029616, -0.4347132794096198 
3.5100000000029827, -0.43392370991293827 
3.520000000003004, -0.4329499309599158 
3.530000000003025, -0.4318204419752223 
3.540000000003046, -0.4305949780573952 
3.550000000003067, -0.42935286561211683 
3.5600000000030882, -0.4281702021761036 
3.5700000000031094, -0.42709934880216477 
3.5800000000031305, -0.4261610955182304 
3.5900000000031516, -0.42534947943962303 
3.6000000000031727, -0.4246428565150816 
3.6100000000031938, -0.4240150397336776 
3.620000000003215, -0.4234432184107746 
3.630000000003236, -0.4229120550400743 
3.640000000003257, -0.42241505720600314 
3.650000000003278, -0.42195497654084085 
3.6600000000032993, -0.4215448582560465 
3.6700000000033204, -0.42121098744253854 
3.6800000000033415, -0.42099878268776914 
3.6900000000033626, -0.420982735231334 
3.7000000000033837, -0.4212813846868855 
3.710000000003405, -0.42207685731259376 
3.720000000003426, -0.4236326525133606 
3.730000000003447, -0.426287134573033 
3.740000000003468, -0.430368583008375 
3.750000000003489, -0.43595498357040185 
3.7600000000035103, -0.44250375495450844 
3.7700000000035314, -0.44872667824908297 
3.7800000000035525, -0.45323711893472884 
3.7900000000035736, -0.4555640222858301 
3.8000000000035947, -0.4562893868853946 
3.810000000003616, -0.45628394370333736 
3.820000000003637, -0.45611896018929493 
3.830000000003658, -0.45601531564708564 
3.840000000003679, -0.4560037239588672 
3.8500000000037002, -0.45605184046128394 
3.8600000000037213, -0.4561210590153003 
3.8700000000037424, -0.45618259333860706 
3.8800000000037635, -0.4562179725329523 
3.8900000000037847, -0.45621571246638437 
3.9000000000038058, -0.4561683349651564 
3.910000000003827, -0.4560709389994904 
3.920000000003848, -0.45592160071114557 
3.930000000003869, -0.4557234273796008 
3.94000000000389, -0.4554873487646158 
3.9500000000039113, -0.45523369524492774 
3.9600000000039324, -0.45499021302491993 
3.9700000000039535, -0.4547855503194305 
3.9800000000039746, -0.45464007005096063 
3.9900000000039957, -0.45455797387822416 
4.000000000004016, -0.45452455345861675 
4.010000000003993, -0.45451021316649054 
4.02000000000397, -0.45447971518524943 
4.030000000003946, -0.45440225178195914 
4.040000000003923, -0.4542576373170175 
4.0500000000039, -0.4540368106740523 
4.0600000000038765, -0.45373834189404416 
4.070000000003853, -0.45336388516653925 
4.08000000000383, -0.45291452491006157 
4.090000000003807, -0.45238842635076787 
4.100000000003783, -0.4517791249645241 
4.11000000000376, -0.4510729192557452 
4.120000000003737, -0.45024218109869263 
4.130000000003713, -0.4492276209291141 
4.14000000000369, -0.4478961861399508 
4.150000000003667, -0.445959554953817 
4.1600000000036434, -0.44287412570477774 
4.17000000000362, -0.437872101561888 
4.180000000003597, -0.43039584909471407 
4.1900000000035735, -0.42083646977133365 
4.20000000000355, -0.41067344414474327 
4.210000000003527, -0.40155548739595204 
4.220000000003504, -0.3943742708264123 
4.23000000000348, -0.3891892805094157 
4.240000000003457, -0.385636461019558 
4.250000000003434, -0.3832738497523632 
4.26000000000341, -0.3817319077109277 
4.270000000003387, -0.3807430624941823 
4.280000000003364, -0.3801264526953339 
4.2900000000033405, -0.37976448258955725 
4.300000000003317, -0.37958318656957396 
4.310000000003294, -0.3795384902226741 
4.320000000003271, -0.37960753374968265 
4.330000000003247, -0.37978376986564105 
4.340000000003224, -0.380074684458414 
4.350000000003201, -0.3805010293972615 
4.360000000003177, -0.38109617544464086 
4.370000000003154, -0.38190358349013087 
4.380000000003131, -0.382969660339595 
4.390000000003107, -0.3843290446160398 
4.400000000003084, -0.38598135088925983 
4.410000000003061, -0.38786537298224416 
4.4200000000030375, -0.3898481546612382 
4.430000000003014, -0.39174953897916487 
4.440000000002991, -0.39340030016972066 
4.450000000002968, -0.394697456081118 
4.460000000002944, -0.3956195049212484 
4.470000000002921, -0.396202185734253 
4.480000000002898, -0.3965025840980662 
4.490000000002874, -0.3965729078336466 
4.500000000002851, -0.39644764919508624 
4.510000000002828, -0.3961389148281634 
4.520000000002804, -0.3956344608978306 
4.530000000002781, -0.39489577378430135 
4.540000000002758, -0.39385693922032594 
4.5500000000027345, -0.39242931474180304 
4.560000000002711, -0.3905216515846117 
4.570000000002688, -0.3880842403374239 
4.580000000002665, -0.3851671289465727 
4.590000000002641, -0.381949920484432 
4.600000000002618, -0.37869869603669454 
4.610000000002595, -0.3756671961956191 
4.620000000002571, -0.3730161847082905 
4.630000000002548, -0.37079755544387394 
4.640000000002525, -0.36898616002029444 
4.6500000000025015, -0.3675211506572435 
4.660000000002478, -0.36633567536141715 
4.670000000002455, -0.3653723310937159 
4.6800000000024315, -0.36458900739042616 
4.690000000002408, -0.36396002490448154 
4.700000000002385, -0.3634759219279834 
4.710000000002362, -0.36314389533697566 
4.720000000002338, -0.3629901452375245 
4.730000000002315, -0.36306513264424495 
4.740000000002292, -0.36345285427869606 
4.750000000002268, -0.36428533559840376 
4.760000000002245, -0.365762821795924 
4.770000000002222, -0.36817642880565715 
4.7800000000021985, -0.3719182791971417 
4.790000000002175, -0.37743682623748 
4.800000000002152, -0.38505693993148726 
4.810000000002129, -0.39460688963309554 
4.820000000002105, -0.40504509591874116 
4.830000000002082, -0.4146616159962558 
4.840000000002059, -0.4220635372188963 
4.850000000002035, -0.4269605791075615 
4.860000000002012, -0.42991540810965184 
4.870000000001989, -0.43165521008857405 
4.880000000001965, -0.4327050344880239 
4.890000000001942, -0.43336357547686494 
