t, s[1].omega / s[0].omega 
0, -0.7999976512357787 
0.009999999999999995, -0.7997322596080176 
0.019999999999999934, -0.7994045872931348 
0.029999999999999874, -0.7990110301052712 
0.04000000000000012, -0.7985507619639557 
0.050000000000000405, -0.7980299836937956 
0.06000000000000069, -0.7974642317312043 
0.07000000000000098, -0.7968791856007956 
0.08000000000000126, -0.7963111777962484 
0.09000000000000155, -0.7958077268249839 
0.10000000000000184, -0.7954270645748076 
0.11000000000000212, -0.7952350515542767 
0.12000000000000241, -0.7952986565179964 
0.130000000000002, -0.7956770268093705 
0.1400000000000009, -0.7964128662089507 
0.1499999999999998, -0.7975269299842956 
0.1599999999999987, -0.7990165979808617 
0.1699999999999976, -0.8008568917614524 
0.1799999999999965, -0.8030007121502665 
0.1899999999999954, -0.8053757023792869 
0.1999999999999943, -0.8078784739525269 
0.2099999999999932, -0.8103723518068934 
0.2199999999999921, -0.8126986947082109 
0.229999999999991, -0.8147071162574585 
0.2399999999999899, -0.8162941088806301 
0.2499999999999888, -0.8174265799374296 
0.2599999999999877, -0.8181354207074655 
0.2699999999999866, -0.8184875511290859 
0.2799999999999855, -0.8185566368124336 
0.2899999999999844, -0.8184054300123786 
0.2999999999999833, -0.8180811128960673 
0.3099999999999822, -0.8176202318166268 
0.3199999999999811, -0.8170612066684189 
0.32999999999998, -0.8164656716264982 
0.3399999999999789, -0.8159518967873198 
0.3499999999999778, -0.815741399080588 
0.35999999999997667, -0.8162097565507329 
0.36999999999997557, -0.8179122509993058 
0.37999999999997447, -0.8215310262778237 
0.38999999999997337, -0.8276869084852743 
0.39999999999997227, -0.8366135669923758 
0.40999999999997117, -0.8478250942122247 
0.41999999999997006, -0.8600505104526887 
0.42999999999996896, -0.8716453870115769 
0.43999999999996786, -0.8812919512833022 
0.44999999999996676, -0.8884566429438131 
0.45999999999996566, -0.8933178153018243 
0.46999999999996456, -0.8963943914251299 
0.47999999999996346, -0.8982271804739541 
0.48999999999996235, -0.8992366014994344 
0.49999999999996125, -0.8997035699747841 
0.5099999999999602, -0.8997966614522299 
0.519999999999959, -0.8996034779574131 
0.529999999999958, -0.8991526231135996 
0.5399999999999568, -0.8984254096967191 
0.5499999999999557, -0.8973610711700972 
0.5599999999999546, -0.8958628337219366 
0.5699999999999535, -0.8938187695193147 
0.5799999999999524, -0.8911607465724909 
0.5899999999999513, -0.8879853233048237 
0.5999999999999502, -0.8847193438009959 
0.6099999999999491, -0.8822021575927355 
0.619999999999948, -0.8814644573647591 
0.6299999999999469, -0.8831621082004462 
0.6399999999999458, -0.8870768181749762 
0.6499999999999447, -0.8922017333673059 
0.6599999999999436, -0.8973478120251522 
0.6699999999999425, -0.901701452435048 
0.6799999999999414, -0.9049697876300253 
0.6899999999999403, -0.9072182828787755 
0.6999999999999392, -0.9086555760569995 
0.7099999999999381, -0.9094965217184836 
0.719999999999937, -0.9099069286806639 
0.7299999999999359, -0.9099929448581812 
0.7399999999999348, -0.9098051566271964 
0.7499999999999337, -0.9093417990677592 
0.7599999999999326, -0.9085440588795588 
0.7699999999999315, -0.9072798583499753 
0.7799999999999304, -0.9053146526026703 
0.7899999999999293, -0.9022744253194904 
0.7999999999999282, -0.8976264125770831 
0.8099999999999271, -0.8907443076159967 
0.819999999999926, -0.8811595748566086 
0.8299999999999249, -0.8690166882867179 
0.8399999999999238, -0.8554477943126486 
0.8499999999999227, -0.8423597852192811 
0.8599999999999216, -0.831569742183292 
0.8699999999999205, -0.8239849081496793 
0.8799999999999194, -0.8194640772361241 
0.8899999999999183, -0.8172456213572762 
0.8999999999999172, -0.8164539380135869 
0.9099999999999161, -0.816392477179748 
0.919999999999915, -0.8166145685278098 
0.9299999999999139, -0.8168764962550658 
0.9399999999999128, -0.8170620372201405 
0.9499999999999117, -0.8171200453123447 
0.9599999999999106, -0.817023478756586 
0.9699999999999095, -0.8167449267670011 
0.9799999999999084, -0.8162419941172596 
0.9899999999999073, -0.8154488989916919 
0.9999999999999062, -0.8142752886648337 
1.0099999999999052, -0.8126178739701475 
1.019999999999904, -0.8103909418824996 
1.029999999999903, -0.8075715858054876 
1.039999999999902, -0.8042362939100679 
1.0499999999999008, -0.80055895075446 
1.0599999999998997, -0.7967656561196811 
1.0699999999998986, -0.7930761889229252 
1.0799999999998975, -0.7896652603096095 
1.0899999999998964, -0.7866518898682294 
1.0999999999998953, -0.7841052331783557 
1.1099999999998942, -0.7820534869618717 
1.119999999999893, -0.7804900645529524 
1.129999999999892, -0.7793778867605238 
1.1399999999998909, -0.778654953430436 
1.1499999999998898, -0.7782430337619562 
1.1599999999998887, -0.7780584954084282 
1.1699999999998876, -0.778022359497782 
1.1799999999998865, -0.7780669154568398 
1.1899999999998854, -0.7781381211994136 
1.1999999999998843, -0.7781949803360988 
1.2099999999998832, -0.7782079525258603 
1.219999999999882, -0.7781579785459614 
1.229999999999881, -0.778036274701999 
1.2399999999998799, -0.7778435313281616 
1.2499999999998788, -0.777586867827461 
1.2599999999998777, -0.7772746400626291 
1.2699999999998766, -0.7769116508526037 
1.2799999999998755, -0.7764978119989676 
1.2899999999998744, -0.7760310001853559 
1.2999999999998733, -0.7755119744547947 
1.3099999999998722, -0.774948509305321 
1.319999999999871, -0.7743575468598214 
1.32999999999987, -0.7737660527884265 
1.3399999999998689, -0.7732116267680047 
1.3499999999998678, -0.7727429408547388 
1.3599999999998666, -0.7724189653127356 
1.3699999999998655, -0.7723056684751971 
1.3799999999998644, -0.7724697556527996 
1.3899999999998633, -0.7729705953813795 
1.3999999999998622, -0.7738526674463855 
1.4099999999998611, -0.775140595030962 
1.41999999999986, -0.7768370234564924 
1.429999999999859, -0.7789213816321164 
1.4399999999998578, -0.7813464480844735 
1.4499999999998567, -0.7840309607703639 
1.4599999999998556, -0.786851062731345 
1.4699999999998545, -0.7896400722521861 
1.4799999999998534, -0.7922089302556972 
1.4899999999998523, -0.7943893332328404 
1.4999999999998512, -0.796079686661069 
1.5099999999998501, -0.7972641080869615 
1.519999999999849, -0.7979944395435639 
1.529999999999848, -0.798353364123864 
1.5399999999998468, -0.7984226058153909 
1.5499999999998457, -0.7982666002320602 
1.5599999999998446, -0.7979295704880738 
1.5699999999998435, -0.7974409953221923 
1.5799999999998424, -0.796827340161004 
1.5899999999998413, -0.7961320677651066 
1.5999999999998402, -0.7954491605797483 
1.6099999999998391, -0.7949754861296172 
1.619999999999838, -0.795079390886311 
1.629999999999837, -0.7963593598535662 
1.6399999999998358, -0.7996252775558719 
1.6499999999998347, -0.8057003990633195 
1.6599999999998336, -0.8149902125864521 
1.6699999999998325, -0.8269835774047255 
1.6799999999998314, -0.8401371185105388 
1.6899999999998303, -0.8524795832789975 
1.6999999999998292, -0.8625555247369221 
1.709999999999828, -0.8699017247991794 
1.719999999999827, -0.8748259313281539 
1.729999999999826, -0.8779321640820255 
1.7399999999998248, -0.879793971537939 
1.7499999999998237, -0.880837684270482 
1.7599999999998226, -0.8813419480803105 
1.7699999999998215, -0.8814719518265296 
1.7799999999998204, -0.8813115749750704 
1.7899999999998193, -0.8808832195971421 
1.7999999999998182, -0.8801546031162271 
1.809999999999817, -0.8790337128661925 
1.819999999999816, -0.8773535894112168 
1.8299999999998149, -0.8748517150069626 
1.8399999999998138, -0.8711591442863128 
1.8499999999998127, -0.8658364351918919 
1.8599999999998116, -0.858519534684912 
1.8699999999998105, -0.8492213803980514 
1.8799999999998094, -0.8386817849464789 
1.8899999999998083, -0.8283996412012554 
1.8999999999998072, -0.8200351474516104 
1.909999999999806, -0.8145375884176442 
1.919999999999805, -0.811796132702988 
1.9299999999998039, -0.8110152246679976 
1.9399999999998028, -0.8112960980976627 
1.9499999999998017, -0.811974438960001 
1.9599999999998006, -0.8126748973217529 
1.9699999999997995, -0.8132316039124172 
1.9799999999997984, -0.8135930041211796 
1.9899999999997973, -0.8137545287080503 
1.9999999999997962, -0.8137201934269485 
2.0099999999998173, -0.8134822063849381 
2.0199999999998384, -0.8130087697742034 
2.0299999999998595, -0.8122345638628087 
2.0399999999998806, -0.8110533628444377 
2.0499999999999017, -0.809318496028604 
2.059999999999923, -0.8068637684386921 
2.069999999999944, -0.8035575393965351 
2.079999999999965, -0.7993823315257829 
2.089999999999986, -0.7944948715054881 
2.100000000000007, -0.7892115043156251 
2.1100000000000283, -0.7839172471472005 
2.1200000000000494, -0.7789598582705757 
2.1300000000000705, -0.7745870974105292 
2.1400000000000916, -0.7709353556751316 
2.1500000000001127, -0.7680460529482207 
2.160000000000134, -0.7658882807000728 
2.170000000000155, -0.7643797501831712 
2.180000000000176, -0.7634062952850011 
2.190000000000197, -0.7628408563570183 
2.2000000000002182, -0.7625604183190181 
2.2100000000002393, -0.7624580400199622 
2.2200000000002604, -0.7624482810022524 
2.2300000000002815, -0.7624667446171614 
2.2400000000003026, -0.7624662505769669 
2.2500000000003237, -0.7624125433013382 
2.260000000000345, -0.7622817055282729 
2.270000000000366, -0.7620600003978397 
2.280000000000387, -0.7617449970318774 
2.290000000000408, -0.7613453642334995 
2.3000000000004293, -0.7608771814736264 
2.3100000000004504, -0.760357469165107 
2.3200000000004715, -0.7597985063782702 
2.3300000000004926, -0.7592063298111374 
2.3400000000005137, -0.7585837435397568 
2.3500000000005348, -0.7579353372328408 
2.360000000000556, -0.7572717417059499 
2.370000000000577, -0.7566120516954384 
2.380000000000598, -0.7559848740581115 
2.390000000000619, -0.7554286146087936 
2.4000000000006403, -0.7549908620592711 
2.4100000000006614, -0.7547261385560889 
2.4200000000006825, -0.7546915182733589 
2.4300000000007036, -0.7549405960792758 
2.4400000000007247, -0.755517329801117 
2.450000000000746, -0.7564515143911321 
2.460000000000767, -0.7577566868410457 
2.470000000000788, -0.7594295469438149 
2.480000000000809, -0.7614484800624728 
2.49000000000083, -0.7637685111304273 
2.5000000000008513, -0.7663119998065335 
2.5100000000008724, -0.7689593104802365 
2.5200000000008935, -0.7715500243782649 
2.5300000000009146, -0.7739062124002601 
2.5400000000009357, -0.7758762965991869 
2.550000000000957, -0.7773767351292908 
2.560000000000978, -0.7784041699385735 
2.570000000000999, -0.7790137463129508 
2.58000000000102, -0.7792838119700037 
2.5900000000010412, -0.7792881760758119 
2.6000000000010624, -0.7790830997625479 
2.6100000000010835, -0.7787059687309765 
2.6200000000011046, -0.7781811787564595 
2.6300000000011257, -0.7775319117193561 
2.6400000000011468, -0.7768004025820114 
2.650000000001168, -0.7760823137447372 
2.660000000001189, -0.7755807790903952 
2.67000000000121, -0.7756771955655137 
2.680000000001231, -0.7769902381215537 
2.6900000000012523, -0.7803484997299421 
2.7000000000012734, -0.7865642759054354 
2.7100000000012945, -0.7959604250813129 
2.7200000000013156, -0.8078708559293624 
2.7300000000013367, -0.8206305627127302 
2.740000000001358, -0.8323154827066599 
2.750000000001379, -0.8416657756502696 
2.7600000000014, -0.8484013884588073 
2.770000000001421, -0.8529005871577879 
2.780000000001442, -0.8557478327342048 
2.7900000000014633, -0.8574665347417116 
2.8000000000014844, -0.8584377338317924 
2.8100000000015055, -0.8589089807322946 
2.8200000000015266, -0.859026372587579 
2.8300000000015477, -0.8588620839808012 
2.840000000001569, -0.8584300279142333 
2.85000000000159, -0.8576888366142527 
2.860000000001611, -0.8565321117232164 
2.870000000001632, -0.8547656748514381 
2.8800000000016532, -0.852074431878202 
2.8900000000016743, -0.8479940963716877 
2.9000000000016954, -0.8419344412707842 
2.9100000000017165, -0.8333445995773147 
2.9200000000017377, -0.8220940122633354 
2.9300000000017588, -0.8089244982411634 
2.94000000000178, -0.7954998838965353 
2.950000000001801, -0.7837347991456498 
2.960000000001822, -0.7748763201003388 
2.970000000001843, -0.7691248806457447 
2.9800000000018643, -0.7659205808128873 
2.9900000000018854, -0.7644444210115537 
3.0000000000019065, -0.7639661978015467 
3.0100000000019276, -0.7639712167368655 
3.0200000000019487, -0.7641491204424018 
3.03000000000197, -0.7643339211324613 
3.040000000001991, -0.7644442876055156 
3.050000000002012, -0.7644400417709829 
3.060000000002033, -0.7642946557362487 
3.070000000002054, -0.7639790210402777 
3.0800000000020753, -0.7634527155095153 
3.0900000000020964, -0.7626619162823667 
3.1000000000021175, -0.7615460702442329 
3.1100000000021386, -0.7600558792553451 
3.1200000000021597, -0.758179648854461 
3.130000000002181, -0.7559645665407472 
3.140000000002202, -0.7535155390937173 
3.150000000002223, -0.7509681146556453 
3.160000000002244, -0.7484526616645332 
3.1700000000022652, -0.7460708043328711 
3.1800000000022863, -0.7438907397717327 
3.1900000000023074, -0.7419544066402939 
3.2000000000023285, -0.7402868557630498 
3.2100000000023496, -0.7389023569954559 
3.2200000000023707, -0.7378063007766745 
3.230000000002392, -0.7369944206628177 
3.240000000002413, -0.7364515387147781 
3.250000000002434, -0.736151624843098 
3.260000000002455, -0.7360599568742663 
3.2700000000024763, -0.7361370279540764 
3.2800000000024974, -0.7363430811738942 
3.2900000000025185, -0.7366420722763365 
3.3000000000025396, -0.7370043300251811 
3.3100000000025607, -0.7374076959016691 
3.3200000000025818, -0.7378370374575561 
3.330000000002603, -0.7382818132599838 
3.340000000002624, -0.7387315060625996 
3.350000000002645, -0.7391699388127047 
3.360000000002666, -0.7395713518228856 
3.3700000000026873, -0.7399017309470647 
3.3800000000027084, -0.7401263553215862 
3.3900000000027295, -0.7402199015550068 
3.4000000000027506, -0.7401730962799763 
3.4100000000027717, -0.7399928115462203 
3.420000000002793, -0.7396977240080521 
3.430000000002814, -0.7393141564216734 
3.440000000002835, -0.7388755776898044 
3.450000000002856, -0.7384270282547359 
3.460000000002877, -0.7380342616971319 
3.4700000000028983, -0.7377964233047458 
3.4800000000029194, -0.7378597045691616 
3.4900000000029405, -0.7384272848578944 
3.5000000000029616, -0.7397586514926274 
3.5100000000029827, -0.7421502425692605 
3.520000000003004, -0.7458899037409226 
3.530000000003025, -0.7511800451884841 
3.540000000003046, -0.7580317307535313 
3.550000000003067, -0.7661540263585285 
3.5600000000030882, -0.7749055833615043 
3.5700000000031094, -0.7834026446911163 
3.5800000000031305, -0.7908024547404385 
3.5900000000031516, -0.7966045471197238 
3.6000000000031727, -0.8007509125263192 
3.6100000000031938, -0.8034926955033761 
3.620000000003215, -0.8051837800199984 
3.630000000003236, -0.8061417390399571 
3.640000000003257, -0.806598387891413 
3.650000000003278, -0.8067014812982549 
3.6600000000032993, -0.8065317016207224 
3.6700000000033204, -0.8061176034945465 
3.6800000000033415, -0.8054432991305127 
3.6900000000033626, -0.8044485519126136 
3.7000000000033837, -0.8030226736568299 
3.710000000003405, -0.8009954101998596 
3.720000000003426, -0.7981320186712942 
3.730000000003447, -0.7941473437678722 
3.740000000003468, -0.7887644063027484 
3.750000000003489, -0.7818504408508258 
3.7600000000035103, -0.7736393947745123 
3.7700000000035314, -0.7649304163044167 
3.7800000000035525, -0.7569747116279839 
3.7900000000035736, -0.7509082325914911 
3.8000000000035947, -0.7471660813935388 
3.810000000003616, -0.7454298968937538 
3.820000000003637, -0.7450223152918078 
3.830000000003658, -0.7452986042647349 
3.840000000003679, -0.7458155986893198 
3.8500000000037002, -0.746328938958873 
3.8600000000037213, -0.7467285446424144 
3.8700000000037424, -0.7469759741498485 
3.8800000000037635, -0.7470618683926296 
3.8900000000037847, -0.7469811523328784 
3.9000000000038058, -0.7467191643761764 
3.910000000003827, -0.7462435267730981 
3.920000000003848, -0.7454998790454836 
3.930000000003869, -0.7444134194974587 
3.94000000000389, -0.742901571862308 
3.9500000000039113, -0.7409024253225145 
3.9600000000039324, -0.7384135128244951 
3.9700000000039535, -0.7355189210451725 
3.9800000000039746, -0.7323797784264536 
3.9900000000039957, -0.7291886237738039 
4.000000000004016, -0.7261177848318056 
4.010000000003993, -0.7232906990095482 
4.02000000000397, -0.7207804085226667 
4.030000000003946, -0.718622192157455 
4.040000000003923, -0.7168272115042091 
4.0500000000039, -0.7153913003335091 
4.0600000000038765, -0.7142988236379104 
4.070000000003853, -0.7135239212303268 
4.08000000000383, -0.7130315291892202 
4.090000000003807, -0.7127795806044096 
4.100000000003783, -0.7127225436988269 
4.11000000000376, -0.7128155365487718 
4.120000000003737, -0.7130179970040589 
4.130000000003713, -0.7132962296916725 
4.14000000000369, -0.7136246855508739 
4.150000000003667, -0.7139860650401235 
4.1600000000036434, -0.714370080851 
4.17000000000362, -0.7147703344517171 
4.180000000003597, -0.7151790772936122 
4.1900000000035735, -0.7155811677917475 
4.20000000000355, -0.7159504815818065 
4.210000000003527, -0.716252222800652 
4.220000000003504, -0.7164514556695138 
4.23000000000348, -0.716523450820716 
4.240000000003457, -0.7164597737873031 
4.250000000003434, -0.7162676547173554 
4.26000000000341, -0.7159653426989545 
4.270000000003387, -0.7155780944583199 
4.280000000003364, -0.7151380162904156 
4.2900000000033405, -0.714688923325703 
4.300000000003317, -0.7142962542124698 
4.310000000003294, -0.7140614713251748 
4.320000000003271, -0.7141392444036179 
4.330000000003247, -0.7147533893819129 
4.340000000003224, -0.7162040338445673 
4.350000000003201, -0.7188544040944802 
4.360000000003177, -0.7230819570151493 
4.370000000003154, -0.7291779905354254 
4.380000000003131, -0.7371917532241207 
4.390000000003107, -0.7467586815644596 
4.400000000003084, -0.7570312084297736 
4.410000000003061, -0.7668626237195951 
4.4200000000030375, -0.7752328817258036 
4.430000000003014, -0.7816290502825278 
4.440000000002991, -0.7860946843214601 
4.450000000002968, -0.7889985017943195 
4.460000000002944, -0.7907754852625949 
4.470000000002921, -0.7917857328845151 
4.480000000002898, -0.7922798513871505 
4.490000000002874, -0.792412807317685 
4.500000000002851, -0.7922670274010114 
4.510000000002828, -0.7918691883296692 
4.520000000002804, -0.7911968756070991 
4.530000000002781, -0.7901746664738238 
4.540000000002758, -0.7886594046754049 
4.5500000000027345, -0.7864150782046464 
4.560000000002711, -0.7830829013504975 
4.570000000002688, -0.7781692888090478 
4.580000000002665, -0.7711110965653722 
4.590000000002641, -0.7615133077473862 
4.600000000002618, -0.7495798720559539 
4.610000000002595, -0.7364522672521445 
4.620000000002571, -0.7239439399058358 
4.630000000002548, -0.7136691228554526 
4.640000000002525, -0.7063353516290612 
4.6500000000025015, -0.7017401767835143 
4.660000000002478, -0.6992115796677749 
4.670000000002455, -0.6980224045596102 
4.6800000000024315, -0.6975955518231796 
4.690000000002408, -0.6975441627995023 
4.700000000002385, -0.6976366657171782 
4.710000000002362, -0.6977452996396574 
4.720000000002338, -0.6978025713392964 
4.730000000002315, -0.6977709986547668 
4.740000000002292, -0.697624213587093 
4.750000000002268, -0.6973363248372062 
4.760000000002245, -0.6968777099954775 
4.770000000002222, -0.6962171186611706 
4.7800000000021985, -0.6953304630959665 
4.790000000002175, -0.6942142567502244 
4.800000000002152, -0.6928967065965672 
4.810000000002129, -0.6914372221558625 
4.820000000002105, -0.689911567890537 
4.830000000002082, -0.6883911151966271 
4.840000000002059, -0.6869285176600538 
4.850000000002035, -0.6855552359538594 
4.860000000002012, -0.6842876748319232 
4.870000000001989, -0.6831357247586138 
4.880000000001965, -0.6821094320208653 
4.890000000001942, -0.6812224574601091 
4.900000000001919, -0.6804927360818815 
4.9100000000018955, -0.6799412426286218 
4.920000000001872, -0.6795897203117657 
