t, s[1].omega / s[0].omega 
0, -0.7999961798562375 
0.009999999999999995, -0.7995851334839779 
0.019999999999999934, -0.7991183223749044 
0.029999999999999874, -0.7985959270888219 
0.04000000000000012, -0.7980192433139903 
0.050000000000000405, -0.7973958675204103 
0.06000000000000069, -0.7967430045417059 
0.07000000000000098, -0.7960889011983553 
0.08000000000000126, -0.7954733061264899 
0.09000000000000155, -0.7949470875879527 
0.10000000000000184, -0.7945700161331302 
0.11000000000000212, -0.794405596160441 
0.12000000000000241, -0.7945131081915069 
0.130000000000002, -0.7949389068717437 
0.1400000000000009, -0.7957099902582503 
0.1499999999999998, -0.7968319113108538 
0.1599999999999987, -0.7982907338499821 
0.1699999999999976, -0.8000564581734556 
0.1799999999999965, -0.8020844173092465 
0.1899999999999954, -0.8043121040445846 
0.1999999999999943, -0.8066520014473276 
0.2099999999999932, -0.8089860928067146 
0.2199999999999921, -0.8111721425153698 
0.229999999999991, -0.8130688849082983 
0.2399999999999899, -0.8145727763371748 
0.2499999999999888, -0.8156441722601846 
0.2599999999999877, -0.8163056433829474 
0.2699999999999866, -0.8166174418183246 
0.2799999999999855, -0.8166493075995161 
0.2899999999999844, -0.8164627519317866 
0.2999999999999833, -0.8161066254222803 
0.3099999999999822, -0.8156234403440055 
0.3199999999999811, -0.8150649539418364 
0.32999999999998, -0.8145184710953272 
0.3399999999999789, -0.8141462909426729 
0.3499999999999778, -0.8142361615737039 
0.35999999999997667, -0.815247245736129 
0.36999999999997557, -0.8178150581277508 
0.37999999999997447, -0.8226622779473027 
0.38999999999997337, -0.8303741181888158 
0.39999999999997227, -0.8410614379919433 
0.40999999999997117, -0.854056125218745 
0.41999999999997006, -0.8678981355669251 
0.42999999999996896, -0.8807987872124787 
0.43999999999996786, -0.891377095453949 
0.44999999999996676, -0.899125188419158 
0.45999999999996566, -0.9043056423334151 
0.46999999999996456, -0.9075322157729303 
0.47999999999996346, -0.9094192766887698 
0.48999999999996235, -0.9104325760709762 
0.49999999999996125, -0.9108764730078771 
0.5099999999999602, -0.9109293982689014 
0.519999999999959, -0.9106812609124315 
0.529999999999958, -0.910159432955701 
0.5399999999999568, -0.9093445298711134 
0.5499999999999557, -0.9081835093930419 
0.5599999999999546, -0.9066143202975914 
0.5699999999999535, -0.9046273128697481 
0.5799999999999524, -0.9023976208002848 
0.5899999999999513, -0.9004982546863852 
0.5999999999999502, -0.9000855347066331 
0.6099999999999491, -0.9027427151448395 
0.619999999999948, -0.9096697829883839 
0.6299999999999469, -0.9205667345884467 
0.6399999999999458, -0.9333821754649506 
0.6499999999999447, -0.9454941192740879 
0.6599999999999436, -0.955173769667128 
0.6699999999999425, -0.9620167665929387 
0.6799999999999414, -0.9664573394186773 
0.6899999999999403, -0.9691652830500779 
0.6999999999999392, -0.97072087433285 
0.7099999999999381, -0.9715296178683641 
0.719999999999937, -0.9718415378921683 
0.7299999999999359, -0.9717916586966668 
0.7399999999999348, -0.971430763286112 
0.7499999999999337, -0.9707399689476256 
0.7599999999999326, -0.9696304750015928 
0.7699999999999315, -0.9679333577064583 
0.7799999999999304, -0.9653924758164733 
0.7899999999999293, -0.9616943133272502 
0.7999999999999282, -0.9566010335971518 
0.8099999999999271, -0.9502537716876704 
0.819999999999926, -0.943564261522795 
0.8299999999999249, -0.9382749675730526 
0.8399999999999238, -0.9361954397050976 
0.8499999999999227, -0.9379524000502627 
0.8599999999999216, -0.9425119265246558 
0.8699999999999205, -0.9480238329920436 
0.8799999999999194, -0.9530027003157613 
0.8899999999999183, -0.9567991033041185 
0.8999999999999172, -0.9593906781987436 
0.9099999999999161, -0.9610165779946819 
0.919999999999915, -0.9619438304255137 
0.9299999999999139, -0.9623773413874218 
0.9399999999999128, -0.9624441900149353 
0.9499999999999117, -0.9622003451406232 
0.9599999999999106, -0.9616354169658123 
0.9699999999999095, -0.960665706546056 
0.9799999999999084, -0.9591110104088971 
0.9899999999999073, -0.956653990505842 
0.9999999999999062, -0.9527921025650784 
1.0099999999999052, -0.9468257192295704 
1.019999999999904, -0.9379912453587271 
1.029999999999903, -0.925889742577574 
1.039999999999902, -0.9111783326505292 
1.0499999999999008, -0.895951476704645 
1.0599999999998997, -0.8830061613567969 
1.0699999999998986, -0.8742641583810535 
1.0799999999998975, -0.8698538456169251 
1.0899999999998964, -0.8685852839371329 
1.0999999999998953, -0.8689925852107538 
1.1099999999998942, -0.8699924334013642 
1.119999999999893, -0.8709998860159122 
1.129999999999892, -0.8717814586876471 
1.1399999999998909, -0.8722833796261446 
1.1499999999998898, -0.872517884294014 
1.1599999999998887, -0.8725042813581515 
1.1699999999998876, -0.8722409178468139 
1.1799999999998865, -0.8716887753682506 
1.1899999999998854, -0.8707555570845253 
1.1999999999998843, -0.8692761477386629 
1.2099999999998832, -0.8669942999456438 
1.219999999999882, -0.8635660179750746 
1.229999999999881, -0.8586238778529329 
1.2399999999998799, -0.8519344478335171 
1.2499999999998788, -0.8436046588138414 
1.2599999999998777, -0.8341849524631391 
1.2699999999998766, -0.8245409529894557 
1.2799999999998755, -0.8155625577819834 
1.2899999999998744, -0.8079088736189339 
1.2999999999998733, -0.8019045520196857 
1.3099999999998722, -0.7975663696228846 
1.319999999999871, -0.7946927364726124 
1.32999999999987, -0.7929673275145047 
1.3399999999998689, -0.7920500976104101 
1.3499999999998678, -0.7916403941602927 
1.3599999999998666, -0.7915067413262773 
1.3699999999998655, -0.7914885552827738 
1.3799999999998644, -0.7914814898787353 
1.3899999999998633, -0.7914178391388016 
1.3999999999998622, -0.7912493317436735 
1.4099999999998611, -0.7909357678985209 
1.41999999999986, -0.7904409438001365 
1.429999999999859, -0.7897362331553199 
1.4399999999998578, -0.7888099416716055 
1.4499999999998567, -0.7876765536321699 
1.4599999999998556, -0.7863778715829353 
1.4699999999998545, -0.7849727326181294 
1.4799999999998534, -0.7835210914791413 
1.4899999999998523, -0.7820722779699643 
1.4999999999998512, -0.7806624289597849 
1.5099999999998501, -0.7793189526344471 
1.519999999999849, -0.7780669118187141 
1.529999999999848, -0.7769334644971603 
1.5399999999998468, -0.7759488940758235 
1.5499999999998457, -0.7751444002194952 
1.5599999999998446, -0.7745476552765488 
1.5699999999998435, -0.7741776498154415 
1.5799999999998424, -0.7740406135267391 
1.5899999999998413, -0.7741285173282761 
1.5999999999998402, -0.774420743722399 
1.6099999999998391, -0.774888313100319 
1.619999999999838, -0.7754991578536411 
1.629999999999837, -0.7762227005801361 
1.6399999999998358, -0.7770322943777546 
1.6499999999998347, -0.7779045703700987 
1.6599999999998336, -0.7788154073922792 
1.6699999999998325, -0.7797336118362004 
1.6799999999998314, -0.7806156519945848 
1.6899999999998303, -0.7814064071315087 
1.6999999999998292, -0.7820488707707162 
1.709999999999828, -0.7824992984817003 
1.719999999999827, -0.7827387166695882 
1.729999999999826, -0.7827739880771627 
1.7399999999998248, -0.7826300930289884 
1.7499999999998237, -0.7823409398326302 
1.7599999999998226, -0.7819449559775189 
1.7699999999998215, -0.7814879054342463 
1.7799999999998204, -0.7810328853971098 
1.7899999999998193, -0.780676370933677 
1.7999999999998182, -0.780567598768212 
1.809999999999817, -0.7809252867545129 
1.819999999999816, -0.782041586767689 
1.8299999999998149, -0.7842614124744397 
1.8399999999998138, -0.787928871421052 
1.8499999999998127, -0.7933007098930541 
1.8599999999998116, -0.8004361874391588 
1.8699999999998105, -0.8090863163587884 
1.8799999999998094, -0.8186329605491729 
1.8899999999998083, -0.8281594031264417 
1.8999999999998072, -0.836702073607635 
1.909999999999806, -0.8435848319696392 
1.919999999999805, -0.8486083430004696 
1.9299999999998039, -0.851975201678888 
1.9399999999998028, -0.8540686473100129 
1.9499999999998017, -0.8552662629293575 
1.9599999999998006, -0.8558565408624851 
1.9699999999997995, -0.8560289104833491 
1.9799999999997984, -0.8558919091715262 
1.9899999999997973, -0.8554937948589136 
1.9999999999997962, -0.8548376782561509 
2.0099999999998173, -0.8538926079420015 
2.0199999999998384, -0.8526077254199533 
2.0299999999998595, -0.8509432146591784 
2.0399999999998806, -0.84893958101336 
2.0499999999999017, -0.8468452424446845 
2.059999999999923, -0.8452809515180378 
2.069999999999944, -0.8453049261170686 
2.079999999999965, -0.8481237488130476 
2.089999999999986, -0.8543575048334953 
2.100000000000007, -0.8633656543730359 
2.1100000000000283, -0.8734267651758021 
2.1200000000000494, -0.8827209312718314 
2.1300000000000705, -0.8901663978622991 
2.1400000000000916, -0.8955405388175872 
2.1500000000001127, -0.8991390330971838 
2.160000000000134, -0.9014128507593127 
2.170000000000155, -0.9027667821499417 
2.180000000000176, -0.9034961718846916 
2.190000000000197, -0.9037900575741077 
2.2000000000002182, -0.9037518375453283 
2.2100000000002393, -0.9034156819917383 
2.2200000000002604, -0.9027510821710016 
2.2300000000002815, -0.9016523767157132 
2.2400000000003026, -0.8999105154395645 
2.2500000000003237, -0.897166272200194 
2.260000000000345, -0.8928565509592336 
2.270000000000366, -0.8862037626348732 
2.280000000000387, -0.8763686493002194 
2.290000000000408, -0.8629148658676895 
2.3000000000004293, -0.8464987138779276 
2.3100000000004504, -0.8291638876263916 
2.3200000000004715, -0.8135843471696347 
2.3300000000004926, -0.801700295382943 
2.3400000000005137, -0.79398226507105 
2.3500000000005348, -0.7897374122003531 
2.360000000000556, -0.7878409633520262 
2.370000000000577, -0.7872758199773467 
2.380000000000598, -0.7873339989480972 
2.390000000000619, -0.7876011849103717 
2.4000000000006403, -0.7878661101641287 
2.4100000000006614, -0.7880325617310685 
2.4200000000006825, -0.7880576861251399 
2.4300000000007036, -0.7879146303641286 
2.4400000000007247, -0.7875710766407931 
2.450000000000746, -0.7869770685853708 
2.460000000000767, -0.7860600699650532 
2.470000000000788, -0.7847302594709747 
2.480000000000809, -0.7829019155860095 
2.49000000000083, -0.780531594485141 
2.5000000000008513, -0.7776575449051409 
2.5100000000008724, -0.774411188215532 
2.5200000000008935, -0.770985200021125 
2.5300000000009146, -0.7675781480492507 
2.5400000000009357, -0.7643514743277872 
2.550000000000957, -0.7614155780960682 
2.560000000000978, -0.7588369815813039 
2.570000000000999, -0.7566512502359459 
2.58000000000102, -0.7548722294980067 
2.5900000000010412, -0.7534957082011897 
2.6000000000010624, -0.7524998600218867 
2.6100000000010835, -0.7518458206113235 
2.6200000000011046, -0.7514807107112735 
2.6300000000011257, -0.751343419604418 
2.6400000000011468, -0.7513716706564804 
2.650000000001168, -0.7515082677709582 
2.660000000001189, -0.7517051376604564 
2.67000000000121, -0.7519250909857874 
2.680000000001231, -0.7521420931921362 
2.6900000000012523, -0.7523406876643363 
2.7000000000012734, -0.752514297514758 
2.7100000000012945, -0.7526615028294544 
2.7200000000013156, -0.7527802339343588 
2.7300000000013367, -0.752862020032657 
2.740000000001358, -0.7528899149722978 
2.750000000001379, -0.7528422670228783 
2.7600000000014, -0.7527005497849342 
2.770000000001421, -0.7524565403732001 
2.780000000001442, -0.7521152924637569 
2.7900000000014633, -0.7516943381115454 
2.8000000000014844, -0.7512223070829409 
2.8100000000015055, -0.7507398360840576 
2.8200000000015266, -0.7503036169779083 
2.8300000000015477, -0.749992403601633 
2.840000000001569, -0.7499123072462546 
2.85000000000159, -0.7501979323869508 
2.860000000001611, -0.7510063568354525 
2.870000000001632, -0.7525029491510498 
2.8800000000016532, -0.7548405174196146 
2.8900000000016743, -0.7581340796269214 
2.9000000000016954, -0.7624314533438994 
2.9100000000017165, -0.7676774258489345 
2.9200000000017377, -0.7736732404051667 
2.9300000000017588, -0.7800500419951522 
2.94000000000178, -0.7862975048983827 
2.950000000001801, -0.7918813780639151 
2.960000000001822, -0.7964134336460967 
2.970000000001843, -0.7997621994184291 
2.9800000000018643, -0.8020290416058821 
2.9900000000018854, -0.8034340360133173 
3.0000000000019065, -0.8042068532771243 
3.0100000000019276, -0.8045297649997905 
3.0200000000019487, -0.80452446337209 
3.03000000000197, -0.804258876220087 
3.040000000001991, -0.8037581183214242 
3.050000000002012, -0.8030140547498437 
3.060000000002033, -0.8019947776253794 
3.070000000002054, -0.8006603564316002 
3.0800000000020753, -0.7989965281378906 
3.0900000000020964, -0.7970814654491973 
3.1000000000021175, -0.7951906305409725 
3.1100000000021386, -0.7938973923679159 
3.1200000000021597, -0.7940376029282115 
3.130000000002181, -0.796380150449311 
3.140000000002202, -0.8010954772275406 
3.150000000002223, -0.807510358616587 
3.160000000002244, -0.8144681591891226 
3.1700000000022652, -0.8209180734274664 
3.1800000000022863, -0.8262417201589394 
3.1900000000023074, -0.8302624634116503 
3.2000000000023285, -0.8330960025956354 
3.2100000000023496, -0.834980532151152 
3.2200000000023707, -0.8361598441333049 
3.230000000002392, -0.8368295450227793 
3.240000000002413, -0.8371240614066682 
3.250000000002434, -0.8371203210109079 
3.260000000002455, -0.8368431054170034 
3.2700000000024763, -0.8362646183432918 
3.2800000000024974, -0.8352945322721872 
3.2900000000025185, -0.8337588902567671 
3.3000000000025396, -0.8313711604763194 
3.3100000000025607, -0.8277134093610565 
3.3200000000025818, -0.8222747611849437 
3.330000000002603, -0.8146171631019689 
3.340000000002624, -0.8046799042381363 
3.350000000002645, -0.7930466537864105 
3.360000000002666, -0.7808822876271367 
3.3700000000026873, -0.7694962080718655 
3.3800000000027084, -0.7598637020973339 
3.3900000000027295, -0.7524180825575887 
3.4000000000027506, -0.7471198879254375 
3.4100000000027717, -0.7436424174599454 
3.420000000002793, -0.7415479754755946 
3.430000000002814, -0.7404085222512873 
3.440000000002835, -0.7398689493517735 
3.450000000002856, -0.739666430779214 
3.460000000002877, -0.7396225341534444 
3.4700000000028983, -0.7396230085087768 
3.4800000000029194, -0.7395957342084825 
3.4900000000029405, -0.7394924700899906 
3.5000000000029616, -0.7392766114351439 
3.5100000000029827, -0.7389176166147472 
3.520000000003004, -0.7383921031816031 
3.530000000003025, -0.7376901960490342 
3.540000000003046, -0.7368227700636203 
3.550000000003067, -0.7358230302122617 
3.5600000000030882, -0.7347386094741848 
3.5700000000031094, -0.733617742007137 
3.5800000000031305, -0.7324979087130414 
3.5900000000031516, -0.7314026351200411 
3.6000000000031727, -0.7303456973265434 
3.6100000000031938, -0.7293382428876427 
3.620000000003215, -0.7283948372509177 
3.630000000003236, -0.7275367878836019 
3.640000000003257, -0.726792816422908 
3.650000000003278, -0.726197615286479 
3.6600000000032993, -0.7257887372995724 
3.6700000000033204, -0.7256023723930984 
3.6800000000033415, -0.725668965576032 
3.6900000000033626, -0.7260099119607091 
3.7000000000033837, -0.7266363078432132 
3.710000000003405, -0.727549900440705 
3.720000000003426, -0.728745292273205 
3.730000000003447, -0.7302115271881906 
3.740000000003468, -0.7319307128165543 
3.750000000003489, -0.7338717000073072 
3.7600000000035103, -0.7359788545266295 
3.7700000000035314, -0.7381604886705918 
3.7800000000035525, -0.7402872689520207 
3.7900000000035736, -0.7422114565588018 
3.8000000000035947, -0.7438053723498986 
3.810000000003616, -0.7449980448653136 
3.820000000003637, -0.7457857565502665 
3.830000000003658, -0.7462134459515606 
3.840000000003679, -0.746344935439331 
3.8500000000037002, -0.7462399777279247 
3.8600000000037213, -0.745944030977199 
3.8700000000037424, -0.7454884626925345 
3.8800000000037635, -0.7448982324914353 
3.8900000000037847, -0.7442073216062821 
3.9000000000038058, -0.7434861022889506 
3.910000000003827, -0.7428876728152239 
3.920000000003848, -0.7427187399831923 
3.930000000003869, -0.7435273797273335 
3.94000000000389, -0.7461630187521682 
3.9500000000039113, -0.7516992449601526 
3.9600000000039324, -0.7610642982982928 
3.9700000000039535, -0.7743530394699659 
3.9800000000039746, -0.7902405495300846 
3.9900000000039957, -0.8062686570581533 
4.000000000004016, -0.820093839546599 
4.010000000003993, -0.8305720739128297 
4.02000000000397, -0.8377930729918521 
4.030000000003946, -0.8424593497696978 
4.040000000003923, -0.8453432179134273 
4.0500000000039, -0.847053043208143 
4.0600000000038765, -0.8480011220109601 
4.070000000003853, -0.8484427369657108 
4.08000000000383, -0.8485216219126365 
4.090000000003807, -0.8483016881210421 
4.100000000003783, -0.8477820242869114 
4.11000000000376, -0.8468957002963016 
4.120000000003737, -0.8454918143514636 
4.130000000003713, -0.8432993751647174 
4.14000000000369, -0.8398766986606774 
4.150000000003667, -0.8345724991699621 
4.1600000000036434, -0.8265787728220657 
4.17000000000362, -0.8152162449481668 
4.180000000003597, -0.8005098135889916 
4.1900000000035735, -0.7837083462806441 
4.20000000000355, -0.7670668555589291 
4.210000000003527, -0.7527978656711185 
4.220000000003504, -0.7420966611915596 
4.23000000000348, -0.7349846887210048 
4.240000000003457, -0.7307665484095375 
4.250000000003434, -0.7285507651857942 
4.26000000000341, -0.727559901590023 
4.270000000003387, -0.727233589753678 
4.280000000003364, -0.7272152926752982 
4.2900000000033405, -0.7272979555563462 
4.300000000003317, -0.7273684033180967 
4.310000000003294, -0.7273647107547052 
4.320000000003271, -0.7272478608743931 
4.330000000003247, -0.726984780129524 
4.340000000003224, -0.7265401122229428 
4.350000000003201, -0.7258759674918569 
4.360000000003177, -0.7249600384697803 
4.370000000003154, -0.7237804951862545 
4.380000000003131, -0.7223604212221965 
4.390000000003107, -0.7207605129388182 
4.400000000003084, -0.7190645672225384 
4.410000000003061, -0.7173557809804724 
4.4200000000030375, -0.7156985851742876 
4.430000000003014, -0.7141339001718492 
4.440000000002991, -0.7126850342433378 
4.450000000002968, -0.7113670412691374 
4.460000000002944, -0.7101941865797337 
4.470000000002921, -0.7091836112152851 
4.480000000002898, -0.7083555115325837 
4.490000000002874, -0.7077309437653291 
4.500000000002851, -0.7073284905704162 
4.510000000002828, -0.7071610109489502 
4.520000000002804, -0.7072335614494974 
4.530000000002781, -0.7075431773796697 
4.540000000002758, -0.7080805447127002 
4.5500000000027345, -0.7088328807988764 
4.560000000002711, -0.7097867913436531 
4.570000000002688, -0.7109295478725696 
4.580000000002665, -0.7122471380511913 
4.590000000002641, -0.7137178662162769 
4.600000000002618, -0.7153020064979332 
4.610000000002595, -0.7169316974178381 
4.620000000002571, -0.7185095045023571 
4.630000000002548, -0.7199236222986561 
4.640000000002525, -0.7210773796567919 
4.6500000000025015, -0.7219165460116962 
4.660000000002478, -0.7224368659744885 
4.670000000002455, -0.7226703352809442 
4.6800000000024315, -0.7226635065064643 
4.690000000002408, -0.7224608719746434 
4.700000000002385, -0.7220979233245883 
4.710000000002362, -0.7216028660510115 
4.720000000002338, -0.7210057181518933 
4.730000000002315, -0.7203561163245388 
4.740000000002292, -0.7197541564204297 
4.750000000002268, -0.7194000298193973 
4.760000000002245, -0.7196644056981076 
4.770000000002222, -0.7211649150193781 
4.7800000000021985, -0.7247944964657133 
4.790000000002175, -0.7315865427493634 
4.800000000002152, -0.7422796695661174 
4.810000000002129, -0.7566269873337782 
4.820000000002105, -0.7729649556860598 
4.830000000002082, -0.7887539916330383 
4.840000000002059, -0.8018956271408821 
4.850000000002035, -0.811595823031977 
4.860000000002012, -0.8181682362970463 
4.870000000001989, -0.8223764605436481 
4.880000000001965, -0.8249654386018237 
4.890000000001942, -0.8264941313135603 
4.900000000001919, -0.8273323296366678 
4.9100000000018955, -0.827705521357772 
4.920000000001872, -0.8277378739952448 
