t, s[1].omega / s[0].omega 
0, -0.7000057092491295 
0.009999999999999995, -0.7005617899265291 
0.019999999999999934, -0.7010563858933467 
0.029999999999999874, -0.7014411337779854 
0.04000000000000012, -0.7016786846323698 
0.050000000000000405, -0.7017523186621386 
0.06000000000000069, -0.7016661996835774 
0.07000000000000098, -0.7014389193860031 
0.08000000000000126, -0.7010966367780528 
0.09000000000000155, -0.7006705649082112 
0.10000000000000184, -0.7002007021174788 
0.11000000000000212, -0.6997463755009478 
0.12000000000000241, -0.6994041554744592 
0.130000000000002, -0.6993334897710867 
0.1400000000000009, -0.6997884385186817 
0.1499999999999998, -0.7011488093664182 
0.1599999999999987, -0.703934657205908 
0.1699999999999976, -0.7087741376650178 
0.1799999999999965, -0.7162796595050053 
0.1899999999999954, -0.7267901811393401 
0.1999999999999943, -0.7400089485062983 
0.2099999999999932, -0.7547499102550288 
0.2199999999999921, -0.7691557836665294 
0.229999999999991, -0.7814697503953563 
0.2399999999999899, -0.7907938996918309 
0.2499999999999888, -0.7972021016328842 
0.2599999999999877, -0.8013075899548949 
0.2699999999999866, -0.8038048881511288 
0.2799999999999855, -0.8052462330876731 
0.2899999999999844, -0.8060036038631153 
0.2999999999999833, -0.8063031558438963 
0.3099999999999822, -0.8062675449972458 
0.3199999999999811, -0.8059450544653901 
0.32999999999998, -0.8053224369171303 
0.3399999999999789, -0.8043221419903471 
0.3499999999999778, -0.802783494753481 
0.35999999999997667, -0.8004264343848361 
0.36999999999997557, -0.7968010219403346 
0.37999999999997447, -0.7912474129036002 
0.38999999999997337, -0.7829456303949931 
0.39999999999997227, -0.7712042530239971 
0.40999999999997117, -0.7560657532946979 
0.41999999999997006, -0.7388694424343899 
0.42999999999996896, -0.7220030505093249 
0.43999999999996786, -0.7077347839157354 
0.44999999999996676, -0.6971848301745105 
0.45999999999996566, -0.6902481600726705 
0.46999999999996456, -0.6861459992755086 
0.47999999999996346, -0.683969672677489 
0.48999999999996235, -0.6829639701928429 
0.49999999999996125, -0.682599146859131 
0.5099999999999602, -0.6825416218705771 
0.519999999999959, -0.6825967403808613 
0.529999999999958, -0.6826562721294752 
0.5399999999999568, -0.6826598987264074 
0.5499999999999557, -0.6825701197791157 
0.5599999999999546, -0.6823575039724394 
0.5699999999999535, -0.6819938863405025 
0.5799999999999524, -0.681452589005066 
0.5899999999999513, -0.6807152178572593 
0.5999999999999502, -0.6797825197995431 
0.6099999999999491, -0.6786827126988876 
0.619999999999948, -0.6774693610790244 
0.6299999999999469, -0.6762071088864717 
0.6399999999999458, -0.6749533274593859 
0.6499999999999447, -0.6737465045440396 
0.6599999999999436, -0.6726056959436053 
0.6699999999999425, -0.671537680078542 
0.6799999999999414, -0.6705459411859291 
0.6899999999999403, -0.6696375322833615 
0.6999999999999392, -0.6688267705747756 
0.7099999999999381, -0.6681364085810564 
0.719999999999937, -0.6675971840593731 
0.7299999999999359, -0.6672462882658945 
0.7399999999999348, -0.6671250539334013 
0.7499999999999337, -0.6672762629152535 
0.7599999999999326, -0.6677416886271865 
0.7699999999999315, -0.6685604717773266 
0.7799999999999304, -0.6697684473170644 
0.7899999999999293, -0.6713975735152107 
0.7999999999999282, -0.6734733224151712 
0.8099999999999271, -0.6760066815798994 
0.819999999999926, -0.6789773571064476 
0.8299999999999249, -0.6823082042060188 
0.8399999999999238, -0.6858406282583875 
0.8499999999999227, -0.6893340445899818 
0.8599999999999216, -0.6925126481144087 
0.8699999999999205, -0.6951501970651852 
0.8799999999999194, -0.6971397263197512 
0.8899999999999183, -0.6985000736616416 
0.8999999999999172, -0.6993276134362015 
0.9099999999999161, -0.6997381438433067 
0.919999999999915, -0.6998295451202673 
0.9299999999999139, -0.699667470734096 
0.9399999999999128, -0.6992838010348609 
0.9499999999999117, -0.6986787077276554 
0.9599999999999106, -0.6978216532274882 
0.9699999999999095, -0.6966498306816505 
0.9799999999999084, -0.6950640188368845 
0.9899999999999073, -0.692921751308825 
0.9999999999999062, -0.690025285412468 
1.0099999999999052, -0.6860977567962798 
1.019999999999904, -0.6807507882985584 
1.029999999999903, -0.6735186967475731 
1.039999999999902, -0.6641578552098035 
1.0499999999999008, -0.6532387076866846 
1.0599999999998997, -0.6423492858899849 
1.0699999999998986, -0.6332602887371926 
1.0799999999998975, -0.6268632548628765 
1.0899999999998964, -0.6230034279207649 
1.0999999999998953, -0.6210021972996814 
1.1099999999998942, -0.620150333907229 
1.119999999999893, -0.6199170342964638 
1.129999999999892, -0.6199668510065907 
1.1399999999998909, -0.6201090611417386 
1.1499999999998898, -0.6202426454599925 
1.1599999999998887, -0.6203155827280697 
1.1699999999998876, -0.6202989605525131 
1.1799999999998865, -0.620171953003285 
1.1899999999998854, -0.619914291214287 
1.1999999999998843, -0.6195046418018287 
1.2099999999998832, -0.6189246306415419 
1.219999999999882, -0.6181677767579955 
1.229999999999881, -0.6172495768505243 
1.2399999999998799, -0.6162115032093067 
1.2499999999998788, -0.6151131146704408 
1.2599999999998777, -0.6140147882141377 
1.2699999999998766, -0.6129612328795625 
1.2799999999998755, -0.6119745821456694 
1.2899999999998744, -0.6110580422400027 
1.2999999999998733, -0.6102051677359357 
1.3099999999998722, -0.6094091993124091 
1.319999999999871, -0.6086694749399705 
1.32999999999987, -0.6079947749615175 
1.3399999999998689, -0.6074049463499428 
1.3499999999998678, -0.6069321611754718 
1.3599999999998666, -0.6066224775844289 
1.3699999999998655, -0.6065377403668781 
1.3799999999998644, -0.6067575727074253 
1.3899999999998633, -0.6073811911023715 
1.3999999999998622, -0.6085287425325847 
1.4099999999998611, -0.6103413780255609 
1.41999999999986, -0.6129777347373573 
1.429999999999859, -0.6166012918246978 
1.4399999999998578, -0.6213484234728645 
1.4499999999998567, -0.6272645573091264 
1.4599999999998556, -0.634207165432587 
1.4699999999998545, -0.6417558299854019 
1.4799999999998534, -0.6492276968452747 
1.4899999999998523, -0.6558779410255133 
1.4999999999998512, -0.6611941354695651 
1.5099999999998501, -0.6650521584508768 
1.519999999999849, -0.66763503982552 
1.529999999999848, -0.6692458449824631 
1.5399999999998468, -0.6701681667248116 
1.5499999999998457, -0.6706116104179398 
1.5599999999998446, -0.6707087721168005 
1.5699999999998435, -0.670528111715129 
1.5799999999998424, -0.6700845609291661 
1.5899999999998413, -0.669341219440329 
1.5999999999998402, -0.6681993956482024 
1.6099999999998391, -0.6664748450150879 
1.619999999999838, -0.6638605362812635 
1.629999999999837, -0.6598894791451492 
1.6399999999998358, -0.6539485679208177 
1.6499999999998347, -0.6454492250041826 
1.6599999999998336, -0.6342309925810103 
1.6699999999998325, -0.6209934294815171 
1.6799999999998314, -0.6072428497575586 
1.6899999999998303, -0.5946047343562701 
1.6999999999998292, -0.5841180093798933 
1.709999999999828, -0.576065549207433 
1.719999999999827, -0.5702218760072734 
1.729999999999826, -0.5661579315105448 
1.7399999999998248, -0.5634317521747906 
1.7499999999998237, -0.5616681587271323 
1.7599999999998226, -0.5605763492092968 
1.7699999999998215, -0.5599419869825104 
1.7799999999998204, -0.5596121179439457 
1.7899999999998193, -0.5594802308049727 
1.7999999999998182, -0.5594737994597341 
1.809999999999817, -0.5595447937304294 
1.819999999999816, -0.5596630709535958 
1.8299999999998149, -0.5598123492788144 
1.8399999999998138, -0.5599881469409687 
1.8499999999998127, -0.5601964549790617 
1.8599999999998116, -0.5604512271188586 
1.8699999999998105, -0.5607687916808665 
1.8799999999998094, -0.5611587870964967 
1.8899999999998083, -0.5616139867106685 
1.8999999999998072, -0.5621039737884496 
1.909999999999806, -0.5625779029650204 
1.919999999999805, -0.5629775469994885 
1.9299999999998039, -0.5632546035372317 
1.9399999999998028, -0.56338231557003 
1.9499999999998017, -0.5633559887966335 
1.9599999999998006, -0.563185318832946 
1.9699999999997995, -0.5628851669493218 
1.9799999999997984, -0.5624693583534645 
1.9899999999997973, -0.5619487490843302 
1.9999999999997962, -0.5613332901503554 
2.0099999999998173, -0.5606380554409137 
2.0199999999998384, -0.5598939223786343 
2.0299999999998595, -0.5591631050554782 
2.0399999999998806, -0.5585546917537515 
2.0499999999999017, -0.5582189254047986 
2.059999999999923, -0.558265649082138 
2.069999999999944, -0.5585338054758049 
2.079999999999965, -0.5582809535815171 
2.089999999999986, -0.5562848631848724 
2.100000000000007, -0.551856764381506 
2.1100000000000283, -0.5458274557190539 
2.1200000000000494, -0.5399358261845613 
2.1300000000000705, -0.5354126079747606 
2.1400000000000916, -0.532505825407032 
2.1500000000001127, -0.5308873664298425 
2.160000000000134, -0.530109648593171 
2.170000000000155, -0.5298121602420091 
2.180000000000176, -0.5297566109976894 
2.190000000000197, -0.529800724628731 
2.2000000000002182, -0.529864087091406 
2.2100000000002393, -0.5299018809010023 
2.2200000000002604, -0.5298879353388392 
2.2300000000002815, -0.5298050558062695 
2.2400000000003026, -0.5296407538050633 
2.2500000000003237, -0.5293872718838606 
2.260000000000345, -0.5290449035469804 
2.270000000000366, -0.5286265007979789 
2.280000000000387, -0.5281594155738674 
2.290000000000408, -0.5276812261987118 
2.3000000000004293, -0.527229173036383 
2.3100000000004504, -0.5268280361053008 
2.3200000000004715, -0.5264827015446736 
2.3300000000004926, -0.5261787812152836 
2.3400000000005137, -0.5258902481996561 
2.3500000000005348, -0.5255898612534026 
2.360000000000556, -0.52525752294859 
2.370000000000577, -0.5248839446862426 
2.380000000000598, -0.5244703974107328 
2.390000000000619, -0.5240273489749864 
2.4000000000006403, -0.5235747242178579 
2.4100000000006614, -0.5231456499294539 
2.4200000000006825, -0.5227951566915784 
2.4300000000007036, -0.5226157205558948 
2.4400000000007247, -0.5227623131635192 
2.450000000000746, -0.5234896398000789 
2.460000000000767, -0.5252004518309535 
2.470000000000788, -0.5284886235740293 
2.480000000000809, -0.5341202034150704 
2.49000000000083, -0.5428262218027029 
2.5000000000008513, -0.5547689779487394 
2.5100000000008724, -0.5688596264924365 
2.5200000000008935, -0.5827704138466916 
2.5300000000009146, -0.5942419534269587 
2.5400000000009357, -0.6024461339653117 
2.550000000000957, -0.6078812001264101 
2.560000000000978, -0.6114275084665859 
2.570000000000999, -0.6137748341184692 
2.58000000000102, -0.6153481733998556 
2.5900000000010412, -0.6163968290684277 
2.6000000000010624, -0.6170718426856778 
2.6100000000010835, -0.6174676190905288 
2.6200000000011046, -0.6176416136298533 
2.6300000000011257, -0.6176235293132145 
2.6400000000011468, -0.6174195232939119 
2.650000000001168, -0.6170141634083872 
2.660000000001189, -0.6163726674427458 
2.67000000000121, -0.6154471648195707 
2.680000000001231, -0.6141915758970315 
2.6900000000012523, -0.6125865936184217 
2.7000000000012734, -0.6106661942018203 
2.7100000000012945, -0.6085264899253221 
2.7200000000013156, -0.6063034362275914 
2.7300000000013367, -0.6041305830447081 
2.740000000001358, -0.6021045961291799 
2.750000000001379, -0.6002752859244967 
2.7600000000014, -0.5986557529620437 
2.770000000001421, -0.5972394312504751 
2.780000000001442, -0.5960145288266542 
2.7900000000014633, -0.5949727857973561 
2.8000000000014844, -0.5941133184680543 
2.8100000000015055, -0.5934434240458337 
2.8200000000015266, -0.5929779357934593 
2.8300000000015477, -0.5927381296893636 
2.840000000001569, -0.592750767965253 
2.85000000000159, -0.5930476550228201 
2.860000000001611, -0.5936659202189392 
2.870000000001632, -0.5946489473089064 
2.8800000000016532, -0.59604727565994 
2.8900000000016743, -0.5979177407078768 
2.9000000000016954, -0.6003175172514873 
2.9100000000017165, -0.6032880000854383 
2.9200000000017377, -0.6068236172821695 
2.9300000000017588, -0.6108275905893971 
2.94000000000178, -0.6150753310246115 
2.950000000001801, -0.619227386263367 
2.960000000001822, -0.6229207580656309 
2.970000000001843, -0.6258981907544393 
2.9800000000018643, -0.6280812149609339 
2.9900000000018854, -0.6295424348058608 
3.0000000000019065, -0.6304240242033529 
3.0100000000019276, -0.6308681079541754 
3.0200000000019487, -0.6309825909311644 
3.03000000000197, -0.6308324950298664 
3.040000000001991, -0.6304407692793054 
3.050000000002012, -0.6297879704468523 
3.060000000002033, -0.6288049444865267 
3.070000000002054, -0.6273541130651795 
3.0800000000020753, -0.6251949963059132 
3.0900000000020964, -0.6219333939529141 
3.1000000000021175, -0.6169745079137056 
3.1100000000021386, -0.6095598455488952 
3.1200000000021597, -0.5990465651904953 
3.130000000002181, -0.585494741817977 
3.140000000002202, -0.5701385121457553 
3.150000000002223, -0.5550164868506461 
3.160000000002244, -0.5419069931044096 
3.1700000000022652, -0.5316226647794904 
3.1800000000022863, -0.5241053130852128 
3.1900000000023074, -0.5188678948441662 
3.2000000000023285, -0.5153411513398212 
3.2100000000023496, -0.5130326692380693 
3.2200000000023707, -0.5115663759525929 
3.230000000002392, -0.510672168597526 
3.240000000002413, -0.5101624545099517 
3.250000000002434, -0.509909718493866 
3.260000000002455, -0.5098289099677394 
3.2700000000024763, -0.509864780927034 
3.2800000000024974, -0.5099833730726437 
3.2900000000025185, -0.5101667861811987 
3.3000000000025396, -0.5104103601388041 
3.3100000000025607, -0.5107211300683009 
3.3200000000025818, -0.5111158630593677 
3.330000000002603, -0.5116165861955948 
3.340000000002624, -0.5122420134485257 
3.350000000002645, -0.5129952160227352 
3.360000000002666, -0.5138511675806046 
3.3700000000026873, -0.5147512694162422 
3.3800000000027084, -0.5156121618330896 
3.3900000000027295, -0.51634872027231 
3.4000000000027506, -0.5168992315618126 
3.4100000000027717, -0.5172374272092177 
3.420000000002793, -0.5173669458922433 
3.430000000002814, -0.517306275311866 
3.440000000002835, -0.517074123244723 
3.450000000002856, -0.5166794359008088 
3.460000000002877, -0.5161149960279426 
3.4700000000028983, -0.5153513391317761 
3.4800000000029194, -0.5143269157233107 
3.4900000000029405, -0.5129287604063022 
3.5000000000029616, -0.5109541092783079 
3.5100000000029827, -0.5080393318958781 
3.520000000003004, -0.5035537916000081 
3.530000000003025, -0.49653359539800695 
3.540000000003046, -0.4859219545524427 
3.550000000003067, -0.4714249887225826 
3.5600000000030882, -0.4544711307804373 
3.5700000000031094, -0.4378069104108543 
3.5800000000031305, -0.4237572252418236 
3.5900000000031516, -0.41316446469817014 
3.6000000000031727, -0.4057151252345698 
3.6100000000031938, -0.40067344520796516 
3.620000000003215, -0.39732819039578754 
3.630000000003236, -0.39513510479512026 
3.640000000003257, -0.3937166218776886 
3.650000000003278, -0.3928224810561959 
3.6600000000032993, -0.3922908320516577 
3.6700000000033204, -0.39201936407453075 
3.6800000000033415, -0.39194614499706026 
3.6900000000033626, -0.39203780437018204 
3.7000000000033837, -0.39228291660323805 
3.710000000003405, -0.39268899529797646 
3.720000000003426, -0.3932817788092561 
3.730000000003447, -0.3941052558755914 
3.740000000003468, -0.3952200603740093 
3.750000000003489, -0.3966964776006738 
3.7600000000035103, -0.3985968169847403 
3.7700000000035314, -0.40094254566806437 
3.7800000000035525, -0.4036700195995091 
3.7900000000035736, -0.4065992828991372 
3.8000000000035947, -0.40945721515049927 
3.810000000003616, -0.41196853656210236 
3.820000000003637, -0.4139583022050141 
3.830000000003658, -0.4153885856948083 
3.840000000003679, -0.4163198800578667 
3.8500000000037002, -0.4168485594545646 
3.8600000000037213, -0.41706246696009164 
3.8700000000037424, -0.4170213977603888 
3.8800000000037635, -0.4167519691514242 
3.8900000000037847, -0.41624662088247344 
3.9000000000038058, -0.41546169606139205 
3.910000000003827, -0.4143146737274416 
3.920000000003848, -0.4126865942569086 
3.930000000003869, -0.41044349748624265 
3.94000000000389, -0.4074934375257184 
3.9500000000039113, -0.40387354482560667 
3.9600000000039324, -0.3998085308754541 
3.9700000000039535, -0.3956623379999364 
3.9800000000039746, -0.3917937916335529 
3.9900000000039957, -0.3884310265972041 
4.000000000004016, -0.3856453174804424 
4.010000000003993, -0.38339907715436844 
4.02000000000397, -0.3816067999568045 
4.030000000003946, -0.38017684805677837 
4.040000000003923, -0.37903181788070167 
4.0500000000039, -0.37811538228420183 
4.0600000000038765, -0.37739291756777377 
4.070000000003853, -0.3768504893823378 
4.08000000000383, -0.376494740698717 
4.090000000003807, -0.3763551821676723 
4.100000000003783, -0.3764901080564081 
4.11000000000376, -0.37699762921263674 
4.120000000003737, -0.3780338776215558 
4.130000000003713, -0.37984070562481 
4.14000000000369, -0.38278333573733514 
4.150000000003667, -0.3873890952273757 
4.1600000000036434, -0.3943494112099912 
4.17000000000362, -0.40438420668909325 
4.180000000003597, -0.41780734135019404 
4.1900000000035735, -0.43380023901914855 
4.20000000000355, -0.4500719515665935 
4.210000000003527, -0.46389832433620326 
4.220000000003504, -0.4738609692228824 
4.23000000000348, -0.48026065837948745 
4.240000000003457, -0.48415825778950267 
4.250000000003434, -0.4865172310322216 
4.26000000000341, -0.4879644079650324 
4.270000000003387, -0.48885823975205095 
4.280000000003364, -0.48939642224952606 
4.2900000000033405, -0.48968777387020734 
4.300000000003317, -0.4897909934708061 
4.310000000003294, -0.4897342181026758 
4.320000000003271, -0.48952516770741666 
4.330000000003247, -0.48915772715457007 
4.340000000003224, -0.4886189026102186 
4.350000000003201, -0.48789881595663154 
4.360000000003177, -0.4870037412992458 
4.370000000003154, -0.48596731343652255 
4.380000000003131, -0.48485137047561083 
4.390000000003107, -0.48373187202465734 
4.400000000003084, -0.4826764364834119 
4.410000000003061, -0.48172671235190345 
4.4200000000030375, -0.480893706260927 
4.430000000003014, -0.480164573157432 
4.440000000002991, -0.47951451294104147 
4.450000000002968, -0.47891798757360415 
4.460000000002944, -0.47835616986851176 
4.470000000002921, -0.4778203429634701 
4.480000000002898, -0.4773129218452534 
4.490000000002874, -0.47684839531851575 
4.500000000002851, -0.47645617246849464 
4.510000000002828, -0.47618690753215764 
4.520000000002804, -0.4761239185214663 
4.530000000002781, -0.4764018294817928 
4.540000000002758, -0.4772350758531826 
4.5500000000027345, -0.4789579561014813 
4.560000000002711, -0.4820713489010019 
4.570000000002688, -0.48726913074465117 
4.580000000002665, -0.49536469377307835 
4.590000000002641, -0.5069663060494561 
4.600000000002618, -0.5218082149795432 
4.610000000002595, -0.5381421840128578 
4.620000000002571, -0.5532130938604224 
4.630000000002548, -0.5649357675686156 
4.640000000002525, -0.5729578575450673 
4.6500000000025015, -0.5780980044036209 
4.660000000002478, -0.5813479645265642 
4.670000000002455, -0.5834257479362399 
4.6800000000024315, -0.584766349927847 
4.690000000002408, -0.5856219564011443 
4.700000000002385, -0.586140179558691 
4.710000000002362, -0.5864077139063597 
4.720000000002338, -0.5864723680955899 
4.730000000002315, -0.5863538351440943 
4.740000000002292, -0.5860489522284186 
4.750000000002268, -0.5855351283896912 
4.760000000002245, -0.5847756049326673 
4.770000000002222, -0.5837307873758664 
4.7800000000021985, -0.5823782261051822 
4.790000000002175, -0.5807366633474033 
4.800000000002152, -0.5788793813714603 
4.810000000002129, -0.5769218417618017 
4.820000000002105, -0.5749867688074067 
4.830000000002082, -0.573169169821883 
4.840000000002059, -0.5715209885075103 
4.850000000002035, -0.5700565546253406 
4.860000000002012, -0.5687679383323656 
4.870000000001989, -0.5676399818132403 
4.880000000001965, -0.5666604951250622 
4.890000000001942, -0.565825524377187 
4.900000000001919, -0.5651413959362614 
4.9100000000018955, -0.5646252820423524 
