t, s[1].omega / s[0].omega 
0, -0.7399976770222804 
0.009999999999999995, -0.7397531495756485 
0.019999999999999934, -0.7394775812926054 
0.029999999999999874, -0.7391546691087407 
0.04000000000000012, -0.7387681821865321 
0.050000000000000405, -0.7383112172631888 
0.06000000000000069, -0.7377912187494031 
0.07000000000000098, -0.7372311931657571 
0.08000000000000126, -0.7366701439247758 
0.09000000000000155, -0.7361649906707903 
0.10000000000000184, -0.735793790664233 
0.11000000000000212, -0.7356579880726621 
0.12000000000000241, -0.7358807337904175 
0.130000000000002, -0.7365994565897344 
0.1400000000000009, -0.7379534814101049 
0.1499999999999998, -0.7400699438607732 
0.1599999999999987, -0.7430512499234908 
0.1699999999999976, -0.7469638804740603 
0.1799999999999965, -0.751823056155944 
0.1899999999999954, -0.7575646656081383 
0.1999999999999943, -0.7640011480054069 
0.2099999999999932, -0.7707788507334727 
0.2199999999999921, -0.7773863845778732 
0.229999999999991, -0.7832663553246164 
0.2399999999999899, -0.788004044424466 
0.2499999999999888, -0.79146212219436 
0.2599999999999877, -0.7937595968150355 
0.2699999999999866, -0.7951422156973501 
0.2799999999999855, -0.7958593134324726 
0.2899999999999844, -0.7961024546781152 
0.2999999999999833, -0.7959938013875487 
0.3099999999999822, -0.7955958332355729 
0.3199999999999811, -0.7949255050213192 
0.32999999999998, -0.7939694378935109 
0.3399999999999789, -0.7927070001732035 
0.3499999999999778, -0.7911586712716153 
0.35999999999997667, -0.7894897919913816 
0.36999999999997557, -0.7882046968129368 
0.37999999999997447, -0.7884237342521317 
0.38999999999997337, -0.792070633258712 
0.39999999999997227, -0.8015068534094854 
0.40999999999997117, -0.8181443431098205 
0.41999999999997006, -0.8406654160531343 
0.42999999999996896, -0.8649575439532361 
0.43999999999996786, -0.886538387511566 
0.44999999999996676, -0.9029745083934246 
0.45999999999996566, -0.9141648573988579 
0.46999999999996456, -0.9212288374595273 
0.47999999999996346, -0.9254705520036092 
0.48999999999996235, -0.92791653046586 
0.49999999999996125, -0.9292470301843307 
0.5099999999999602, -0.9298696051141689 
0.519999999999959, -0.9300050875506247 
0.529999999999958, -0.9297460741797545 
0.5399999999999568, -0.9290830360214095 
0.5499999999999557, -0.9278993281122995 
0.5599999999999546, -0.9259322615978027 
0.5699999999999535, -0.922692319252626 
0.5799999999999524, -0.9173374656733596 
0.5899999999999513, -0.9085417650224731 
0.5999999999999502, -0.8945284438877292 
0.6099999999999491, -0.873653709532992 
0.619999999999948, -0.845866676907671 
0.6299999999999469, -0.8142541296589586 
0.6399999999999458, -0.7844329933747158 
0.6499999999999447, -0.7612789503888054 
0.6599999999999436, -0.7463305714269304 
0.6699999999999425, -0.7382301697304985 
0.6799999999999414, -0.7346226815571197 
0.6899999999999403, -0.733475268424994 
0.6999999999999392, -0.7334587936501721 
0.7099999999999381, -0.7338409484498641 
0.719999999999937, -0.7342685431015996 
0.7299999999999359, -0.7345909927813026 
0.7399999999999348, -0.7347499602205014 
0.7499999999999337, -0.7347185331640554 
0.7599999999999326, -0.7344694092913456 
0.7699999999999315, -0.7339583932225372 
0.7799999999999304, -0.7331176080512966 
0.7899999999999293, -0.7318601439759769 
0.7999999999999282, -0.7301023246476992 
0.8099999999999271, -0.7278050416834644 
0.819999999999926, -0.7250168730674607 
0.8299999999999249, -0.7218843654718352 
0.8399999999999238, -0.7186111424464636 
0.8499999999999227, -0.7153922096456239 
0.8599999999999216, -0.7123683650775309 
0.8699999999999205, -0.7096186512597551 
0.8799999999999194, -0.7071774458638641 
0.8899999999999183, -0.7050561169979707 
0.8999999999999172, -0.7032581134192457 
0.9099999999999161, -0.7017854270532191 
0.919999999999915, -0.7006386824645288 
0.9299999999999139, -0.6998140758291707 
0.9399999999999128, -0.6992999832141253 
0.9499999999999117, -0.6990752176277877 
0.9599999999999106, -0.6991098727404517 
0.9699999999999095, -0.6993685987713424 
0.9799999999999084, -0.6998153133897291 
0.9899999999999073, -0.7004180240602136 
0.9999999999999062, -0.701152560604642 
1.0099999999999052, -0.702004172525408 
1.019999999999904, -0.7029658059836755 
1.029999999999903, -0.7040317896876197 
1.039999999999902, -0.7051867420106519 
1.0499999999999008, -0.7063927155213877 
1.0599999999998997, -0.7075820086029844 
1.0699999999998986, -0.708664480093691 
1.0799999999998975, -0.7095510243644038 
1.0899999999998964, -0.710181110789391 
1.0999999999998953, -0.7105365180593528 
1.1099999999998942, -0.710634940757447 
1.119999999999893, -0.7105129988967074 
1.129999999999892, -0.7102119017442601 
1.1399999999998909, -0.709772715681633 
1.1499999999998898, -0.7092426257437372 
1.1599999999998887, -0.708693012837387 
1.1699999999998876, -0.708252630340682 
1.1799999999998865, -0.7081614776729219 
1.1899999999998854, -0.7088497706786171 
1.1999999999998843, -0.7110366493905895 
1.2099999999998832, -0.7158168409686765 
1.219999999999882, -0.7246501734402201 
1.229999999999881, -0.7390898220691191 
1.2399999999998799, -0.7600530045517234 
1.2499999999998788, -0.7867002651315949 
1.2599999999998777, -0.8157649120940832 
1.2699999999998766, -0.8426191748519326 
1.2799999999998755, -0.8637662865825947 
1.2899999999998744, -0.8783460289997311 
1.2999999999998733, -0.8874852108569528 
1.3099999999998722, -0.8928757082864112 
1.319999999999871, -0.8959253865192045 
1.32999999999987, -0.8975685177955208 
1.3399999999998689, -0.8983579558849086 
1.3499999999998678, -0.8985954856792399 
1.3599999999998666, -0.8984247864053007 
1.3699999999998655, -0.8978817765255807 
1.3799999999998644, -0.8969119914751349 
1.3899999999998633, -0.8953629136090371 
1.3999999999998622, -0.8929573202413931 
1.4099999999998611, -0.8892601799363066 
1.41999999999986, -0.8836750457757759 
1.429999999999859, -0.875547701762823 
1.4399999999998578, -0.8644745113277127 
1.4499999999998567, -0.8508040701822971 
1.4599999999998556, -0.8360516141870253 
1.4699999999998545, -0.8227510183427675 
1.4799999999998534, -0.8134110657713114 
1.4899999999998523, -0.8090405198408129 
1.4999999999998512, -0.80869756827908 
1.5099999999998501, -0.810527224086977 
1.519999999999849, -0.8129676757135507 
1.529999999999848, -0.815171223769038 
1.5399999999998468, -0.8168463340718951 
1.5499999999998457, -0.8179827694399544 
1.5599999999998446, -0.8186635134382734 
1.5699999999998435, -0.8189737137287304 
1.5799999999998424, -0.818965264370785 
1.5899999999998413, -0.8186429672581539 
1.5999999999998402, -0.817953297287341 
1.6099999999998391, -0.8167670041660312 
1.619999999999838, -0.814854960895973 
1.629999999999837, -0.8118704697264134 
1.6399999999998358, -0.8073763966757147 
1.6499999999998347, -0.8009756314290936 
1.6599999999998336, -0.792555817462697 
1.6699999999998325, -0.7825063553485746 
1.6799999999998314, -0.7716784419782013 
1.6899999999998303, -0.7610667709372259 
1.6999999999998292, -0.7514707557369059 
1.709999999999828, -0.743350260064353 
1.719999999999827, -0.7368595870376929 
1.729999999999826, -0.73194408080649 
1.7399999999998248, -0.728426131376984 
1.7499999999998237, -0.726065335737581 
1.7599999999998226, -0.7246007676658988 
1.7699999999998215, -0.7237825949546763 
1.7799999999998204, -0.7233941116906509 
1.7899999999998193, -0.7232627570242092 
1.7999999999998182, -0.7232605025763402 
1.809999999999817, -0.7232968941743546 
1.819999999999816, -0.7233094073184557 
1.8299999999998149, -0.7232552633495403 
1.8399999999998138, -0.7231072453645464 
1.8499999999998127, -0.7228537559699287 
1.8599999999998116, -0.7225004852425561 
1.8699999999998105, -0.7220689881812741 
1.8799999999998094, -0.7215889474251569 
1.8899999999998083, -0.7210862359235783 
1.8999999999998072, -0.7205733838925059 
1.909999999999806, -0.7200479889013763 
1.919999999999805, -0.7194991938959778 
1.9299999999998039, -0.7189176016092891 
1.9399999999998028, -0.7183033789961746 
1.9499999999998017, -0.7176704063134488 
1.9599999999998006, -0.7170477569586408 
1.9699999999997995, -0.7164807471459953 
1.9799999999997984, -0.7160324278498755 
1.9899999999997973, -0.7157845491167997 
1.9999999999997962, -0.7158361438204638 
2.0099999999998173, -0.7162984471198386 
2.0199999999998384, -0.7172865756807552 
2.0299999999998595, -0.7189101133878555 
2.0399999999998806, -0.7212649669612593 
2.0499999999999017, -0.724426701759177 
2.059999999999923, -0.728441619420383 
2.069999999999944, -0.7333080932252478 
2.079999999999965, -0.7389408420181885 
2.089999999999986, -0.7451213765010269 
2.100000000000007, -0.7514642927287414 
2.1100000000000283, -0.7574563612682178 
2.1200000000000494, -0.7626005238282626 
2.1300000000000705, -0.766594540818869 
2.1400000000000916, -0.7694076887518906 
2.1500000000001127, -0.771209949126446 
2.160000000000134, -0.7722412316856592 
2.170000000000155, -0.7727162037859941 
2.180000000000176, -0.7727872956468698 
2.190000000000197, -0.7725433517842606 
2.2000000000002182, -0.772020074921694 
2.2100000000002393, -0.7712111684765648 
2.2200000000002604, -0.7700797400805497 
2.2300000000002815, -0.7685776279553272 
2.2400000000003026, -0.7666893552256272 
2.2500000000003237, -0.7645268708155932 
2.260000000000345, -0.7624958172791806 
2.270000000000366, -0.7614883458395173 
2.280000000000387, -0.7628803100345257 
2.290000000000408, -0.7679597618480817 
2.3000000000004293, -0.7768538508342846 
2.3100000000004504, -0.7881003740260235 
2.3200000000004715, -0.799652890551936 
2.3300000000004926, -0.8100193799571619 
2.3400000000005137, -0.8184585043695742 
2.3500000000005348, -0.8247926299085311 
2.360000000000556, -0.8292320901934275 
2.370000000000577, -0.832174004057857 
2.380000000000598, -0.8340264178807318 
2.390000000000619, -0.8351169623863397 
2.4000000000006403, -0.835671598785775 
2.4100000000006614, -0.8358245033265707 
2.4200000000006825, -0.8356318865382143 
2.4300000000007036, -0.8350766707741061 
2.4400000000007247, -0.8340577835152881 
2.450000000000746, -0.8323600498753511 
2.460000000000767, -0.8296051693284859 
2.470000000000788, -0.8252033812591384 
2.480000000000809, -0.8183746357172771 
2.49000000000083, -0.8083684233593053 
2.5000000000008513, -0.7949495502075571 
2.5100000000008724, -0.7788822380325451 
2.5200000000008935, -0.7618664920176865 
2.5300000000009146, -0.7458207320940227 
2.5400000000009357, -0.7321272872067083 
2.550000000000957, -0.7213702449411651 
2.560000000000978, -0.7134969530707036 
2.570000000000999, -0.7080990208961531 
2.58000000000102, -0.7046370234241894 
2.5900000000010412, -0.7025774820034638 
2.6000000000010624, -0.7014627392756074 
2.6100000000010835, -0.7009367658244556 
2.6200000000011046, -0.7007433799186218 
2.6300000000011257, -0.7007093200138336 
2.6400000000011468, -0.7007219297848123 
2.650000000001168, -0.7007082201258388 
2.660000000001189, -0.7006191093914156 
2.67000000000121, -0.7004205098355158 
2.680000000001231, -0.7000914391294853 
2.6900000000012523, -0.6996273608591462 
2.7000000000012734, -0.6990440406980247 
2.7100000000012945, -0.6983756464505136 
2.7200000000013156, -0.6976642625937044 
2.7300000000013367, -0.696945299473725 
2.740000000001358, -0.69623733037004 
2.750000000001379, -0.6955415805413682 
2.7600000000014, -0.694849635313133 
2.770000000001421, -0.6941538533803339 
2.780000000001442, -0.6934555068059154 
2.7900000000014633, -0.6927690391421215 
2.8000000000014844, -0.6921237641730448 
2.8100000000015055, -0.6915648865710265 
2.8200000000015266, -0.691154490528501 
2.8300000000015477, -0.6909717511175081 
2.840000000001569, -0.6911111520774389 
2.85000000000159, -0.6916781376506987 
2.860000000001611, -0.6927828979309947 
2.870000000001632, -0.6945339029724972 
2.8800000000016532, -0.6970323101052508 
2.8900000000016743, -0.7003659911488576 
2.9000000000016954, -0.7045981319815607 
2.9100000000017165, -0.7097418610577153 
2.9200000000017377, -0.7157134167949565 
2.9300000000017588, -0.7222704453258391 
2.94000000000178, -0.7289754819020362 
2.950000000001801, -0.7352541374125362 
2.960000000001822, -0.7405742883698716 
2.970000000001843, -0.7446437354798048 
2.9800000000018643, -0.7474701441688272 
2.9900000000018854, -0.7492604338674631 
3.0000000000019065, -0.7502755127714156 
3.0100000000019276, -0.7507369319566705 
3.0200000000019487, -0.7507960859542819 
3.03000000000197, -0.7505365405133455 
3.040000000001991, -0.7499844539403538 
3.050000000002012, -0.7491158849393652 
3.060000000002033, -0.7478587527851809 
3.070000000002054, -0.7460920028544514 
3.0800000000020753, -0.7436482114783713 
3.0900000000020964, -0.7403279131766958 
3.1000000000021175, -0.7359246692856855 
3.1100000000021386, -0.7302208599619793 
3.1200000000021597, -0.7228744904588545 
3.130000000002181, -0.7132972625610777 
3.140000000002202, -0.7011389568115847 
3.150000000002223, -0.6875479873996633 
3.160000000002244, -0.6752648257786074 
3.1700000000022652, -0.6665509983359839 
3.1800000000022863, -0.6617186572902924 
3.1900000000023074, -0.6597350039504776 
3.2000000000023285, -0.6593621300782315 
3.2100000000023496, -0.6597053328035148 
3.2200000000023707, -0.6602574258723919 
3.230000000002392, -0.6607757089742088 
3.240000000002413, -0.6611613918771054 
3.250000000002434, -0.6613808306974183 
3.260000000002455, -0.6614216786087169 
3.2700000000024763, -0.661270161472667 
3.2800000000024974, -0.6608998942535307 
3.2900000000025185, -0.6602683138326327 
3.3000000000025396, -0.6593217072643841 
3.3100000000025607, -0.6580122782239364 
3.3200000000025818, -0.6563267586700154 
3.330000000002603, -0.6543136641479105 
3.340000000002624, -0.6520863515053089 
3.350000000002645, -0.6497914478958258 
3.360000000002666, -0.6475619683329639 
3.3700000000026873, -0.645486085288369 
3.3800000000027084, -0.6436038597859381 
3.3900000000027295, -0.641922411110603 
3.4000000000027506, -0.6404348692292203 
3.4100000000027717, -0.639134525559666 
3.420000000002793, -0.6380222593765666 
3.430000000002814, -0.637108683328121 
3.440000000002835, -0.6364131188227227 
3.450000000002856, -0.6359610319138433 
3.460000000002877, -0.635781024590494 
3.4700000000028983, -0.6359022289153177 
3.4800000000029194, -0.6363528359432069 
3.4900000000029405, -0.6371602426934094 
3.5000000000029616, -0.6383527741770593 
3.5100000000029827, -0.6399621059213343 
3.520000000003004, -0.6420243487572378 
3.530000000003025, -0.6445762385420153 
3.540000000003046, -0.6476413780372423 
3.550000000003067, -0.6512018161436977 
3.5600000000030882, -0.6551568602968517 
3.5700000000031094, -0.6592886471693821 
3.5800000000031305, -0.6632743836170734 
3.5900000000031516, -0.666773200223887 
3.6000000000031727, -0.6695489910911356 
3.6100000000031938, -0.6715380796830253 
3.620000000003215, -0.672819255871824 
3.630000000003236, -0.6735331578208955 
3.640000000003257, -0.6738149716044568 
3.650000000003278, -0.6737621811475567 
3.6600000000032993, -0.6734266628934238 
3.6700000000033204, -0.6728152600205486 
3.6800000000033415, -0.6718887700160302 
3.6900000000033626, -0.6705540134255294 
3.7000000000033837, -0.6686444198901038 
3.710000000003405, -0.6658807276783085 
3.720000000003426, -0.6617927058980937 
3.730000000003447, -0.6555668309788035 
3.740000000003468, -0.6458088289745284 
3.750000000003489, -0.6304588788706322 
3.7600000000035103, -0.6077064139969136 
3.7700000000035314, -0.578452149690278 
3.7800000000035525, -0.5476600454986509 
3.7900000000035736, -0.5212430362448555 
3.8000000000035947, -0.5020231125655734 
3.810000000003616, -0.4895173589309637 
3.820000000003637, -0.4819207206211954 
3.830000000003658, -0.4775010851767073 
3.840000000003679, -0.47501376707000287 
3.8500000000037002, -0.47366372717411825 
3.8600000000037213, -0.47296921208672715 
3.8700000000037424, -0.472645110733455 
3.8800000000037635, -0.4725243668711226 
3.8900000000037847, -0.47250952104546007 
3.9000000000038058, -0.47254418445260776 
3.910000000003827, -0.4725971328035918 
3.920000000003848, -0.47265450104854156 
3.930000000003869, -0.4727171370188869 
3.94000000000389, -0.4728004449223982 
3.9500000000039113, -0.4729335289089243 
3.9600000000039324, -0.47315439140752275 
3.9700000000039535, -0.47349955595424886 
3.9800000000039746, -0.4739894519241388 
3.9900000000039957, -0.4746138576840574 
4.000000000004016, -0.4753241430998806 
4.010000000003993, -0.4760396595691878 
4.02000000000397, -0.4766699244169518 
4.030000000003946, -0.47714217956404437 
4.040000000003923, -0.4774177136073825 
4.0500000000039, -0.4774895306677582 
4.0600000000038765, -0.4773679936442584 
4.070000000003853, -0.477065074506581 
4.08000000000383, -0.4765824684785578 
4.090000000003807, -0.47590267457179386 
4.100000000003783, -0.4749787375141271 
4.11000000000376, -0.4737156036863223 
4.120000000003737, -0.47192993774668723 
4.130000000003713, -0.4692611587019281 
4.14000000000369, -0.4649850975653675 
4.150000000003667, -0.4576981615863593 
4.1600000000036434, -0.44509391043081636 
4.17000000000362, -0.42478493531144207 
4.180000000003597, -0.39708124814074003 
4.1900000000035735, -0.3669234128312061 
4.20000000000355, -0.3405584931945306 
4.210000000003527, -0.32094549401188216 
4.220000000003504, -0.30763412976422505 
4.23000000000348, -0.29894132905277276 
4.240000000003457, -0.29330827325231545 
4.250000000003434, -0.2896368116689164 
4.26000000000341, -0.2872264305546748 
4.270000000003387, -0.28564665075365897 
4.280000000003364, -0.2846375109423346 
4.2900000000033405, -0.2840460440130784 
4.300000000003317, -0.2837890848468075 
4.310000000003294, -0.2838333207510261 
4.320000000003271, -0.2841869311972349 
4.330000000003247, -0.28490009267047495 
4.340000000003224, -0.28607373339201814 
4.350000000003201, -0.28787726949359493 
4.360000000003177, -0.29057597208843783 
4.370000000003154, -0.29456410467809296 
4.380000000003131, -0.30038251320130466 
4.390000000003107, -0.3086538457759952 
4.400000000003084, -0.3198010066312971 
4.410000000003061, -0.33346450719910703 
4.4200000000030375, -0.34800838396535416 
4.430000000003014, -0.3610462240314422 
4.440000000002991, -0.3709316351187556 
4.450000000002968, -0.37752134715063485 
4.460000000002944, -0.381589075400166 
4.470000000002921, -0.38401162543304507 
4.480000000002898, -0.38542650099909465 
4.490000000002874, -0.38622278254883985 
4.500000000002851, -0.3866196981291692 
4.510000000002828, -0.3867338201702607 
4.520000000002804, -0.38662053871361024 
4.530000000002781, -0.38629784245637266 
4.540000000002758, -0.3857619858017641 
4.5500000000027345, -0.38500250560486615 
4.560000000002711, -0.38402072948774824 
4.570000000002688, -0.3828494311698694 
4.580000000002665, -0.38156288632508323 
4.590000000002641, -0.3802656295342272 
4.600000000002618, -0.3790621766849941 
4.610000000002595, -0.3780262543596527 
4.620000000002571, -0.3771865053299593 
4.630000000002548, -0.37653026319741806 
4.640000000002525, -0.3760172167800489 
4.6500000000025015, -0.3755954370823129 
4.660000000002478, -0.37521533872099405 
4.670000000002455, -0.37483870350097365 
4.6800000000024315, -0.37444167108920745 
4.690000000002408, -0.37401317643041676 
4.700000000002385, -0.37355183590376007 
4.710000000002362, -0.37306393206205335 
4.720000000002338, -0.3725639718614474 
4.730000000002315, -0.37207828450893576 
4.740000000002292, -0.37165075915902024 
4.750000000002268, -0.37134492311346584 
4.760000000002245, -0.3712185706245138 
4.770000000002222, -0.37119238335509397 
4.7800000000021985, -0.37061535880894714 
4.790000000002175, -0.36729293197520657 
4.800000000002152, -0.35667391390448366 
4.810000000002129, -0.3344292962903975 
4.820000000002105, -0.303122123515419 
4.830000000002082, -0.27214830873338625 
4.840000000002059, -0.2484113509036085 
4.850000000002035, -0.23265793498443182 
4.860000000002012, -0.222804251347336 
4.870000000001989, -0.21670897057925376 
4.880000000001965, -0.21290093501027432 
4.890000000001942, -0.21048859534872583 
4.900000000001919, -0.20895318478709876 
4.9100000000018955, -0.20799736963913168 
