t, s[1].omega / s[0].omega 
0, -1.2899901962018359 
0.009999999999999995, -1.2888288195887523 
0.019999999999999934, -1.287309693039998 
0.029999999999999874, -1.285434110092727 
0.04000000000000012, -1.2832037976969273 
0.050000000000000405, -1.2806209576520733 
0.06000000000000069, -1.2776883228590663 
0.07000000000000098, -1.2744092268583733 
0.08000000000000126, -1.2707876847904358 
0.09000000000000155, -1.266828483640869 
0.10000000000000184, -1.262537279409807 
0.11000000000000212, -1.2579206986557097 
0.12000000000000241, -1.2529864416929979 
0.130000000000002, -1.2477433845616999 
0.1400000000000009, -1.2422016767409472 
0.1499999999999998, -1.2363728314689086 
0.1599999999999987, -1.2302698054985306 
0.1699999999999976, -1.2239070652117627 
0.1799999999999965, -1.2173006362864105 
0.1899999999999954, -1.210468134598421 
0.1999999999999943, -1.2034287767587906 
0.2099999999999932, -1.1962033695967749 
0.2199999999999921, -1.1888142789275788 
0.229999999999991, -1.181285378951464 
0.2399999999999899, -1.1736419844537447 
0.2499999999999888, -1.1659107684302443 
0.2599999999999877, -1.1581196676903793 
0.2699999999999866, -1.1502977782885015 
0.2799999999999855, -1.1424752412937005 
0.2899999999999844, -1.13468311753359 
0.2999999999999833, -1.126953247761029 
0.3099999999999822, -1.1193180925169617 
0.3199999999999811, -1.1118105441819561 
0.32999999999998, -1.1044637027148507 
0.3399999999999789, -1.0973106067058307 
0.3499999999999778, -1.0903839128458706 
0.35999999999997667, -1.0837155197967374 
0.36999999999997557, -1.0773361366114231 
0.37999999999997447, -1.0712748009928368 
0.38999999999997337, -1.0655583583174182 
0.39999999999997227, -1.0602109179081158 
0.40999999999997117, -1.0552533078934438 
0.41999999999997006, -1.0507025535451138 
0.42999999999996896, -1.0465714057636122 
0.43999999999996786, -1.042867946068048 
0.44999999999996676, -1.039595291946398 
0.45999999999996566, -1.036751421867458 
0.46999999999996456, -1.0343291329956072 
0.47999999999996346, -1.0323161372112444 
0.48999999999996235, -1.030695293067994 
0.49999999999996125, -1.029444963502749 
0.5099999999999602, -1.028539482116067 
0.519999999999959, -1.0279497052197057 
0.529999999999958, -1.027643623013758 
0.5399999999999568, -1.0275870014300759 
0.5499999999999557, -1.0277440263869637 
0.5599999999999546, -1.0280779242833331 
0.5699999999999535, -1.028551536207191 
0.5799999999999524, -1.0291278281261165 
0.5899999999999513, -1.029770324795932 
0.5999999999999502, -1.0304434607989168 
0.6099999999999491, -1.0311128475812805 
0.619999999999948, -1.0317454602587521 
0.6299999999999469, -1.0323097520551334 
0.6399999999999458, -1.0327757073904578 
0.6499999999999447, -1.0331148467951417 
0.6599999999999436, -1.033300198021031 
0.6699999999999425, -1.0333062480276676 
0.6799999999999414, -1.0331088900479601 
0.6899999999999403, -1.0326853787947294 
0.6999999999999392, -1.0320143051639643 
0.7099999999999381, -1.0310755996138967 
0.719999999999937, -1.0298505708294359 
0.7299999999999359, -1.0283219833912167 
0.7399999999999348, -1.026474175034843 
0.7499999999999337, -1.0242932108056655 
0.7599999999999326, -1.0217670681156117 
0.7699999999999315, -1.018885843558467 
0.7799999999999304, -1.0156419695444359 
0.7899999999999293, -1.0120304266073605 
0.7999999999999282, -1.0080489358581448 
0.8099999999999271, -1.0036981157198204 
0.819999999999926, -0.9989815879347618 
0.8299999999999249, -0.9939060199364662 
0.8399999999999238, -0.9884810939553671 
0.8499999999999227, -0.9827193974727587 
0.8599999999999216, -0.9766362345158485 
0.8699999999999205, -0.970249362374197 
0.8799999999999194, -0.9635786631451749 
0.8899999999999183, -0.9566457636349514 
0.8999999999999172, -0.9494736201820698 
0.9099999999999161, -0.9420860866902283 
0.919999999999915, -0.9345074844660893 
0.9299999999999139, -0.9267621914231332 
0.9399999999999128, -0.9188742660336681 
0.9499999999999117, -0.9108671183832785 
0.9599999999999106, -0.9027632371475467 
0.9699999999999095, -0.8945839776126423 
0.9799999999999084, -0.886349412303709 
0.9899999999999073, -0.8780782426074017 
0.9999999999999062, -0.8697877671401 
1.0099999999999052, -0.8614939006068038 
1.019999999999904, -0.8532112355357772 
1.029999999999903, -0.8449531385258763 
1.039999999999902, -0.8367318724361427 
1.0499999999999008, -0.8285587361886856 
1.0599999999998997, -0.8204442144458918 
1.0699999999998986, -0.81239813026286 
1.0799999999998975, -0.8044297948145801 
1.0899999999998964, -0.7965481493750944 
1.0999999999998953, -0.7887618958160748 
1.1099999999998942, -0.7810796129418498 
1.119999999999893, -0.7735098569467661 
1.129999999999892, -0.7660612451409352 
1.1399999999998909, -0.758742522824703 
1.1499999999998898, -0.7515626137930232 
1.1599999999998887, -0.744530655418558 
1.1699999999998876, -0.7376560196034315 
1.1799999999998865, -0.7309483211153932 
1.1899999999998854, -0.7244174149490795 
1.1999999999998843, -0.7180733843931307 
1.2099999999998832, -0.7119265214554459 
1.219999999999882, -0.7059873012175804 
1.229999999999881, -0.700266351569608 
1.2399999999998799, -0.6947744196311478 
1.2499999999998788, -0.6895223360033292 
1.2599999999998777, -0.6845209778286144 
1.2699999999998766, -0.6797812314673103 
1.2799999999998755, -0.6753139554361582 
1.2899999999998744, -0.6711299440992037 
1.2999999999998733, -0.667239892456668 
1.3099999999998722, -0.6636543622453985 
1.319999999999871, -0.6603837494457675 
1.32999999999987, -0.6574382531851808 
1.3399999999998689, -0.6548278459380791 
1.3499999999998678, -0.652562244846534 
1.3599999999998666, -0.6506508839244386 
1.3699999999998655, -0.6491028868616507 
1.3799999999998644, -0.647927040112294 
1.3899999999998633, -0.6471317659333768 
1.3999999999998622, -0.6467250950357214 
1.4099999999998611, -0.6467146385183543 
1.41999999999986, -0.6471075587793766 
1.429999999999859, -0.6479105391300619 
1.4399999999998578, -0.6491297518834583 
1.4499999999998567, -0.6507708247427233 
1.4599999999998556, -0.6528388053761984 
1.4699999999998545, -0.6553381241338272 
1.4799999999998534, -0.6582725549306445 
1.4899999999998523, -0.6616451743950328 
1.4999999999998512, -0.6654583194492397 
1.5099999999998501, -0.6697135435539499 
1.519999999999849, -0.6744115719039929 
1.529999999999848, -0.6795522559048021 
1.5399999999998468, -0.6851345272854604 
1.5499999999998457, -0.6911563522106015 
1.5599999999998446, -0.6976146857372725 
1.5699999999998435, -0.704505426921965 
1.5799999999998424, -0.7118233748165753 
1.5899999999998413, -0.7195621855006933 
1.5999999999998402, -0.7277143301840882 
1.6099999999998391, -0.7362710542825779 
1.619999999999838, -0.7452223372305059 
1.629999999999837, -0.7545568526545776 
1.6399999999998358, -0.7642619284108283 
1.6499999999998347, -0.7743235058959989 
1.6599999999998336, -0.784726098006353 
1.6699999999998325, -0.7954527451528481 
1.6799999999998314, -0.8064849688744687 
1.6899999999998303, -0.8178027228440055 
1.6999999999998292, -0.8293843414527524 
1.709999999999828, -0.8412064867079275 
1.719999999999827, -0.8532440948867259 
1.729999999999826, -0.8654703252603323 
1.7399999999998248, -0.8778565142117738 
1.7499999999998237, -0.8903721391865207 
1.7599999999998226, -0.9029847980758569 
1.7699999999998215, -0.9156602107577813 
1.7799999999998204, -0.9283622505012367 
1.7899999999998193, -0.941053013646922 
1.7999999999998182, -0.9536929362646832 
1.809999999999817, -0.9662409662000547 
1.819999999999816, -0.9786547979162749 
1.8299999999998149, -0.9908911756984435 
1.8399999999998138, -1.0029062680533343 
1.8499999999998127, -1.0146561125322306 
1.8599999999998116, -1.0260971258489944 
1.8699999999998105, -1.0371866693031964 
1.8799999999998094, -1.0478836545081305 
1.8899999999998083, -1.0581491697239875 
1.8999999999998072, -1.0679471032223793 
1.909999999999806, -1.077244737571225 
1.919999999999805, -1.0860132879624453 
1.9299999999998039, -1.0942283589903739 
1.9399999999998028, -1.101870297694673 
1.9499999999998017, -1.1089244260299025 
1.9599999999998006, -1.1153811427964406 
1.9699999999997995, -1.121235892850939 
1.9799999999997984, -1.1264890093816253 
1.9899999999997973, -1.1311454424429137 
1.9999999999997962, -1.1352143931402945 
2.0099999999998173, -1.138708877355034 
2.0199999999998384, -1.1416452454327723 
2.0299999999998595, -1.1440426847953054 
2.0399999999998806, -1.1459227311393878 
2.0499999999999017, -1.147308811080861 
2.059999999999923, -1.1482258351914254 
2.069999999999944, -1.148699855781108 
2.079999999999965, -1.1487577988858961 
2.089999999999986, -1.1484272750354283 
2.100000000000007, -1.147736468716955 
2.1100000000000283, -1.1467141021467 
2.1200000000000494, -1.1453894650658807 
2.1300000000000705, -1.1437924988105694 
2.1400000000000916, -1.14195391986637 
2.1500000000001127, -1.1399053655341074 
2.160000000000134, -1.1376795422686343 
2.170000000000155, -1.135310355833579 
2.180000000000176, -1.132833001821705 
2.190000000000197, -1.1302839955449442 
2.2000000000002182, -1.1277011220299462 
2.2100000000002393, -1.1251232900552983 
2.2200000000002604, -1.1225902789331168 
2.2300000000002815, -1.120142373019393 
2.2400000000003026, -1.1178198864912383 
2.2500000000003237, -1.1156625892990224 
2.260000000000345, -1.1137090537325696 
2.270000000000366, -1.1119959489304458 
2.280000000000387, -1.1105573170490233 
2.290000000000408, -1.109423868887793 
2.3000000000004293, -1.1086223379125817 
2.3100000000004504, -1.1081749294893448 
2.3200000000004715, -1.1080988967606005 
2.3300000000004926, -1.1084062663709275 
2.3400000000005137, -1.109103726934089 
2.3500000000005348, -1.1101926817491432 
2.360000000000556, -1.1116694559652467 
2.370000000000577, -1.113525638296653 
2.380000000000598, -1.1157485294724518 
2.390000000000619, -1.1183216645640044 
2.4000000000006403, -1.1212253745086693 
2.4100000000006614, -1.1244373535072394 
2.4200000000006825, -1.1279332031306697 
2.4300000000007036, -1.131686930265444 
2.4400000000007247, -1.1356713836106251 
2.450000000000746, -1.139858621399221 
2.460000000000767, -1.1442202104803272 
2.470000000000788, -1.1487274631353512 
2.480000000000809, -1.1533516224926934 
2.49000000000083, -1.1580640098870774 
2.5000000000008513, -1.162836147982108 
2.5100000000008724, -1.167639872177116 
2.5200000000008935, -1.1724474401781093 
2.5300000000009146, -1.1772316461679277 
2.5400000000009357, -1.181965942332904 
2.550000000000957, -1.1866245671133238 
2.560000000000978, -1.19118267684714 
2.570000000000999, -1.1956164757172123 
2.58000000000102, -1.1999033381669622 
2.5900000000010412, -1.2040219181372882 
2.6000000000010624, -1.2079522403999887 
2.6100000000010835, -1.2116757706541226 
2.6200000000011046, -1.2151754626313898 
2.6300000000011257, -1.2184357819765255 
2.6400000000011468, -1.2214427079438765 
2.650000000001168, -1.224183714876078 
2.660000000001189, -1.226647735977601 
2.67000000000121, -1.228825112103237 
2.680000000001231, -1.2307075282323747 
2.6900000000012523, -1.2322879400991023 
2.7000000000012734, -1.2335604931998057 
2.7100000000012945, -1.2345204361903943 
2.7200000000013156, -1.2351640305710117 
2.7300000000013367, -1.2354884585594226 
2.740000000001358, -1.235491731164167 
2.750000000001379, -1.235172598647502 
2.7600000000014, -1.234530465761476 
2.770000000001421, -1.2335653142876646 
2.780000000001442, -1.232277635456894 
2.7900000000014633, -1.2306683747284888 
2.8000000000014844, -1.228738891147916 
2.8100000000015055, -1.2264909330786202 
2.8200000000015266, -1.2239266315404784 
2.8300000000015477, -1.221048511722939 
2.840000000001569, -1.2178595225246744 
2.85000000000159, -1.214363083255484 
2.860000000001611, -1.2105631459678503 
2.870000000001632, -1.2064642713020046 
2.8800000000016532, -1.202071715253096 
2.8900000000016743, -1.1973915239105832 
2.9000000000016954, -1.1924306329737524 
2.9100000000017165, -1.1871969686999817 
2.9200000000017377, -1.1816995468770863 
2.9300000000017588, -1.1759485664130493 
2.94000000000178, -1.1699554941982986 
2.950000000001801, -1.163733138019797 
2.960000000001822, -1.1572957045048446 
2.970000000001843, -1.1506588393648136 
2.9800000000018643, -1.1438396476142427 
2.9900000000018854, -1.1368566919711762 
3.0000000000019065, -1.1297299682965738 
3.0100000000019276, -1.1224808576785177 
3.0200000000019487, -1.115132055560285 
3.03000000000197, -1.1077074790770238 
3.040000000001991, -1.1002321544160978 
3.050000000002012, -1.0927320864621735 
3.060000000002033, -1.08523411315576 
3.070000000002054, -1.0777657468406263 
3.0800000000020753, -1.0703550044043024 
3.0900000000020964, -1.0630302272817316 
3.1000000000021175, -1.0558198915015313 
3.1100000000021386, -1.0487524070537302 
3.1200000000021597, -1.041855905115812 
3.130000000002181, -1.0351580112559107 
3.140000000002202, -1.0286856027754971 
3.150000000002223, -1.0224645489447264 
3.160000000002244, -1.0165194340394594 
3.1700000000022652, -1.010873264751964 
3.1800000000022863, -1.0055471655867012 
3.1900000000023074, -1.000560068077674 
3.2000000000023285, -0.9959284018442928 
3.2100000000023496, -0.9916657973954067 
3.2200000000023707, -0.9877828119671302 
3.230000000002392, -0.9842866903512921 
3.240000000002413, -0.9811811725117475 
3.250000000002434, -0.9784663587458063 
3.260000000002455, -0.9761386412601696 
3.2700000000024763, -0.9741907084071286 
3.2800000000024974, -0.9726116246475597 
3.2900000000025185, -0.971386985803727 
3.3000000000025396, -0.9704991455970455 
3.3100000000025607, -0.969927506098503 
3.3200000000025818, -0.9696488617977823 
3.330000000002603, -0.9696377847263469 
3.340000000002624, -0.9698670365974665 
3.350000000002645, -0.970307993332 
3.360000000002666, -0.9709310676301519 
3.3700000000026873, -0.9717061163647289 
3.3800000000027084, -0.9726028213892042 
3.3900000000027295, -0.9735910347072466 
3.4000000000027506, -0.9746410816447292 
3.4100000000027717, -0.9757240184969369 
3.420000000002793, -0.9768118438972573 
3.430000000002814, -0.9778776656967643 
3.440000000002835, -0.9788958273171215 
3.450000000002856, -0.9798419992411763 
3.460000000002877, -0.9806932424747631 
3.4700000000028983, -0.9814280514244612 
3.4800000000029194, -0.9820263836960199 
3.4900000000029405, -0.9824696838593181 
3.5000000000029616, -0.9827409073013125 
3.5100000000029827, -0.9828245489681494 
3.520000000003004, -0.9827066801659213 
3.530000000003025, -0.9823749947443474 
3.540000000003046, -0.9818188640406054 
3.550000000003067, -0.9810293980360777 
3.5600000000030882, -0.9799995084114409 
3.5700000000031094, -0.97872396771445 
3.5800000000031305, -0.9771994578139478 
3.5900000000031516, -0.9754246003192125 
3.6000000000031727, -0.9733999617792269 
3.6100000000031938, -0.9711280272773908 
3.620000000003215, -0.9686131374802288 
3.630000000003236, -0.9658613861951044 
3.640000000003257, -0.9628804778916147 
3.650000000003278, -0.9596795472438863 
3.6600000000032993, -0.956268945327388 
3.6700000000033204, -0.952659999422326 
3.6800000000033415, -0.9488647552296894 
3.6900000000033626, -0.9448957115388268 
3.7000000000033837, -0.9407655579071255 
3.710000000003405, -0.9364869257070456 
3.720000000003426, -0.932072162017879 
3.730000000003447, -0.9275331344012125 
3.740000000003468, -0.9228810727515344 
3.750000000003489, -0.9181264523256816 
3.7600000000035103, -0.91327891989442 
3.7700000000035314, -0.9083472628762301 
3.7800000000035525, -0.903339419429178 
3.7900000000035736, -0.8982625258808091 
3.8000000000035947, -0.8931229966237743 
3.810000000003616, -0.8879266307219414 
3.820000000003637, -0.8826787389574516 
3.830000000003658, -0.8773842848824075 
3.840000000003679, -0.8720480335829044 
3.8500000000037002, -0.8666747022696945 
3.8600000000037213, -0.8612691074234933 
3.8700000000037424, -0.855836303984368 
3.8800000000037635, -0.8503817129239145 
3.8900000000037847, -0.84491123441891 
3.9000000000038058, -0.8394313447045302 
3.910000000003827, -0.8339491754811188 
3.920000000003848, -0.8284725754485563 
3.930000000003869, -0.823010154125489 
3.94000000000389, -0.8175713085677289 
3.9500000000039113, -0.8121662339321597 
3.9600000000039324, -0.8068059190494749 
3.9700000000039535, -0.8015021282873226 
3.9800000000039746, -0.796267371025046 
3.9900000000039957, -0.7911148600434218 
4.000000000004016, -0.786058460077991 
4.010000000003993, -0.7811126277102536 
4.02000000000397, -0.7762923436912171 
4.030000000003946, -0.7716130387161848 
4.040000000003923, -0.7670905136040438 
4.0500000000039, -0.76274085478075 
4.0600000000038765, -0.7585803459245627 
4.070000000003853, -0.7546253765973213 
4.08000000000383, -0.7508923486581967 
4.090000000003807, -0.7473975812300504 
4.100000000003783, -0.7441572149607101 
4.11000000000376, -0.7411871162896232 
4.120000000003737, -0.7385027823933887 
4.130000000003713, -0.7361192474415639 
4.14000000000369, -0.7340509907479956 
4.150000000003667, -0.73231184735478 
4.1600000000036434, -0.7309149215383145 
4.17000000000362, -0.7298725036825928 
4.180000000003597, -0.7291959909265965 
4.1900000000035735, -0.7288958119625937 
4.20000000000355, -0.7289813563419748 
4.210000000003527, -0.7294609086356523 
4.220000000003504, -0.7303415877967598 
4.23000000000348, -0.7316292920831008 
4.240000000003457, -0.7333286499132812 
4.250000000003434, -0.7354429770504602 
4.26000000000341, -0.737974240527285 
4.270000000003387, -0.7409230297403087 
4.280000000003364, -0.7442885351472293 
4.2900000000033405, -0.7480685349907109 
4.300000000003317, -0.752259390443683 
4.310000000003294, -0.7568560495186214 
4.320000000003271, -0.7618520600039198 
4.330000000003247, -0.7672395915815607 
4.340000000003224, -0.7730094671406822 
4.350000000003201, -0.7791512031314796 
4.360000000003177, -0.7856530586050399 
4.370000000003154, -0.7925020923608881 
4.380000000003131, -0.7996842273806875 
4.390000000003107, -0.8071843214713694 
4.400000000003084, -0.8149862427834303 
4.410000000003061, -0.8230729486218819 
4.4200000000030375, -0.8314265657417388 
4.430000000003014, -0.8400284701321047 
4.440000000002991, -0.848859364159285 
4.450000000002968, -0.857899348877151 
4.460000000002944, -0.8671279893397227 
4.470000000002921, -0.8765243708833402 
4.480000000002898, -0.8860671445989465 
4.490000000002874, -0.8957345606008622 
4.500000000002851, -0.9055044882243715 
4.510000000002828, -0.9153544229516002 
4.520000000002804, -0.9252614806664058 
4.530000000002781, -0.9352023807573615 
4.540000000002758, -0.945153420594489 
4.5500000000027345, -0.9550904449580303 
4.560000000002711, -0.9649888150402192 
4.570000000002688, -0.9748233826030958 
4.580000000002665, -0.9845684756739492 
4.590000000002641, -0.9941979027020243 
4.600000000002618, -1.0036849822884186 
4.610000000002595, -1.0130026053420382 
4.620000000002571, -1.0221233357282982 
4.630000000002548, -1.031019554111397 
4.640000000002525, -1.0396636477335357 
4.6500000000025015, -1.0480282463683563 
4.660000000002478, -1.0560865017387338 
4.670000000002455, -1.06381240447828 
4.6800000000024315, -1.0711811294834486 
4.690000000002408, -1.078169397540414 
4.700000000002385, -1.0847558387308576 
4.710000000002362, -1.0909213416214436 
4.720000000002338, -1.0966493718633576 
4.730000000002315, -1.10192624471352 
4.740000000002292, -1.1067413381517026 
4.750000000002268, -1.1110872365788413 
4.760000000002245, -1.1149597992767866 
4.770000000002222, -1.1183581525176012 
4.7800000000021985, -1.1212846090001054 
4.790000000002175, -1.1237445227276006 
4.800000000002152, -1.125746091139222 
4.810000000002129, -1.1273001189795675 
4.820000000002105, -1.1284197598706478 
4.830000000002082, -1.1291202517987626 
4.840000000002059, -1.1294186618238116 
4.850000000002035, -1.1293336534246938 
4.860000000002012, -1.128885287230397 
4.870000000001989, -1.1280948626896903 
4.880000000001965, -1.126984804732514 
4.890000000001942, -1.1255785958759155 
4.900000000001919, -1.1239007506965788 
4.9100000000018955, -1.121976826270253 
4.920000000001872, -1.119833459185291 
4.930000000001849, -1.117498417185857 
4.940000000001826, -1.1150006515075712 
