t, s[1].omega / s[0].omega 
0, -1.0899975032441385 
0.009999999999999995, -1.0896568878490132 
0.019999999999999934, -1.0891401636662268 
0.029999999999999874, -1.0884598769110585 
0.04000000000000012, -1.087639198995729 
0.050000000000000405, -1.0867144143938263 
0.06000000000000069, -1.0857367207428976 
0.07000000000000098, -1.0847714964287225 
0.08000000000000126, -1.0838925860936672 
0.09000000000000155, -1.0831706189442414 
0.10000000000000184, -1.0826575705925487 
0.11000000000000212, -1.082372246526119 
0.12000000000000241, -1.0822925839828121 
0.130000000000002, -1.082360088612694 
0.1400000000000009, -1.082495899895635 
0.1499999999999998, -1.0826196194937718 
0.1599999999999987, -1.0826611787283398 
0.1699999999999976, -1.082563825776223 
0.1799999999999965, -1.0822831561100816 
0.1899999999999954, -1.081787231678739 
0.1999999999999943, -1.0810587267636027 
0.2099999999999932, -1.0800966439232929 
0.2199999999999921, -1.0789154675263932 
0.229999999999991, -1.0775426815315863 
0.2399999999999899, -1.076017516104902 
0.2499999999999888, -1.074392515799581 
0.2599999999999877, -1.0727366365386408 
0.2699999999999866, -1.0711363606053657 
0.2799999999999855, -1.069690486000524 
0.2899999999999844, -1.0684949630716098 
0.2999999999999833, -1.067617942101173 
0.3099999999999822, -1.0670738765111214 
0.3199999999999811, -1.0668136038928264 
0.32999999999998, -1.0667408529365658 
0.3399999999999789, -1.0667445554805925 
0.3499999999999778, -1.0667246160454122 
0.35999999999997667, -1.0665994126039515 
0.36999999999997557, -1.0662999118006105 
0.37999999999997447, -1.0657616282156863 
0.38999999999997337, -1.0649229438440964 
0.39999999999997227, -1.0637326573509627 
0.40999999999997117, -1.0621632999363808 
0.41999999999997006, -1.0602221251692874 
0.42999999999996896, -1.0579533312716831 
0.43999999999996786, -1.0554327725121415 
0.44999999999996676, -1.0527620535279012 
0.45999999999996566, -1.0500664532978623 
0.46999999999996456, -1.0474936570971596 
0.47999999999996346, -1.0452041818992757 
0.48999999999996235, -1.0433444698153151 
0.49999999999996125, -1.0420043631138847 
0.5099999999999602, -1.041180289319662 
0.519999999999959, -1.0407739738077229 
0.529999999999958, -1.040632919847472 
0.5399999999999568, -1.040603373208518 
0.5499999999999557, -1.040561772384121 
0.5599999999999546, -1.0404164095428199 
0.5699999999999535, -1.0400921210770888 
0.5799999999999524, -1.0395131409918785 
0.5899999999999513, -1.0385937101795644 
0.5999999999999502, -1.0372419921100202 
0.6099999999999491, -1.0353790706035715 
0.619999999999948, -1.0329670720921043 
0.6299999999999469, -1.0300319977892314 
0.6399999999999458, -1.0266685780626352 
0.6499999999999447, -1.023028363942572 
0.6599999999999436, -1.0193030435126702 
0.6699999999999425, -1.0157103321293652 
0.6799999999999414, -1.0124766911048118 
0.6899999999999403, -1.0098048363438474 
0.6999999999999392, -1.0078242660575187 
0.7099999999999381, -1.006546663773594 
0.719999999999937, -1.0058611889977556 
0.7299999999999359, -1.0055812777364268 
0.7399999999999348, -1.005512163227724 
0.7499999999999337, -1.0054966454204763 
0.7599999999999326, -1.0054239463104193 
0.7699999999999315, -1.0052141866973145 
0.7799999999999304, -1.004796517127277 
0.7899999999999293, -1.0040921392262383 
0.7999999999999282, -1.0030081510695619 
0.8099999999999271, -1.0014466343307906 
0.819999999999926, -0.9993300705579438 
0.8299999999999249, -0.9966345507946043 
0.8399999999999238, -0.9934125698898534 
0.8499999999999227, -0.9897915562239484 
0.8599999999999216, -0.9859526077875314 
0.8699999999999205, -0.9821056582276034 
0.8799999999999194, -0.9784702028967448 
0.8899999999999183, -0.9752563660301122 
0.8999999999999172, -0.9726361933226508 
0.9099999999999161, -0.9707053129953434 
0.919999999999915, -0.9694531586261663 
0.9299999999999139, -0.9687665071904792 
0.9399999999999128, -0.9684714063270027 
0.9499999999999117, -0.9683887463298054 
0.9599999999999106, -0.9683719643924146 
0.9699999999999095, -0.9683154521076464 
0.9799999999999084, -0.9681428796486043 
0.9899999999999073, -0.9677898119193049 
0.9999999999999062, -0.9671905441542238 
1.0099999999999052, -0.9662746133111876 
1.019999999999904, -0.9649757826131313 
1.029999999999903, -0.9632517967563399 
1.039999999999902, -0.9611054477234452 
1.0499999999999008, -0.9585932809420081 
1.0599999999998997, -0.955815994621499 
1.0699999999998986, -0.9528987348800732 
1.0799999999998975, -0.9499744870121003 
1.0899999999998964, -0.9471758976792028 
1.0999999999998953, -0.9446308824725078 
1.1099999999998942, -0.942454055302084 
1.119999999999893, -0.9407299443403877 
1.129999999999892, -0.9394922421836347 
1.1399999999998909, -0.9387110142476744 
1.1499999999998898, -0.9382992285572549 
1.1599999999998887, -0.9381380906342844 
1.1699999999998876, -0.9381073077921599 
1.1799999999998865, -0.9381050492639652 
1.1899999999998854, -0.9380526083527172 
1.1999999999998843, -0.9378889043597034 
1.2099999999998832, -0.9375630785419036 
1.219999999999882, -0.9370314104210804 
1.229999999999881, -0.9362609741739318 
1.2399999999998799, -0.9352378640656175 
1.2499999999998788, -0.9339737689699776 
1.2599999999998777, -0.932504905521005 
1.2699999999998766, -0.9308833163937743 
1.2799999999998755, -0.9291667390437969 
1.2899999999998744, -0.9274131469148319 
1.2999999999998733, -0.9256808956806264 
1.3099999999998722, -0.9240310385739731 
1.319999999999871, -0.9225275483553524 
1.32999999999987, -0.9212327854183359 
1.3399999999998689, -0.9201980338994755 
1.3499999999998678, -0.9194516700885567 
1.3599999999998666, -0.9189898826686275 
1.3699999999998655, -0.9187751935849201 
1.3799999999998644, -0.918744720679802 
1.3899999999998633, -0.918824543817822 
1.3999999999998622, -0.9189433213508893 
1.4099999999998611, -0.9190403180132831 
1.41999999999986, -0.9190677846256283 
1.429999999999859, -0.9189907461725445 
1.4399999999998578, -0.918786929477832 
1.4499999999998567, -0.9184470806992451 
1.4599999999998556, -0.9179739056691283 
1.4699999999998545, -0.9173784420008703 
1.4799999999998534, -0.9166753290836205 
1.4899999999998523, -0.9158800246380616 
1.4999999999998512, -0.9150095738619857 
1.5099999999998501, -0.9140858480203807 
1.519999999999849, -0.9131389596871825 
1.529999999999848, -0.912209065488754 
1.5399999999998468, -0.9113454544603217 
1.5499999999998457, -0.9106021132269385 
1.5599999999998446, -0.9100297229703379 
1.5699999999998435, -0.9096657633869432 
1.5799999999998424, -0.9095260198827347 
1.5899999999998413, -0.9096008225053025 
1.5999999999998402, -0.9098575452489126 
1.6099999999998391, -0.9102483027211494 
1.619999999999838, -0.9107197773892273 
1.629999999999837, -0.9112217625811464 
1.6399999999998358, -0.9117123371107416 
1.6499999999998347, -0.9121593515775241 
1.6599999999998336, -0.9125389159032178 
1.6699999999998325, -0.9128320204792504 
1.6799999999998314, -0.9130211239656122 
1.6899999999998303, -0.9130891219424975 
1.6999999999998292, -0.9130220503088491 
1.709999999999828, -0.912814097273951 
1.719999999999827, -0.9124716480707186 
1.729999999999826, -0.9120144409488271 
1.7399999999998248, -0.9114749106225266 
1.7499999999998237, -0.9108979626994514 
1.7599999999998226, -0.9103416852866273 
1.7699999999998215, -0.9098766978256103 
1.7799999999998204, -0.9095805490690351 
1.7899999999998193, -0.9095255981092653 
1.7999999999998182, -0.9097635949284688 
1.809999999999817, -0.9103138937674314 
1.819999999999816, -0.9111609113121428 
1.8299999999998149, -0.9122609397984656 
1.8399999999998138, -0.9135536175488195 
1.8499999999998127, -0.9149723731255204 
1.8599999999998116, -0.9164502084697814 
1.8699999999998105, -0.9179202775467115 
1.8799999999998094, -0.9193137757667025 
1.8899999999998083, -0.9205599058921757 
1.8999999999998072, -0.9215923117284353 
1.909999999999806, -0.922361623467998 
1.919999999999805, -0.9228471412424095 
1.9299999999998039, -0.9230594047559189 
1.9399999999998028, -0.9230323821743175 
1.9499999999998017, -0.9228120125313588 
1.9599999999998006, -0.9224491092334981 
1.9699999999997995, -0.9220003885888255 
1.9799999999997984, -0.9215367024126918 
1.9899999999997973, -0.9211539825383038 
1.9999999999997962, -0.9209790537070482 
2.0099999999998173, -0.9211608904189236 
2.0199999999998384, -0.9218429559039757 
2.0299999999998595, -0.9231251159278363 
2.0399999999998806, -0.9250341684784413 
2.0499999999999017, -0.9275174517146019 
2.059999999999923, -0.9304573300492345 
2.069999999999944, -0.9336925727707065 
2.079999999999965, -0.9370352657570653 
2.089999999999986, -0.9402833107126536 
2.100000000000007, -0.943237703430498 
2.1100000000000283, -0.9457318148628238 
2.1200000000000494, -0.9476653815553562 
2.1300000000000705, -0.949022341693132 
2.1400000000000916, -0.9498583531531792 
2.1500000000001127, -0.9502668580394851 
2.160000000000134, -0.9503456059361733 
2.170000000000155, -0.9501783049287175 
2.180000000000176, -0.9498331924337539 
2.190000000000197, -0.9493746553754896 
2.2000000000002182, -0.948884523137391 
2.2100000000002393, -0.9484893937021399 
2.2200000000002604, -0.9483842518637422 
2.2300000000002815, -0.9488323797235599 
2.2400000000003026, -0.9501203544307335 
2.2500000000003237, -0.9524707576567735 
2.260000000000345, -0.9559532119345832 
2.270000000000366, -0.9604439832888543 
2.280000000000387, -0.9656485766571752 
2.290000000000408, -0.9711623016503264 
2.3000000000004293, -0.9765413844082765 
2.3100000000004504, -0.9813777274223823 
2.3200000000004715, -0.9853748146239326 
2.3300000000004926, -0.988401984705599 
2.3400000000005137, -0.990494862596605 
2.3500000000005348, -0.9917998386653462 
2.360000000000556, -0.9924995255718292 
2.370000000000577, -0.9927584350502408 
2.380000000000598, -0.9927013444414398 
2.390000000000619, -0.99241629250541 
2.4000000000006403, -0.9919717551695187 
2.4100000000006614, -0.9914437031110364 
2.4200000000006825, -0.9909519790749778 
2.4300000000007036, -0.9906996740037861 
2.4400000000007247, -0.9909918770819021 
2.450000000000746, -0.992195427331837 
2.460000000000767, -0.9946229749156453 
2.470000000000788, -0.9983909496887575 
2.480000000000809, -1.0033436950672452 
2.49000000000083, -1.0090885366518538 
2.5000000000008513, -1.0151032527982071 
2.5100000000008724, -1.0208545304923486 
2.5200000000008935, -1.02589868476066 
2.5300000000009146, -1.0299569196978366 
2.5400000000009357, -1.0329477483008451 
2.550000000000957, -1.0349589377065491 
2.560000000000978, -1.0361733264262016 
2.570000000000999, -1.036791101658239 
2.58000000000102, -1.0369816415635031 
2.5900000000010412, -1.0368695807796702 
2.6000000000010624, -1.0365439137485866 
2.6100000000010835, -1.036080122982248 
2.6200000000011046, -1.0355713599071081 
2.6300000000011257, -1.0351645658465518 
2.6400000000011468, -1.0350856231841477 
2.650000000001168, -1.0356215473424506 
2.660000000001189, -1.0370368431113959 
2.67000000000121, -1.0394563236046912 
2.680000000001231, -1.042796622897862 
2.6900000000012523, -1.0467947164785358 
2.7000000000012734, -1.0510977358128113 
2.7100000000012945, -1.055348762204079 
2.7200000000013156, -1.0592403024496941 
2.7300000000013367, -1.0625449973562795 
2.740000000001358, -1.0651361920176876 
2.750000000001379, -1.0669943228225869 
2.7600000000014, -1.0681886506375924 
2.770000000001421, -1.0688380377695141 
2.780000000001442, -1.0690700583635668 
2.7900000000014633, -1.0689958684086331 
2.8000000000014844, -1.0687053798111112 
2.8100000000015055, -1.0682784831099132 
2.8200000000015266, -1.067805963374547 
2.8300000000015477, -1.0674112445740112 
2.840000000001569, -1.067256959734568 
2.85000000000159, -1.0675175968589115 
2.860000000001611, -1.0683193207677795 
2.870000000001632, -1.0696841675143818 
2.8800000000016532, -1.0715218910792499 
2.8900000000016743, -1.073670754529831 
2.9000000000016954, -1.075950770348513 
2.9100000000017165, -1.0781987877944306 
2.9200000000017377, -1.0802809753244673 
2.9300000000017588, -1.082093472313924 
2.94000000000178, -1.0835623834740715 
2.950000000001801, -1.0846473336273048 
2.960000000001822, -1.0853448837399102 
2.970000000001843, -1.0856853667592117 
2.9800000000018643, -1.0857218428330717 
2.9900000000018854, -1.0855171945649362 
3.0000000000019065, -1.0851370562608806 
3.0100000000019276, -1.0846517739893646 
3.0200000000019487, -1.0841441656395214 
3.03000000000197, -1.083714103261866 
3.040000000001991, -1.083468923036518 
3.050000000002012, -1.083496671990266 
3.060000000002033, -1.0838361274876687 
3.070000000002054, -1.084464983874645 
3.0800000000020753, -1.085312908173745 
3.0900000000020964, -1.0862870207039954 
3.1000000000021175, -1.0872945686304454 
3.1100000000021386, -1.0882561853970105 
3.1200000000021597, -1.0891102185954618 
3.130000000002181, -1.0898113483432195 
3.140000000002202, -1.0903272383528724 
3.150000000002223, -1.0906363094401264 
3.160000000002244, -1.0907280154799026 
3.1700000000022652, -1.0906046965429994 
3.1800000000022863, -1.0902828168850207 
3.1900000000023074, -1.0897925914593274 
3.2000000000023285, -1.089177269607193 
3.2100000000023496, -1.0884934765974648 
3.2200000000023707, -1.0878110752752603 
3.230000000002392, -1.0872080117987373 
3.240000000002413, -1.0867571474216313 
3.250000000002434, -1.0865087818665313 
3.260000000002455, -1.086477608386091 
3.2700000000024763, -1.0866400904520301 
3.2800000000024974, -1.0869419966013258 
3.2900000000025185, -1.0873123446540989 
3.3000000000025396, -1.0876785255150536 
3.3100000000025607, -1.0879773535456552 
3.3200000000025818, -1.0881599008273013 
3.330000000002603, -1.0881918543825853 
3.340000000002624, -1.0880520989813065 
3.350000000002645, -1.0877308226197144 
3.360000000002666, -1.0872275239809908 
3.3700000000026873, -1.0865496739591722 
3.3800000000027084, -1.085712976723221 
3.3900000000027295, -1.0847433660872612 
3.4000000000027506, -1.0836798521657651 
3.4100000000027717, -1.082576624352028 
3.420000000002793, -1.0815021520727564 
3.430000000002814, -1.080532937175296 
3.440000000002835, -1.0797411126063252 
3.450000000002856, -1.0791778038111022 
3.460000000002877, -1.0788571347798515 
3.4700000000028983, -1.0787486138108056 
3.4800000000029194, -1.078784467820518 
3.4900000000029405, -1.0788792542742183 
3.5000000000029616, -1.0789496785944974 
3.5100000000029827, -1.0789246926927323 
3.520000000003004, -1.0787461641226335 
3.530000000003025, -1.0783668070001864 
3.540000000003046, -1.0777508407126335 
3.550000000003067, -1.0768778514688209 
3.5600000000030882, -1.0757463843090196 
3.5700000000031094, -1.0743740231974723 
3.5800000000031305, -1.072794520409622 
3.5900000000031516, -1.0710555004535312 
3.6000000000031727, -1.069219243605992 
3.6100000000031938, -1.0673655262044455 
3.620000000003215, -1.0655924489018176 
3.630000000003236, -1.0640098422142308 
3.640000000003257, -1.0627207874908144 
3.650000000003278, -1.0617924018726952 
3.6600000000032993, -1.061228416143967 
3.6700000000033204, -1.060963502354555 
3.6800000000033415, -1.0608871734413026 
3.6900000000033626, -1.060880498811681 
3.7000000000033837, -1.0608410003946624 
3.710000000003405, -1.0606867302559637 
3.720000000003426, -1.0603474394973786 
3.730000000003447, -1.0597549960892991 
3.740000000003468, -1.0588414829170654 
3.750000000003489, -1.057547953236271 
3.7600000000035103, -1.055840450095418 
3.7700000000035314, -1.0537242716938156 
3.7800000000035525, -1.051248202040674 
3.7900000000035736, -1.0484988713639363 
3.8000000000035947, -1.045592862412812 
3.810000000003616, -1.0426724006501744 
3.820000000003637, -1.0399019737666273 
3.830000000003658, -1.0374559856523733 
3.840000000003679, -1.035488045570868 
3.8500000000037002, -1.034085399461652 
3.8600000000037213, -1.0332330680576596 
3.8700000000037424, -1.032818119785228 
3.8800000000037635, -1.032676289569605 
3.8900000000037847, -1.0326474392166354 
3.9000000000038058, -1.0326058862917415 
3.910000000003827, -1.032459884355256 
3.920000000003848, -1.03213470505606 
3.930000000003869, -1.0315545428079669 
3.94000000000389, -1.0306324232623891 
3.9500000000039113, -1.0292735808315274 
3.9600000000039324, -1.0273945808459428 
3.9700000000039535, -1.0249528627515443 
3.9800000000039746, -1.0219719333412924 
3.9900000000039957, -1.0185477973963553 
4.000000000004016, -1.0148363803301195 
4.010000000003993, -1.0110344425456275 
4.02000000000397, -1.0073632001333714 
4.030000000003946, -1.00405044281497 
4.040000000003923, -1.0012995271903902 
4.0500000000039, -0.9992424674827521 
4.0600000000038765, -0.9978965624798286 
4.070000000003853, -0.9971576944261175 
4.08000000000383, -0.9968434248628311 
4.090000000003807, -0.9967587646872598 
4.100000000003783, -0.9967434301310536 
4.11000000000376, -0.9966834632860436 
4.120000000003737, -0.9964976951761715 
4.130000000003713, -0.996116648837128 
4.14000000000369, -0.9954655077386324 
4.150000000003667, -0.9944572546107867 
4.1600000000036434, -0.9930002030182286 
4.17000000000362, -0.9910210225483439 
4.180000000003597, -0.9884955338711963 
4.1900000000035735, -0.9854702597138164 
4.20000000000355, -0.9820611747225803 
4.210000000003527, -0.9784333010738753 
4.220000000003504, -0.9747768786180296 
4.23000000000348, -0.9712900910243929 
4.240000000003457, -0.9681646047121782 
4.250000000003434, -0.9655639496290658 
4.26000000000341, -0.9635916387798403 
4.270000000003387, -0.9622612559373431 
4.280000000003364, -0.9614904671787411 
4.2900000000033405, -0.9611298556279149 
4.300000000003317, -0.9610114971614111 
4.310000000003294, -0.9609888836956365 
4.320000000003271, -0.96095197016113 
4.330000000003247, -0.9608210666884203 
4.340000000003224, -0.9605321490302426 
4.350000000003201, -0.9600241476131199 
4.360000000003177, -0.9592343883662432 
4.370000000003154, -0.9581050771766 
4.380000000003131, -0.9565993601857683 
4.390000000003107, -0.9547188161653054 
4.400000000003084, -0.9525106379561423 
4.410000000003061, -0.9500592262897716 
4.4200000000030375, -0.9474690955052634 
4.430000000003014, -0.9448506739809783 
4.440000000002991, -0.9423141060954778 
4.450000000002968, -0.9399674396194836 
4.460000000002944, -0.9379122151222079 
4.470000000002921, -0.9362318726459442 
4.480000000002898, -0.9349742760337044 
4.490000000002874, -0.9341363613426047 
4.500000000002851, -0.9336616131772827 
4.510000000002828, -0.9334549715122105 
4.520000000002804, -0.933408009010793 
4.530000000002781, -0.9334209064709048 
4.540000000002758, -0.9334126050232975 
4.5500000000027345, -0.9333200303074287 
4.560000000002711, -0.9330928464122407 
4.570000000002688, -0.9326901003802327 
4.580000000002665, -0.9320819179793869 
4.590000000002641, -0.9312550876340115 
4.600000000002618, -0.9302176683114531 
4.610000000002595, -0.9289977194058828 
4.620000000002571, -0.9276360264716628 
4.630000000002548, -0.9261778362397232 
4.640000000002525, -0.9246686910191191 
4.6500000000025015, -0.9231552127432275 
4.660000000002478, -0.9216879583161166 
4.670000000002455, -0.9203226709450376 
4.6800000000024315, -0.9191174683526802 
4.690000000002408, -0.9181254071251169 
4.700000000002385, -0.9173839798928846 
4.710000000002362, -0.9169051052875281 
4.720000000002338, -0.9166701322739279 
4.730000000002315, -0.9166329809949975 
4.740000000002292, -0.9167305949208215 
4.750000000002268, -0.9168959111486021 
4.760000000002245, -0.917068009669914 
4.770000000002222, -0.9171972213640398 
4.7800000000021985, -0.9172464934304403 
4.790000000002175, -0.9171913521817003 
4.800000000002152, -0.917019388837992 
4.810000000002129, -0.9167285016974847 
4.820000000002105, -0.9163233198890929 
4.830000000002082, -0.9158111914447418 
4.840000000002059, -0.9152002876846218 
4.850000000002035, -0.9145010001081502 
4.860000000002012, -0.9137293896812055 
4.870000000001989, -0.9129105479655939 
4.880000000001965, -0.9120805360889388 
4.890000000001942, -0.9112862903418739 
4.900000000001919, -0.910582675755642 
4.9100000000018955, -0.9100258413053319 
4.920000000001872, -0.9096634392005296 
4.930000000001849, -0.9095245450067727 
