t, s[1].omega / s[0].omega 
0, -0.6499977103337757 
0.009999999999999995, -0.6497658624701907 
0.019999999999999934, -0.6495230886178799 
0.029999999999999874, -0.6492564909713555 
0.04000000000000012, -0.6489518700063884 
0.050000000000000405, -0.6486000269553228 
0.06000000000000069, -0.6482002269533563 
0.07000000000000098, -0.6477607791270198 
0.08000000000000126, -0.6472986792505173 
0.09000000000000155, -0.646840414461564 
0.10000000000000184, -0.6464251165278123 
0.11000000000000212, -0.6461103209464855 
0.12000000000000241, -0.6459799537883605 
0.130000000000002, -0.6461535980209068 
0.1400000000000009, -0.6467952676123595 
0.1499999999999998, -0.6481185298785014 
0.1599999999999987, -0.6503823871836275 
0.1699999999999976, -0.6538682660808044 
0.1799999999999965, -0.6588234426397053 
0.1899999999999954, -0.6653565301995827 
0.1999999999999943, -0.6732936522809101 
0.2099999999999932, -0.6820674695142873 
0.2199999999999921, -0.6907771139110552 
0.229999999999991, -0.6984897766133333 
0.2399999999999899, -0.704611882091681 
0.2499999999999888, -0.7090372662982776 
0.2599999999999877, -0.7120095475080634 
0.2699999999999866, -0.7138918293821984 
0.2799999999999855, -0.7150131387715818 
0.2899999999999844, -0.7156153400929701 
0.2999999999999833, -0.7158552845375409 
0.3099999999999822, -0.7158227381486896 
0.3199999999999811, -0.7155559092985123 
0.32999999999998, -0.7150490969047825 
0.3399999999999789, -0.7142514184768418 
0.3499999999999778, -0.7130564834693434 
0.35999999999997667, -0.7112840795543558 
0.36999999999997557, -0.7086606021516688 
0.37999999999997447, -0.7048205009669013 
0.38999999999997337, -0.6993756141354228 
0.39999999999997227, -0.6921007538098605 
0.40999999999997117, -0.6831915891370276 
0.41999999999997006, -0.6733826567269616 
0.42999999999996896, -0.6637258700652592 
0.43999999999996786, -0.6551573569532027 
0.44999999999996676, -0.6481990883801678 
0.45999999999996566, -0.642944385377323 
0.46999999999996456, -0.6392092121553563 
0.47999999999996346, -0.6366936410060282 
0.48999999999996235, -0.6350875240552447 
0.49999999999996125, -0.6341213797083001 
0.5099999999999602, -0.6335825318482224 
0.519999999999959, -0.6333134923864011 
0.529999999999958, -0.6332028918042084 
0.5399999999999568, -0.6331744673001143 
0.5499999999999557, -0.6331768860406723 
0.5599999999999546, -0.6331757262990702 
0.5699999999999535, -0.6331481723356165 
0.5799999999999524, -0.6330804756031521 
0.5899999999999513, -0.6329676060269487 
0.5999999999999502, -0.6328135902227517 
0.6099999999999491, -0.6326303039079312 
0.619999999999948, -0.6324330774202924 
0.6299999999999469, -0.632233826184585 
0.6399999999999458, -0.6320349737479852 
0.6499999999999447, -0.6318277806192802 
0.6599999999999436, -0.6315962008793654 
0.6699999999999425, -0.6313239459022496 
0.6799999999999414, -0.6310007931954302 
0.6899999999999403, -0.630625575398185 
0.6999999999999392, -0.6302062009799357 
0.7099999999999381, -0.6297589331072209 
0.719999999999937, -0.62930912643078 
0.7299999999999359, -0.6288946770772298 
0.7399999999999348, -0.6285726371886057 
0.7499999999999337, -0.6284289887745939 
0.7599999999999326, -0.6285911025865659 
0.7699999999999315, -0.6292414162788968 
0.7799999999999304, -0.630628724913301 
0.7899999999999293, -0.633069245625444 
0.7999999999999282, -0.6369222786744818 
0.8099999999999271, -0.6425162048679179 
0.819999999999926, -0.6500010781720797 
0.8299999999999249, -0.6591443614141413 
0.8399999999999238, -0.669190977092381 
0.8499999999999227, -0.6789931046512345 
0.8599999999999216, -0.6874582046833538 
0.8699999999999205, -0.6939992083514467 
0.8799999999999194, -0.6986208599071471 
0.8899999999999183, -0.7016790249577664 
0.8999999999999172, -0.7036048146706938 
0.9099999999999161, -0.7047572035671703 
0.919999999999915, -0.7053882718046848 
0.9299999999999139, -0.705657622546405 
0.9399999999999128, -0.7056558065330142 
0.9499999999999117, -0.7054218314872508 
0.9599999999999106, -0.7049516056256357 
0.9699999999999095, -0.7041975619548786 
0.9799999999999084, -0.703060447709553 
0.9899999999999073, -0.701376134107942 
0.9999999999999062, -0.6989068937978384 
1.0099999999999052, -0.695360415379683 
1.019999999999904, -0.6904726514333814 
1.029999999999903, -0.6841682248936579 
1.039999999999902, -0.6767213892920527 
1.0499999999999008, -0.6687585983722957 
1.0599999999998997, -0.661041310742528 
1.0699999999998986, -0.6541863473983118 
1.0799999999998975, -0.6485211697309919 
1.0899999999998964, -0.6441056867614827 
1.0999999999998953, -0.640830056717457 
1.1099999999998942, -0.6385077703094311 
1.119999999999893, -0.6369362474443083 
1.129999999999892, -0.6359284283917639 
1.1399999999998909, -0.6353260279623995 
1.1499999999998898, -0.6350027329433666 
1.1599999999998887, -0.6348622093355358 
1.1699999999998876, -0.6348336498408813 
1.1799999999998865, -0.6348665524210422 
1.1899999999998854, -0.6349259009120275 
1.1999999999998843, -0.6349885374963301 
1.2099999999998832, -0.6350410550670669 
1.219999999999882, -0.6350788468735409 
1.229999999999881, -0.6351050985489143 
1.2399999999998799, -0.6351280588317243 
1.2499999999998788, -0.6351557370174775 
1.2599999999998777, -0.6351893266866078 
1.2699999999998766, -0.6352186725436937 
1.2799999999998755, -0.6352229658678271 
1.2899999999998744, -0.6351770069413732 
1.2999999999998733, -0.6350596855127416 
1.3099999999998722, -0.6348600135902523 
1.319999999999871, -0.6345784233327592 
1.32999999999987, -0.6342247097364998 
1.3399999999998689, -0.633815747813013 
1.3499999999998678, -0.6333755267117032 
1.3599999999998666, -0.6329387945117686 
1.3699999999998655, -0.6325589216881187 
1.3799999999998644, -0.6323204557327299 
1.3899999999998633, -0.6323565972612604 
1.3999999999998622, -0.6328706073040913 
1.4099999999998611, -0.6341567536071121 
1.41999999999986, -0.6366090215286565 
1.429999999999859, -0.6406927828934045 
1.4399999999998578, -0.6468394315282895 
1.4499999999998567, -0.6552294198122366 
1.4599999999998556, -0.6655077719901465 
1.4699999999998545, -0.6766453395490922 
1.4799999999998534, -0.6872222516767553 
1.4899999999998523, -0.6960624110370344 
1.4999999999998512, -0.7026915622078594 
1.5099999999998501, -0.7072770438725831 
1.519999999999849, -0.710278951566373 
1.529999999999848, -0.7121666159838871 
1.5399999999998468, -0.7133029680652597 
1.5499999999998457, -0.7139339382143768 
1.5599999999998446, -0.7142128342958883 
1.5699999999998435, -0.7142261058434134 
1.5799999999998424, -0.7140107058712852 
1.5899999999998413, -0.7135621055895494 
1.5999999999998402, -0.7128340353941008 
1.6099999999998391, -0.7117315638210806 
1.619999999999838, -0.7101013787345251 
1.629999999999837, -0.707729866456447 
1.6399999999998358, -0.7043710733584213 
1.6499999999998347, -0.6998313733111952 
1.6599999999998336, -0.6941060267860392 
1.6699999999998325, -0.6874860859460961 
1.6799999999998314, -0.680519376293854 
1.6899999999998303, -0.6738192122078575 
1.6999999999998292, -0.667861246800059 
1.709999999999828, -0.6628950657589865 
1.719999999999827, -0.658970466257293 
1.729999999999826, -0.6560096142193244 
1.7399999999998248, -0.6538728811727929 
1.7499999999998237, -0.6524022927380784 
1.7599999999998226, -0.6514457429072678 
1.7699999999998215, -0.650868968278743 
1.7799999999998204, -0.6505603899783755 
1.7899999999998193, -0.6504316954321107 
1.7999999999998182, -0.65041583196686 
1.809999999999817, -0.6504636666219131 
1.819999999999816, -0.650540416699527 
1.8299999999998149, -0.6506227430293448 
1.8399999999998138, -0.650696958280254 
1.8499999999998127, -0.650758064892719 
1.8599999999998116, -0.6508084692779501 
1.8699999999998105, -0.6508548648169905 
1.8799999999998094, -0.6509027464384388 
1.8899999999998083, -0.6509501967775486 
1.8999999999998072, -0.6509843313262352 
1.909999999999806, -0.65098317657232 
1.919999999999805, -0.6509225765053623 
1.9299999999998039, -0.650784291205829 
1.9399999999998028, -0.6505609239067327 
1.9499999999998017, -0.6502562409538697 
1.9599999999998006, -0.649882877710035 
1.9699999999997995, -0.6494605700000393 
1.9799999999997984, -0.6490171420119462 
1.9899999999997973, -0.6485932555792376 
1.9999999999997962, -0.6482512981997557 
2.0099999999998173, -0.6480885204834147 
2.0199999999998384, -0.6482539327929688 
2.0299999999998595, -0.6489667645369422 
2.0399999999998806, -0.6505305538399626 
2.0499999999999017, -0.6533299983883941 
2.059999999999923, -0.6577871563751684 
2.069999999999944, -0.6642447871521832 
2.079999999999965, -0.6727599214562942 
2.089999999999986, -0.6828708216975918 
2.100000000000007, -0.693536343405962 
2.1100000000000283, -0.7034511215053523 
2.1200000000000494, -0.711609717223742 
2.1300000000000705, -0.7176595891174153 
2.1400000000000916, -0.7218050557268147 
2.1500000000001127, -0.7244897015273795 
2.160000000000134, -0.7261508985544192 
2.170000000000155, -0.7271224963532568 
2.180000000000176, -0.7276282137233767 
2.190000000000197, -0.7278047514356897 
2.2000000000002182, -0.7277252131268074 
2.2100000000002393, -0.727414057067251 
2.2200000000002604, -0.7268524982813194 
2.2300000000002815, -0.7259749463450814 
2.2400000000003026, -0.7246575616580382 
2.2500000000003237, -0.7227028202486705 
2.260000000000345, -0.7198329816485947 
2.270000000000366, -0.7157222374179752 
2.280000000000387, -0.7101079174754066 
2.290000000000408, -0.7029812287182631 
2.3000000000004293, -0.694744356113673 
2.3100000000004504, -0.6861571196183953 
2.3200000000004715, -0.6780558076341604 
2.3300000000004926, -0.6710570552480623 
2.3400000000005137, -0.665440128280176 
2.3500000000005348, -0.6612014550395211 
2.360000000000556, -0.658171527878693 
2.370000000000577, -0.6561154225724677 
2.380000000000598, -0.6547953443470578 
2.390000000000619, -0.6540018671448917 
2.4000000000006403, -0.6535654467541304 
2.4100000000006614, -0.653356885699589 
2.4200000000006825, -0.6532821914601793 
2.4300000000007036, -0.6532752244425145 
2.4400000000007247, -0.6532903243410747 
2.450000000000746, -0.6532963043424501 
2.460000000000767, -0.6532725859001137 
2.470000000000788, -0.6532076068611533 
2.480000000000809, -0.6530987549752234 
2.49000000000083, -0.6529520717722136 
2.5000000000008513, -0.6527796629360785 
2.5100000000008724, -0.6525941268380153 
2.5200000000008935, -0.6524019575875246 
2.5300000000009146, -0.6521995792390691 
2.5400000000009357, -0.6519745728559444 
2.550000000000957, -0.6517114099472322 
2.560000000000978, -0.6513982507700372 
2.570000000000999, -0.651031381194861 
2.58000000000102, -0.6506163647759753 
2.5900000000010412, -0.650167509066413 
2.6000000000010624, -0.6497079672941363 
2.6100000000010835, -0.6492720480907875 
2.6200000000011046, -0.6489102821401025 
2.6300000000011257, -0.6486970724566062 
2.6400000000011468, -0.6487401927339207 
2.650000000001168, -0.6491906440123283 
2.660000000001189, -0.6502501165456125 
2.67000000000121, -0.6521711317694215 
2.680000000001231, -0.6552412670972758 
2.6900000000012523, -0.6597377087742513 
2.7000000000012734, -0.6658357220827071 
2.7100000000012945, -0.6734685938635725 
2.7200000000013156, -0.6821890870771224 
2.7300000000013367, -0.691160648280108 
2.740000000001358, -0.6993959342550525 
2.750000000001379, -0.7061492643240243 
2.7600000000014, -0.7111621924635892 
2.770000000001421, -0.7145984945806726 
2.780000000001442, -0.7168127157786296 
2.7900000000014633, -0.7181603973224148 
2.8000000000014844, -0.7189163688589479 
2.8100000000015055, -0.7192651448621377 
2.8200000000015266, -0.7193172737990992 
2.8300000000015477, -0.7191270141677324 
2.840000000001569, -0.7187029499000664 
2.85000000000159, -0.7180097380697427 
2.860000000001611, -0.7169607293731428 
2.870000000001632, -0.7154018673684741 
2.8800000000016532, -0.713090864864347 
2.8900000000016743, -0.709687378952764 
2.9000000000016954, -0.7047929781514986 
2.9100000000017165, -0.6980960562024621 
2.9200000000017377, -0.6896233057937371 
2.9300000000017588, -0.6799382609078457 
2.94000000000178, -0.6700407426721957 
2.950000000001801, -0.6609645031839189 
2.960000000001822, -0.6533946104814639 
2.970000000001843, -0.6475583176110506 
2.9800000000018643, -0.6433417580512868 
2.9900000000018854, -0.6404630372380369 
3.0000000000019065, -0.6386012239656687 
3.0100000000019276, -0.6374650765891782 
3.0200000000019487, -0.6368190967978935 
3.03000000000197, -0.6364862740320905 
3.040000000001991, -0.6363402926818791 
3.050000000002012, -0.6362942904615777 
3.060000000002033, -0.636289809950531 
3.070000000002054, -0.6362877003586056 
3.0800000000020753, -0.6362617356270082 
3.0900000000020964, -0.6361951554100036 
3.1000000000021175, -0.6360797859557762 
3.1100000000021386, -0.6359165432092031 
3.1200000000021597, -0.6357151808244129 
3.130000000002181, -0.6354911493415802 
3.140000000002202, -0.6352592984147277 
3.150000000002223, -0.6350269953808436 
3.160000000002244, -0.6347905463366712 
3.1700000000022652, -0.6345371275971006 
3.1800000000022863, -0.634250999204981 
3.1900000000023074, -0.6339203303113137 
3.2000000000023285, -0.63354140555297 
3.2100000000023496, -0.6331196101966647 
3.2200000000023707, -0.632668933054588 
3.230000000002392, -0.6322122558511918 
3.240000000002413, -0.6317839306394162 
3.250000000002434, -0.631435232319939 
3.260000000002455, -0.6312426859553657 
3.2700000000024763, -0.6313188063925208 
3.2800000000024974, -0.6318240288210814 
3.2900000000025185, -0.6329770745082974 
3.3000000000025396, -0.6350579984443666 
3.3100000000025607, -0.6383927792125916 
3.3200000000025818, -0.6433006540997818 
3.330000000002603, -0.6499815889114686 
3.340000000002624, -0.6583420425562422 
3.350000000002645, -0.6678316668551088 
3.360000000002666, -0.6774622503978216 
3.3700000000026873, -0.6861337900389217 
3.3800000000027084, -0.6930952238319833 
3.3900000000027295, -0.6981651169433803 
3.4000000000027506, -0.7015927214928701 
3.4100000000027717, -0.7037846896448543 
3.420000000002793, -0.7051167468059327 
3.430000000002814, -0.7058672507642061 
3.440000000002835, -0.7062186511821592 
3.450000000002856, -0.7062786918263122 
3.460000000002877, -0.7060995029703147 
3.4700000000028983, -0.7056883969523431 
3.4800000000029194, -0.7050096852916801 
3.4900000000029405, -0.7039780301220044 
3.5000000000029616, -0.7024449542369023 
3.5100000000029827, -0.7001848515821136 
3.520000000003004, -0.6968990630930713 
3.530000000003025, -0.692274253549262 
3.540000000003046, -0.686128666516421 
3.550000000003067, -0.678607852473089 
3.5600000000030882, -0.6702726314843559 
3.5700000000031094, -0.6619389023137081 
3.5800000000031305, -0.6543607691556939 
3.5900000000031516, -0.6480008576208016 
3.6000000000031727, -0.6430002285987577 
3.6100000000031938, -0.6392744296932313 
3.620000000003215, -0.6366275131200997 
3.630000000003236, -0.6348328865428916 
3.640000000003257, -0.6336772523774441 
3.650000000003278, -0.6329794782249946 
3.6600000000032993, -0.6325954776634833 
3.6700000000033204, -0.6324160381784367 
3.6800000000033415, -0.6323614737532701 
3.6900000000033626, -0.6323753350316874 
3.7000000000033837, -0.6324185719850213 
3.710000000003405, -0.6324650340763055 
3.720000000003426, -0.632498733644064 
3.730000000003447, -0.6325126819456093 
3.740000000003468, -0.6325082636712225 
3.750000000003489, -0.6324934244554135 
3.7600000000035103, -0.6324782832334965 
3.7700000000035314, -0.6324686406183491 
3.7800000000035525, -0.6324602077124479 
3.7900000000035736, -0.6324371245762597 
3.8000000000035947, -0.6323762982729896 
3.810000000003616, -0.6322554119110743 
3.820000000003637, -0.6320601046057005 
3.830000000003658, -0.6317869985778781 
3.840000000003679, -0.6314427455778039 
3.8500000000037002, -0.6310417936399012 
3.8600000000037213, -0.6306056774303364 
3.8700000000037424, -0.6301654858113379 
3.8800000000037635, -0.6297682568960188 
3.8900000000037847, -0.6294877577603388 
3.9000000000038058, -0.6294399422056668 
3.910000000003827, -0.6298025782741652 
3.920000000003848, -0.6308360939721747 
3.930000000003869, -0.6328970866447299 
3.94000000000389, -0.636425298992406 
3.9500000000039113, -0.6418698481765224 
3.9600000000039324, -0.6495147643547723 
3.9700000000039535, -0.6592097232370686 
3.9800000000039746, -0.6701536548307644 
3.9900000000039957, -0.6810140615720768 
4.000000000004016, -0.6904756914565074 
4.010000000003993, -0.6978147100244837 
4.02000000000397, -0.7030144488140726 
4.030000000003946, -0.7064728288642153 
4.040000000003923, -0.7086740666985418 
4.0500000000039, -0.7100197449582384 
4.0600000000038765, -0.7107918986699452 
4.070000000003853, -0.711170894739749 
4.08000000000383, -0.7112625168301239 
4.090000000003807, -0.7111184209388643 
4.100000000003783, -0.7107471452493712 
4.11000000000376, -0.7101164331965257 
4.120000000003737, -0.7091482737522588 
4.130000000003713, -0.7077094586569411 
4.14000000000369, -0.7056054800803082 
4.150000000003667, -0.7025959399678385 
4.1600000000036434, -0.6984589378926784 
4.17000000000362, -0.6931153500307294 
4.180000000003597, -0.6867577358461918 
4.1900000000035735, -0.6798658406961275 
4.20000000000355, -0.6730536165338595 
4.210000000003527, -0.6668525596845939 
4.220000000003504, -0.6615820920902113 
4.23000000000348, -0.6573466352888961 
4.240000000003457, -0.6541007790283137 
4.250000000003434, -0.6517199887851952 
4.26000000000341, -0.6500507684506771 
4.270000000003387, -0.6489396644500809 
4.280000000003364, -0.6482480232516166 
4.2900000000033405, -0.6478584500063903 
4.300000000003317, -0.6476764551664431 
4.310000000003294, -0.647629192493738 
4.320000000003271, -0.6476625599398749 
4.330000000003247, -0.647737746158287 
4.340000000003224, -0.6478281522291098 
4.350000000003201, -0.6479172842189824 
4.360000000003177, -0.647997589298611 
4.370000000003154, -0.6480693597148953 
4.380000000003131, -0.6481382351875489 
4.390000000003107, -0.6482103283926761 
4.400000000003084, -0.6482858834835067 
4.410000000003061, -0.6483544912537316 
4.4200000000030375, -0.6483951830715092 
4.430000000003014, -0.6483822227287365 
4.440000000002991, -0.6482936136821257 
4.450000000002968, -0.6481175453039913 
4.460000000002944, -0.6478540571479958 
4.470000000002921, -0.6475130109459186 
4.480000000002898, -0.6471115471755389 
4.490000000002874, -0.6466737590312082 
4.500000000002851, -0.646233984304645 
4.510000000002828, -0.6458442861643805 
4.520000000002804, -0.645586448430629 
4.530000000002781, -0.6455885020789974 
4.540000000002758, -0.6460446047973777 
4.5500000000027345, -0.6472340288103167 
4.560000000002711, -0.6495287355314596 
4.570000000002688, -0.6533683236245641 
4.580000000002665, -0.6591685799029366 
4.590000000002641, -0.6671324100918068 
4.600000000002618, -0.6769913791759481 
4.610000000002595, -0.6878470932729523 
4.620000000002571, -0.6983679727833101 
4.630000000002548, -0.7073496739997822 
4.640000000002525, -0.7142073523796119 
4.6500000000025015, -0.7190086918528473 
4.660000000002478, -0.7221700811893634 
4.670000000002455, -0.7241594562580425 
4.6800000000024315, -0.7253542519079388 
4.690000000002408, -0.7260155767369435 
4.700000000002385, -0.7263078975700268 
4.710000000002362, -0.726324767861144 
4.720000000002338, -0.7261072675834621 
4.730000000002315, -0.7256528509732327 
4.740000000002292, -0.7249151541116906 
4.750000000002268, -0.7237957922355476 
4.760000000002245, -0.7221308696989974 
4.770000000002222, -0.7196812924606308 
4.7800000000021985, -0.7161496439408873 
4.790000000002175, -0.7112599502310174 
4.800000000002152, -0.7049171610560153 
4.810000000002129, -0.6973752597394374 
4.820000000002105, -0.6892552179326221 
4.830000000002082, -0.6813380484169387 
4.840000000002059, -0.6742777158951992 
4.850000000002035, -0.6684380071548015 
4.860000000002012, -0.6639006732382763 
4.870000000001989, -0.6605604097291963 
4.880000000001965, -0.658222299318214 
4.890000000001942, -0.6566687614751097 
4.900000000001919, -0.6556965427344007 
4.9100000000018955, -0.6551334218143291 
4.920000000001872, -0.6548429105935892 
