t, s[1].omega / s[0].omega 
0, -0.3199948263885895 
0.009999999999999995, -0.3195528645646026 
0.019999999999999934, -0.3192494522338105 
0.029999999999999874, -0.31905155434900323 
0.04000000000000012, -0.31891265147785736 
0.050000000000000405, -0.3187849194731701 
0.06000000000000069, -0.31862893591691405 
0.07000000000000098, -0.3184177186223286 
0.08000000000000126, -0.31813486272683217 
0.09000000000000155, -0.31776905203855244 
0.10000000000000184, -0.31730723971183716 
0.11000000000000212, -0.31672695407928064 
0.12000000000000241, -0.3159857968973355 
0.130000000000002, -0.31500341165501966 
0.1400000000000009, -0.3136273874355674 
0.1499999999999998, -0.31157126234182886 
0.1599999999999987, -0.308322962588058 
0.1699999999999976, -0.30308777014532123 
0.1799999999999965, -0.29499166183566994 
0.1899999999999954, -0.28380353741787945 
0.1999999999999943, -0.2707195620695362 
0.2099999999999932, -0.25795392868621037 
0.2199999999999921, -0.2472697669745727 
0.229999999999991, -0.23920917430589603 
0.2399999999999899, -0.23345787543364435 
0.2499999999999888, -0.22944003703625243 
0.2599999999999877, -0.22663538826267748 
0.2699999999999866, -0.22466184158033306 
0.2799999999999855, -0.22326309495711305 
0.2899999999999844, -0.22227625715640303 
0.2999999999999833, -0.22160431787085594 
0.3099999999999822, -0.22119817965023442 
0.3199999999999811, -0.22104759137908964 
0.32999999999998, -0.2211800378865601 
0.3399999999999789, -0.22166787881760958 
0.3499999999999778, -0.2226458167690495 
0.35999999999997667, -0.2243427004885667 
0.36999999999997557, -0.22713211759267304 
0.37999999999997447, -0.2315982982016997 
0.38999999999997337, -0.2385753881410937 
0.39999999999997227, -0.249003608715228 
0.40999999999997117, -0.2632699917074453 
0.41999999999997006, -0.2799377785313443 
0.42999999999996896, -0.29529584416175203 
0.43999999999996786, -0.30581147248473667 
0.44999999999996676, -0.3110477858643647 
0.45999999999996566, -0.3129116942125539 
0.46999999999996456, -0.31330421551432874 
0.47999999999996346, -0.31324734707504553 
0.48999999999996235, -0.3131260364744064 
0.49999999999996125, -0.31304161765100147 
0.5099999999999602, -0.3130009614561323 
0.519999999999959, -0.3129891081194839 
0.529999999999958, -0.31299153315010303 
0.5399999999999568, -0.31299921878394366 
0.5499999999999557, -0.31300925469701735 
0.5599999999999546, -0.31302522515077996 
0.5699999999999535, -0.3130585317566441 
0.5799999999999524, -0.31313045642693943 
0.5899999999999513, -0.31327383767397876 
0.5999999999999502, -0.3135325762408969 
0.6099999999999491, -0.3139571297765217 
0.619999999999948, -0.3145946965203893 
0.6299999999999469, -0.31547365080948253 
0.6399999999999458, -0.31658399472956233 
0.6499999999999447, -0.31786136850788177 
0.6599999999999436, -0.319188972956885 
0.6699999999999425, -0.3204273548024682 
0.6799999999999414, -0.32145989326775715 
0.6899999999999403, -0.3222240912713019 
0.6999999999999392, -0.3227112604277143 
0.7099999999999381, -0.3229442793807165 
0.719999999999937, -0.32295272228385735 
0.7299999999999359, -0.32275553350940767 
0.7399999999999348, -0.3223509713550357 
0.7499999999999337, -0.3217098497656533 
0.7599999999999326, -0.32076946502129433 
0.7699999999999315, -0.31942984521191 
0.7799999999999304, -0.31756124452790113 
0.7899999999999293, -0.31504007632719483 
0.7999999999999282, -0.311825708680673 
0.8099999999999271, -0.30804940090791494 
0.819999999999926, -0.30402991806941754 
0.8299999999999249, -0.300160302174613 
0.8399999999999238, -0.2967447859896854 
0.8499999999999227, -0.29391707131685924 
0.8599999999999216, -0.2916663532581102 
0.8699999999999205, -0.28990603046144914 
0.8799999999999194, -0.2885296982947466 
0.8899999999999183, -0.2874409948793105 
0.8999999999999172, -0.2865647031602852 
0.9099999999999161, -0.2858484244063669 
0.919999999999915, -0.2852608122270811 
0.9299999999999139, -0.28478967118213583 
0.9399999999999128, -0.28444184791780536 
0.9499999999999117, -0.2842463454983075 
0.9599999999999106, -0.28426219760329186 
0.9699999999999095, -0.2845930970840256 
0.9799999999999084, -0.2854107396639739 
0.9899999999999073, -0.28698519566396363 
0.9999999999999062, -0.28970338394768974 
1.0099999999999052, -0.29400166629205243 
1.019999999999904, -0.30002406074204363 
1.029999999999903, -0.3067961052892255 
1.039999999999902, -0.3114569769009619 
1.0499999999999008, -0.31062270229611616 
1.0599999999998997, -0.3039804745859155 
1.0699999999998986, -0.29483078068221596 
1.0799999999998975, -0.28651566954014585 
1.0899999999998964, -0.2803393604759602 
1.0999999999998953, -0.27618246110107114 
1.1099999999998942, -0.27350549297693605 
1.119999999999893, -0.2718128905203493 
1.129999999999892, -0.27075489516664664 
1.1399999999998909, -0.2701080108139312 
1.1499999999998898, -0.26973638768696995 
1.1599999999998887, -0.2695614261463523 
1.1699999999998876, -0.2695424530601668 
1.1799999999998865, -0.26966600771766586 
1.1899999999998854, -0.26994118991450256 
1.1999999999998843, -0.27039928539990565 
1.2099999999998832, -0.2710963286470168 
1.219999999999882, -0.27211702361877677 
1.229999999999881, -0.27357706703394763 
1.2399999999998799, -0.27561748409092185 
1.2499999999998788, -0.2783785024306584 
1.2599999999998777, -0.2819362185572292 
1.2699999999998766, -0.2862012222534649 
1.2799999999998755, -0.29083720023172943 
1.2899999999998744, -0.29531570277449404 
1.2999999999998733, -0.299138801776763 
1.3099999999998722, -0.3020552069257839 
1.319999999999871, -0.3040858439288581 
1.32999999999987, -0.3053997067914447 
1.3399999999998689, -0.306188059900121 
1.3499999999998678, -0.3066032750398326 
1.3599999999998666, -0.306746908521311 
1.3699999999998655, -0.3066773637915051 
1.3799999999998644, -0.3064209159327219 
1.3899999999998633, -0.3059816386070634 
1.3999999999998622, -0.3053513728806309 
1.4099999999998611, -0.3045224630339262 
1.41999999999986, -0.3035041434308402 
1.429999999999859, -0.30233783191863306 
1.4399999999998578, -0.3011007537846734 
1.4499999999998567, -0.2998902616047186 
1.4599999999998556, -0.2987953681263069 
1.4699999999998545, -0.29787277238260684 
1.4799999999998534, -0.29713886058658806 
1.4899999999998523, -0.29657581116827175 
1.4999999999998512, -0.29614406989850994 
1.5099999999998501, -0.29579551917124747 
1.519999999999849, -0.29548441850043644 
1.529999999999848, -0.29517420130300465 
1.5399999999998468, -0.29483929142145326 
1.5499999999998457, -0.294462826647531 
1.5599999999998446, -0.29403215241353015 
1.5699999999998435, -0.2935333795575473 
1.5799999999998424, -0.2929446728883686 
1.5899999999998413, -0.2922256571128946 
1.5999999999998402, -0.29129673979077786 
1.6099999999998391, -0.2899959321801364 
1.619999999999838, -0.2879935108855006 
1.629999999999837, -0.28465648179500647 
1.6399999999998358, -0.2789566827661451 
1.6499999999998347, -0.2697766974201819 
1.6599999999998336, -0.2569707795930557 
1.6699999999998325, -0.2423122144654985 
1.6799999999998314, -0.22857252705043168 
1.6899999999998303, -0.2175660643630461 
1.6999999999998292, -0.20957040548675326 
1.709999999999828, -0.20402779166464588 
1.719999999999827, -0.20023615609927173 
1.729999999999826, -0.1976301633581887 
1.7399999999998248, -0.19581975864305157 
1.7499999999998237, -0.19455385618559537 
1.7599999999998226, -0.19367825942248135 
1.7699999999998215, -0.19310514992039832 
1.7799999999998204, -0.19279497636510173 
1.7899999999998193, -0.19274860526907064 
1.7999999999998182, -0.19300853170038654 
1.809999999999817, -0.19366988638653948 
1.819999999999816, -0.19490428360060674 
1.8299999999998149, -0.19700160693935426 
1.8399999999998138, -0.20043319403230023 
1.8499999999998127, -0.20592078505808611 
1.8599999999998116, -0.2144193233772124 
1.8699999999998105, -0.22673439630062417 
1.8799999999998094, -0.24238336756315398 
1.8899999999998083, -0.25828667305800174 
1.8999999999998072, -0.2699772407669755 
1.909999999999806, -0.2755577865342415 
1.919999999999805, -0.27674825509146983 
1.9299999999998039, -0.27609055305804814 
1.9399999999998028, -0.27508256875738646 
1.9499999999998017, -0.27425217182297135 
1.9599999999998006, -0.2736827095931998 
1.9699999999997995, -0.27332523154268074 
1.9799999999997984, -0.27311533319452763 
1.9899999999997973, -0.2730039024410097 
1.9999999999997962, -0.2729601667941492 
2.0099999999998173, -0.2729686354207655 
2.0199999999998384, -0.2730264262183396 
2.0299999999998595, -0.273142441965431 
2.0399999999998806, -0.27333828832396306 
2.0499999999999017, -0.2736501379577807 
2.059999999999923, -0.2741301515057651 
2.069999999999944, -0.2748454165168805 
2.079999999999965, -0.27587148830528807 
2.089999999999986, -0.2772763546230452 
2.100000000000007, -0.2790906635916988 
2.1100000000000283, -0.28126725875718617 
2.1200000000000494, -0.28365245703803743 
2.1300000000000705, -0.286007204869289 
2.1400000000000916, -0.2880891696175546 
2.1500000000001127, -0.28974294672416034 
2.160000000000134, -0.2909307022598098 
2.170000000000155, -0.2916981866893393 
2.180000000000176, -0.2921216409065742 
2.190000000000197, -0.29227059298069874 
2.2000000000002182, -0.2921916379294395 
2.2100000000002393, -0.29190471420807207 
2.2200000000002604, -0.2914043614092115 
2.2300000000002815, -0.2906635058114916 
2.2400000000003026, -0.28964192413826717 
2.2500000000003237, -0.2883041268834945 
2.260000000000345, -0.286648545640333 
2.270000000000366, -0.28473761086867067 
2.280000000000387, -0.28270394634593177 
2.290000000000408, -0.28071548681343134 
2.3000000000004293, -0.27891774861895036 
2.3100000000004504, -0.27739339501533206 
2.3200000000004715, -0.27615823830977043 
2.3300000000004926, -0.2751812050796748 
2.3400000000005137, -0.27440843081525246 
2.3500000000005348, -0.27378150017841624 
2.360000000000556, -0.273248446087159 
2.370000000000577, -0.2727688272247096 
2.380000000000598, -0.2723144636843941 
2.390000000000619, -0.2718675241791482 
2.4000000000006403, -0.2714175723945738 
2.4100000000006614, -0.2709585298929357 
2.4200000000006825, -0.27048535393013917 
2.4300000000007036, -0.2699883591911258 
2.4400000000007247, -0.26943921502473195 
2.450000000000746, -0.2687536026259639 
2.460000000000767, -0.26769765161311276 
2.470000000000788, -0.2656898243529079 
2.480000000000809, -0.26152627689655905 
2.49000000000083, -0.2534461710917992 
2.5000000000008513, -0.24040085571893183 
2.5100000000008724, -0.2239812951935766 
2.5200000000008935, -0.20787627919802354 
2.5300000000009146, -0.19487584336597374 
2.5400000000009357, -0.18556754184820407 
2.550000000000957, -0.17926946063483773 
2.560000000000978, -0.17507536571952514 
2.570000000000999, -0.17226832033780284 
2.58000000000102, -0.17036745396529804 
2.5900000000010412, -0.1690715310536681 
2.6000000000010624, -0.16819950807141643 
2.6100000000010835, -0.16764943386418407 
2.6200000000011046, -0.1673746016917197 
2.6300000000011257, -0.16737281135178012 
2.6400000000011468, -0.16768633953832118 
2.650000000001168, -0.1684128159519805 
2.660000000001189, -0.16972998454883398 
2.67000000000121, -0.1719397242959125 
2.680000000001231, -0.1755349914242233 
2.6900000000012523, -0.18127209157219848 
2.7000000000012734, -0.19014509054065673 
2.7100000000012945, -0.2029519233802501 
2.7200000000013156, -0.21904894935953964 
2.7300000000013367, -0.2350646288393526 
2.740000000001358, -0.24648770595511257 
2.750000000001379, -0.2517613924609253 
2.7600000000014, -0.2528413597242966 
2.770000000001421, -0.25222040848479615 
2.780000000001442, -0.2512864593820522 
2.7900000000014633, -0.2505142231971801 
2.8000000000014844, -0.24997804885571714 
2.8100000000015055, -0.2496355768674408 
2.8200000000015266, -0.24943103856977022 
2.8300000000015477, -0.24932235418702878 
2.840000000001569, -0.24928415626861913 
2.85000000000159, -0.24930560831323834 
2.860000000001611, -0.24938868094191674 
2.870000000001632, -0.24954817533900195 
2.8800000000016532, -0.2498133721612738 
2.8900000000016743, -0.25023051469906565 
2.9000000000016954, -0.25086470105311515 
2.9100000000017165, -0.2517988489786421 
2.9200000000017377, -0.25312571522912153 
2.9300000000017588, -0.2549264299093643 
2.94000000000178, -0.25722909041819303 
2.950000000001801, -0.25995360623176855 
2.960000000001822, -0.2628797772261161 
2.970000000001843, -0.265692755392569 
2.9800000000018643, -0.2681052306478072 
2.9900000000018854, -0.2699654246583524 
3.0000000000019065, -0.27126987187385315 
3.0100000000019276, -0.2721020519045118 
3.0200000000019487, -0.27256539754270975 
3.03000000000197, -0.27274555259947286 
3.040000000001991, -0.27269856125678443 
3.050000000002012, -0.2724516543059249 
3.060000000002033, -0.2720082082580329 
3.070000000002054, -0.27135478256237 
3.0800000000020753, -0.27047204965816596 
3.0900000000020964, -0.26935203117275675 
3.1000000000021175, -0.26801955325345783 
3.1100000000021386, -0.2665467675334444 
3.1200000000021597, -0.2650455343241459 
3.130000000002181, -0.263635583537048 
3.140000000002202, -0.2624077195956203 
3.150000000002223, -0.2614044611842729 
3.160000000002244, -0.26062262240812695 
3.1700000000022652, -0.260027593127811 
3.1800000000022863, -0.2595691378066778 
3.1900000000023074, -0.2591944023921643 
3.2000000000023285, -0.25885692538043104 
3.2100000000023496, -0.2585210069691764 
3.2200000000023707, -0.25816153222441585 
3.230000000002392, -0.2577604858717498 
3.240000000002413, -0.2573016582255154 
3.250000000002434, -0.2567639981396827 
3.260000000002455, -0.2561121107100676 
3.2700000000024763, -0.2552795015631323 
3.2800000000024974, -0.2541355916220619 
3.2900000000025185, -0.2524219172357341 
3.3000000000025396, -0.24964772836777693 
3.3100000000025607, -0.24499616067599533 
3.3200000000025818, -0.23747753081252054 
3.330000000002603, -0.22668105641664402 
3.340000000002624, -0.21373840627369614 
3.350000000002645, -0.20100341284381473 
3.360000000002666, -0.1903970103878554 
3.3700000000026873, -0.18249290154086645 
3.3800000000027084, -0.17693302326024452 
3.3900000000027295, -0.17309794346957932 
3.4000000000027506, -0.17044552701160526 
3.4100000000027717, -0.16858769582727046 
3.420000000002793, -0.16726947785948607 
3.430000000002814, -0.16633160726123203 
3.440000000002835, -0.16568087865629763 
3.450000000002856, -0.16527164618290052 
3.460000000002877, -0.16509709471686146 
3.4700000000028983, -0.16518920988066563 
3.4800000000029194, -0.16562804574305257 
3.4900000000029405, -0.16656296932343712 
3.5000000000029616, -0.16825011508318624 
3.5100000000029827, -0.17110696222150706 
3.520000000003004, -0.17575972971817416 
3.530000000003025, -0.1829636787468163 
3.540000000003046, -0.19305467932051343 
3.550000000003067, -0.20455664100431456 
3.5600000000030882, -0.21314032915985 
3.5700000000031094, -0.21450591245975245 
3.5800000000031305, -0.20931296278799053 
3.5900000000031516, -0.20187018227938408 
3.6000000000031727, -0.19535591133992597 
3.6100000000031938, -0.1906515867683844 
3.620000000003215, -0.1875140474164181 
3.630000000003236, -0.1854809615407986 
3.640000000003257, -0.18417645904227262 
3.650000000003278, -0.18335008509805617 
3.6600000000032993, -0.1828485744946993 
3.6700000000033204, -0.18258472161615305 
3.6800000000033415, -0.18251632305703436 
3.6900000000033626, -0.1826348888952639 
3.7000000000033837, -0.18296201857732358 
3.710000000003405, -0.183552130695866 
3.720000000003426, -0.18450120762353356 
3.730000000003447, -0.18596150654725746 
3.740000000003468, -0.18816033379196934 
3.750000000003489, -0.19141297152338113 
3.7600000000035103, -0.19609805571863706 
3.7700000000035314, -0.202527071069147 
3.7800000000035525, -0.21064193356501087 
3.7900000000035736, -0.21967086513084233 
3.8000000000035947, -0.22822512406080303 
3.810000000003616, -0.23507274861783242 
3.820000000003637, -0.23982458812406965 
3.830000000003658, -0.24281837976943033 
3.840000000003679, -0.24460946056698796 
3.8500000000037002, -0.24565466298269412 
3.8600000000037213, -0.24624921420860818 
3.8700000000037424, -0.24656498942421293 
3.8800000000037635, -0.2466979223937018 
3.8900000000037847, -0.2467009140463226 
3.9000000000038058, -0.24660378792314336 
3.910000000003827, -0.24642585653117463 
3.920000000003848, -0.24618511724357944 
3.930000000003869, -0.24590571169133021 
3.94000000000389, -0.24562298361805185 
3.9500000000039113, -0.24538410023734256 
3.9600000000039324, -0.2452429158569358 
3.9700000000039535, -0.24525017612604333 
3.9800000000039746, -0.24544176125411518 
3.9900000000039957, -0.2458271712399142 
4.000000000004016, -0.24638044905605544 
4.010000000003993, -0.24703844860393934 
4.02000000000397, -0.24771258117450584 
4.030000000003946, -0.24831304957360795 
4.040000000003923, -0.24877298647906793 
4.0500000000039, -0.24905841235952172 
4.0600000000038765, -0.2491616605262245 
4.070000000003853, -0.24908659695559132 
4.08000000000383, -0.24883412868050225 
4.090000000003807, -0.24839098999128945 
4.100000000003783, -0.24772084490229163 
4.11000000000376, -0.24675657996929928 
4.120000000003737, -0.24539619386738157 
4.130000000003713, -0.24351209480783015 
4.14000000000369, -0.24099154951359775 
4.150000000003667, -0.23781781441941088 
4.1600000000036434, -0.234154180766587 
4.17000000000362, -0.23033988777982645 
4.180000000003597, -0.22675786497672973 
4.1900000000035735, -0.22367588163576252 
4.20000000000355, -0.22118694655417553 
4.210000000003527, -0.21925191567091828 
4.220000000003504, -0.2177705010498626 
4.23000000000348, -0.21663197382715627 
4.240000000003457, -0.21573941448112244 
4.250000000003434, -0.21501739951052606 
4.26000000000341, -0.21441196267317514 
4.270000000003387, -0.21388764193911353 
4.280000000003364, -0.21342396918770676 
4.2900000000033405, -0.21301258654570948 
4.300000000003317, -0.21265538520723756 
4.310000000003294, -0.21236305728662766 
4.320000000003271, -0.21215126081848137 
4.330000000003247, -0.21202564444105626 
4.340000000003224, -0.2119313806582784 
4.350000000003201, -0.21161050823857974 
4.360000000003177, -0.21028642807682374 
4.370000000003154, -0.20626850592201565 
4.380000000003131, -0.19730070415570097 
4.390000000003107, -0.18278028197699586 
4.400000000003084, -0.1657129160607198 
4.410000000003061, -0.15039026715135678 
4.4200000000030375, -0.1389176149084838 
4.430000000003014, -0.13110856716886543 
4.440000000002991, -0.12597457089742417 
4.450000000002968, -0.12260240056820167 
4.460000000002944, -0.120357353150775 
4.470000000002921, -0.11884112876312944 
4.480000000002898, -0.11781500753142662 
4.490000000002874, -0.11714239216341141 
4.500000000002851, -0.11675427516781287 
4.510000000002828, -0.11663201644549515 
4.520000000002804, -0.11680322968307981 
4.530000000002781, -0.11734980630447338 
4.540000000002758, -0.1184305055612906 
4.5500000000027345, -0.12032351201735 
4.560000000002711, -0.12349297179715076 
4.570000000002688, -0.12865966125843625 
4.580000000002665, -0.13675175464424683 
4.590000000002641, -0.14834038713013944 
4.600000000002618, -0.16204393729315092 
4.610000000002595, -0.17316496502802853 
4.620000000002571, -0.17681557145162038 
4.630000000002548, -0.173458581545163 
4.640000000002525, -0.16744182580533248 
4.6500000000025015, -0.1619601301657903 
4.660000000002478, -0.15794555727898246 
4.670000000002455, -0.15524515691331256 
4.6800000000024315, -0.15348295126848108 
4.690000000002408, -0.15234643486478575 
4.700000000002385, -0.15162688957079046 
4.710000000002362, -0.151197946389314 
4.720000000002338, -0.1509905837505117 
4.730000000002315, -0.1509765888440357 
4.740000000002292, -0.1511607285151211 
4.750000000002268, -0.1515803293354337 
4.760000000002245, -0.1523117967729118 
4.770000000002222, -0.15348463906293966 
4.7800000000021985, -0.15530367507250417 
4.790000000002175, -0.15807656223687225 
4.800000000002152, -0.16222895999473624 
4.810000000002129, -0.16825001383619614 
4.820000000002105, -0.17645295923795612 
4.830000000002082, -0.18648947447670267 
4.840000000002059, -0.19698525707577524 
