t, s[1].omega / s[0].omega 
0, -0.5798728177906722 
0.009999999999999995, -0.5676888433452018 
0.019999999999999934, -0.5572247452526552 
0.029999999999999874, -0.548931107870174 
0.04000000000000012, -0.5427192632127796 
0.050000000000000405, -0.5382472955218823 
0.06000000000000069, -0.535123802406512 
0.07000000000000098, -0.533002044690589 
0.08000000000000126, -0.5316064348431158 
0.09000000000000155, -0.5307294948759248 
0.10000000000000184, -0.5302197585252949 
0.11000000000000212, -0.5299690474937135 
0.12000000000000241, -0.5299018064339134 
0.130000000000002, -0.5299669836579428 
0.1400000000000009, -0.5301322873467498 
0.1499999999999998, -0.5303804869886445 
0.1599999999999987, -0.5307072558726749 
0.1699999999999976, -0.5311196233572276 
0.1799999999999965, -0.531633468768432 
0.1899999999999954, -0.5322680953702295 
0.1999999999999943, -0.5330365315782523 
0.2099999999999932, -0.5339324234188744 
0.2199999999999921, -0.5349181241799652 
0.229999999999991, -0.5359221157619394 
0.2399999999999899, -0.53685260544391 
0.2499999999999888, -0.5376241553730263 
0.2599999999999877, -0.5381821367239648 
0.2699999999999866, -0.5385102915438571 
0.2799999999999855, -0.5386207396210368 
0.2899999999999844, -0.538537017291189 
0.2999999999999833, -0.5382797647298468 
0.3099999999999822, -0.5378578670868277 
0.3199999999999811, -0.5372631084486706 
0.32999999999998, -0.5364649410672581 
0.3399999999999789, -0.5354015313996949 
0.3499999999999778, -0.5339616189007121 
0.35999999999997667, -0.5319475668341915 
0.36999999999997557, -0.5290047504344755 
0.37999999999997447, -0.5245113487547701 
0.38999999999997337, -0.5174991743960756 
0.39999999999997227, -0.5068788177384269 
0.40999999999997117, -0.49230849975611857 
0.41999999999997006, -0.4752095094102223 
0.42999999999996896, -0.45839164482623096 
0.43999999999996786, -0.44425885632650813 
0.44999999999996676, -0.4336851501717812 
0.45999999999996566, -0.4263397029617072 
0.46999999999996456, -0.42145101984810235 
0.47999999999996346, -0.418275551674492 
0.48999999999996235, -0.4162468233001803 
0.49999999999996125, -0.41497413467353683 
0.5099999999999602, -0.4142002231958063 
0.519999999999959, -0.41375969597142337 
0.529999999999958, -0.41354821469948755 
0.5399999999999568, -0.41350199620273775 
0.5499999999999557, -0.41358504900901594 
0.5599999999999546, -0.41378182313172546 
0.5699999999999535, -0.41409354106524016 
0.5799999999999524, -0.41453675949505336 
0.5899999999999513, -0.41514251954143677 
0.5999999999999502, -0.4159538602759788 
0.6099999999999491, -0.4170188004894554 
0.619999999999948, -0.41837573683792223 
0.6299999999999469, -0.42002998123396135 
0.6399999999999458, -0.4219265790260235 
0.6499999999999447, -0.4239360891208702 
0.6599999999999436, -0.4258754602252074 
0.6699999999999425, -0.4275659971107893 
0.6799999999999414, -0.42889333485260145 
0.6899999999999403, -0.42982791028316186 
0.6999999999999392, -0.4304021145810603 
0.7099999999999381, -0.4306722577114339 
0.719999999999937, -0.43068926593231166 
0.7299999999999359, -0.4304831227437864 
0.7399999999999348, -0.4300553930531178 
0.7499999999999337, -0.429373070737136 
0.7599999999999326, -0.4283594687697122 
0.7699999999999315, -0.42688164599757156 
0.7799999999999304, -0.4247413537899303 
0.7899999999999293, -0.4216916292342788 
0.7999999999999282, -0.4175174721697995 
0.8099999999999271, -0.412196760845554 
0.819999999999926, -0.40605008470385656 
0.8299999999999249, -0.3996960021234661 
0.8399999999999238, -0.39378032509287736 
0.8499999999999227, -0.3887136103617444 
0.8599999999999216, -0.3846132005793057 
0.8699999999999205, -0.38140091189293 
0.8799999999999194, -0.378921224323023 
0.8899999999999183, -0.3770153164991233 
0.8999999999999172, -0.375552134240716 
0.9099999999999161, -0.3744354563686556 
0.919999999999915, -0.37360141681544995 
0.9299999999999139, -0.37301398607398534 
0.9399999999999128, -0.3726616485898405 
0.9499999999999117, -0.37255658214211795 
0.9599999999999106, -0.37273702878903736 
0.9699999999999095, -0.37327357962910174 
0.9799999999999084, -0.37428036914224333 
0.9899999999999073, -0.3759322180048458 
0.9999999999999062, -0.37848748189725157 
1.0099999999999052, -0.38231091937017264 
1.019999999999904, -0.3878751283165479 
1.029999999999903, -0.39568553260620837 
1.039999999999902, -0.4060367088464033 
1.0499999999999008, -0.41856855611676635 
1.0599999999998997, -0.43192007657531056 
1.0699999999998986, -0.4441122288315234 
1.0799999999998975, -0.453659175611061 
1.0899999999998964, -0.4602657535035083 
1.0999999999998953, -0.4644941400366533 
1.1099999999998942, -0.4671006847268696 
1.119999999999893, -0.4686826398072861 
1.129999999999892, -0.4696255805238444 
1.1399999999998909, -0.47015758331381263 
1.1499999999998898, -0.470407586935614 
1.1599999999998887, -0.47044419784293445 
1.1699999999998876, -0.4702978619460594 
1.1799999999998865, -0.46997327198489663 
1.1899999999998854, -0.46945785048364214 
1.1999999999998843, -0.46873113980825665 
1.2099999999998832, -0.4677786094023203 
1.219999999999882, -0.46660946939642284 
1.229999999999881, -0.46527089245952763 
1.2399999999998799, -0.463846558797954 
1.2499999999998788, -0.4624350429304009 
1.2599999999998777, -0.4611198145586636 
1.2699999999998766, -0.459949114823954 
1.2799999999998755, -0.45893369881860585 
1.2899999999998744, -0.45805745104994244 
1.2999999999998733, -0.4572918814521407 
1.3099999999998722, -0.4566083002267085 
1.319999999999871, -0.45598536066500034 
1.32999999999987, -0.45541245130624536 
1.3399999999998689, -0.45489089058070686 
1.3499999999998678, -0.45443516762273334 
1.3599999999998666, -0.454076107085463 
1.3699999999998655, -0.4538675142505653 
1.3799999999998644, -0.45389798885291616 
1.3899999999998633, -0.454310162199962 
1.3999999999998622, -0.4553301086753687 
1.4099999999998611, -0.4573084851002034 
1.41999999999986, -0.46076734605214 
1.429999999999859, -0.4664213224429597 
1.4399999999998578, -0.4750827929411896 
1.4499999999998567, -0.48728693193016354 
1.4599999999998556, -0.502567719651348 
1.4699999999998545, -0.5189084233133447 
1.4799999999998534, -0.5334609444125735 
1.4899999999998523, -0.544362188583199 
1.4999999999998512, -0.5515781709996853 
1.5099999999998501, -0.5560958813644842 
1.519999999999849, -0.5589209866314371 
1.529999999999848, -0.5607254854307697 
1.5399999999998468, -0.5618955252749626 
1.5499999999998457, -0.5626471377672906 
1.5599999999998446, -0.5631040752586887 
1.5699999999998435, -0.5633380799937837 
1.5799999999998424, -0.5633881235358315 
1.5899999999998413, -0.5632695149213076 
1.5999999999998402, -0.5629785548782189 
1.6099999999998391, -0.5624962728369962 
1.619999999999838, -0.561794549592759 
1.629999999999837, -0.5608477796929386 
1.6399999999998358, -0.5596505592210962 
1.6499999999998347, -0.5582350835769121 
1.6599999999998336, -0.5566755376705531 
1.6699999999998325, -0.5550712113444758 
1.6799999999998314, -0.5535163855740172 
1.6899999999998303, -0.5520758972056654 
1.6999999999998292, -0.5507782152680988 
1.709999999999828, -0.5496235347674399 
1.719999999999827, -0.5485976517536708 
1.729999999999826, -0.5476842899593846 
1.7399999999998248, -0.546873044840695 
1.7499999999998237, -0.5461633865165985 
1.7599999999998226, -0.5455664857990581 
1.7699999999998215, -0.5451065502491865 
1.7799999999998204, -0.5448227253403959 
1.7899999999998193, -0.5447720509770275 
1.7999999999998182, -0.5450336733076747 
1.809999999999817, -0.5457143901757695 
1.819999999999816, -0.5469553580855813 
1.8299999999998149, -0.5489388802160137 
1.8399999999998138, -0.551891685490972 
1.8499999999998127, -0.5560755712538865 
1.8599999999998116, -0.5617468808227627 
1.8699999999998105, -0.5690578661690817 
1.8799999999998094, -0.5778876626677635 
1.8899999999998083, -0.5876682307464166 
1.8999999999998072, -0.5973933204242958 
1.909999999999806, -0.6059648490819781 
1.919999999999805, -0.6126836965392092 
1.9299999999998039, -0.6174549836577444 
1.9399999999998028, -0.6206008793518604 
1.9499999999998017, -0.6225618874263448 
1.9599999999998006, -0.6237157608985222 
1.9699999999997995, -0.6243274655353066 
1.9799999999997984, -0.6245613556098922 
1.9899999999997973, -0.6245060273356786 
1.9999999999997962, -0.6241926791615733 
2.0099999999998173, -0.6236028358323107 
2.0199999999998384, -0.6226659306810377 
2.0299999999998595, -0.6212491645827255 
2.0399999999998806, -0.6191469298161427 
2.0499999999999017, -0.6160892749787859 
2.059999999999923, -0.6118050230554529 
2.069999999999944, -0.6061661860009778 
2.079999999999965, -0.5993600963709671 
2.089999999999986, -0.5919299449172519 
2.100000000000007, -0.5845847238408837 
2.1100000000000283, -0.5779165713434252 
2.1200000000000494, -0.5722459529414815 
2.1300000000000705, -0.5676430005103638 
2.1400000000000916, -0.5640274799898404 
2.1500000000001127, -0.5612588236065753 
2.160000000000134, -0.5591889925083848 
2.170000000000155, -0.5576853526090872 
2.180000000000176, -0.5566370347085163 
2.190000000000197, -0.5559543118325311 
2.2000000000002182, -0.5555659441143189 
2.2100000000002393, -0.5554165416892827 
2.2200000000002604, -0.5554645670896424 
2.2300000000002815, -0.5556810350461369 
2.2400000000003026, -0.5560487923708037 
2.2500000000003237, -0.5565621392104728 
2.260000000000345, -0.5572262486965871 
2.270000000000366, -0.5580552576108488 
2.280000000000387, -0.5590672322730754 
2.290000000000408, -0.5602741148354772 
2.3000000000004293, -0.5616663247443079 
2.3100000000004504, -0.563195996894128 
2.3200000000004715, -0.5647690543827817 
2.3300000000004926, -0.5662583751017702 
2.3400000000005137, -0.5675392268656929 
2.3500000000005348, -0.5685278717040398 
2.360000000000556, -0.569198143572166 
2.370000000000577, -0.5695697693831671 
2.380000000000598, -0.5696832427385035 
2.390000000000619, -0.5695777905287851 
2.4000000000006403, -0.5692783313399382 
2.4100000000006614, -0.5687889807476938 
2.4200000000006825, -0.5680883088903542 
2.4300000000007036, -0.5671218473116658 
2.4400000000007247, -0.5657870980198383 
2.450000000000746, -0.5639041543034717 
2.460000000000767, -0.5611617953905929 
2.470000000000788, -0.5570329715995348 
2.480000000000809, -0.5506967192647909 
2.49000000000083, -0.5411388656226854 
2.5000000000008513, -0.5277386251031972 
2.5100000000008724, -0.5112435909889841 
2.5200000000008935, -0.49399408736029427 
2.5300000000009146, -0.4786172436436371 
2.5400000000009357, -0.4665630677404146 
2.550000000000957, -0.45791754312570043 
2.560000000000978, -0.45205153408379645 
2.570000000000999, -0.44820259998936585 
2.58000000000102, -0.44573308411809365 
2.5900000000010412, -0.44418073431913374 
2.6000000000010624, -0.4432318590325773 
2.6100000000010835, -0.44268041578985323 
2.6200000000011046, -0.4423936317803407 
2.6300000000011257, -0.44228756701410504 
2.6400000000011468, -0.442311059115936 
2.650000000001168, -0.4424358160373593 
2.660000000001189, -0.4426508356346647 
2.67000000000121, -0.4429597118650337 
2.680000000001231, -0.44337937977054304 
2.6900000000012523, -0.44393844699245044 
2.7000000000012734, -0.4446727627910215 
2.7100000000012945, -0.4456158478435321 
2.7200000000013156, -0.4467829933761265 
2.7300000000013367, -0.44815136159655244 
2.740000000001358, -0.44964502421230207 
2.750000000001379, -0.451139561327438 
2.7600000000014, -0.4524943117148247 
2.770000000001421, -0.4535979338635623 
2.780000000001442, -0.4543973248792107 
2.7900000000014633, -0.454894267432989 
2.8000000000014844, -0.4551210640626292 
2.8100000000015055, -0.4551148490354954 
2.8200000000015266, -0.45490028223426926 
2.8300000000015477, -0.4544794861567675 
2.840000000001569, -0.45382391553801515 
2.85000000000159, -0.45286281409829365 
2.860000000001611, -0.45146403375642324 
2.870000000001632, -0.4494061855640257 
2.8800000000016532, -0.44635286620787423 
2.8900000000016743, -0.4418708468962662 
2.9000000000016954, -0.43557544541564547 
2.9100000000017165, -0.4274452495195103 
2.9200000000017377, -0.41810303518756015 
2.9300000000017588, -0.4086686909731353 
2.94000000000178, -0.4001945126160085 
2.950000000001801, -0.3932309713837333 
2.960000000001822, -0.3878283476992835 
2.970000000001843, -0.38376679338882347 
2.9800000000018643, -0.3807567824359717 
2.9900000000018854, -0.37853860823790486 
3.0000000000019065, -0.3769117982599173 
3.0100000000019276, -0.3757335186634061 
3.0200000000019487, -0.37490804666548183 
3.03000000000197, -0.3743763636693234 
3.040000000001991, -0.37410869191136265 
3.050000000002012, -0.37410049717977467 
3.060000000002033, -0.374371900190779 
3.070000000002054, -0.3749704804417195 
3.0800000000020753, -0.37597757876758764 
3.0900000000020964, -0.37751794591044063 
3.1000000000021175, -0.3797711068490276 
3.1100000000021386, -0.3829783292816954 
3.1200000000021597, -0.38742862940154577 
3.130000000002181, -0.39338990174763866 
3.140000000002202, -0.4009433372616821 
3.150000000002223, -0.40973936514145376 
3.160000000002244, -0.4188713051011537 
3.1700000000022652, -0.42715697505189293 
3.1800000000022863, -0.43373640182836504 
3.1900000000023074, -0.43841563921481075 
3.2000000000023285, -0.44149672252730304 
3.2100000000023496, -0.4434277410309006 
3.2200000000023707, -0.44459054698938116 
3.230000000002392, -0.44524790426197036 
3.240000000002413, -0.4455615693140582 
3.250000000002434, -0.4456224786026513 
3.260000000002455, -0.4454737502958003 
3.2700000000024763, -0.44512498972177816 
3.2800000000024974, -0.4445615233555961 
3.2900000000025185, -0.4437535211217439 
3.3000000000025396, -0.442670215154333 
3.3100000000025607, -0.44130187893072437 
3.3200000000025818, -0.43968392499585807 
3.330000000002603, -0.43790690528689813 
3.340000000002624, -0.43609793428412197 
3.350000000002645, -0.4343804933005866 
3.360000000002666, -0.43283885692225965 
3.3700000000026873, -0.43150634370262964 
3.3800000000027084, -0.4303751534212224 
3.3900000000027295, -0.4294147102131628 
3.4000000000027506, -0.42858829595414694 
3.4100000000027717, -0.42786406484996375 
3.420000000002793, -0.42722060616362467 
3.430000000002814, -0.4266490030432969 
3.440000000002835, -0.426153765402002 
3.450000000002856, -0.42575472825799326 
3.460000000002877, -0.42549159689142285 
3.4700000000028983, -0.42543275568414946 
3.4800000000029194, -0.4256903942837626 
3.4900000000029405, -0.42644472465758543 
3.5000000000029616, -0.42798012518964645 
3.5100000000029827, -0.4307323992880753 
3.520000000003004, -0.4353304873179901 
3.530000000003025, -0.4425705795288223 
3.540000000003046, -0.4531759189146392 
3.550000000003067, -0.4671702327005698 
3.5600000000030882, -0.48308338772130144 
3.5700000000031094, -0.4980727103988979 
3.5800000000031305, -0.5096560104710182 
3.5900000000031516, -0.5172766832841117 
3.6000000000031727, -0.5218809175469744 
3.6100000000031938, -0.524649965384887 
3.620000000003215, -0.5263873953027185 
3.630000000003236, -0.527526689730984 
3.640000000003257, -0.5282871839056699 
3.650000000003278, -0.5287838948650633 
3.6600000000032993, -0.5290811536500635 
3.6700000000033204, -0.5292154491382272 
3.6800000000033415, -0.529204856523336 
3.6900000000033626, -0.5290532816217743 
3.7000000000033837, -0.5287534113887421 
3.710000000003405, -0.5282909123592202 
3.720000000003426, -0.5276519556403027 
3.730000000003447, -0.5268346055163653 
3.740000000003468, -0.5258606963250301 
3.750000000003489, -0.5247804803158552 
3.7600000000035103, -0.5236635312245168 
3.7700000000035314, -0.5225787007114464 
3.7800000000035525, -0.5215748238732886 
3.7900000000035736, -0.5206723636627145 
3.8000000000035947, -0.5198672305357686 
3.810000000003616, -0.5191414025606329 
3.820000000003637, -0.5184741427991825 
3.830000000003658, -0.5178500559924878 
3.840000000003679, -0.5172632553853778 
3.8500000000037002, -0.5167190642228555 
3.8600000000037213, -0.516235397810664 
3.8700000000037424, -0.5158456441202792 
3.8800000000037635, -0.5156043091094068 
3.8900000000037847, -0.5155964437723278 
3.9000000000038058, -0.5159519446395427 
3.910000000003827, -0.5168658529902538 
3.920000000003848, -0.5186248881131641 
3.930000000003869, -0.5216365121602209 
3.94000000000389, -0.526445178267805 
3.9500000000039113, -0.5336939155229341 
3.9600000000039324, -0.543949332805635 
3.9700000000039535, -0.5573068327553519 
3.9800000000039746, -0.5728807074865968 
3.9900000000039957, -0.5887000762084762 
4.000000000004016, -0.6025306727673547 
4.010000000003993, -0.6130715732699608 
4.02000000000397, -0.6203164256713912 
4.030000000003946, -0.624989416633153 
4.040000000003923, -0.6279048748214894 
4.0500000000039, -0.6296861899473156 
4.0600000000038765, -0.630741272521939 
4.070000000003853, -0.6313181169952446 
4.08000000000383, -0.6315596406766117 
4.090000000003807, -0.6315399256454198 
4.100000000003783, -0.6312840194080122 
4.11000000000376, -0.6307763541283443 
4.120000000003737, -0.6299623837152292 
4.130000000003713, -0.6287490208569244 
4.14000000000369, -0.6270132724073421 
4.150000000003667, -0.6246326962972619 
4.1600000000036434, -0.6215456189438353 
4.17000000000362, -0.6178207470242806 
4.180000000003597, -0.6136810260981073 
4.1900000000035735, -0.609442219874164 
4.20000000000355, -0.6054026215901473 
4.210000000003527, -0.6017631654049649 
4.220000000003504, -0.5986140178445098 
4.23000000000348, -0.5959649496272478 
4.240000000003457, -0.5937837451432497 
4.250000000003434, -0.5920239858535654 
4.26000000000341, -0.5906397158696821 
4.270000000003387, -0.5895909421375507 
4.280000000003364, -0.5888443783932601 
4.2900000000033405, -0.5883724630754072 
4.300000000003317, -0.5881523075233966 
4.310000000003294, -0.5881652916525454 
4.320000000003271, -0.5883974648397505 
4.330000000003247, -0.5888405901531351 
4.340000000003224, -0.5894934501495624 
4.350000000003201, -0.5903627553421659 
4.360000000003177, -0.591462511797047 
4.370000000003154, -0.5928100163287339 
4.380000000003131, -0.5944162010533229 
4.390000000003107, -0.5962690382483415 
4.400000000003084, -0.598312959971919 
4.410000000003061, -0.6004352180623235 
4.4200000000030375, -0.6024759622629481 
4.430000000003014, -0.6042694432940273 
4.440000000002991, -0.6056969871997611 
4.450000000002968, -0.6067162604890056 
4.460000000002944, -0.6073511649641092 
4.470000000002921, -0.6076590015253707 
4.480000000002898, -0.607699517067392 
4.490000000002874, -0.6075166934167858 
4.500000000002851, -0.607131064109569 
4.510000000002828, -0.6065363424809358 
4.520000000002804, -0.6056950793430296 
4.530000000002781, -0.6045292035236709 
4.540000000002758, -0.6029006858861667 
4.5500000000027345, -0.6005750178725698 
4.560000000002711, -0.5971585387837569 
4.570000000002688, -0.5920148765628552 
4.580000000002665, -0.5842387699492576 
4.590000000002641, -0.572924078210793 
4.600000000002618, -0.5579553551872397 
4.610000000002595, -0.5408174291176514 
4.620000000002571, -0.5241701817605642 
4.630000000002548, -0.5102578587020616 
4.640000000002525, -0.4999093706685409 
4.6500000000025015, -0.49280676659448525 
4.660000000002478, -0.48818365663280155 
4.670000000002455, -0.4852830445239248 
4.6800000000024315, -0.4835179922576107 
4.690000000002408, -0.48247961843948123 
4.700000000002385, -0.4818978590481871 
4.710000000002362, -0.48159933177434605 
4.720000000002338, -0.48147463453366585 
4.730000000002315, -0.4814558156591562 
4.740000000002292, -0.4815018710555402 
4.750000000002268, -0.481590069813857 
4.760000000002245, -0.481711408774681 
4.770000000002222, -0.4818687396493309 
4.7800000000021985, -0.48207587534628893 
4.790000000002175, -0.48235551203978344 
4.800000000002152, -0.4827338189893105 
4.810000000002129, -0.4832307619580237 
4.820000000002105, -0.48384767098355275 
4.830000000002082, -0.4845566188268495 
4.840000000002059, -0.48529848342698456 
4.850000000002035, -0.48599490459876715 
4.860000000002012, -0.4865710186270049 
4.870000000001989, -0.486976317000233 
4.880000000001965, -0.48719162577036157 
4.890000000001942, -0.4872214862802718 
