t, s[1].omega / s[0].omega 
0, -1.0699982627146791 
0.009999999999999995, -1.0697197939906726 
0.019999999999999934, -1.069235646514015 
0.029999999999999874, -1.0685852099822704 
0.04000000000000012, -1.0678882456331802 
0.050000000000000405, -1.0673183863786544 
0.06000000000000069, -1.067014227576542 
0.07000000000000098, -1.0669922639040792 
0.08000000000000126, -1.067100368283207 
0.09000000000000155, -1.067119006953999 
0.10000000000000184, -1.0668928409343998 
0.11000000000000212, -1.06636865398098 
0.12000000000000241, -1.0655807759029015 
0.130000000000002, -1.064588000735271 
0.1400000000000009, -1.0634554736317912 
0.1499999999999998, -1.0623046424396698 
0.1599999999999987, -1.061336637472018 
0.1699999999999976, -1.0607640635065487 
0.1799999999999965, -1.0606037516108835 
0.1899999999999954, -1.0605972895729632 
0.1999999999999943, -1.0604460937336244 
0.2099999999999932, -1.059933042070625 
0.2199999999999921, -1.058931234233329 
0.229999999999991, -1.0574698110063985 
0.2399999999999899, -1.0556897393206672 
0.2499999999999888, -1.053739670845448 
0.2599999999999877, -1.0518166661259332 
0.2699999999999866, -1.05025955522756 
0.2799999999999855, -1.0494088974464435 
0.2899999999999844, -1.0491843431035526 
0.2999999999999833, -1.0491396684579952 
0.3099999999999822, -1.0488966525465697 
0.3199999999999811, -1.048167558600859 
0.32999999999998, -1.0466801547975049 
0.3399999999999789, -1.0443640848947895 
0.3499999999999778, -1.041451143201454 
0.35999999999997667, -1.0382694398303263 
0.36999999999997557, -1.0352068633896614 
0.37999999999997447, -1.0328518227337713 
0.38999999999997337, -1.0316800866286797 
0.39999999999997227, -1.0314141239419428 
0.40999999999997117, -1.0313767663987299 
0.41999999999997006, -1.0311210880383241 
0.42999999999996896, -1.0303151528189074 
0.43999999999996786, -1.028534935789342 
0.44999999999996676, -1.0255037000865672 
0.45999999999996566, -1.0214702931379092 
0.46999999999996456, -1.0170019982665317 
0.47999999999996346, -1.0127367099098712 
0.48999999999996235, -1.00949523096681 
0.49999999999996125, -1.0078833456128526 
0.5099999999999602, -1.0075059830740336 
0.519999999999959, -1.007487202056568 
0.529999999999958, -1.0072969285154045 
0.5399999999999568, -1.0066063773947704 
0.5499999999999557, -1.0049688110298938 
0.5599999999999546, -1.0019616697384215 
0.5699999999999535, -0.9977209609321307 
0.5799999999999524, -0.9929000953763805 
0.5899999999999513, -0.9882133319120417 
0.5999999999999502, -0.9844459164146638 
0.6099999999999491, -0.9822931639826178 
0.619999999999948, -0.9816117743656405 
0.6299999999999469, -0.9815503157191493 
0.6399999999999458, -0.9814632224664879 
0.6499999999999447, -0.9810179021817971 
0.6599999999999436, -0.9798740947024553 
0.6699999999999425, -0.9776668102195879 
0.6799999999999414, -0.9744074111192547 
0.6899999999999403, -0.9705849905077205 
0.6999999999999392, -0.9667408789557167 
0.7099999999999381, -0.963361055906947 
0.719999999999937, -0.9609782874925207 
0.7299999999999359, -0.9598507314644319 
0.7399999999999348, -0.9595845793898949 
0.7499999999999337, -0.959552551773165 
0.7599999999999326, -0.9593563297025285 
0.7699999999999315, -0.9587385402289146 
0.7799999999999304, -0.9574681691702264 
0.7899999999999293, -0.9555084290706283 
0.7999999999999282, -0.953125342426185 
0.8099999999999271, -0.9506406819652361 
0.819999999999926, -0.9482904231008821 
0.8299999999999249, -0.9463245532467157 
0.8399999999999238, -0.945021964917679 
0.8499999999999227, -0.9444585075001165 
0.8599999999999216, -0.9443529790198824 
0.8699999999999205, -0.944320601614648 
0.8799999999999194, -0.9440960665776499 
0.8899999999999183, -0.9435151504647189 
0.8999999999999172, -0.9425314457040133 
0.9099999999999161, -0.9412618566664964 
0.919999999999915, -0.9398717797081984 
0.9299999999999139, -0.9384724455695335 
0.9399999999999128, -0.9371696812591381 
0.9499999999999117, -0.9361156827639799 
0.9599999999999106, -0.935462819198507 
0.9699999999999095, -0.935234479383142 
0.9799999999999084, -0.9352595154586204 
0.9899999999999073, -0.935298644865281 
0.9999999999999062, -0.9351813183374122 
1.0099999999999052, -0.9348411406791549 
1.019999999999904, -0.9343125234743468 
1.029999999999903, -0.933663652445843 
1.039999999999902, -0.9329310801591028 
1.0499999999999008, -0.9321551836824329 
1.0599999999998997, -0.931436087750805 
1.0699999999998986, -0.9309156764256931 
1.0799999999998975, -0.9306965797286568 
1.0899999999998964, -0.930770359355754 
1.0999999999998953, -0.9310126764470728 
1.1099999999998942, -0.9312649048821776 
1.119999999999893, -0.9314261007883429 
1.129999999999892, -0.9314730123638862 
1.1399999999998909, -0.9314070774648119 
1.1499999999998898, -0.9312015878534518 
1.1599999999998887, -0.9308387476567627 
1.1699999999998876, -0.9303787708277022 
1.1799999999998865, -0.9299747373566571 
1.1899999999998854, -0.9298173071237683 
1.1999999999998843, -0.9300119940091038 
1.2099999999998832, -0.9305149718494095 
1.219999999999882, -0.9311934761602979 
1.229999999999881, -0.9319183167463289 
1.2399999999998799, -0.932610730464864 
1.2499999999998788, -0.9332065685900917 
1.2599999999998777, -0.9335993312317664 
1.2699999999998766, -0.9336944772562906 
1.2799999999998755, -0.9335126994453652 
1.2899999999998744, -0.9331912363237505 
1.2999999999998733, -0.9329723623226986 
1.3099999999998722, -0.9331691135638455 
1.319999999999871, -0.9339610165697194 
1.32999999999987, -0.9352572619199427 
1.3399999999998689, -0.9368450279313275 
1.3499999999998678, -0.938544098335463 
1.3599999999998666, -0.9401881335986194 
1.3699999999998655, -0.9415320266175318 
1.3799999999998644, -0.9423336311763053 
1.3899999999998633, -0.9425762110184058 
1.3999999999998622, -0.9424360603581018 
1.4099999999998611, -0.9421468964154642 
1.41999999999986, -0.9420792001092717 
1.429999999999859, -0.9428003661646219 
1.4399999999998578, -0.9446803868813631 
1.4499999999998567, -0.9475301354809134 
1.4599999999998556, -0.9508989713383794 
1.4699999999998545, -0.9543509622160834 
1.4799999999998534, -0.9573612721842756 
1.4899999999998523, -0.9593855203985623 
1.4999999999998512, -0.9603235953296747 
1.5099999999998501, -0.9605140253819247 
1.519999999999849, -0.960305094283023 
1.529999999999848, -0.960003381885158 
1.5399999999998468, -0.9602102451335652 
1.5499999999998457, -0.9619426893814255 
1.5599999999998446, -0.9657471987474053 
1.5699999999998435, -0.9710546457626039 
1.5799999999998424, -0.9768629710253417 
1.5899999999998413, -0.9821361179755578 
1.5999999999998402, -0.9858691114048191 
1.6099999999998391, -0.9877700316459226 
1.619999999999838, -0.9883990785493382 
1.629999999999837, -0.9883698315201885 
1.6399999999998358, -0.9880414320741537 
1.6499999999998347, -0.9878569560311388 
1.6599999999998336, -0.9888808918110927 
1.6699999999998325, -0.9923721814652706 
1.6799999999998314, -0.9981980838059694 
1.6899999999998303, -1.0050103069059575 
1.6999999999998292, -1.0114058181843915 
1.709999999999828, -1.0161644436410953 
1.719999999999827, -1.0187669586659727 
1.729999999999826, -1.0197479761893038 
1.7399999999998248, -1.019874766751873 
1.7499999999998237, -1.0196033851460458 
1.7599999999998226, -1.019318043104899 
1.7699999999998215, -1.0198667706376987 
1.7799999999998204, -1.0223840110037188 
1.7899999999998193, -1.026866187725539 
1.7999999999998182, -1.0321759914469957 
1.809999999999817, -1.0372358242049793 
1.819999999999816, -1.0412121075113199 
1.8299999999998149, -1.0435998077289133 
1.8399999999998138, -1.0445930249168278 
1.8499999999998127, -1.0447564202095778 
1.8599999999998116, -1.0445201836375781 
1.8699999999998105, -1.0442544516021988 
1.8799999999998094, -1.0446084183775952 
1.8899999999998083, -1.04624152477172 
1.8999999999998072, -1.0489714085046298 
1.909999999999806, -1.0520773651408288 
1.919999999999805, -1.0550192404553593 
1.9299999999998039, -1.0574277630784006 
1.9399999999998028, -1.0590014199675502 
1.9499999999998017, -1.0596994582350645 
1.9599999999998006, -1.059771594774207 
1.9699999999997995, -1.05951924258552 
1.9799999999997984, -1.05927308746333 
1.9899999999997973, -1.0594900344927736 
1.9999999999997962, -1.0604384757167102 
2.0099999999998173, -1.0618877646587246 
2.0199999999998384, -1.0634584311528066 
2.0299999999998595, -1.064910509315024 
2.0399999999998806, -1.0660988844747932 
2.0499999999999017, -1.0668867168489082 
2.059999999999923, -1.0671954450620669 
2.069999999999944, -1.0670955890081109 
2.079999999999965, -1.066770045474314 
2.089999999999986, -1.066483537181027 
2.100000000000007, -1.0665234227044966 
2.1100000000000283, -1.0669697805741973 
2.1200000000000494, -1.0676600112883388 
2.1300000000000705, -1.068385759962954 
2.1400000000000916, -1.0690010409293487 
2.1500000000001127, -1.069432294420916 
2.160000000000134, -1.0696319883900605 
2.170000000000155, -1.0695578812321578 
2.180000000000176, -1.0692256241187958 
2.190000000000197, -1.068749229856602 
2.2000000000002182, -1.0683263861008843 
2.2100000000002393, -1.0681401083033841 
2.2200000000002604, -1.0682337889437552 
2.2300000000002815, -1.0685091676047114 
2.2400000000003026, -1.0687924836294294 
2.2500000000003237, -1.0689333166280588 
2.260000000000345, -1.0688653072364356 
2.270000000000366, -1.068585581828467 
2.280000000000387, -1.068103127055143 
2.290000000000408, -1.0674405442837256 
2.3000000000004293, -1.0666842264684455 
2.3100000000004504, -1.0659932204342981 
2.3200000000004715, -1.0655333239850877 
2.3300000000004926, -1.0653831801762588 
2.3400000000005137, -1.0654446285601586 
2.3500000000005348, -1.0654913112499729 
2.360000000000556, -1.0653271928475865 
2.370000000000577, -1.064852396475384 
2.380000000000598, -1.0640731401745287 
2.390000000000619, -1.063055509650356 
2.4000000000006403, -1.0618681747568581 
2.4100000000006614, -1.0606109643909791 
2.4200000000006825, -1.059465547421176 
2.4300000000007036, -1.0586742805862592 
2.4400000000007247, -1.0583581682053271 
2.450000000000746, -1.0583240650928694 
2.460000000000767, -1.0582436300569782 
2.470000000000788, -1.0578610782181745 
2.480000000000809, -1.0569956626308967 
2.49000000000083, -1.0556010628116634 
2.5000000000008513, -1.0537984423577311 
2.5100000000008724, -1.0517560579165324 
2.5200000000008935, -1.04965651867813 
2.5300000000009146, -1.047803865710493 
2.5400000000009357, -1.046606225703989 
2.550000000000957, -1.0461738802351939 
2.560000000000978, -1.0461139403802369 
2.570000000000999, -1.0459786777842004 
2.58000000000102, -1.0454589068309046 
2.5900000000010412, -1.0442547031175402 
2.6000000000010624, -1.0421669889915681 
2.6100000000010835, -1.039323887973214 
2.6200000000011046, -1.0360633905060037 
2.6300000000011257, -1.032759166483168 
2.6400000000011468, -1.0299442831587224 
2.650000000001168, -1.0282412475039409 
2.660000000001189, -1.0276864372969592 
2.67000000000121, -1.0276298759753648 
2.680000000001231, -1.0275018216315426 
2.6900000000012523, -1.0269629362502524 
2.7000000000012734, -1.0256255234062412 
2.7100000000012945, -1.0230891718464767 
2.7200000000013156, -1.0193756788665589 
2.7300000000013367, -1.0149865629971166 
2.740000000001358, -1.010535456157865 
2.750000000001379, -1.0067580931391935 
2.7600000000014, -1.0044458112537271 
2.770000000001421, -1.00365248635743 
2.780000000001442, -1.003569893046705 
2.7900000000014633, -1.003495753665856 
2.8000000000014844, -1.0030688362723736 
2.8100000000015055, -1.0019195732933173 
2.8200000000015266, -0.9995809872944325 
2.8300000000015477, -0.9959246881640496 
2.840000000001569, -0.9914382260308198 
2.85000000000159, -0.9868025147733672 
2.860000000001611, -0.9827009888120549 
2.870000000001632, -0.9798866184938677 
2.8800000000016532, -0.9786595717103374 
2.8900000000016743, -0.9784221414051064 
2.9000000000016954, -0.9783962663367115 
2.9100000000017165, -0.978153685606175 
2.9200000000017377, -0.9773961258481141 
2.9300000000017588, -0.9757684059352327 
2.94000000000178, -0.9730995673381694 
2.950000000001801, -0.9697006722373879 
2.960000000001822, -0.9660865470655983 
2.970000000001843, -0.9626932235909554 
2.9800000000018643, -0.9599801540783541 
2.9900000000018854, -0.9583674152107406 
3.0000000000019065, -0.9577959135290415 
3.0100000000019276, -0.9577179543235503 
3.0200000000019487, -0.9576371793286421 
3.03000000000197, -0.9572639194024756 
3.040000000001991, -0.9563679102564437 
3.050000000002012, -0.9548195461985393 
3.060000000002033, -0.9527631753862824 
3.070000000002054, -0.950499334000436 
3.0800000000020753, -0.9482635758202111 
3.0900000000020964, -0.9462569826325894 
3.1000000000021175, -0.9447321963712835 
3.1100000000021386, -0.9438874264958154 
3.1200000000021597, -0.9436277900137455 
3.130000000002181, -0.943608094264522 
3.140000000002202, -0.9435141006925684 
3.150000000002223, -0.943147959243315 
3.160000000002244, -0.9424115949418292 
3.1700000000022652, -0.9413537903788115 
3.1800000000022863, -0.9401225816908447 
3.1900000000023074, -0.9388357318951039 
3.2000000000023285, -0.9375798836904348 
3.2100000000023496, -0.93647793181981 
3.2200000000023707, -0.9356864825286408 
3.230000000002392, -0.9353038402550208 
3.240000000002413, -0.9352582205903373 
3.250000000002434, -0.9353367368355094 
3.260000000002455, -0.9353365496384075 
3.2700000000024763, -0.9351467901601909 
3.2800000000024974, -0.9347603772572566 
3.2900000000025185, -0.9342337853782278 
3.3000000000025396, -0.9336076093839588 
3.3100000000025607, -0.9329044852112721 
3.3200000000025818, -0.932193156987892 
3.330000000002603, -0.9316065549056181 
3.340000000002624, -0.9312792570778325 
3.350000000002645, -0.93126076963866 
3.360000000002666, -0.9314786829383817 
3.3700000000026873, -0.9317828312338866 
3.3800000000027084, -0.9320419118092892 
3.3900000000027295, -0.9321998060956295 
3.4000000000027506, -0.9322499489822134 
3.4100000000027717, -0.932169613572343 
3.420000000002793, -0.9319203413253747 
3.430000000002814, -0.9315212868852948 
3.440000000002835, -0.9310892437928229 
3.450000000002856, -0.9308182614200268 
3.460000000002877, -0.9308802751156111 
3.4700000000028983, -0.9313040050425145 
3.4800000000029194, -0.9319827593246467 
3.4900000000029405, -0.9327727487286992 
3.5000000000029616, -0.9335686108108029 
3.5100000000029827, -0.9343012165778279 
3.520000000003004, -0.9348720238205988 
3.530000000003025, -0.9351554863849625 
3.540000000003046, -0.9351150639772825 
3.550000000003067, -0.9348468459539855 
3.5600000000030882, -0.9345498542813075 
3.5700000000031094, -0.9345319585752555 
3.5800000000031305, -0.9350889697876152 
3.5900000000031516, -0.9362621323777749 
3.6000000000031727, -0.9378572947148056 
3.6100000000031938, -0.9396554884653541 
3.620000000003215, -0.9414799362854215 
3.630000000003236, -0.943105029844693 
3.640000000003257, -0.9442392324192207 
3.650000000003278, -0.9447503338305057 
3.6600000000032993, -0.9447676991834246 
3.6700000000033204, -0.9445143812549193 
3.6800000000033415, -0.944283566843065 
3.6900000000033626, -0.9445886442071391 
3.7000000000033837, -0.9459981920526271 
3.710000000003405, -0.9485902048112215 
3.720000000003426, -0.9519501115534041 
3.730000000003447, -0.9555953453471072 
3.740000000003468, -0.9590218204979882 
3.750000000003489, -0.9616177540944572 
3.7600000000035103, -0.9630424552168767 
3.7700000000035314, -0.9635207695981252 
3.7800000000035525, -0.9634528032695528 
3.7900000000035736, -0.9631427745418324 
3.8000000000035947, -0.9630177227497452 
3.810000000003616, -0.9639755470599279 
3.820000000003637, -0.9669425705758735 
3.830000000003658, -0.9717965797205834 
3.840000000003679, -0.9775870231333952 
3.8500000000037002, -0.983269457504078 
3.8600000000037213, -0.9877699408868179 
3.8700000000037424, -0.9904115988294261 
3.8800000000037635, -0.9914849704107974 
3.8900000000037847, -0.9916744721432186 
3.9000000000038058, -0.9914341360875473 
3.910000000003827, -0.9911079380119651 
3.920000000003848, -0.9914586889241971 
3.930000000003869, -0.9938117235951373 
3.94000000000389, -0.9986956725140248 
3.9500000000039113, -1.0050928600377311 
3.9600000000039324, -1.0115995957972677 
3.9700000000039535, -1.0169690933513624 
3.9800000000039746, -1.020337184874145 
3.9900000000039957, -1.0218383389749774 
4.000000000004016, -1.022226731770141 
4.010000000003993, -1.022074621069879 
4.02000000000397, -1.0217358886560428 
4.030000000003946, -1.0218141594763135 
4.040000000003923, -1.0234087769262694 
4.0500000000039, -1.0270385392740686 
4.0600000000038765, -1.0318803431420922 
4.070000000003853, -1.0368340752658023 
4.08000000000383, -1.0410700736548328 
4.090000000003807, -1.0439534628698588 
4.100000000003783, -1.0453741099091551 
4.11000000000376, -1.04578211833114 
4.120000000003737, -1.0456583490839961 
4.130000000003713, -1.0453515438710959 
4.14000000000369, -1.045367616801398 
4.150000000003667, -1.0464196000773966 
4.1600000000036434, -1.048663314193511 
4.17000000000362, -1.051504798458997 
4.180000000003597, -1.0543519841975815 
4.1900000000035735, -1.0568339010982566 
4.20000000000355, -1.0586407076771862 
4.210000000003527, -1.0596048273028205 
4.220000000003504, -1.0598616456969823 
4.23000000000348, -1.0596935751662682 
4.240000000003457, -1.0593958151811245 
4.250000000003434, -1.059371404786883 
4.26000000000341, -1.0599985051831495 
4.270000000003387, -1.0612203520980672 
4.280000000003364, -1.0626801071116188 
4.2900000000033405, -1.0640963312081162 
4.300000000003317, -1.0653122147872671 
4.310000000003294, -1.0662019700225152 
4.320000000003271, -1.0666555753217377 
4.330000000003247, -1.0666761558074918 
4.340000000003224, -1.0664007249780707 
4.350000000003201, -1.0660549181794041 
4.360000000003177, -1.0659283004971094 
4.370000000003154, -1.066196683758765 
4.380000000003131, -1.0667755208099359 
4.390000000003107, -1.0674628691960977 
4.400000000003084, -1.0680867003833738 
4.410000000003061, -1.0685499372149483 
4.4200000000030375, -1.0688050427049376 
4.430000000003014, -1.0688092219014735 
4.440000000002991, -1.0685480035716692 
4.450000000002968, -1.0680919463615484 
4.460000000002944, -1.0676074256706993 
4.470000000002921, -1.0672962151587038 
4.480000000002898, -1.0672636489396001 
4.490000000002874, -1.0674649513514909 
4.500000000002851, -1.0677462980648489 
4.510000000002828, -1.067934145546739 
4.520000000002804, -1.0679254650579346 
4.530000000002781, -1.0676990411631304 
4.540000000002758, -1.0672667582948165 
4.5500000000027345, -1.0666433833361162 
4.560000000002711, -1.065884641033925 
4.570000000002688, -1.0651235729280975 
4.580000000002665, -1.0645344414330788 
4.590000000002641, -1.0642461250149036 
4.600000000002618, -1.0642373569747379 
4.610000000002595, -1.06430964092694 
4.620000000002571, -1.0642367991083725 
4.630000000002548, -1.0638747129320827 
4.640000000002525, -1.0631862394787543 
4.6500000000025015, -1.062224804718826 
4.660000000002478, -1.0610638009796483 
4.670000000002455, -1.0597855089807275 
4.6800000000024315, -1.0585374765779263 
4.690000000002408, -1.057552960998003 
4.700000000002385, -1.057038902148604 
4.710000000002362, -1.0569267937915394 
4.720000000002338, -1.0568987463815542 
4.730000000002315, -1.0566602490091388 
4.740000000002292, -1.0559971627119125 
4.750000000002268, -1.0547919889575723 
4.760000000002245, -1.0531061326338402 
4.770000000002222, -1.0511082450338058 
4.7800000000021985, -1.0489712414719454 
4.790000000002175, -1.0469404677163878 
4.800000000002152, -1.0454125475873692 
4.810000000002129, -1.0446832775048736 
4.820000000002105, -1.044531504940682 
4.830000000002082, -1.0444703165871747 
4.840000000002059, -1.044144439327812 
4.850000000002035, -1.0432588678432306 
4.860000000002012, -1.041539517006736 
4.870000000001989, -1.0389679616092364 
4.880000000001965, -1.035831683333417 
4.890000000001942, -1.0324914205866886 
4.900000000001919, -1.0293915647190617 
4.9100000000018955, -1.0271665381812918 
4.920000000001872, -1.0261827130085115 
4.930000000001849, -1.0260032892285271 
