t, s[1].omega / s[0].omega 
0, -1.0400151528980461 
0.009999999999999995, -1.0413647444456045 
0.019999999999999934, -1.0423625817653803 
0.029999999999999874, -1.0430004813104985 
0.04000000000000012, -1.0433037705892334 
0.050000000000000405, -1.0433208789293003 
0.06000000000000069, -1.0431106356245718 
0.07000000000000098, -1.0427352098844493 
0.08000000000000126, -1.0422619726233293 
0.09000000000000155, -1.0417715332763626 
0.10000000000000184, -1.0413639471370004 
0.11000000000000212, -1.0411523572677537 
0.12000000000000241, -1.0412386081703275 
0.130000000000002, -1.0416806076410303 
0.1400000000000009, -1.0424727872981683 
0.1499999999999998, -1.043552356276237 
0.1599999999999987, -1.0448236703395626 
0.1699999999999976, -1.0461839431294562 
0.1799999999999965, -1.0475397731568754 
0.1899999999999954, -1.0488132296067907 
0.1999999999999943, -1.0499412186775876 
0.2099999999999932, -1.0508731458752796 
0.2199999999999921, -1.0515709344455852 
0.229999999999991, -1.052012436495704 
0.2399999999999899, -1.05219541945619 
0.2499999999999888, -1.0521380333275832 
0.2599999999999877, -1.051874859631304 
0.2699999999999866, -1.0514520312610247 
0.2799999999999855, -1.0509256506681794 
0.2899999999999844, -1.050364073840356 
0.2999999999999833, -1.0498494595956112 
0.3099999999999822, -1.0494712974837859 
0.3199999999999811, -1.049308591823661 
0.32999999999998, -1.0494076092851825 
0.3399999999999789, -1.0497686900280432 
0.3499999999999778, -1.0503495811046601 
0.35999999999997667, -1.0510808835942365 
0.36999999999997557, -1.0518841859115966 
0.37999999999997447, -1.0526861607804474 
0.38999999999997337, -1.0534261583744593 
0.39999999999997227, -1.0540578482705714 
0.40999999999997117, -1.054547178931909 
0.41999999999997006, -1.0548694522745743 
0.42999999999996896, -1.0550078779813323 
0.43999999999996786, -1.0549545860241747 
0.44999999999996676, -1.0547130557615083 
0.45999999999996566, -1.054299893449257 
0.46999999999996456, -1.0537451224306484 
0.47999999999996346, -1.053092062133994 
0.48999999999996235, -1.0523976101175199 
0.49999999999996125, -1.0517310207423614 
0.5099999999999602, -1.0511672462901143 
0.519999999999959, -1.0507732484279702 
0.529999999999958, -1.0505917477935474 
0.5399999999999568, -1.0506303726194752 
0.5499999999999557, -1.0508609992879716 
0.5599999999999546, -1.0512283901924158 
0.5699999999999535, -1.0516639588322065 
0.5799999999999524, -1.052099514985679 
0.5899999999999513, -1.052476749281944 
0.5999999999999502, -1.0527511835577787 
0.6099999999999491, -1.0528921155204742 
0.619999999999948, -1.052880641620972 
0.6299999999999469, -1.0527070955845865 
0.6399999999999458, -1.052368953894321 
0.6499999999999447, -1.051870271282122 
0.6599999999999436, -1.0512229655317793 
0.6699999999999425, -1.0504491714377446 
0.6799999999999414, -1.0495835873895876 
0.6899999999999403, -1.0486749026242932 
0.6999999999999392, -1.0477848391040019 
0.7099999999999381, -1.0469826413739969 
0.719999999999937, -1.0463340722946248 
0.7299999999999359, -1.045887259545698 
0.7399999999999348, -1.0456602733501408 
0.7499999999999337, -1.045635319173559 
0.7599999999999326, -1.0457625930683994 
0.7699999999999315, -1.045972978919404 
0.7799999999999304, -1.046193765690803 
0.7899999999999293, -1.0463603175505134 
0.7999999999999282, -1.0464210559978935 
0.8099999999999271, -1.046338139114716 
0.819999999999926, -1.0460871300031722 
0.8299999999999249, -1.0456566231951412 
0.8399999999999238, -1.0450469621155767 
0.8499999999999227, -1.0442678410668589 
0.8599999999999216, -1.0433362918631244 
0.8699999999999205, -1.0422767354795324 
0.8799999999999194, -1.041123194187829 
0.8899999999999183, -1.039922123887996 
0.8999999999999172, -1.0387335438746428 
0.9099999999999161, -1.037628051771784 
0.919999999999915, -1.0366781349576604 
0.9299999999999139, -1.035944227971555 
0.9399999999999128, -1.0354587891875842 
0.9499999999999117, -1.035214590581016 
0.9599999999999106, -1.0351642993281118 
0.9699999999999095, -1.035233450411663 
0.9799999999999084, -1.0353398072575437 
0.9899999999999073, -1.0354084087080175 
0.9999999999999062, -1.0353774092106367 
1.0099999999999052, -1.0351977575489923 
1.019999999999904, -1.034832362167865 
1.029999999999903, -1.0342576141693205 
1.039999999999902, -1.033465915928884 
1.0499999999999008, -1.0324660501392022 
1.0599999999998997, -1.0312803044534302 
1.0699999999998986, -1.0299407014227477 
1.0799999999998975, -1.028487485399775 
1.0899999999998964, -1.0269706479600067 
1.0999999999998953, -1.0254524386609183 
1.1099999999998942, -1.0240074798276901 
1.119999999999893, -1.0227173467881505 
1.129999999999892, -1.021657995474581 
1.1399999999998909, -1.0208815067248367 
1.1499999999998898, -1.0203984579907481 
1.1599999999998887, -1.0201710280524896 
1.1699999999998876, -1.0201232904556155 
1.1799999999998865, -1.0201634135458872 
1.1899999999998854, -1.020204184263615 
1.1999999999998843, -1.0201725326757196 
1.2099999999998832, -1.020009176972084 
1.219999999999882, -1.0196653798328976 
1.229999999999881, -1.019102755016983 
1.2399999999998799, -1.0182974242349665 
1.2499999999998788, -1.0172451571026946 
1.2599999999998777, -1.0159627242480311 
1.2699999999998766, -1.0144840600992706 
1.2799999999998755, -1.0128546214552245 
1.2899999999998744, -1.0111283472743104 
1.2999999999998733, -1.0093683779006901 
1.3099999999998722, -1.0076489448119754 
1.319999999999871, -1.0060542464876012 
1.32999999999987, -1.0046707073804653 
1.3399999999998689, -1.0035713909113495 
1.3499999999998678, -1.0027958931224297 
1.3599999999998666, -1.002334853628107 
1.3699999999998655, -1.0021298105413068 
1.3799999999998644, -1.0020907484501662 
1.3899999999998633, -1.0021208190275845 
1.3999999999998622, -1.0021340987074159 
1.4099999999998611, -1.0020607767936638 
1.41999999999986, -1.0018441280607366 
1.429999999999859, -1.0014368980551285 
1.4399999999998578, -1.0008021468584063 
1.4499999999998567, -0.9999186676449299 
1.4599999999998556, -0.998786646389035 
1.4699999999998545, -0.9974284375777096 
1.4799999999998534, -0.9958835199187186 
1.4899999999998523, -0.994201814961348 
1.4999999999998512, -0.9924401394945445 
1.5099999999998501, -0.9906627456228623 
1.519999999999849, -0.9889430271625036 
1.529999999999848, -0.9873621498615389 
1.5399999999998468, -0.9860013264147757 
1.5499999999998457, -0.9849270644568625 
1.5599999999998446, -0.9841730067556625 
1.5699999999998435, -0.9837267802087848 
1.5799999999998424, -0.9835309143510278 
1.5899999999998413, -0.9834992371349418 
1.5999999999998402, -0.9835393367222585 
1.6099999999998391, -0.9835688781301155 
1.619999999999838, -0.9835208892481047 
1.629999999999837, -0.9833417241414347 
1.6399999999998358, -0.9829883427070201 
1.6499999999998347, -0.9824292089060835 
1.6599999999998336, -0.9816485791302165 
1.6699999999998325, -0.9806501782471688 
1.6799999999998314, -0.9794562087777159 
1.6899999999998303, -0.9781017863779076 
1.6999999999998292, -0.9766290003692426 
1.709999999999828, -0.9750845005013259 
1.719999999999827, -0.9735208320785566 
1.729999999999826, -0.9719986522698321 
1.7399999999998248, -0.9705862615223992 
1.7499999999998237, -0.9693539428116547 
1.7599999999998226, -0.9683626563875267 
1.7699999999998215, -0.9676495087485047 
1.7799999999998204, -0.9672155749721787 
1.7899999999998193, -0.967022905242272 
1.7999999999998182, -0.9670038554035212 
1.809999999999817, -0.9670782844153895 
1.819999999999816, -0.9671695072959879 
1.8299999999998149, -0.9672128019004811 
1.8399999999998138, -0.967156941589147 
1.8499999999998127, -0.9669631976283556 
1.8599999999998116, -0.9666055139127077 
1.8699999999998105, -0.9660721622061489 
1.8799999999998094, -0.9653663636492069 
1.8899999999998083, -0.964503694717432 
1.8999999999998072, -0.963507256857096 
1.909999999999806, -0.9624039568507408 
1.919999999999805, -0.9612241905099974 
1.9299999999998039, -0.9600043125271206 
1.9399999999998028, -0.9587894258357883 
1.9499999999998017, -0.9576339132475951 
1.9599999999998006, -0.9565978938604719 
1.9699999999997995, -0.9557390797226359 
1.9799999999997984, -0.9551014304110435 
1.9899999999997973, -0.9547040344143942 
1.9999999999997962, -0.9545347245269197 
2.0099999999998173, -0.9545519194667275 
2.0199999999998384, -0.9546945460618831 
2.0299999999998595, -0.95489551194588 
2.0399999999998806, -0.955092877747845 
2.0499999999999017, -0.9552358098311451 
2.059999999999923, -0.9552863342789344 
2.069999999999944, -0.9552193200365174 
2.079999999999965, -0.9550217954475823 
2.089999999999986, -0.9546910782010392 
2.100000000000007, -0.9542314696429459 
2.1100000000000283, -0.9536509993275655 
2.1200000000000494, -0.9529603732037841 
2.1300000000000705, -0.9521747287978567 
2.1400000000000916, -0.9513168277415707 
2.1500000000001127, -0.9504198457339192 
2.160000000000134, -0.9495284837605211 
2.170000000000155, -0.9486973124538964 
2.180000000000176, -0.9479852177808207 
2.190000000000197, -0.9474458809048277 
2.2000000000002182, -0.9471165531664333 
2.2100000000002393, -0.9470091676284739 
2.2200000000002604, -0.9471073844473746 
2.2300000000002815, -0.947370775897119 
2.2400000000003026, -0.9477444082321478 
2.2500000000003237, -0.9481699916518865 
2.260000000000345, -0.9485947723276164 
2.270000000000366, -0.9489763370779729 
2.280000000000387, -0.9492836560905638 
2.290000000000408, -0.9494955052387937 
2.3000000000004293, -0.9495973865086391 
2.3100000000004504, -0.9495784218478851 
2.3200000000004715, -0.9494301579096287 
2.3300000000004926, -0.9491483328054457 
2.3400000000005137, -0.948736477296063 
2.3500000000005348, -0.9482090260555628 
2.360000000000556, -0.9475927758431844 
2.370000000000577, -0.9469273072482425 
2.380000000000598, -0.9462649217181655 
2.390000000000619, -0.9456687900369471 
2.4000000000006403, -0.9452067741650367 
2.4100000000006614, -0.9449400292018677 
2.4200000000006825, -0.9449095387558598 
2.4300000000007036, -0.9451265337968404 
2.4400000000007247, -0.9455711796886307 
2.450000000000746, -0.9461993770570551 
2.460000000000767, -0.9469539264937691 
2.470000000000788, -0.9477755064904516 
2.480000000000809, -0.9486101910952872 
2.49000000000083, -0.9494122931047555 
2.5000000000008513, -0.9501432296245605 
2.5100000000008724, -0.9507685385249338 
2.5200000000008935, -0.9512560368100578 
2.5300000000009146, -0.9515776409618504 
2.5400000000009357, -0.9517147383133038 
2.550000000000957, -0.9516637030816272 
2.560000000000978, -0.9514377655115688 
2.570000000000999, -0.9510649208598668 
2.58000000000102, -0.9505851295733336 
2.5900000000010412, -0.9500500128099171 
2.6000000000010624, -0.9495249773828917 
2.6100000000010835, -0.9490899211874165 
2.6200000000011046, -0.9488331249310009 
2.6300000000011257, -0.9488359521146489 
2.6400000000011468, -0.94915308552902 
2.650000000001168, -0.9497983849219354 
2.660000000001189, -0.95074380446821 
2.67000000000121, -0.9519302408218941 
2.680000000001231, -0.9532829490044967 
2.6900000000012523, -0.9547242437185499 
2.7000000000012734, -0.9561799747131019 
2.7100000000012945, -0.9575802711269793 
2.7200000000013156, -0.9588580197658464 
2.7300000000013367, -0.9599498773963422 
2.740000000001358, -0.9608029348165121 
2.750000000001379, -0.9613850085094182 
2.7600000000014, -0.9616917302309576 
2.770000000001421, -0.9617449745673848 
2.780000000001442, -0.9615842712945947 
2.7900000000014633, -0.9612581544955171 
2.8000000000014844, -0.9608213744008717 
2.8100000000015055, -0.9603392026042332 
2.8200000000015266, -0.9598953103343634 
2.8300000000015477, -0.9595958758328547 
2.840000000001569, -0.9595612693900721 
2.85000000000159, -0.9599019331697699 
2.860000000001611, -0.9606872151339167 
2.870000000001632, -0.9619246351146262 
2.8800000000016532, -0.9635609964246609 
2.8900000000016743, -0.9655009810983071 
2.9000000000016954, -0.9676294833713073 
2.9100000000017165, -0.9698269895454485 
2.9200000000017377, -0.9719760072860119 
2.9300000000017588, -0.9739635689295403 
2.94000000000178, -0.975687169195038 
2.950000000001801, -0.9770677469921315 
2.960000000001822, -0.9780647292895935 
2.970000000001843, -0.9786823207650318 
2.9800000000018643, -0.9789611543340115 
2.9900000000018854, -0.978960937755525 
3.0000000000019065, -0.9787453823589718 
3.0100000000019276, -0.978376902811933 
3.0200000000019487, -0.97792205955037 
3.03000000000197, -0.9774642300231461 
3.040000000001991, -0.977116265281583 
3.050000000002012, -0.9770217580762562 
3.060000000002033, -0.977334003325975 
3.070000000002054, -0.9781742654132302 
3.0800000000020753, -0.9795903594952943 
3.0900000000020964, -0.9815412406793321 
3.1000000000021175, -0.9839137050657258 
3.1100000000021386, -0.9865545488476988 
3.1200000000021597, -0.9892980847633164 
3.130000000002181, -0.9919813993358838 
3.140000000002202, -0.994452568173417 
3.150000000002223, -0.9965813278754148 
3.160000000002244, -0.9982760119659506 
3.1700000000022652, -0.9994993725246829 
3.1800000000022863, -1.0002706235284464 
3.1900000000023074, -1.0006496866615924 
3.2000000000023285, -1.0007134022345676 
3.2100000000023496, -1.0005374176686461 
3.2200000000023707, -1.0001908704868958 
3.230000000002392, -0.9997435240536998 
3.240000000002413, -0.9992811011914073 
3.250000000002434, -0.998921151948848 
3.260000000002455, -0.9988166834011354 
3.2700000000024763, -0.9991339129124432 
3.2800000000024974, -1.0000044828811527 
3.2900000000025185, -1.001476871138903 
3.3000000000025396, -1.00349898240968 
3.3100000000025607, -1.0059396488097998 
3.3200000000025818, -1.0086280045967935 
3.330000000002603, -1.0113860952046694 
3.340000000002624, -1.0140461578585866 
3.350000000002645, -1.0164589538440385 
3.360000000002666, -1.0185033715278775 
3.3700000000026873, -1.0201008288164375 
3.3800000000027084, -1.021227170012663 
3.3900000000027295, -1.0219109954089036 
3.4000000000027506, -1.0222164655350594 
3.4100000000027717, -1.022220774957284 
3.420000000002793, -1.0219987181117942 
3.430000000002814, -1.0216200375245892 
3.440000000002835, -1.0211583397240667 
3.450000000002856, -1.0207062040688049 
3.460000000002877, -1.0203868055880405 
3.4700000000028983, -1.0203482314032692 
3.4800000000029194, -1.0207313624461187 
3.4900000000029405, -1.021622218619814 
3.5000000000029616, -1.0230190824332754 
3.5100000000029827, -1.0248365001561355 
3.520000000003004, -1.0269381237082518 
3.530000000003025, -1.0291731290815964 
3.540000000003046, -1.031399121449371 
3.550000000003067, -1.03349059418122 
3.5600000000030882, -1.0353410983506388 
3.5700000000031094, -1.0368674740506583 
3.5800000000031305, -1.038018473556457 
3.5900000000031516, -1.0387822529658386 
3.6000000000031727, -1.03918481695599 
3.6100000000031938, -1.039278091751186 
3.620000000003215, -1.039124919768161 
3.630000000003236, -1.0387899599529795 
3.640000000003257, -1.038340526231329 
3.650000000003278, -1.0378552541986479 
3.6600000000032993, -1.0374332670019941 
3.6700000000033204, -1.0371926401606169 
3.6800000000033415, -1.0372493566269974 
3.6900000000033626, -1.0376819939217339 
3.7000000000033837, -1.0385037516341926 
3.710000000003405, -1.0396610875729169 
3.720000000003426, -1.0410566653362125 
3.730000000003447, -1.042578631060332 
3.740000000003468, -1.0441214894480328 
3.750000000003489, -1.0455949572244843 
3.7600000000035103, -1.0469244958435902 
3.7700000000035314, -1.0480494129464486 
3.7800000000035525, -1.0489233829567761 
3.7900000000035736, -1.0495186635923424 
3.8000000000035947, -1.0498307282292232 
3.810000000003616, -1.0498784730346669 
3.820000000003637, -1.0496988747880072 
3.830000000003658, -1.049340209929866 
3.840000000003679, -1.0488591041500888 
3.8500000000037002, -1.048322969865966 
3.8600000000037213, -1.047813829295532 
3.8700000000037424, -1.0474255448116467 
3.8800000000037635, -1.0472482874165028 
3.8900000000037847, -1.0473440202637396 
3.9000000000038058, -1.0477273071465978 
3.910000000003827, -1.0483636962373235 
3.920000000003848, -1.0491844072271739 
3.930000000003869, -1.0501066400736934 
3.94000000000389, -1.0510502442362502 
3.9500000000039113, -1.0519471053530343 
3.9600000000039324, -1.0527436980724036 
3.9700000000039535, -1.0533993132089932 
3.9800000000039746, -1.0538831769477677 
3.9900000000039957, -1.0541732343713126 
4.000000000004016, -1.0542576504421548 
4.010000000003993, -1.0541376245583378 
4.02000000000397, -1.05382896000769 
4.030000000003946, -1.053361464876124 
4.040000000003923, -1.0527778308679303 
4.0500000000039, -1.0521337502753672 
4.0600000000038765, -1.0514980097262725 
4.070000000003853, -1.0509481153887943 
4.08000000000383, -1.0505579428987901 
4.090000000003807, -1.0503801956252865 
4.100000000003783, -1.0504324375695107 
4.11000000000376, -1.050693935462052 
4.120000000003737, -1.051113433955162 
4.130000000003713, -1.051623034528756 
4.14000000000369, -1.0521526024496723 
4.150000000003667, -1.0526403961597426 
4.1600000000036434, -1.0530381339320283 
4.17000000000362, -1.053311437237892 
4.180000000003597, -1.053437753290257 
4.1900000000035735, -1.0534035874263785 
4.20000000000355, -1.0532024916120135 
4.210000000003527, -1.0528348492216342 
4.220000000003504, -1.0523094396865815 
4.23000000000348, -1.0516457036260434 
4.240000000003457, -1.0508757117028433 
4.250000000003434, -1.0500454399514667 
4.26000000000341, -1.04921442240929 
4.270000000003387, -1.048451512569187 
4.280000000003364, -1.047824922218926 
4.2900000000033405, -1.047388120511315 
4.300000000003317, -1.0471666728323563 
4.310000000003294, -1.0471512803502623 
4.320000000003271, -1.0472998630325494 
4.330000000003247, -1.047548258254287 
4.340000000003224, -1.0478251637158338 
4.350000000003201, -1.0480648632453347 
4.360000000003177, -1.0482139425667027 
4.370000000003154, -1.0482329573076075 
4.380000000003131, -1.0480959884466867 
4.390000000003107, -1.0477896277199024 
4.400000000003084, -1.0473112585213795 
4.410000000003061, -1.046666739765792 
4.4200000000030375, -1.045868794745505 
4.430000000003014, -1.0449373952721683 
4.440000000002991, -1.0439020451981027 
4.450000000002968, -1.0428045935899042 
4.460000000002944, -1.0417006314439312 
4.470000000002921, -1.040657277242736 
4.480000000002898, -1.0397456254640842 
4.490000000002874, -1.039028015400778 
4.500000000002851, -1.0385429617831368 
4.510000000002828, -1.0382929520956592 
4.520000000002804, -1.0382413474997958 
4.530000000002781, -1.0383216985091117 
4.540000000002758, -1.0384552438686026 
4.5500000000027345, -1.0385669925005496 
4.560000000002711, -1.038593906621462 
4.570000000002688, -1.0384862015415655 
4.580000000002665, -1.038206697307536 
4.590000000002641, -1.0377315348864742 
4.600000000002618, -1.0370517455371464 
4.610000000002595, -1.0361731822708355 
4.620000000002571, -1.0351138756952 
4.630000000002548, -1.0339008074199936 
4.640000000002525, -1.0325688210937352 
4.6500000000025015, -1.0311623342234655 
4.660000000002478, -1.0297380187008789 
4.670000000002455, -1.0283654051856064 
4.6800000000024315, -1.0271225002299442 
4.690000000002408, -1.026084773119976 
4.700000000002385, -1.0253084215073445 
4.710000000002362, -1.024812862525556 
4.720000000002338, -1.0245713480014653 
4.730000000002315, -1.0245171684240402 
4.740000000002292, -1.0245631768179357 
4.750000000002268, -1.0246227471253229 
4.760000000002245, -1.0246215881893177 
4.770000000002222, -1.0244993674546166 
4.7800000000021985, -1.024207136057617 
4.790000000002175, -1.023706684025857 
4.800000000002152, -1.0229737707323103 
4.810000000002129, -1.022002537906769 
4.820000000002105, -1.020806756202395 
4.830000000002082, -1.019416430045439 
4.840000000002059, -1.0178727190115877 
4.850000000002035, -1.016225251792755 
4.860000000002012, -1.014533012107647 
4.870000000001989, -1.012866457899694 
4.880000000001965, -1.0113069370523486 
4.890000000001942, -1.0099398746964428 
4.900000000001919, -1.0088402410169226 
4.9100000000018955, -1.0080528572916672 
4.920000000001872, -1.0075757554595508 
4.930000000001849, -1.007357433426831 
