t, s[1].omega / s[0].omega 
0, -0.49999775907602667 
0.009999999999999995, -0.4998112381371344 
0.019999999999999934, -0.49968707649222377 
0.029999999999999874, -0.49959379458738606 
0.04000000000000012, -0.4994916867060234 
0.050000000000000405, -0.49934538862248523 
0.06000000000000069, -0.49913204450877063 
0.07000000000000098, -0.4988427633127948 
0.08000000000000126, -0.49847951447759786 
0.09000000000000155, -0.4980514067570841 
0.10000000000000184, -0.4975733492487316 
0.11000000000000212, -0.49706868481367383 
0.12000000000000241, -0.4965770017573992 
0.130000000000002, -0.4961689444690883 
0.1400000000000009, -0.4959704345621082 
0.1499999999999998, -0.4961966159191971 
0.1599999999999987, -0.4971836576709731 
0.1699999999999976, -0.4993677769747597 
0.1799999999999965, -0.5030816441539814 
0.1899999999999954, -0.5080051418367011 
0.1999999999999943, -0.5125020011622072 
0.2099999999999932, -0.5140506013863186 
0.2199999999999921, -0.5114636775348289 
0.229999999999991, -0.5062506188119074 
0.2399999999999899, -0.5009195015263828 
0.2499999999999888, -0.49691729980947663 
0.2599999999999877, -0.4944329000287121 
0.2699999999999866, -0.49309483239931906 
0.2799999999999855, -0.4924725738405017 
0.2899999999999844, -0.4922455005303411 
0.2999999999999833, -0.4922114117954811 
0.3099999999999822, -0.49225272893147476 
0.3199999999999811, -0.4923035844923209 
0.32999999999998, -0.4923269779351047 
0.3399999999999789, -0.4923010541428856 
0.3499999999999778, -0.4922120910048772 
0.35999999999997667, -0.4920524588531934 
0.36999999999997557, -0.49182231498215295 
0.37999999999997447, -0.49153325437361495 
0.38999999999997337, -0.4912107362324951 
0.39999999999997227, -0.4908915157948794 
0.40999999999997117, -0.4906145687309504 
0.41999999999997006, -0.4904084176211675 
0.42999999999996896, -0.490280647003007 
0.43999999999996786, -0.49021453636660706 
0.44999999999996676, -0.49017450006274677 
0.45999999999996566, -0.4901180681287557 
0.46999999999996456, -0.49000873261732536 
0.47999999999996346, -0.48982370830859046 
0.48999999999996235, -0.48955455294942307 
0.49999999999996125, -0.4892032109387852 
0.5099999999999602, -0.4887775930107782 
0.519999999999959, -0.4882895447731158 
0.529999999999958, -0.4877564691107722 
0.5399999999999568, -0.4872073412161349 
0.5499999999999557, -0.48669413142857937 
0.5599999999999546, -0.4863093393298293 
0.5699999999999535, -0.4862060152689881 
0.5799999999999524, -0.48659965322706206 
0.5899999999999513, -0.4876862119742575 
0.5999999999999502, -0.4893433497652486 
0.6099999999999491, -0.4905551540141341 
0.619999999999948, -0.48913237414577776 
0.6299999999999469, -0.4830599058492277 
0.6399999999999458, -0.4729362066437437 
0.6499999999999447, -0.4618693968181386 
0.6599999999999436, -0.4526436231966343 
0.6699999999999425, -0.44617613315969284 
0.6799999999999414, -0.4421023034340393 
0.6899999999999403, -0.4397050164692099 
0.6999999999999392, -0.4383642760813923 
0.7099999999999381, -0.4376520459716876 
0.719999999999937, -0.43729984953606965 
0.7299999999999359, -0.4371467422208005 
0.7399999999999348, -0.4370983556727476 
0.7499999999999337, -0.4371001160400125 
0.7599999999999326, -0.43712130067164845 
0.7699999999999315, -0.4371464954718949 
0.7799999999999304, -0.43717202015156315 
0.7899999999999293, -0.43720545059964266 
0.7999999999999282, -0.4372661710127523 
0.8099999999999271, -0.4373843559530493 
0.819999999999926, -0.4375959322367605 
0.8299999999999249, -0.4379326405865136 
0.8399999999999238, -0.4384088222775061 
0.8499999999999227, -0.43900906706833237 
0.8599999999999216, -0.43968301162691104 
0.8699999999999205, -0.440353506549574 
0.8799999999999194, -0.4409381025445863 
0.8899999999999183, -0.44137314081938045 
0.8999999999999172, -0.44162623441451654 
0.9099999999999161, -0.4416923994400589 
0.919999999999915, -0.4415805771247114 
0.9299999999999139, -0.4412994270729298 
0.9399999999999128, -0.440846178759618 
0.9499999999999117, -0.4401971210036118 
0.9599999999999106, -0.43929541541348094 
0.9699999999999095, -0.4380297566757584 
0.9799999999999084, -0.43619423746869473 
0.9899999999999073, -0.43341751855909055 
0.9999999999999062, -0.42906317153179063 
1.0099999999999052, -0.42217895942645667 
1.019999999999904, -0.4117504727706442 
1.029999999999903, -0.3975404423520573 
1.039999999999902, -0.3809948196014914 
1.0499999999999008, -0.3647914362992033 
1.0599999999998997, -0.35112567275707834 
1.0699999999998986, -0.34073951245868195 
1.0799999999998975, -0.3332994145728233 
1.0899999999998964, -0.3281087305406624 
1.0999999999998953, -0.32451390756924503 
1.1099999999998942, -0.32202295693939964 
1.119999999999893, -0.3202983615369158 
1.129999999999892, -0.3191192023080604 
1.1399999999998909, -0.31834621714912636 
1.1499999999998898, -0.3178970744320221 
1.1599999999998887, -0.3177311653927889 
1.1699999999998876, -0.31784192125875954 
1.1799999999998865, -0.3182552340316466 
1.1899999999998854, -0.31903344634491226 
1.1999999999998843, -0.3202850664757608 
1.2099999999998832, -0.32218036356982027 
1.219999999999882, -0.32497097170379297 
1.229999999999881, -0.329004101964958 
1.2399999999998799, -0.33470233169481445 
1.2499999999998788, -0.3424453951860893 
1.2599999999998777, -0.35227873953250094 
1.2699999999998766, -0.36351870913898343 
1.2799999999998755, -0.3746833577739043 
1.2899999999998744, -0.3841712991683892 
1.2999999999998733, -0.3911701754721251 
1.3099999999998722, -0.39582452901372417 
1.319999999999871, -0.398735332173824 
1.32999999999987, -0.4004974821214947 
1.3399999999998689, -0.4015351072753869 
1.3499999999998678, -0.4021104113002851 
1.3599999999998666, -0.4023739459349014 
1.3699999999998655, -0.4024062908112187 
1.3799999999998644, -0.40224430637123404 
1.3899999999998633, -0.4018968988756889 
1.3999999999998622, -0.4013564317646467 
1.4099999999998611, -0.4006109514943706 
1.41999999999986, -0.399660037631688 
1.429999999999859, -0.3985317431228476 
1.4399999999998578, -0.3972911609301276 
1.4499999999998567, -0.39603060314643546 
1.4599999999998556, -0.3948432404427304 
1.4699999999998545, -0.39379592377382866 
1.4799999999998534, -0.39291613793606917 
1.4899999999998523, -0.392195226797147 
1.4999999999998512, -0.3916009092686194 
1.5099999999998501, -0.3910917207891599 
1.519999999999849, -0.39062882611098215 
1.529999999999848, -0.39018302447817843 
1.5399999999998468, -0.389736913186324 
1.5499999999998457, -0.38928402367405496 
1.5599999999998446, -0.38882743534216074 
1.5699999999998435, -0.3883799370743929 
1.5799999999998424, -0.38796713364007457 
1.5899999999998413, -0.38763457430220205 
1.5999999999998402, -0.387459658826501 
1.6099999999998391, -0.3875668323289062 
1.619999999999838, -0.38813469047827154 
1.629999999999837, -0.38935194172222487 
1.6399999999998358, -0.3912068944260531 
1.6499999999998347, -0.3929362928986198 
1.6599999999998336, -0.3923015685099819 
1.6699999999998325, -0.38610355162792176 
1.6799999999998314, -0.37330537607306924 
1.6899999999998303, -0.3572128349637936 
1.6999999999998292, -0.3424713840323341 
1.709999999999828, -0.33139766010761484 
1.719999999999827, -0.3239451328149711 
1.729999999999826, -0.3191876040366711 
1.7399999999998248, -0.31621578579946263 
1.7499999999998237, -0.3143760939729639 
1.7599999999998226, -0.3132488046259935 
1.7699999999998215, -0.31257662754350335 
1.7799999999998204, -0.3122056846959141 
1.7899999999998193, -0.3120468196613694 
1.7999999999998182, -0.31205258923565193 
1.809999999999817, -0.31220469592655803 
1.819999999999816, -0.31250822869190525 
1.8299999999998149, -0.31299040356893004 
1.8399999999998138, -0.31370207348352935 
1.8499999999998127, -0.3147200322028055 
1.8599999999998116, -0.31614686666752434 
1.8699999999998105, -0.318102299281279 
1.8799999999998094, -0.320695682934053 
1.8899999999998083, -0.32396833040023126 
1.8999999999998072, -0.3278116616915211 
1.909999999999806, -0.33191477494526433 
1.919999999999805, -0.3358279118120881 
1.9299999999998039, -0.3391466339591322 
1.9399999999998028, -0.34167339632494087 
1.9499999999998017, -0.34342831969168913 
1.9599999999998006, -0.3445494366825069 
1.9699999999997995, -0.3451931184360487 
1.9799999999997984, -0.34548356683893455 
1.9899999999997973, -0.3455004854682417 
1.9999999999997962, -0.345282598219602 
2.0099999999998173, -0.34483425272021645 
2.0199999999998384, -0.34413190178733166 
2.0299999999998595, -0.3431331791587556 
2.0399999999998806, -0.3417944838576063 
2.0499999999999017, -0.34010120053508447 
2.059999999999923, -0.3381028585268935 
2.069999999999944, -0.3359279495029118 
2.079999999999965, -0.3337546266455099 
2.089999999999986, -0.3317492093923459 
2.100000000000007, -0.3300158316462579 
2.1100000000000283, -0.3285850730726548 
2.1200000000000494, -0.3274327630446149 
2.1300000000000705, -0.3265066888128053 
2.1400000000000916, -0.3257479188525548 
2.1500000000001127, -0.3251038923398968 
2.160000000000134, -0.3245346290173005 
2.170000000000155, -0.32401423138870883 
2.180000000000176, -0.3235299979502343 
2.190000000000197, -0.3230813335048868 
2.2000000000002182, -0.32268018057537584 
2.2100000000002393, -0.3223542045023272 
2.2200000000002604, -0.322153589706648 
2.2300000000002815, -0.32216132994285945 
2.2400000000003026, -0.32250248315081514 
2.2500000000003237, -0.32333166733966656 
2.260000000000345, -0.3247312129104865 
2.270000000000366, -0.32636223630729166 
2.280000000000387, -0.32672310688960693 
2.290000000000408, -0.3226233892854739 
2.3000000000004293, -0.3110184872200044 
2.3100000000004504, -0.2931287290995449 
2.3200000000004715, -0.2743699888109609 
2.3300000000004926, -0.25915365692167247 
2.3400000000005137, -0.24850465955280163 
2.3500000000005348, -0.2415495586554856 
2.360000000000556, -0.2371103142723428 
2.370000000000577, -0.2342802441173415 
2.380000000000598, -0.23246860278023845 
2.390000000000619, -0.23131412222726366 
2.4000000000006403, -0.23060252301329834 
2.4100000000006614, -0.23021142544755802 
2.4200000000006825, -0.23007802441973949 
2.4300000000007036, -0.23018216981631615 
2.4400000000007247, -0.23053988819014642 
2.450000000000746, -0.23120487840513385 
2.460000000000767, -0.23227728149766377 
2.470000000000788, -0.23391983484475487 
2.480000000000809, -0.23638025206500127 
2.49000000000083, -0.24001151061449527 
2.5000000000008513, -0.24526013427356325 
2.5100000000008724, -0.2525495894410249 
2.5200000000008935, -0.26196176623816597 
2.5300000000009146, -0.27278467673941276 
2.5400000000009357, -0.2834408755287174 
2.550000000000957, -0.2922886994818811 
2.560000000000978, -0.29860795841363996 
2.570000000000999, -0.3026700198353487 
2.58000000000102, -0.3051358173676761 
2.5900000000010412, -0.3065950457405509 
2.6000000000010624, -0.307441553529923 
2.6100000000010835, -0.3079077633743319 
2.6200000000011046, -0.308123412915893 
2.6300000000011257, -0.30815830965299323 
2.6400000000011468, -0.3080481607191573 
2.650000000001168, -0.30781033279835596 
2.660000000001189, -0.3074553284037874 
2.67000000000121, -0.3069971639151857 
2.680000000001231, -0.306462660084951 
2.6900000000012523, -0.3058964314625513 
2.7000000000012734, -0.3053575191724167 
2.7100000000012945, -0.30490735394349594 
2.7200000000013156, -0.3045943004383734 
2.7300000000013367, -0.30444143666640255 
2.740000000001358, -0.3044408723395536 
2.750000000001379, -0.30455513959322167 
2.7600000000014, -0.3047259617313761 
2.770000000001421, -0.3048891466233544 
2.780000000001442, -0.3049900487622325 
2.7900000000014633, -0.30499224515962614 
2.8000000000014844, -0.3048763973440807 
2.8100000000015055, -0.3046321668777508 
2.8200000000015266, -0.30424767398716634 
2.8300000000015477, -0.30369844068031293 
2.840000000001569, -0.3029342647204415 
2.85000000000159, -0.3018597161047615 
2.860000000001611, -0.3003023900392777 
2.870000000001632, -0.29796611783627813 
2.8800000000016532, -0.29438751166993193 
2.8900000000016743, -0.2889770961733312 
2.9000000000016954, -0.28130144244329663 
2.9100000000017165, -0.2716162451484961 
2.9200000000017377, -0.26112325969014166 
2.9300000000017588, -0.2513749474770418 
2.94000000000178, -0.243374168510827 
2.950000000001801, -0.23731751548152755 
2.960000000001822, -0.23291860136754705 
2.970000000001843, -0.22976563879902367 
2.9800000000018643, -0.22749733486330498 
2.9900000000018854, -0.22584670419852376 
3.0000000000019065, -0.224632315120839 
3.0100000000019276, -0.22373834491517658 
3.0200000000019487, -0.22309767668490088 
3.03000000000197, -0.22268133395962839 
3.040000000001991, -0.2224946279919234 
3.050000000002012, -0.22258049391505547 
3.060000000002033, -0.2230318254324061 
3.070000000002054, -0.22401675437295507 
3.0800000000020753, -0.22582324396682849 
3.0900000000020964, -0.2289287994015902 
3.1000000000021175, -0.23408309094927623 
3.1100000000021386, -0.24230895187017495 
3.1200000000021597, -0.2544949679427771 
3.130000000002181, -0.2700170312127633 
3.140000000002202, -0.2849065268329829 
3.150000000002223, -0.2933110241729372 
3.160000000002244, -0.29335125167223775 
3.1700000000022652, -0.28859732976488534 
3.1800000000022863, -0.283173344413467 
3.1900000000023074, -0.27891803640040813 
3.2000000000023285, -0.2760386250829311 
3.2100000000023496, -0.27421276399481154 
3.2200000000023707, -0.27309059335437463 
3.230000000002392, -0.27241741283634646 
3.240000000002413, -0.27203039505433696 
3.250000000002434, -0.2718320078907427 
3.260000000002455, -0.27176774667133985 
3.2700000000024763, -0.2718120536698322 
3.2800000000024974, -0.2719609530466832 
3.2900000000025185, -0.272229499127653 
3.3000000000025396, -0.2726524936693729 
3.3100000000025607, -0.2732870011168585 
3.3200000000025818, -0.2742147133675398 
3.330000000002603, -0.27554086573268605 
3.340000000002624, -0.27738349165787124 
3.350000000002645, -0.27984260526383786 
3.360000000002666, -0.2829396607157007 
3.3700000000026873, -0.2865397085132267 
3.3800000000027084, -0.2903175907097174 
3.3900000000027295, -0.2938452208040999 
3.4000000000027506, -0.29677394989886163 
3.4100000000027717, -0.29896194086205163 
3.420000000002793, -0.30045562300283757 
3.430000000002814, -0.30138993648098966 
3.440000000002835, -0.30190421123552896 
3.450000000002856, -0.3021041559361612 
3.460000000002877, -0.3020548166777782 
3.4700000000028983, -0.30178535971820086 
3.4800000000029194, -0.3012963088439306 
3.4900000000029405, -0.30056797785857603 
3.5000000000029616, -0.2995732389274707 
3.5100000000029827, -0.2982982833309425 
3.520000000003004, -0.2967691856982869 
3.530000000003025, -0.2950701036194898 
3.540000000003046, -0.29333347690524614 
3.550000000003067, -0.2917000211620163 
3.5600000000030882, -0.2902739806134814 
3.5700000000031094, -0.28910160649570693 
3.5800000000031305, -0.28817672678943274 
3.5900000000031516, -0.28745931777853195 
3.6000000000031727, -0.2868943667396693 
3.6100000000031938, -0.2864261978182623 
3.620000000003215, -0.2860075061673558 
3.630000000003236, -0.2856032115996 
3.640000000003257, -0.28518995490846943 
3.650000000003278, -0.28475291830922483 
3.6600000000032993, -0.2842816410086909 
3.6700000000033204, -0.28376542607587985 
3.6800000000033415, -0.28318710627412114 
3.6900000000033626, -0.28251085101944806 
3.7000000000033837, -0.2816531193166243 
3.710000000003405, -0.28041180065686083 
3.720000000003426, -0.2783078878399041 
3.730000000003447, -0.27431153152878146 
3.740000000003468, -0.266665193228306 
3.750000000003489, -0.2536262746114249 
3.7600000000035103, -0.23564188815541093 
3.7700000000035314, -0.21635603116054836 
3.7800000000035525, -0.19980966835010602 
3.7900000000035736, -0.187618317444248 
3.8000000000035947, -0.17932285060498526 
3.810000000003616, -0.17383349510944635 
3.820000000003637, -0.1701971069530031 
3.830000000003658, -0.16775594222372522 
3.840000000003679, -0.16609487897304334 
3.8500000000037002, -0.16496252739995051 
3.8600000000037213, -0.1642129728585265 
3.8700000000037424, -0.16377045440562346 
3.8800000000037635, -0.16361130489381676 
3.8900000000037847, -0.1637589545275489 
3.9000000000038058, -0.16429096660999915 
3.910000000003827, -0.1653606066283238 
3.920000000003848, -0.16723942769217362 
3.930000000003869, -0.1703904482733416 
3.94000000000389, -0.1755742387278614 
3.9500000000039113, -0.18393423598042632 
3.9600000000039324, -0.196801897535183 
3.9700000000039535, -0.2145770751047924 
3.9800000000039746, -0.2344701040243383 
3.9900000000039957, -0.25023790666821666 
4.000000000004016, -0.257591748573932 
4.010000000003993, -0.2581986521110063 
4.02000000000397, -0.256065574678959 
4.030000000003946, -0.25369276461011553 
4.040000000003923, -0.25188025265309655 
4.0500000000039, -0.2506680855048332 
4.0600000000038765, -0.24990530368264435 
4.070000000003853, -0.24944468736509412 
4.08000000000383, -0.24918253076928298 
4.090000000003807, -0.2490547788178265 
4.100000000003783, -0.24902656725699499 
4.11000000000376, -0.2490844552388559 
4.120000000003737, -0.24923261037085784 
4.130000000003713, -0.24949236609368103 
4.14000000000369, -0.2499042083235649 
4.150000000003667, -0.25053095962253413 
4.1600000000036434, -0.2514602773723912 
4.17000000000362, -0.25280305102769707 
4.180000000003597, -0.25468095789742895 
4.1900000000035735, -0.25719187410959554 
4.20000000000355, -0.26034395643762076 
4.210000000003527, -0.2639763173656734 
4.220000000003504, -0.2677367527673884 
4.23000000000348, -0.2711903396212131 
4.240000000003457, -0.2740093689669102 
4.250000000003434, -0.2760834639422507 
4.26000000000341, -0.27748057548654503 
4.270000000003387, -0.2783422586581893 
4.280000000003364, -0.27880533611506075 
4.2900000000033405, -0.2789702370320194 
4.300000000003317, -0.2788974289768441 
4.310000000003294, -0.27861372772312476 
4.320000000003271, -0.2781206214188454 
4.330000000003247, -0.27740414972073446 
4.340000000003224, -0.27644914507745016 
4.350000000003201, -0.27525949690328044 
4.360000000003177, -0.27387922392005903 
4.370000000003154, -0.2724001382168174 
4.380000000003131, -0.2709436570530034 
4.390000000003107, -0.26962358064860303 
4.400000000003084, -0.2685138249530815 
4.410000000003061, -0.2676379808449479 
4.4200000000030375, -0.2669777116662859 
4.430000000003014, -0.2664883193580878 
4.440000000002991, -0.26611389098896787 
4.450000000002968, -0.2657995597630321 
4.460000000002944, -0.2654996870315348 
4.470000000002921, -0.26518093423654443 
4.480000000002898, -0.2648205072599475 
4.490000000002874, -0.26440122652799497 
4.500000000002851, -0.2639049285214121 
4.510000000002828, -0.26330403760499355 
4.520000000002804, -0.2625484784218941 
4.530000000002781, -0.261541006558737 
4.540000000002758, -0.26008744347920376 
4.5500000000027345, -0.2578020044137912 
4.560000000002711, -0.25396664982801753 
4.570000000002688, -0.24746856167432454 
4.580000000002665, -0.23722245687888455 
4.590000000002641, -0.22337444387431296 
4.600000000002618, -0.20810931579834807 
4.610000000002595, -0.19432255224834646 
4.620000000002571, -0.1836105992958279 
4.630000000002548, -0.17599292537970107 
4.640000000002525, -0.1707777413917383 
4.6500000000025015, -0.16722849625873104 
4.660000000002478, -0.16478715246140224 
4.670000000002455, -0.16308068532856332 
4.6800000000024315, -0.16187358243701608 
4.690000000002408, -0.16102363131270744 
4.700000000002385, -0.16045219238295333 
4.710000000002362, -0.1601276721610936 
4.720000000002338, -0.1600597464227107 
4.730000000002315, -0.16030364374718237 
4.740000000002292, -0.16097635920257983 
4.750000000002268, -0.16228961875708212 
4.760000000002245, -0.16460620582667881 
4.770000000002222, -0.16851801762457994 
4.7800000000021985, -0.17489079250370976 
4.790000000002175, -0.18462775087238412 
4.800000000002152, -0.19753629165437225 
4.810000000002129, -0.21011719455657113 
4.820000000002105, -0.21571329004514422 
4.830000000002082, -0.2111821278296147 
4.840000000002059, -0.20093509885303895 
4.850000000002035, -0.19081192054964408 
4.860000000002012, -0.18325287226009868 
