t, s[1].omega / s[0].omega 
0, -1.4601687976875561 
0.009999999999999995, -1.4756474837531628 
0.019999999999999934, -1.486567408746177 
0.029999999999999874, -1.4930342182223213 
0.04000000000000012, -1.4964808682189537 
0.050000000000000405, -1.4981471169115972 
0.06000000000000069, -1.498805559179886 
0.07000000000000098, -1.4988823651260275 
0.08000000000000126, -1.498610629776823 
0.09000000000000155, -1.498148672655224 
0.10000000000000184, -1.4976650429837541 
0.11000000000000212, -1.497363275109866 
0.12000000000000241, -1.497403974522645 
0.130000000000002, -1.4977956963661039 
0.1400000000000009, -1.498405836418997 
0.1499999999999998, -1.499066378089314 
0.1599999999999987, -1.499640435544586 
0.1699999999999976, -1.500030020051256 
0.1799999999999965, -1.5001658620576257 
0.1899999999999954, -1.4999947173688324 
0.1999999999999943, -1.499467690860749 
0.2099999999999932, -1.4985335802800877 
0.2199999999999921, -1.4971386336293508 
0.229999999999991, -1.4952337526123183 
0.2399999999999899, -1.492795808288581 
0.2499999999999888, -1.4898790774295958 
0.2599999999999877, -1.486710394089901 
0.2699999999999866, -1.4837726582194564 
0.2799999999999855, -1.4816703947740657 
0.2899999999999844, -1.480684388142969 
0.2999999999999833, -1.4805216851739227 
0.3099999999999822, -1.4806543280274171 
0.3199999999999811, -1.4807125752168182 
0.32999999999998, -1.4805226277497536 
0.3399999999999789, -1.4799722105452724 
0.3499999999999778, -1.4788836194568453 
0.35999999999997667, -1.4769075478653186 
0.36999999999997557, -1.473450539678836 
0.37999999999997447, -1.4678770221176456 
0.38999999999997337, -1.4607291643365838 
0.39999999999997227, -1.4561358938814357 
0.40999999999997117, -1.4606927238886642 
0.41999999999997006, -1.474847068779458 
0.42999999999996896, -1.4910149612532746 
0.43999999999996786, -1.5031514831350257 
0.44999999999996676, -1.5104411312614083 
0.45999999999996566, -1.514313329163002 
0.46999999999996456, -1.5161812373347716 
0.47999999999996346, -1.5169359402740221 
0.48999999999996235, -1.5170611121170738 
0.49999999999996125, -1.5168127718392483 
0.5099999999999602, -1.5163559297050484 
0.519999999999959, -1.5158633525412124 
0.529999999999958, -1.5155534788137819 
0.5399999999999568, -1.5156116276373057 
0.5499999999999557, -1.516057374941619 
0.5599999999999546, -1.5167435045795485 
0.5699999999999535, -1.5174802005849268 
0.5799999999999524, -1.5181185418391052 
0.5899999999999513, -1.5185583625733312 
0.5999999999999502, -1.51873279164155 
0.6099999999999491, -1.5185923561786976 
0.619999999999948, -1.5180919721626318 
0.6299999999999469, -1.517183569588795 
0.6399999999999458, -1.5158153186075303 
0.6499999999999447, -1.5139386346802097 
0.6599999999999436, -1.5115302270721482 
0.6699999999999425, -1.5086465121368997 
0.6799999999999414, -1.5055247743904705 
0.6899999999999403, -1.5026674557030169 
0.6999999999999392, -1.5006831791198687 
0.7099999999999381, -1.4998128255380154 
0.719999999999937, -1.4997152262676015 
0.7299999999999359, -1.499857068163024 
0.7399999999999348, -1.4998899360950595 
0.7499999999999337, -1.4996540454628633 
0.7599999999999326, -1.4990336539569413 
0.7699999999999315, -1.497830364188523 
0.7799999999999304, -1.4956603022201578 
0.7899999999999293, -1.4919196205421914 
0.7999999999999282, -1.4861747255211044 
0.8099999999999271, -1.4798067647414197 
0.819999999999926, -1.478133697528213 
0.8299999999999249, -1.4867257853170157 
0.8399999999999238, -1.502749807948581 
0.8499999999999227, -1.5180660823611822 
0.8599999999999216, -1.5285411558603876 
0.8699999999999205, -1.5345334775205912 
0.8799999999999194, -1.5376189523285286 
0.8899999999999183, -1.539045326795952 
0.8999999999999172, -1.5395494182898026 
0.9099999999999161, -1.539524258515438 
0.919999999999915, -1.5391862480951528 
0.9299999999999139, -1.538697206358165 
0.9399999999999128, -1.5382423050252598 
0.9499999999999117, -1.5380233623949313 
0.9599999999999106, -1.5381514629082047 
0.9699999999999095, -1.5385719459302787 
0.9799999999999084, -1.5391315017382283 
0.9899999999999073, -1.5396779703002423 
0.9999999999999062, -1.5400935449767588 
1.0099999999999052, -1.5402902858585845 
1.019999999999904, -1.5401990149189901 
1.029999999999903, -1.5397552366446698 
1.039999999999902, -1.5388868901879378 
1.0499999999999008, -1.537509049934029 
1.0599999999998997, -1.5355276815409824 
1.0699999999998986, -1.5328590328382932 
1.0799999999998975, -1.5294866424791695 
1.0899999999998964, -1.5255917620044577 
1.0999999999998953, -1.5217300624938848 
1.1099999999998942, -1.5187766655866273 
1.119999999999893, -1.5173137774561622 
1.129999999999892, -1.5170691634957068 
1.1399999999998909, -1.5173098641976046 
1.1499999999998898, -1.5175063088436256 
1.1599999999998887, -1.5174427460439255 
1.1699999999998876, -1.5170301773807426 
1.1799999999998865, -1.5161491029310237 
1.1899999999998854, -1.5145612274725482 
1.1999999999998843, -1.5119098871750778 
1.2099999999998832, -1.5080707949759018 
1.219999999999882, -1.5044233342852684 
1.229999999999881, -1.5052474562404394 
1.2399999999998799, -1.514505657749863 
1.2499999999998788, -1.5294641393784985 
1.2599999999998777, -1.543580040988965 
1.2699999999998766, -1.5535104088139557 
1.2799999999998755, -1.5594403686978873 
1.2899999999998744, -1.5626331694646567 
1.2999999999998733, -1.5641771856138071 
1.3099999999998722, -1.5647648228757292 
1.319999999999871, -1.5647899289886855 
1.32999999999987, -1.564477585022709 
1.3399999999998689, -1.5639875205087344 
1.3499999999998678, -1.563479948204434 
1.3599999999998666, -1.5631147599294992 
1.3699999999998655, -1.5629842521649016 
1.3799999999998644, -1.5630728065314476 
1.3899999999998633, -1.5632968727738252 
1.3999999999998622, -1.5635509844414728 
1.4099999999998611, -1.563723659399138 
1.41999999999986, -1.5637081094877585 
1.429999999999859, -1.563403019397752 
1.4399999999998578, -1.5626944667940617 
1.4499999999998567, -1.561431525480161 
1.4599999999998556, -1.559409847831335 
1.4699999999998545, -1.5563740052133241 
1.4799999999998534, -1.5520636117944104 
1.4899999999998523, -1.5463726864392178 
1.4999999999998512, -1.5397200023534312 
1.5099999999998501, -1.5334583320105666 
1.519999999999849, -1.5293975065702128 
1.529999999999848, -1.5281147188208395 
1.5399999999998468, -1.5284762138360442 
1.5499999999998457, -1.5291664262177858 
1.5599999999998446, -1.5295909761669606 
1.5699999999998435, -1.5296327113011792 
1.5799999999998424, -1.5292909246635307 
1.5899999999998413, -1.5285258521416414 
1.5999999999998402, -1.5272390349506733 
1.6099999999998391, -1.525414113948701 
1.619999999999838, -1.523621012906074 
1.629999999999837, -1.523745159799632 
1.6399999999998358, -1.5281907197443665 
1.6499999999998347, -1.5367954013390714 
1.6599999999998336, -1.5464714454439321 
1.6699999999998325, -1.5545341418834522 
1.6799999999998314, -1.5601819247836501 
1.6899999999998303, -1.5637199005776794 
1.6999999999998292, -1.5657230254204773 
1.709999999999828, -1.566692507007542 
1.719999999999827, -1.5669841749225248 
1.729999999999826, -1.566830469543024 
1.7399999999998248, -1.566387523528213 
1.7499999999998237, -1.5657831745041713 
1.7599999999998226, -1.5651452103554488 
1.7699999999998215, -1.564590820434334 
1.7799999999998204, -1.564196910646033 
1.7899999999998193, -1.563991114199256 
1.7999999999998182, -1.5639479030597085 
1.809999999999817, -1.5639777606942311 
1.819999999999816, -1.5639489843080763 
1.8299999999998149, -1.5637256473526604 
1.8399999999998138, -1.5631660956448736 
1.8499999999998127, -1.5620782792619514 
1.8599999999998116, -1.5601568042711544 
1.8699999999998105, -1.556921718954952 
1.8799999999998094, -1.551700338064789 
1.8899999999998083, -1.543784700225148 
1.8999999999998072, -1.5330616426165755 
1.909999999999806, -1.5212482095690556 
1.919999999999805, -1.5122026503812394 
1.9299999999998039, -1.5086867407863254 
1.9399999999998028, -1.5092962524514508 
1.9499999999998017, -1.5110502300858966 
1.9599999999998006, -1.5124038693700663 
1.9699999999997995, -1.513094324284971 
1.9799999999997984, -1.513246800285365 
1.9899999999997973, -1.5129826418913315 
1.9999999999997962, -1.5123488354131116 
2.0099999999998173, -1.5113717313629815 
2.0199999999998384, -1.5102384156587625 
2.0299999999998595, -1.5096281649142917 
2.0399999999998806, -1.5107642979297835 
2.0499999999999017, -1.5144065856105358 
2.059999999999923, -1.5197717718718018 
2.069999999999944, -1.5252828131363976 
2.079999999999965, -1.5298794277305245 
2.089999999999986, -1.5332531294651541 
2.100000000000007, -1.5354974788660516 
2.1100000000000283, -1.5368274346005573 
2.1200000000000494, -1.5374581817984143 
2.1300000000000705, -1.5375671795136898 
2.1400000000000916, -1.537290030964123 
2.1500000000001127, -1.5367329196385653 
2.160000000000134, -1.5359932529305171 
2.170000000000155, -1.5351753881082888 
2.180000000000176, -1.5343891425811196 
2.190000000000197, -1.5337380001205856 
2.2000000000002182, -1.5333026963855354 
2.2100000000002393, -1.5331000974987061 
2.2200000000002604, -1.5330461988935036 
2.2300000000002815, -1.5329897863842845 
2.2400000000003026, -1.532776338470065 
2.2500000000003237, -1.53225628076585 
2.260000000000345, -1.5312322288638818 
2.270000000000366, -1.5293749976854116 
2.280000000000387, -1.5261237691535947 
2.290000000000408, -1.5206095870361145 
2.3000000000004293, -1.5117705776008112 
2.3100000000004504, -1.499090025093006 
2.3200000000004715, -1.4843040897402564 
2.3300000000004926, -1.4723133725279127 
2.3400000000005137, -1.4673456828008113 
2.3500000000005348, -1.4681661425722738 
2.360000000000556, -1.4707874444601754 
2.370000000000577, -1.4729203819346108 
2.380000000000598, -1.4741368533982135 
2.390000000000619, -1.4746325802778228 
2.4000000000006403, -1.474626478366685 
2.4100000000006614, -1.4742381745053703 
2.4200000000006825, -1.4735180903024534 
2.4300000000007036, -1.4725514100995702 
2.4400000000007247, -1.471672259000885 
2.450000000000746, -1.471687056271945 
2.460000000000767, -1.4735772901835014 
2.470000000000788, -1.4775020261792038 
2.480000000000809, -1.48246352533181 
2.49000000000083, -1.487239710812863 
2.5000000000008513, -1.4911430519564763 
2.5100000000008724, -1.4940048014783993 
2.5200000000008935, -1.4959123146761886 
2.5300000000009146, -1.4970327161559482 
2.5400000000009357, -1.497536090088453 
2.550000000000957, -1.4975682195975493 
2.560000000000978, -1.4972458839235145 
2.570000000000999, -1.4966660323534606 
2.58000000000102, -1.4959225872864201 
2.5900000000010412, -1.4951183164987318 
2.6000000000010624, -1.494360315356411 
2.6100000000010835, -1.4937456413508992 
2.6200000000011046, -1.4933440244492007 
2.6300000000011257, -1.4931638480247094 
2.6400000000011468, -1.4931243988004637 
2.650000000001168, -1.4930855566866945 
2.660000000001189, -1.4929029741784166 
2.67000000000121, -1.4924386872176363 
2.680000000001231, -1.4915209824429885 
2.6900000000012523, -1.489881390895303 
2.7000000000012734, -1.4870877777859857 
2.7100000000012945, -1.482502220554105 
2.7200000000013156, -1.4753540920811807 
2.7300000000013367, -1.465141173434134 
2.740000000001358, -1.4525960724398586 
2.750000000001379, -1.4406600529182476 
2.7600000000014, -1.4331984982777093 
2.770000000001421, -1.4312531990309874 
2.780000000001442, -1.4324152758167563 
2.7900000000014633, -1.4341270015048653 
2.8000000000014844, -1.4353383616433368 
2.8100000000015055, -1.435933591644035 
2.8200000000015266, -1.4360366959007629 
2.8300000000015477, -1.4357450303421697 
2.840000000001569, -1.4350825311595536 
2.85000000000159, -1.4340379956035925 
2.860000000001611, -1.4327096515730386 
2.870000000001632, -1.4316408189099707 
2.8800000000016532, -1.4321392861822837 
2.8900000000016743, -1.4356693287646316 
2.9000000000016954, -1.442215388314614 
2.9100000000017165, -1.4499941066503386 
2.9200000000017377, -1.4571031873990745 
2.9300000000017588, -1.462621285487942 
2.94000000000178, -1.4664564221110408 
2.950000000001801, -1.4688824271493368 
2.960000000001822, -1.4702496836920438 
2.970000000001843, -1.4708655287407428 
2.9800000000018643, -1.4709619386161803 
2.9900000000018854, -1.470703726581857 
3.0000000000019065, -1.470215752563632 
3.0100000000019276, -1.469613984290187 
3.0200000000019487, -1.4690199197666867 
3.03000000000197, -1.468542281445385 
3.040000000001991, -1.468245033260298 
3.050000000002012, -1.4681372341777605 
3.060000000002033, -1.4681779689093057 
3.070000000002054, -1.4682806579359209 
3.0800000000020753, -1.468332040333917 
3.0900000000020964, -1.4682186213483435 
3.1000000000021175, -1.4678309835560213 
3.1100000000021386, -1.4670438917809665 
3.1200000000021597, -1.4656914651689095 
3.130000000002181, -1.4635534653360027 
3.140000000002202, -1.4603643734797043 
3.150000000002223, -1.4558643571444905 
3.160000000002244, -1.4499354570387613 
3.1700000000022652, -1.4428824605466837 
3.1800000000022863, -1.435775353201643 
3.1900000000023074, -1.4302996713762317 
3.2000000000023285, -1.4275712672860272 
3.2100000000023496, -1.427124440209567 
3.2200000000023707, -1.4276570901854926 
3.230000000002392, -1.428239738569329 
3.240000000002413, -1.4285317265933322 
3.250000000002434, -1.4284734487888284 
3.260000000002455, -1.4280485328524901 
3.2700000000024763, -1.4271828366442958 
3.2800000000024974, -1.4257163465761689 
3.2900000000025185, -1.4234767757159217 
3.3000000000025396, -1.4206658785881163 
3.3100000000025607, -1.418789217697229 
3.3200000000025818, -1.4211446305184559 
3.330000000002603, -1.4301852602756604 
3.340000000002624, -1.4437678284783926 
3.350000000002645, -1.4570823568841722 
3.360000000002666, -1.4671656391327104 
3.3700000000026873, -1.473684615032742 
3.3800000000027084, -1.4774783323320217 
3.3900000000027295, -1.4794860288074 
3.4000000000027506, -1.480398100347864 
3.4100000000027717, -1.4806467345563539 
3.420000000002793, -1.4804871004080435 
3.430000000002814, -1.480083048463504 
3.440000000002835, -1.479577713269918 
3.450000000002856, -1.4791304729798735 
3.460000000002877, -1.4788892386295587 
3.4700000000028983, -1.4789179931992011 
3.4800000000029194, -1.4791721849043025 
3.4900000000029405, -1.479547500474429 
3.5000000000029616, -1.4799291610162535 
3.5100000000029827, -1.4802111056284504 
3.520000000003004, -1.480302722979912 
3.530000000003025, -1.4801268673636347 
3.540000000003046, -1.4796093701493254 
3.550000000003067, -1.4786688910069818 
3.5600000000030882, -1.4772140265500395 
3.5700000000031094, -1.4751495627330995 
3.5800000000031305, -1.4723961392251743 
3.5900000000031516, -1.468939317119961 
3.6000000000031727, -1.4649348291202775 
3.6100000000031938, -1.4608563579063258 
3.620000000003215, -1.4574969425326147 
3.630000000003236, -1.455528089810009 
3.640000000003257, -1.454913448826022 
3.650000000003278, -1.455024194146732 
3.6600000000032993, -1.4552589479884257 
3.6700000000033204, -1.455314520254429 
3.6800000000033415, -1.4550742512531873 
3.6900000000033626, -1.4544453667411774 
3.7000000000033837, -1.4532495769340306 
3.710000000003405, -1.4511474840011964 
3.720000000003426, -1.4476501888885673 
3.730000000003447, -1.4425519479037336 
3.740000000003468, -1.4374073830776923 
3.750000000003489, -1.4370721401759465 
3.7600000000035103, -1.4462184160271336 
3.7700000000035314, -1.4622335273144542 
3.7800000000035525, -1.4777831620385675 
3.7900000000035736, -1.4887783636879197 
3.8000000000035947, -1.4952880423896056 
3.810000000003616, -1.4987537491115852 
3.820000000003637, -1.5004274563546838 
3.830000000003658, -1.5010885687467201 
3.840000000003679, -1.5011661582724467 
3.8500000000037002, -1.500894395177158 
3.8600000000037213, -1.5004320920666507 
3.8700000000037424, -1.499948432938124 
3.8800000000037635, -1.4996478228180827 
3.8900000000037847, -1.4996910956704552 
3.9000000000038058, -1.500085729496432 
3.910000000003827, -1.500697700253203 
3.920000000003848, -1.5013583327892022 
3.930000000003869, -1.5019307619880795 
3.94000000000389, -1.5023172277150858 
3.9500000000039113, -1.5024486152773457 
3.9600000000039324, -1.5022716068893889 
3.9700000000039535, -1.5017369265888938 
3.9800000000039746, -1.5007926717161892 
3.9900000000039957, -1.4993841208268313 
4.000000000004016, -1.4974611379604943 
4.010000000003993, -1.4950001332414788 
4.02000000000397, -1.4920571465319492 
4.030000000003946, -1.4888656600422348 
4.040000000003923, -1.4859200603526048 
4.0500000000039, -1.483831231233507 
4.0600000000038765, -1.4828694274344254 
4.070000000003853, -1.4827245587561548 
4.08000000000383, -1.4828629588300188 
4.090000000003807, -1.4829185731570584 
4.100000000003783, -1.4827213033697082 
4.11000000000376, -1.4821593107973245 
4.120000000003737, -1.481052273958611 
4.130000000003713, -1.4790464213172294 
4.14000000000369, -1.4755490698876894 
4.150000000003667, -1.4699624131108857 
4.1600000000036434, -1.462976437649391 
4.17000000000362, -1.4589451694182727 
4.180000000003597, -1.464322564286948 
4.1900000000035735, -1.478939358527267 
4.20000000000355, -1.4950304468200892 
4.210000000003527, -1.506893219208394 
4.220000000003504, -1.5139558111842655 
4.23000000000348, -1.5176891119770821 
4.240000000003457, -1.51947969887044 
4.250000000003434, -1.5201911650275504 
4.26000000000341, -1.5202907770638254 
4.270000000003387, -1.5200271385531265 
4.280000000003364, -1.5195641397831856 
4.2900000000033405, -1.5190765948699971 
4.300000000003317, -1.5187811669081595 
4.310000000003294, -1.5188512698502667 
4.320000000003271, -1.519292359951304 
4.330000000003247, -1.5199547085148453 
4.340000000003224, -1.520655628785016 
4.350000000003201, -1.5212530149167447 
4.360000000003177, -1.521649714344717 
4.370000000003154, -1.5217789803182629 
4.380000000003131, -1.5215893651942527 
4.390000000003107, -1.5210320356749842 
4.400000000003084, -1.520053769982128 
4.410000000003061, -1.5185967786752872 
4.4200000000030375, -1.5166070251078885 
4.430000000003014, -1.5140598449869025 
4.440000000002991, -1.511022819486128 
4.450000000002968, -1.50776897550324 
4.460000000002944, -1.5048559281914204 
4.470000000002921, -1.5029148153860326 
4.480000000002898, -1.5021322599890239 
4.490000000002874, -1.5020966023803282 
4.500000000002851, -1.5022571310292887 
4.510000000002828, -1.5022811603435193 
4.520000000002804, -1.5020219021312533 
4.530000000002781, -1.501365226685915 
4.540000000002758, -1.5001060398714805 
4.5500000000027345, -1.4978540307112378 
4.560000000002711, -1.4940364238018975 
4.570000000002688, -1.4884151581870628 
4.580000000002665, -1.4828965721075102 
4.590000000002641, -1.4831522907405028 
4.600000000002618, -1.4936448471525687 
4.610000000002595, -1.5101012197714505 
4.620000000002571, -1.5247587925165131 
4.630000000002548, -1.5344624913462328 
4.640000000002525, -1.5399366273850885 
4.6500000000025015, -1.5427312548417205 
4.660000000002478, -1.5440011196813013 
4.670000000002455, -1.5444180610203277 
4.6800000000024315, -1.5443413252874132 
4.690000000002408, -1.5439743185129355 
4.700000000002385, -1.5434783913251366 
4.710000000002362, -1.543039324159475 
4.720000000002338, -1.5428443790013193 
4.730000000002315, -1.542976206404344 
4.740000000002292, -1.5433650072318954 
4.750000000002268, -1.5438657197351209 
4.760000000002245, -1.544339685282266 
4.770000000002222, -1.544675775264256 
4.7800000000021985, -1.5447866415587224 
4.790000000002175, -1.544599103399178 
4.800000000002152, -1.544039694000259 
4.810000000002129, -1.5430222102606943 
4.820000000002105, -1.5414431068687853 
4.830000000002082, -1.5391877595968606 
4.840000000002059, -1.536157937321979 
4.850000000002035, -1.5323511385372872 
4.860000000002012, -1.5280326024906037 
4.870000000001989, -1.5239273521449652 
4.880000000001965, -1.5210346458210464 
4.890000000001942, -1.5198202587512597 
4.900000000001919, -1.5197795754003178 
4.9100000000018955, -1.5200986558175447 
4.920000000001872, -1.5202923961115669 
4.930000000001849, -1.5201915002993303 
4.940000000001826, -1.5197230325240325 
