t, s[1].omega / s[0].omega 
0, -1.0199978495600415 
0.009999999999999995, -1.0197022383740468 
0.019999999999999934, -1.0194713196406273 
0.029999999999999874, -1.0193174177661892 
0.04000000000000012, -1.0189994102535287 
0.050000000000000405, -1.0187300243481658 
0.06000000000000069, -1.0185621180025415 
0.07000000000000098, -1.018219342633246 
0.08000000000000126, -1.017909673017654 
0.09000000000000155, -1.01773152205336 
0.10000000000000184, -1.0173627050646148 
0.11000000000000212, -1.0170096964908433 
0.12000000000000241, -1.0168237519681753 
0.130000000000002, -1.016429241010256 
0.1400000000000009, -1.016028883734826 
0.1499999999999998, -1.0158359085168462 
0.1599999999999987, -1.0154181411051963 
0.1699999999999976, -1.0149658484514212 
0.1799999999999965, -1.0147645964476104 
0.1899999999999954, -1.0143284030315698 
0.1999999999999943, -1.0138195468151574 
0.2099999999999932, -1.0136065446582603 
0.2199999999999921, -1.0131591733050462 
0.229999999999991, -1.0125898323810056 
0.2399999999999899, -1.01235928845276 
0.2499999999999888, -1.0119100615080627 
0.2599999999999877, -1.0112780084541129 
0.2699999999999866, -1.0110218740744292 
0.2799999999999855, -1.0105814264196387 
0.2899999999999844, -1.009887313704318 
0.2999999999999833, -1.0095955529024623 
0.3099999999999822, -1.0091746638848464 
0.3199999999999811, -1.0084232643571178 
0.32999999999998, -1.0080844322093359 
0.3399999999999789, -1.0076925706537594 
0.3499999999999778, -1.0068937867614955 
0.35999999999997667, -1.0064960322075587 
0.36999999999997557, -1.006139874621513 
0.37999999999997447, -1.0053091101862368 
0.38999999999997337, -1.004841674788862 
0.39999999999997227, -1.004523941918919 
0.40999999999997117, -1.0036814395784408 
0.41999999999997006, -1.0031366095251721 
0.42999999999996896, -1.0028554778552856 
0.43999999999996786, -1.0020244694664866 
0.44999999999996676, -1.001399763359296 
0.45999999999996566, -1.0011488564070683 
0.46999999999996456, -1.0003528150758443 
0.47999999999996346, -0.9996529678348103 
0.48999999999996235, -0.9994217441303742 
0.49999999999996125, -0.9986814247132029 
0.5099999999999602, -0.997919496493183 
0.519999999999959, -0.9976939725814677 
0.529999999999958, -0.9970250151787314 
0.5399999999999568, -0.9962218675319162 
0.5499999999999557, -0.9959859499519632 
0.5599999999999546, -0.9953975578267752 
0.5699999999999535, -0.9945792955930021 
0.5799999999999524, -0.9943170540052314 
0.5899999999999513, -0.9938118415698318 
0.5999999999999502, -0.9930057356899596 
0.6099999999999491, -0.9927043810437635 
0.619999999999948, -0.992279138850434 
0.6299999999999469, -0.9915094696447448 
0.6399999999999458, -0.9911620502459142 
0.6499999999999447, -0.9908089866589529 
0.6599999999999436, -0.9900942808586594 
0.6699999999999425, -0.9897010627936852 
0.6799999999999414, -0.9894090691012206 
0.6899999999999403, -0.9887612608704189 
0.6999999999999392, -0.9883294995951507 
0.7099999999999381, -0.9880851744461582 
0.719999999999937, -0.9875102209676102 
0.7299999999999359, -0.9870526589784258 
0.7399999999999348, -0.986841218545751 
0.7499999999999337, -0.9863403787444758 
0.7599999999999326, -0.9858728267411558 
0.7699999999999315, -0.9856793644458891 
0.7799999999999304, -0.9852505754938854 
0.7899999999999293, -0.9847889593513881 
0.7999999999999282, -0.9846002854081289 
0.8099999999999271, -0.9842393743455116 
0.819999999999926, -0.983797134507215 
0.8299999999999249, -0.9836035927160637 
0.8399999999999238, -0.9833052143950708 
0.8499999999999227, -0.9828921444833278 
0.8599999999999216, -0.9826883907174657 
0.8699999999999205, -0.9824466398830423 
0.8799999999999194, -0.9820693992494973 
0.8899999999999183, -0.9818538480466691 
0.8999999999999172, -0.981662570481321 
0.9099999999999161, -0.9813260236855897 
0.919999999999915, -0.9810996188752835 
0.9299999999999139, -0.9809525850313978 
0.9399999999999128, -0.9806609655749896 
0.9499999999999117, -0.9804260206262703 
0.9599999999999106, -0.9803172081442254 
0.9699999999999095, -0.9800747614848675 
0.9799999999999084, -0.9798341855356507 
0.9899999999999073, -0.9797582012627754 
0.9999999999999062, -0.9795695551512938 
1.0099999999999052, -0.979326700564772 
1.019999999999904, -0.9792788673467102 
1.029999999999903, -0.979149442111813 
1.039999999999902, -0.9789089309739128 
1.0499999999999008, -0.9788843812262364 
1.0599999999998997, -0.9788209230671793 
1.0699999999998986, -0.9785903301840448 
1.0799999999998975, -0.9785821604840709 
1.0899999999998964, -0.9785933288020277 
1.0999999999998953, -0.9783846964360822 
1.1099999999998942, -0.9783823318350332 
1.119999999999893, -0.9784792303771375 
1.129999999999892, -0.9783094156962201 
1.1399999999998909, -0.9782985144286476 
1.1499999999998898, -0.978494872699987 
1.1599999999998887, -0.9783852083107054 
1.1699999999998876, -0.9783494662462647 
1.1799999999998865, -0.9786605937287146 
1.1899999999998854, -0.9786374955678936 
1.1999999999998843, -0.9785622633706962 
1.2099999999998832, -0.9790010890830365 
1.219999999999882, -0.979098503106211 
1.229999999999881, -0.9789766013111731 
1.2399999999998799, -0.9795453057137445 
1.2499999999998788, -0.9798084256426995 
1.2599999999998777, -0.979646893102982 
1.2699999999998766, -0.9803257878322856 
1.2799999999998755, -0.9808146359437185 
1.2899999999998744, -0.9806373110631827 
1.2999999999998733, -0.9813776357442064 
1.3099999999998722, -0.9821681954836124 
1.319999999999871, -0.9820108480691176 
1.32999999999987, -0.9827380123191124 
1.3399999999998689, -0.9839165588665558 
1.3499999999998678, -0.9838203376363961 
1.3599999999998666, -0.9844476787408835 
1.3699999999998655, -0.9860915408838135 
1.3799999999998644, -0.9861024722085635 
1.3899999999998633, -0.9865535715945991 
1.3999999999998622, -0.988693604803626 
1.4099999999998611, -0.9888670628458335 
1.41999999999986, -0.989103137035619 
1.429999999999859, -0.9916777182355492 
1.4399999999998578, -0.9920799896524175 
1.4499999999998567, -0.99211634565581 
1.4599999999998556, -0.9949499357241549 
1.4699999999998545, -0.9956487491289526 
1.4799999999998534, -0.9955424419497801 
1.4899999999998523, -0.9983813340302984 
1.4999999999998512, -0.9994221846106703 
1.5099999999998501, -0.9992402546170234 
1.519999999999849, -1.0018338098704989 
1.529999999999848, -1.0032102961198326 
1.5399999999998468, -1.0030060039895274 
1.5499999999998457, -1.0051814529148282 
1.5599999999998446, -1.0068193955353004 
1.5699999999998435, -1.0066270103973438 
1.5799999999998424, -1.0083178628850595 
1.5899999999998413, -1.01008898707448 
1.5999999999998402, -1.0099285683514119 
1.6099999999998391, -1.011156666988544 
1.619999999999838, -1.012916097600053 
1.629999999999837, -1.0127987851617406 
1.6399999999998358, -1.013635433585901 
1.6499999999998347, -1.0152604392263622 
1.6599999999998336, -1.0151909580227785 
1.6699999999998325, -1.0157216934420774 
1.6799999999998314, -1.0171334360569761 
1.6899999999998303, -1.0171104921027292 
1.6999999999998292, -1.0174139329185123 
1.709999999999828, -1.0185794313948615 
1.719999999999827, -1.0185958429023734 
1.729999999999826, -1.018735391979829 
1.7399999999998248, -1.0196571060760162 
1.7499999999998237, -1.019701021039817 
1.7599999999998226, -1.0197241974009672 
1.7699999999998215, -1.0204259067179167 
1.7799999999998204, -1.0204831704869437 
1.7899999999998193, -1.0204241182066174 
1.7999999999998182, -1.020938688758135 
1.809999999999817, -1.020995432141136 
1.819999999999816, -1.0208780897036343 
1.8299999999998149, -1.0212392602566391 
1.8399999999998138, -1.0212837681552744 
1.8499999999998127, -1.0211246444143511 
1.8599999999998116, -1.0213626597319574 
1.8699999999998105, -1.021386208386213 
1.8799999999998094, -1.0211964879717712 
1.8899999999998083, -1.0213364388873258 
1.8999999999998072, -1.0213333343980036 
1.909999999999806, -1.0211203583045863 
1.919999999999805, -1.0211820432708982 
1.9299999999998039, -1.0211492554407489 
1.9399999999998028, -1.020917521550084 
1.9499999999998017, -1.0209159831784436 
1.9599999999998006, -1.0208526710341193 
1.9699999999997995, -1.0206045076242558 
1.9799999999997984, -1.0205507632330142 
1.9899999999997973, -1.0204578333547356 
1.9999999999997962, -1.0201938755573492 
2.0099999999998173, -1.0200956183345338 
2.0199999999998384, -1.0199753482615026 
2.0299999999998595, -1.0196949152930734 
2.0399999999998806, -1.0195571070948604 
2.0499999999999017, -1.0194128174204187 
2.059999999999923, -1.0191142571898473 
2.069999999999944, -1.0189396017668242 
2.079999999999965, -1.0187753481715676 
2.089999999999986, -1.018456392699892 
2.100000000000007, -1.0182457054162297 
2.1100000000000283, -1.0180659608007758 
2.1200000000000494, -1.0177241237058858 
2.1300000000000705, -1.0174766245596503 
2.1400000000000916, -1.0172859215016408 
2.1500000000001127, -1.0169189621632677 
2.160000000000134, -1.0166325254405997 
2.170000000000155, -1.0164350353697449 
2.180000000000176, -1.0160415004075667 
2.190000000000197, -1.0157129010718355 
2.2000000000002182, -1.015511948267346 
2.2100000000002393, -1.0150917676928453 
2.2200000000002604, -1.014716971673157 
2.2300000000002815, -1.0145145170066756 
2.2400000000003026, -1.014069581007326 
2.2500000000003237, -1.0136441313583333 
2.260000000000345, -1.0134402950085275 
2.270000000000366, -1.012974888613728 
2.280000000000387, -1.0124944373552867 
2.290000000000408, -1.0122871376480804 
2.3000000000004293, -1.0118080946225223 
2.3100000000004504, -1.0112691143708108 
2.3200000000004715, -1.0110538771294995 
2.3300000000004926, -1.0105703456604074 
2.3400000000005137, -1.0099710191985218 
2.3500000000005348, -1.0097409857825237 
2.360000000000556, -1.009263762194278 
2.370000000000577, -1.0086049886762425 
2.380000000000598, -1.0083511544370802 
2.390000000000619, -1.007891614021143 
2.4000000000006403, -1.007177992394203 
2.4100000000006614, -1.0068897394888117 
2.4200000000006825, -1.006458472898914 
2.4300000000007036, -1.0056990425569485 
2.4400000000007247, -1.0053650504251912 
2.450000000000746, -1.0049704083918114 
2.460000000000767, -1.0041788736882051 
2.470000000000788, -1.0037884524050167 
2.480000000000809, -1.0034352837019171 
2.49000000000083, -1.0026294678016674 
2.5000000000008513, -1.0021742567605954 
2.5100000000008724, -1.0018631147711001 
2.5200000000008935, -1.00106352975939 
2.5300000000009146, -1.0005393684832784 
2.5400000000009357, -1.0002663043847706 
2.550000000000957, -0.9994939962599015 
2.560000000000978, -0.9989026366960335 
2.570000000000999, -0.9986594825553926 
2.58000000000102, -0.9979336105139941 
2.5900000000010412, -0.997283805166646 
2.6000000000010624, -0.9970588007694575 
2.6100000000010835, -0.9963945527062541 
2.6200000000011046, -0.995701960423453 
2.6300000000011257, -0.99548079271757 
2.6400000000011468, -0.9948881083896262 
2.650000000001168, -0.9941735965893131 
2.660000000001189, -0.9939411257088706 
2.67000000000121, -0.9934243771787298 
2.680000000001231, -0.9927108876124022 
2.6900000000012523, -0.9924535866916442 
2.7000000000012734, -0.9920120483327518 
2.7100000000012945, -0.9913210281000494 
2.7200000000013156, -0.9910295134607506 
2.7300000000013367, -0.9906582761294258 
2.740000000001358, -0.9900070049812131 
2.750000000001379, -0.9896777038172413 
2.7600000000014, -0.989368669574343 
2.770000000001421, -0.9887692061226548 
2.780000000001442, -0.9884046639917966 
2.7900000000014633, -0.9881473798502094 
2.8000000000014844, -0.987606882148603 
2.8100000000015055, -0.9872149040084301 
2.8200000000015266, -0.9869972489861131 
2.8300000000015477, -0.9865189487240689 
2.840000000001569, -0.9861109590580635 
2.85000000000159, -0.9859199921390427 
2.860000000001611, -0.9855042513907555 
2.870000000001632, -0.9850931297891324 
2.8800000000016532, -0.9849164162826736 
2.8900000000016743, -0.9845616377983544 
2.9000000000016954, -0.984159491984798 
2.9100000000017165, -0.9839867015024543 
2.9200000000017377, -0.9836900561854678 
2.9300000000017588, -0.9833067771642353 
2.94000000000178, -0.9831307627929949 
2.950000000001801, -0.9828887253486812 
2.960000000001822, -0.98253188800829 
2.970000000001843, -0.9823486655464213 
2.9800000000018643, -0.9821573479527074 
2.9900000000018854, -0.981833106323271 
3.0000000000019065, -0.981641005942279 
3.0100000000019276, -0.9814963417881318 
3.0200000000019487, -0.9812104379341569 
3.03000000000197, -0.9810091565268608 
3.040000000001991, -0.9809070821496834 
3.050000000002012, -0.9806654273804142 
3.060000000002033, -0.980455434570228 
3.070000000002054, -0.9803921583454553 
3.0800000000020753, -0.9802011001262809 
3.0900000000020964, -0.9799835439105498 
3.1000000000021175, -0.9799556502427934 
3.1100000000021386, -0.9798222955436384 
3.1200000000021597, -0.9795996538145323 
3.130000000002181, -0.9796034313306619 
3.140000000002202, -0.9795361946790487 
3.150000000002223, -0.9793138430959965 
3.160000000002244, -0.9793435064069791 
3.1700000000022652, -0.9793528006725688 
3.1800000000022863, -0.9791408802216977 
3.1900000000023074, -0.9791864130468165 
3.2000000000023285, -0.979285319860227 
3.2100000000023496, -0.9790996361061662 
3.2200000000023707, -0.9791458155432889 
3.230000000002392, -0.9793504891751557 
3.240000000002413, -0.9792120811386936 
3.250000000002434, -0.9792396725227636 
3.260000000002455, -0.9795688416005705 
3.2700000000024763, -0.9795036757731979 
3.2800000000024974, -0.9794926491881003 
3.2900000000025185, -0.9799647841878836 
3.3000000000025396, -0.9800052279539208 
3.3100000000025607, -0.9799400759071767 
3.3200000000025818, -0.9805662538714235 
3.330000000002603, -0.9807543280590731 
3.340000000002624, -0.9806315317817313 
3.350000000002645, -0.9814036905899934 
3.360000000002666, -0.981794676211258 
3.3700000000026873, -0.9816287925939925 
3.3800000000027084, -0.9825082730118357 
3.3900000000027295, -0.9831724927811053 
3.4000000000027506, -0.9829946481388636 
3.4100000000027717, -0.9839099636687618 
3.420000000002793, -0.9849293179451647 
3.430000000002814, -0.9847786894826339 
3.440000000002835, -0.9856366558143234 
3.450000000002856, -0.9870906867124932 
3.460000000002877, -0.9870082059142063 
3.4700000000028983, -0.9877150242048627 
3.4800000000029194, -0.9896517518110449 
3.4900000000029405, -0.989681061590578 
3.5000000000029616, -0.9901689979851068 
3.5100000000029827, -0.9925643185836626 
3.520000000003004, -0.9927551204588538 
3.530000000003025, -0.99300573153725 
3.540000000003046, -0.9957331740647206 
3.550000000003067, -0.9961389127193689 
3.5600000000030882, -0.9961859829246325 
3.5700000000031094, -0.9990284288120805 
3.5800000000031305, -0.9996933274991621 
3.5900000000031516, -0.9996004288786251 
3.6000000000031727, -1.0023113181658045 
3.6100000000031938, -1.0032492378340103 
3.620000000003215, -1.003080429029961 
3.630000000003236, -1.005459575367708 
3.640000000003257, -1.0066367928496778 
3.650000000003278, -1.0064402771949308 
3.6600000000032993, -1.0083791864276717 
3.6700000000033204, -1.00971531738754 
3.6800000000033415, -1.0095218650074957 
3.6900000000033626, -1.0110034699201844 
3.7000000000033837, -1.0123927675516051 
3.710000000003405, -1.0122204345980352 
3.720000000003426, -1.0132896873577883 
3.730000000003447, -1.014629921091849 
3.740000000003468, -1.0144885830418586 
3.750000000003489, -1.015218172621529 
3.7600000000035103, -1.0164319244191518 
3.7700000000035314, -1.0163257026930566 
3.7800000000035525, -1.0167913060289089 
3.7900000000035736, -1.0178336729372792 
3.8000000000035947, -1.0177618163181736 
3.810000000003616, -1.018029447827031 
3.820000000003637, -1.018884983259061 
3.830000000003658, -1.0188423996262095 
3.840000000003679, -1.0189644698738005 
3.8500000000037002, -1.0196389931566188 
3.8600000000037213, -1.019617268388475 
3.8700000000037424, -1.019633194221748 
3.8800000000037635, -1.020144893328031 
3.8900000000037847, -1.020133881130568 
3.9000000000038058, -1.0200723830611251 
3.910000000003827, -1.0204445753523235 
3.920000000003848, -1.0204340857273584 
3.930000000003869, -1.020315695283678 
3.94000000000389, -1.0205719967100402 
3.9500000000039113, -1.0205530763835815 
3.9600000000039324, -1.0203922692420626 
3.9700000000039535, -1.0205539484555013 
3.9800000000039746, -1.0205195595395935 
3.9900000000039957, -1.0203263782389436 
4.000000000004016, -1.0204112645760055 
4.010000000003993, -1.0203564660087427 
4.02000000000397, -1.0201376794919732 
4.030000000003946, -1.0201599807735666 
4.040000000003923, -1.0200818264384288 
4.0500000000039, -1.019841730616986 
4.0600000000038765, -1.0198122859636878 
4.070000000003853, -1.0197096145388818 
4.08000000000383, -1.0194505838757502 
4.090000000003807, -1.0193772690217922 
4.100000000003783, -1.0192504750918034 
4.11000000000376, -1.018973362785667 
4.120000000003737, -1.0188615088300756 
4.130000000003713, -1.018712317104467 
4.14000000000369, -1.0184167827394808 
4.150000000003667, -1.0182695538801503 
4.1600000000036434, -1.0181007848828045 
4.17000000000362, -1.0177856084691057 
4.180000000003597, -1.0176043261085073 
4.1900000000035735, -1.017419632155538 
4.20000000000355, -1.0170830564773972 
4.210000000003527, -1.0168674760366854 
4.220000000003504, -1.0166710255863993 
4.23000000000348, -1.016311156649535 
4.240000000003457, -1.0160597137899618 
4.250000000003434, -1.0158558039909644 
4.26000000000341, -1.015471088001998 
4.270000000003387, -1.015181139681949 
4.280000000003364, -1.0149737262917098 
4.2900000000033405, -1.01456350086314 
4.300000000003317, -1.0142315950716665 
4.310000000003294, -1.0140237539815702 
4.320000000003271, -1.013588832554866 
4.330000000003247, -1.013211046683517 
4.340000000003224, -1.0130044194200216 
4.350000000003201, -1.0125476163702725 
4.360000000003177, -1.0121200041430358 
4.370000000003154, -1.0119143111740525 
4.380000000003131, -1.0114407751935823 
4.390000000003107, -1.0109599507442726 
4.400000000003084, -1.0107526578903603 
4.410000000003061, -1.010269883403492 
4.4200000000030375, -1.0097337434566263 
4.430000000003014, -1.0095199380116855 
4.440000000002991, -1.0090373771811951 
4.450000000002968, -1.0084459168204996 
4.460000000002944, -1.00821842140271 
4.470000000002921, -1.0077466987574664 
4.480000000002898, -1.0071028194003202 
4.490000000002874, -1.0068525717633745 
4.500000000002851, -1.0064023784812324 
4.510000000002828, -1.0057125344100377 
4.520000000002804, -1.0054292797223157 
4.530000000002781, -1.0050100876979358 
4.540000000002758, -1.0042845899370614 
4.5500000000027345, -1.0039579249663966 
4.560000000002711, -1.0035767188174718 
4.570000000002688, -1.00282952783586 
4.580000000002665, -1.0024502747159767 
4.590000000002641, -1.0021105342944618 
4.600000000002618, -1.0013584364415578 
4.610000000002595, -1.0009202233350245 
4.620000000002571, -1.0006213486145552 
4.630000000002548, -0.9998825359802305 
4.640000000002525, -0.9993833621991182 
4.6500000000025015, -0.9991205971963835 
4.660000000002478, -0.998412850288504 
4.670000000002455, -0.9978563270877081 
4.6800000000024315, -0.9976211028499268 
4.690000000002408, -0.9969599459401489 
4.700000000002385, -0.9963558191089823 
4.710000000002362, -0.9961364550288632 
4.720000000002338, -0.9955337027724507 
4.730000000002315, -0.9948972380270446 
4.740000000002292, -0.9946801172527003 
4.750000000002268, -0.994143097859607 
4.760000000002245, -0.9934931389191232 
4.770000000002222, -0.9932645208577684 
4.7800000000021985, -0.9927960150192201 
4.790000000002175, -0.9921521159783144 
4.800000000002152, -0.9919003965907315 
4.810000000002129, -0.9914991112521299 
4.820000000002105, -0.9908787433592331 
4.830000000002082, -0.9905964776961199 
4.840000000002059, -0.9902577699599598 
4.850000000002035, -0.9896745842353786 
4.860000000002012, -0.9893595595744685 
4.870000000001989, -0.9890761504542604 
4.880000000001965, -0.9885395790290057 
4.890000000001942, -0.9881947581299757 
4.900000000001919, -0.9879573159187971 
4.9100000000018955, -0.9874730846727883 
4.920000000001872, -0.9871057008342089 
4.930000000001849, -0.9869034053457515 
