t, s[1].omega / s[0].omega 
0, -1.439923852138711 
0.009999999999999995, -1.4310639764735924 
0.019999999999999934, -1.4203123038729548 
0.029999999999999874, -1.4097525699938322 
0.04000000000000012, -1.402335421839155 
0.050000000000000405, -1.399405478914045 
0.06000000000000069, -1.399589095928614 
0.07000000000000098, -1.4007692626813795 
0.08000000000000126, -1.4017807352996754 
0.09000000000000155, -1.4023280770726956 
0.10000000000000184, -1.4024383268872056 
0.11000000000000212, -1.4021676278247244 
0.12000000000000241, -1.4015126614887157 
0.130000000000002, -1.4004071268985194 
0.1400000000000009, -1.3988015000602303 
0.1499999999999998, -1.3969496620059885 
0.1599999999999987, -1.3959885067175581 
0.1699999999999976, -1.3981408273969869 
0.1799999999999965, -1.405059039134382 
0.1899999999999954, -1.4155370113641979 
0.1999999999999943, -1.4264186867757593 
0.2099999999999932, -1.4353443463661946 
0.2199999999999921, -1.4416365332666221 
0.229999999999991, -1.445625427353016 
0.2399999999999899, -1.4479268865778536 
0.2499999999999888, -1.4490966754817902 
0.2599999999999877, -1.4495366157241383 
0.2699999999999866, -1.4495086175209806 
0.2799999999999855, -1.4491830886829336 
0.2899999999999844, -1.448692654455408 
0.2999999999999833, -1.4481734722192343 
0.3099999999999822, -1.447767837745571 
0.3199999999999811, -1.4475779416408827 
0.32999999999998, -1.4476211249495645 
0.3399999999999789, -1.4478403710806635 
0.3499999999999778, -1.4481426718229102 
0.35999999999997667, -1.4484239203699256 
0.36999999999997557, -1.4485839055904712 
0.37999999999997447, -1.4485348838457368 
0.38999999999997337, -1.448197607386517 
0.39999999999997227, -1.4474903337129388 
0.40999999999997117, -1.4463217169856843 
0.41999999999997006, -1.4445926343837097 
0.42999999999996896, -1.4422080857923503 
0.43999999999996786, -1.4391050994245629 
0.44999999999996676, -1.4353147854938144 
0.45999999999996566, -1.4310784930847111 
0.46999999999996456, -1.4269697965594392 
0.47999999999996346, -1.4237956960580704 
0.48999999999996235, -1.4220833463803393 
0.49999999999996125, -1.4216302885373981 
0.5099999999999602, -1.4217825699655349 
0.519999999999959, -1.4219996836150135 
0.529999999999958, -1.4220238257171807 
0.5399999999999568, -1.4217511396080675 
0.5499999999999557, -1.421085084458876 
0.5599999999999546, -1.4198358852040842 
0.5699999999999535, -1.4176408636473918 
0.5799999999999524, -1.4139473512360596 
0.5899999999999513, -1.4083490849356095 
0.5999999999999502, -1.4019091743224308 
0.6099999999999491, -1.3990190713800426 
0.619999999999948, -1.4052583635088935 
0.6299999999999469, -1.4199804709718689 
0.6399999999999458, -1.436080490056041 
0.6499999999999447, -1.4482093039148243 
0.6599999999999436, -1.4556280043285243 
0.6699999999999425, -1.459655809383081 
0.6799999999999414, -1.4616511835655372 
0.6899999999999403, -1.4624996100200303 
0.6999999999999392, -1.4626932970836788 
0.7099999999999381, -1.4624937264889142 
0.719999999999937, -1.4620606600029382 
0.7299999999999359, -1.4615515139314923 
0.7399999999999348, -1.4611826733574846 
0.7499999999999337, -1.4611903823255865 
0.7599999999999326, -1.461681773816321 
0.7699999999999315, -1.462549574618965 
0.7799999999999304, -1.4635703826275066 
0.7899999999999293, -1.464542503881106 
0.7999999999999282, -1.4653337945893974 
0.8099999999999271, -1.4658687830983914 
0.819999999999926, -1.4661063249403445 
0.8299999999999249, -1.4660228265409085 
0.8399999999999238, -1.4656022079760076 
0.8499999999999227, -1.4648318238023754 
0.8599999999999216, -1.463703370016847 
0.8699999999999205, -1.462219537177026 
0.8799999999999194, -1.4604098808880515 
0.8899999999999183, -1.4583611461900707 
0.8999999999999172, -1.456260821452314 
0.9099999999999161, -1.4544140897567095 
0.919999999999915, -1.453137733855923 
0.9299999999999139, -1.4525326042043243 
0.9399999999999128, -1.4523952334088288 
0.9499999999999117, -1.4524046915057847 
0.9599999999999106, -1.4523169012970327 
0.9699999999999095, -1.451978991101144 
0.9799999999999084, -1.451241186828718 
0.9899999999999073, -1.4498472566686793 
0.9999999999999062, -1.4473018677338598 
1.0099999999999052, -1.4427118648147128 
1.019999999999904, -1.4347691334558834 
1.029999999999903, -1.4225473952099368 
1.039999999999902, -1.4080312173288054 
1.0499999999999008, -1.3980406022905458 
1.0599999999998997, -1.3985874003284084 
1.0699999999998986, -1.4069531860881628 
1.0799999999998975, -1.4161486124005134 
1.0899999999998964, -1.4226313062366827 
1.0999999999998953, -1.4263500158716076 
1.1099999999998942, -1.428230767330827 
1.119999999999893, -1.429035379603509 
1.129999999999892, -1.4292095801933375 
1.1399999999998909, -1.4289831355017786 
1.1499999999998898, -1.428482037361252 
1.1599999999998887, -1.4278367400227927 
1.1699999999998876, -1.4273022020127777 
1.1799999999998865, -1.4273116946578868 
1.1899999999998854, -1.4282789230898787 
1.1999999999998843, -1.4302258891219113 
1.2099999999998832, -1.4327292038207582 
1.219999999999882, -1.4352651636184242 
1.229999999999881, -1.4374842448503045 
1.2399999999998799, -1.439234238412664 
1.2499999999998788, -1.440482621370977 
1.2599999999998777, -1.4412521523554083 
1.2699999999998766, -1.4415873334664742 
1.2799999999998755, -1.4415396977502792 
1.2899999999998744, -1.4411620209412135 
1.2999999999998733, -1.440508224190928 
1.3099999999998722, -1.439638929424569 
1.319999999999871, -1.4386302717039732 
1.32999999999987, -1.4375797667447927 
1.3399999999998689, -1.4366051021662307 
1.3499999999998678, -1.435830656887465 
1.3599999999998666, -1.4353439520250846 
1.3699999999998655, -1.4351323185985356 
1.3799999999998644, -1.4350734386347126 
1.3899999999998633, -1.4350027694218013 
1.3999999999998622, -1.4347724263885886 
1.4099999999998611, -1.4342441974832938 
1.41999999999986, -1.4332369662294775 
1.429999999999859, -1.4314569310033711 
1.4399999999998578, -1.4284238830006246 
1.4499999999998567, -1.4234263255880413 
1.4599999999998556, -1.415613933048069 
1.4699999999998545, -1.404457194886485 
1.4799999999998534, -1.3907668090559677 
1.4899999999998523, -1.3776095784634372 
1.4999999999998512, -1.3689876235046108 
1.5099999999998501, -1.366223311609091 
1.519999999999849, -1.3671040021960468 
1.529999999999848, -1.3689119467250983 
1.5399999999998468, -1.3703406519188235 
1.5499999999998457, -1.3711441493736334 
1.5599999999998446, -1.371422391220033 
1.5699999999998435, -1.3712896639944006 
1.5799999999998424, -1.370790840183678 
1.5899999999998413, -1.3699047799133377 
1.5999999999998402, -1.3686056107913536 
1.6099999999998391, -1.3670575232124764 
1.619999999999838, -1.3660264054126838 
1.629999999999837, -1.3671715570835001 
1.6399999999998358, -1.3721625349578634 
1.6499999999998347, -1.3807832808519176 
1.6599999999998336, -1.390761251978261 
1.6699999999998325, -1.3997423410692582 
1.6799999999998314, -1.4065998545792084 
1.6899999999998303, -1.4112699615737336 
1.6999999999998292, -1.4141657878538862 
1.709999999999828, -1.4157844629804262 
1.719999999999827, -1.416540862364603 
1.729999999999826, -1.416730442072478 
1.7399999999998248, -1.4165496952207564 
1.7499999999998237, -1.4161375126359623 
1.7599999999998226, -1.4156188379499863 
1.7699999999998215, -1.4151303881485287 
1.7799999999998204, -1.414803450521375 
1.7899999999998193, -1.4147120771099213 
1.7999999999998182, -1.414845219287825 
1.809999999999817, -1.4151303608578099 
1.819999999999816, -1.41546914349604 
1.8299999999998149, -1.4157589156611399 
1.8399999999998138, -1.4159063012343651 
1.8499999999998127, -1.415832300238498 
1.8599999999998116, -1.4154668518690947 
1.8699999999998105, -1.4147405881029493 
1.8799999999998094, -1.4135817830645399 
1.8899999999998083, -1.411920431588145 
1.8999999999998072, -1.4096993195307113 
1.909999999999806, -1.4068967793460678 
1.919999999999805, -1.4035738341382455 
1.9299999999998039, -1.399955314255957 
1.9399999999998028, -1.3965030173383997 
1.9499999999998017, -1.3938266577013705 
1.9599999999998006, -1.392319518842046 
1.9699999999997995, -1.3918411181365156 
1.9799999999997984, -1.391893421857652 
1.9899999999997973, -1.3920291150488837 
1.9999999999997962, -1.3920065954606649 
2.0099999999998173, -1.3917088216029665 
2.0199999999998384, -1.3910224476571418 
2.0299999999998595, -1.3897378095980548 
2.0399999999998806, -1.387447690493876 
2.0499999999999017, -1.3834503990381166 
2.059999999999923, -1.3768370047005434 
2.069999999999944, -1.3673479655734162 
2.079999999999965, -1.357516605020681 
2.089999999999986, -1.3535615735671414 
2.100000000000007, -1.3597897291993335 
2.1100000000000283, -1.3724793676843685 
2.1200000000000494, -1.384672705825821 
2.1300000000000705, -1.393086424573267 
2.1400000000000916, -1.3979569184437763 
2.1500000000001127, -1.4004924206235585 
2.160000000000134, -1.4016691183504766 
2.170000000000155, -1.4020685756452749 
2.180000000000176, -1.4019983330273211 
2.190000000000197, -1.4016203917763685 
2.2000000000002182, -1.4010561176085738 
2.2100000000002393, -1.4004889474248272 
2.2200000000002604, -1.400239350703578 
2.2300000000002815, -1.4006892017804655 
2.2400000000003026, -1.402010706794575 
2.2500000000003237, -1.4039931496139182 
2.260000000000345, -1.4062136112712653 
2.270000000000366, -1.4083067619617484 
2.280000000000387, -1.4100650734840763 
2.290000000000408, -1.411405505015012 
2.3000000000004293, -1.4123139476061253 
2.3100000000004504, -1.4128089809008408 
2.3200000000004715, -1.4129238954716206 
2.3300000000004926, -1.4126987392048078 
2.3400000000005137, -1.4121775677156427 
2.3500000000005348, -1.411410159730431 
2.360000000000556, -1.410458250260059 
2.370000000000577, -1.409402959590181 
2.380000000000598, -1.4083477182362194 
2.390000000000619, -1.4074131567869586 
2.4000000000006403, -1.4067152248588117 
2.4100000000006614, -1.4063134274666915 
2.4200000000006825, -1.4061600627067103 
2.4300000000007036, -1.4061170857734777 
2.4400000000007247, -1.4060266781186552 
2.450000000000746, -1.4057517165118552 
2.460000000000767, -1.405156735521332 
2.470000000000788, -1.4040564877160362 
2.480000000000809, -1.4021557742632826 
2.49000000000083, -1.3989952384855162 
2.5000000000008513, -1.3939397956193553 
2.5100000000008724, -1.3863034980457116 
2.5200000000008935, -1.3757709287587718 
2.5300000000009146, -1.3631903767897036 
2.5400000000009357, -1.3511697083986567 
2.550000000000957, -1.3429837016443789 
2.560000000000978, -1.3398404430145432 
2.570000000000999, -1.3400888509201117 
2.58000000000102, -1.3414364740772489 
2.5900000000010412, -1.3426262306697112 
2.6000000000010624, -1.3433266620037692 
2.6100000000010835, -1.3435656107227656 
2.6200000000011046, -1.343417366543476 
2.6300000000011257, -1.3429023791012855 
2.6400000000011468, -1.3419698295802074 
2.650000000001168, -1.340527819686885 
2.660000000001189, -1.3385899220709898 
2.67000000000121, -1.3366912267036508 
2.680000000001231, -1.3364978752295993 
2.6900000000012523, -1.3405402906587305 
2.7000000000012734, -1.349931631607122 
2.7100000000012945, -1.3625370239913792 
2.7200000000013156, -1.3747755647381805 
2.7300000000013367, -1.384376450514633 
2.740000000001358, -1.3909078105944253 
2.750000000001379, -1.3949186202855113 
2.7600000000014, -1.397166760105211 
2.770000000001421, -1.3982782394641524 
2.780000000001442, -1.398678933052264 
2.7900000000014633, -1.3986332214481314 
2.8000000000014844, -1.3983079927513398 
2.8100000000015055, -1.39783535773352 
2.8200000000015266, -1.3973610986580645 
2.8300000000015477, -1.3970509361103667 
2.840000000001569, -1.3970328643406265 
2.85000000000159, -1.3973261285715943 
2.860000000001611, -1.3978430003507354 
2.870000000001632, -1.398452315733644 
2.8800000000016532, -1.3990304209251314 
2.8900000000016743, -1.3994785289899023 
2.9000000000016954, -1.3997237025508347 
2.9100000000017165, -1.399713259018156 
2.9200000000017377, -1.3994070853353526 
2.9300000000017588, -1.3987723697447871 
2.94000000000178, -1.397782420150245 
2.950000000001801, -1.3964192179845412 
2.960000000001822, -1.3946807663162124 
2.970000000001843, -1.3925971620909148 
2.9800000000018643, -1.3902604430907144 
2.9900000000018854, -1.38786529641123 
3.0000000000019065, -1.3857234624126724 
3.0100000000019276, -1.3841689872992335 
3.0200000000019487, -1.383346420511724 
3.03000000000197, -1.3830957988808277 
3.040000000001991, -1.383097572081652 
3.050000000002012, -1.3830804228774265 
3.060000000002033, -1.3828772638360705 
3.070000000002054, -1.3823624219382384 
3.0800000000020753, -1.3813604966942963 
3.0900000000020964, -1.3795455076001681 
3.1000000000021175, -1.3763125701458834 
3.1100000000021386, -1.3706474370015402 
3.1200000000021597, -1.3612134742256405 
3.130000000002181, -1.3472685097797839 
3.140000000002202, -1.330857332956903 
3.150000000002223, -1.3179307630953443 
3.160000000002244, -1.3138145271982866 
3.1700000000022652, -1.3173523488526562 
3.1800000000022863, -1.323360567439715 
3.1900000000023074, -1.32833711532524 
3.2000000000023285, -1.3314947774503052 
3.2100000000023496, -1.333214677304916 
3.2200000000023707, -1.334003295910619 
3.230000000002392, -1.3342050538144092 
3.240000000002413, -1.334004630374426 
3.250000000002434, -1.333485382264474 
3.260000000002455, -1.3326996354140905 
3.2700000000024763, -1.331781309569758 
3.2800000000024974, -1.3311279052050098 
3.2900000000025185, -1.3315226381300604 
3.3000000000025396, -1.3338266603729274 
3.3100000000025607, -1.338223643559238 
3.3200000000025818, -1.3439177564598646 
3.330000000002603, -1.3497425568716157 
3.340000000002624, -1.35484567620663 
3.350000000002645, -1.3588556273201624 
3.360000000002666, -1.3617376358718132 
3.3700000000026873, -1.3636259562511313 
3.3800000000027084, -1.364715130198354 
3.3900000000027295, -1.3651991619320614 
3.4000000000027506, -1.36524233557912 
3.4100000000027717, -1.3649739776224035 
3.420000000002793, -1.3645010214155229 
3.430000000002814, -1.3639284867408177 
3.440000000002835, -1.3633709059213432 
3.450000000002856, -1.362937547107993 
3.460000000002877, -1.3626985037753672 
3.4700000000028983, -1.3626647855663097 
3.4800000000029194, -1.3627952626663107 
3.4900000000029405, -1.3630125140641889 
3.5000000000029616, -1.363220019720402 
3.5100000000029827, -1.3633214929459698 
3.520000000003004, -1.3632320101884234 
3.530000000003025, -1.3628753781448335 
3.540000000003046, -1.3621762496104846 
3.550000000003067, -1.3610570619020501 
3.5600000000030882, -1.359442945467332 
3.5700000000031094, -1.3572731911506526 
3.5800000000031305, -1.3545199394603862 
3.5900000000031516, -1.3512216332664324 
3.6000000000031727, -1.347541195046071 
3.6100000000031938, -1.3438346841029243 
3.620000000003215, -1.3406421010309697 
3.630000000003236, -1.338467483656466 
3.640000000003257, -1.3374331437789397 
3.650000000003278, -1.3372066258138475 
3.6600000000032993, -1.3373081357251586 
3.6700000000033204, -1.3373946563047405 
3.6800000000033415, -1.3372921768306905 
3.6900000000033626, -1.3368993957712219 
3.7000000000033837, -1.3360879591228745 
3.710000000003405, -1.3346137193171161 
3.720000000003426, -1.3320130457953392 
3.730000000003447, -1.3274894999553708 
3.740000000003468, -1.3199396853186312 
3.750000000003489, -1.3085975265217031 
3.7600000000035103, -1.2948405481007552 
3.7700000000035314, -1.2837131819857528 
3.7800000000035525, -1.2808188218383272 
3.7900000000035736, -1.286136571371234 
3.8000000000035947, -1.2945275489139065 
3.810000000003616, -1.3016835861676475 
3.820000000003637, -1.3063796111561283 
3.830000000003658, -1.3090490472991976 
3.840000000003679, -1.3104003856417488 
3.8500000000037002, -1.3109500376331282 
3.8600000000037213, -1.3109951262350323 
3.8700000000037424, -1.3106842865160608 
3.8800000000037635, -1.3100898388785658 
3.8900000000037847, -1.309289056978947 
3.9000000000038058, -1.3084905068357646 
3.910000000003827, -1.3081899844703764 
3.920000000003848, -1.3091577146004643 
3.930000000003869, -1.3119919387293104 
3.94000000000389, -1.3165377687336997 
3.9500000000039113, -1.321931488563255 
3.9600000000039324, -1.3272083904945515 
3.9700000000039535, -1.3317396961952148 
3.9800000000039746, -1.3352718935993877 
3.9900000000039957, -1.3377986379673852 
4.000000000004016, -1.3394401995897018 
4.010000000003993, -1.3403650280808077 
4.02000000000397, -1.34074230478674 
4.030000000003946, -1.34071744352104 
4.040000000003923, -1.340407874886253 
4.0500000000039, -1.3399149139141122 
4.0600000000038765, -1.3393420632318038 
4.070000000003853, -1.3388028324668513 
4.08000000000383, -1.3384028343849563 
4.090000000003807, -1.3382058937583143 
4.100000000003783, -1.33821627136366 
4.11000000000376, -1.3383873316637676 
4.120000000003737, -1.3386390727718673 
4.130000000003713, -1.3388762772439498 
4.14000000000369, -1.339006639285099 
4.150000000003667, -1.3389505144113834 
4.1600000000036434, -1.3386389270042174 
4.17000000000362, -1.3380076386105852 
4.180000000003597, -1.3369954334859173 
4.1900000000035735, -1.3355484184321407 
4.20000000000355, -1.3336284357054238 
4.210000000003527, -1.3312257459153103 
4.220000000003504, -1.3283813042262995 
4.23000000000348, -1.3252254864130841 
4.240000000003457, -1.3220256619644668 
4.250000000003434, -1.3191896567435797 
4.26000000000341, -1.3171322398065703 
4.270000000003387, -1.316022224677735 
4.280000000003364, -1.315663754562737 
4.2900000000033405, -1.3156741317922171 
4.300000000003317, -1.3157294226602114 
4.310000000003294, -1.3156404265591948 
4.320000000003271, -1.3152938364169247 
4.330000000003247, -1.3145653040528633 
4.340000000003224, -1.3132359696033364 
4.350000000003201, -1.3108955358848409 
4.360000000003177, -1.3068227716784944 
4.370000000003154, -1.2999160815110178 
4.380000000003131, -1.2889668766592144 
4.390000000003107, -1.2738088915239345 
4.400000000003084, -1.257181783680711 
4.410000000003061, -1.2446415171010587 
4.4200000000030375, -1.240123373796216 
4.430000000003014, -1.2422250023433672 
4.440000000002991, -1.246748526264721 
4.450000000002968, -1.2507908176650144 
4.460000000002944, -1.2535096751976003 
4.470000000002921, -1.255065955397966 
4.480000000002898, -1.2558137547039647 
4.490000000002874, -1.2560220829762356 
4.500000000002851, -1.2558399651991101 
4.510000000002828, -1.2553230678424054 
4.520000000002804, -1.2544719739422185 
4.530000000002781, -1.253300624523894 
4.540000000002758, -1.2519952916136692 
4.5500000000027345, -1.2512034369558536 
4.560000000002711, -1.2522392749736961 
4.570000000002688, -1.2565892636078302 
4.580000000002665, -1.264608639410909 
4.590000000002641, -1.2748633891478611 
4.600000000002618, -1.285130122996649 
4.610000000002595, -1.2937669134643035 
4.620000000002571, -1.300161127335934 
4.630000000002548, -1.3044429294669693 
4.640000000002525, -1.3070632149245038 
4.6500000000025015, -1.3085073108730227 
4.660000000002478, -1.3091664110948527 
4.670000000002455, -1.3093127617276215 
4.6800000000024315, -1.3091245487580387 
4.690000000002408, -1.3087282868976895 
4.700000000002385, -1.3082441088910675 
4.710000000002362, -1.3078186603225461 
4.720000000002338, -1.3076169659921544 
4.730000000002315, -1.3077594984477523 
4.740000000002292, -1.308255879079106 
4.750000000002268, -1.3090081899601775 
4.760000000002245, -1.3098731683581275 
4.770000000002222, -1.3107174142964937 
4.7800000000021985, -1.3114392106689539 
4.790000000002175, -1.311969467934135 
4.800000000002152, -1.3122651900933715 
4.810000000002129, -1.3123018066271208 
4.820000000002105, -1.3120674413706652 
4.830000000002082, -1.3115600047676308 
4.840000000002059, -1.3107868478359772 
4.850000000002035, -1.3097669194211383 
4.860000000002012, -1.3085357964563598 
4.870000000001989, -1.3071533055857747 
4.880000000001965, -1.3057115063647184 
4.890000000001942, -1.3043378008732696 
4.900000000001919, -1.303181416169865 
4.9100000000018955, -1.3023667850888763 
4.920000000001872, -1.3019246248469671 
4.930000000001849, -1.3017633832990179 
4.940000000001826, -1.3017206222323905 
