t, s[1].omega / s[0].omega 
0, -0.8999938566203948 
0.009999999999999995, -0.8993286378374596 
0.019999999999999934, -0.8985729593844163 
0.029999999999999874, -0.8977422463350738 
0.04000000000000012, -0.896854559526423 
0.050000000000000405, -0.895934413051941 
0.06000000000000069, -0.8950155577165042 
0.07000000000000098, -0.8941415172863414 
0.08000000000000126, -0.8933631121544027 
0.09000000000000155, -0.8927324959662529 
0.10000000000000184, -0.8922943524875725 
0.11000000000000212, -0.8920766633044929 
0.12000000000000241, -0.892084420626249 
0.130000000000002, -0.8922987829474636 
0.1400000000000009, -0.8926819155557796 
0.1499999999999998, -0.8931854675597766 
0.1599999999999987, -0.8937594986639619 
0.1699999999999976, -0.8943591203666346 
0.1799999999999965, -0.8949475602360583 
0.1899999999999954, -0.8954957048744868 
0.1999999999999943, -0.8959790536522462 
0.2099999999999932, -0.896373923933943 
0.2199999999999921, -0.8966556436306782 
0.229999999999991, -0.8968009364844388 
0.2399999999999899, -0.896793849113025 
0.2499999999999888, -0.8966314988329331 
0.2599999999999877, -0.8963261665094906 
0.2699999999999866, -0.8959038630204725 
0.2799999999999855, -0.8954024793618462 
0.2899999999999844, -0.8948721548333403 
0.2999999999999833, -0.894377518566953 
0.3099999999999822, -0.8939983980218742 
0.3199999999999811, -0.8938244875194068 
0.32999999999998, -0.8939418920950789 
0.3399999999999789, -0.8944150247604169 
0.3499999999999778, -0.8952719416385136 
0.35999999999997667, -0.8965000145034072 
0.36999999999997557, -0.8980523594710436 
0.37999999999997447, -0.8998594261367628 
0.38999999999997337, -0.9018389096123659 
0.39999999999997227, -0.903900159559394 
0.40999999999997117, -0.9059440045655418 
0.41999999999997006, -0.9078633452954543 
0.42999999999996896, -0.9095514484987591 
0.43999999999996786, -0.9109202040001161 
0.44999999999996676, -0.911920501563214 
0.45999999999996566, -0.9125510743580026 
0.46999999999996456, -0.912849597148368 
0.47999999999996346, -0.9128735362711049 
0.48999999999996235, -0.9126835451654987 
0.49999999999996125, -0.9123370681221938 
0.5099999999999602, -0.9118931093804615 
0.519999999999959, -0.9114259283771261 
0.529999999999958, -0.9110436633805848 
0.5399999999999568, -0.9109040408296923 
0.5499999999999557, -0.9112140130893884 
0.5599999999999546, -0.9122006054892069 
0.5699999999999535, -0.914054339831664 
0.5799999999999524, -0.9168680725451808 
0.5899999999999513, -0.920600940169942 
0.5999999999999502, -0.925079058931917 
0.6099999999999491, -0.9300215787938981 
0.619999999999948, -0.9350772201770383 
0.6299999999999469, -0.9398706524900993 
0.6399999999999458, -0.9440660474328743 
0.6499999999999447, -0.9474385320253035 
0.6599999999999436, -0.9499180577776419 
0.6699999999999425, -0.9515751386665157 
0.6799999999999414, -0.952559994896277 
0.6899999999999403, -0.9530368606084538 
0.6999999999999392, -0.9531438334643566 
0.7099999999999381, -0.9529815586522151 
0.719999999999937, -0.9526208734052029 
0.7299999999999359, -0.9521216478996497 
0.7399999999999348, -0.9515615483645448 
0.7499999999999337, -0.9510760498497461 
0.7599999999999326, -0.9509039962833779 
0.7699999999999315, -0.9514137627028372 
0.7799999999999304, -0.9530659992492098 
0.7899999999999293, -0.956284154786166 
0.7999999999999282, -0.9612710396389417 
0.8099999999999271, -0.967872836224155 
0.819999999999926, -0.9755721585531596 
0.8299999999999249, -0.983609817943727 
0.8399999999999238, -0.991180545008681 
0.8499999999999227, -0.9976390033540596 
0.8599999999999216, -1.002645707953926 
0.8699999999999205, -1.0061894813647 
0.8799999999999194, -1.0084874581786027 
0.8899999999999183, -1.0098404645450954 
0.8999999999999172, -1.010525445478553 
0.9099999999999161, -1.0107503995203988 
0.919999999999915, -1.010653538488393 
0.9299999999999139, -1.0103223924487648 
0.9399999999999128, -1.009821017792257 
0.9499999999999117, -1.009225654452545 
0.9599999999999106, -1.008673617622997 
0.9699999999999095, -1.0084208389102969 
0.9799999999999084, -1.0088749682228628 
0.9899999999999073, -1.0105411467386742 
0.9999999999999062, -1.0138447191032351 
1.0099999999999052, -1.0189062273838876 
1.019999999999904, -1.025426355931304 
1.029999999999903, -1.0327622608958953 
1.039999999999902, -1.0401289882711315 
1.0499999999999008, -1.0468122843768126 
1.0599999999998997, -1.0523246629216145 
1.0699999999998986, -1.056473809183983 
1.0799999999998975, -1.0593307861241752 
1.0899999999998964, -1.0611243736389386 
1.0999999999998953, -1.0621243127431776 
1.1099999999998942, -1.0625647978946149 
1.119999999999893, -1.0626178591672917 
1.129999999999892, -1.0623998832179848 
1.1399999999998909, -1.0619942470661008 
1.1499999999998898, -1.0614830784910647 
1.1599999999998887, -1.0609867656040666 
1.1699999999998876, -1.060702655856637 
1.1799999999998865, -1.0609139276478925 
1.1899999999998854, -1.061929076539195 
1.1999999999998843, -1.0639545119524114 
1.2099999999998832, -1.0669820822631946 
1.219999999999882, -1.0707818026720686 
1.229999999999881, -1.074993673169665 
1.2399999999998799, -1.0792375712131022 
1.2499999999998788, -1.0831846128202662 
1.2599999999998777, -1.0865902754103474 
1.2699999999998766, -1.0893098137738195 
1.2799999999998755, -1.0913028013610868 
1.2899999999998744, -1.0926195444108964 
1.2999999999998733, -1.0933676591646795 
1.3099999999998722, -1.0936724029621772 
1.319999999999871, -1.0936483057020252 
1.32999999999987, -1.0933899872617796 
1.3399999999998689, -1.0929799878510553 
1.3499999999998678, -1.0925073345655612 
1.3599999999998666, -1.0920875581012008 
1.3699999999998655, -1.0918685433671318 
1.3799999999998644, -1.0920049909458345 
1.3899999999998633, -1.092604052419514 
1.3999999999998622, -1.0936779229751015 
1.4099999999998611, -1.095141473111314 
1.41999999999986, -1.096852095804266 
1.429999999999859, -1.0986571383662862 
1.4399999999998578, -1.1004232587865705 
1.4499999999998567, -1.1020454619768343 
1.4599999999998556, -1.1034451957596247 
1.4699999999998545, -1.104566842635127 
1.4799999999998534, -1.1053773928782304 
1.4899999999998523, -1.1058685305293798 
1.4999999999998512, -1.1060567808408395 
1.5099999999998501, -1.1059788093519631 
1.519999999999849, -1.1056840540830686 
1.529999999999848, -1.105229955349356 
1.5399999999998468, -1.1046828618166464 
1.5499999999998457, -1.104122002291931 
1.5599999999998446, -1.1036386089837198 
1.5699999999998435, -1.1033225408050709 
1.5799999999998424, -1.1032384930219925 
1.5899999999998413, -1.1034059914956733 
1.5999999999998402, -1.1037963362260448 
1.6099999999998391, -1.1043457024215058 
1.619999999999838, -1.104974342947147 
1.629999999999837, -1.1056035346066837 
1.6399999999998358, -1.1061664680898189 
1.6499999999998347, -1.1066125024825386 
1.6599999999998336, -1.1069065585422133 
1.6699999999998325, -1.1070263367280824 
1.6799999999998314, -1.1069595188507395 
1.6899999999998303, -1.10670226546974 
1.6999999999998292, -1.1062594688292464 
1.709999999999828, -1.105646281661041 
1.719999999999827, -1.1048900710745233 
1.729999999999826, -1.1040322988509552 
1.7399999999998248, -1.1031295883239198 
1.7499999999998237, -1.1022517892050376 
1.7599999999998226, -1.1014742881334838 
1.7699999999998215, -1.1008644013989308 
1.7799999999998204, -1.1004655952651379 
1.7899999999998193, -1.1002849256781453 
1.7999999999998182, -1.1002889635051463 
1.809999999999817, -1.1004118747765923 
1.819999999999816, -1.1005730254797215 
1.8299999999998149, -1.100694444353333 
1.8399999999998138, -1.1007100780237074 
1.8499999999998127, -1.1005671736845661 
1.8599999999998116, -1.1002253161911413 
1.8699999999998105, -1.099657113350193 
1.8799999999998094, -1.0988502268207563 
1.8899999999998083, -1.097808214636439 
1.8999999999998072, -1.0965491767859832 
1.909999999999806, -1.0951040581600837 
1.919999999999805, -1.0935171021946484 
1.9299999999998039, -1.091848831920772 
1.9399999999998028, -1.0901791652486539 
1.9499999999998017, -1.0886064212157465 
1.9599999999998006, -1.0872373587169144 
1.9699999999997995, -1.0861650125916154 
1.9799999999997984, -1.085438128842429 
1.9899999999997973, -1.0850381207251734 
1.9999999999997962, -1.0848827749189964 
2.0099999999998173, -1.0848570325860778 
2.0199999999998384, -1.0848478375993795 
2.0299999999998595, -1.0847612744451642 
2.0399999999998806, -1.0845200909861004 
2.0499999999999017, -1.0840530409956908 
2.059999999999923, -1.0832877141050727 
2.069999999999944, -1.0821534306426688 
2.079999999999965, -1.0805946617253217 
2.089999999999986, -1.0785886875041892 
2.100000000000007, -1.0761576348824426 
2.1100000000000283, -1.07336973328507 
2.1200000000000494, -1.0703339891562822 
2.1300000000000705, -1.0671958374581996 
2.1400000000000916, -1.0641347314203482 
2.1500000000001127, -1.0613543560849235 
2.160000000000134, -1.0590516403114008 
2.170000000000155, -1.057361676742211 
2.180000000000176, -1.0563035650632797 
2.190000000000197, -1.0557704768527392 
2.2000000000002182, -1.0555792948596492 
2.2100000000002393, -1.0555423288900907 
2.2200000000002604, -1.055511839337472 
2.2300000000002815, -1.0553836728092854 
2.2400000000003026, -1.0550770035925814 
2.2500000000003237, -1.0545098607323193 
2.260000000000345, -1.0535813958152225 
2.270000000000366, -1.0521672982265768 
2.280000000000387, -1.0501344989673196 
2.290000000000408, -1.0473771648364036 
2.3000000000004293, -1.043863042834388 
2.3100000000004504, -1.039667206505503 
2.3200000000004715, -1.0349766139065886 
2.3300000000004926, -1.0300698891352342 
2.3400000000005137, -1.025285865199986 
2.3500000000005348, -1.020981642970751 
2.360000000000556, -1.0174685230045264 
2.370000000000577, -1.0149289046515 
2.380000000000598, -1.0133547900366777 
2.390000000000619, -1.0125606319701366 
2.4000000000006403, -1.0122721995912376 
2.4100000000006614, -1.0122289807527554 
2.4200000000006825, -1.0122393776407699 
2.4300000000007036, -1.012180792659501 
2.4400000000007247, -1.0119714544481426 
2.450000000000746, -1.0115385809733604 
2.460000000000767, -1.0107934051075858 
2.470000000000788, -1.009616664601499 
2.480000000000809, -1.0078598084080546 
2.49000000000083, -1.0053700996026282 
2.5000000000008513, -1.0020415226390498 
2.5100000000008724, -0.9978739068007982 
2.5200000000008935, -0.9930069649725979 
2.5300000000009146, -0.9877089186935715 
2.5400000000009357, -0.9823313675987173 
2.550000000000957, -0.9772544197752027 
2.560000000000978, -0.972830291685122 
2.570000000000999, -0.9693206255692601 
2.58000000000102, -0.9668357467342906 
2.5900000000010412, -0.9653081047811505 
2.6000000000010624, -0.9645284116815322 
2.6100000000010835, -0.964230175700942 
2.6200000000011046, -0.9641716071591467 
2.6300000000011257, -0.9641755211257879 
2.6400000000011468, -0.9641265837209699 
2.650000000001168, -0.9639473927838544 
2.660000000001189, -0.9635723030853065 
2.67000000000121, -0.9629279092252594 
2.680000000001231, -0.9619239904161665 
2.6900000000012523, -0.9604588830654655 
2.7000000000012734, -0.9584426117938006 
2.7100000000012945, -0.95583306723685 
2.7200000000013156, -0.9526672004572696 
2.7300000000013367, -0.9490664014028598 
2.740000000001358, -0.9452131194233369 
2.750000000001379, -0.9413166813352836 
2.7600000000014, -0.9375865885171037 
2.770000000001421, -0.9342156968763762 
2.780000000001442, -0.9313641237545255 
2.7900000000014633, -0.9291370908415134 
2.8000000000014844, -0.9275618579825038 
2.8100000000015055, -0.9265791592796122 
2.8200000000015266, -0.9260610954630408 
2.8300000000015477, -0.925849800917496 
2.840000000001569, -0.9257963033379843 
2.85000000000159, -0.9257820058422741 
2.860000000001611, -0.9257201694612078 
2.870000000001632, -0.9255458107728408 
2.8800000000016532, -0.925203988568993 
2.8900000000016743, -0.9246432856294057 
2.9000000000016954, -0.9238178461699429 
2.9100000000017165, -0.9226975346326087 
2.9200000000017377, -0.9212805878971665 
2.9300000000017588, -0.9195996135857423 
2.94000000000178, -0.9177155157770628 
2.950000000001801, -0.9157034694321755 
2.960000000001822, -0.9136404971536847 
2.970000000001843, -0.9116003929395907 
2.9800000000018643, -0.9096544928387313 
2.9900000000018854, -0.9078730801911608 
3.0000000000019065, -0.9063229560547118 
3.0100000000019276, -0.9050596025430089 
3.0200000000019487, -0.904115782591633 
3.03000000000197, -0.903491447188086 
3.040000000001991, -0.9031508297868335 
3.050000000002012, -0.9030297284708826 
3.060000000002033, -0.9030501225724915 
3.070000000002054, -0.9031351042960226 
3.0800000000020753, -0.9032183126709598 
3.0900000000020964, -0.9032469101389726 
3.1000000000021175, -0.9031810500658896 
3.1100000000021386, -0.902993299999182 
3.1200000000021597, -0.9026692754364358 
3.130000000002181, -0.9022079819070227 
3.140000000002202, -0.9016195597439557 
3.150000000002223, -0.9009203193095047 
3.160000000002244, -0.9001279037153672 
3.1700000000022652, -0.8992596750144048 
3.1800000000022863, -0.8983347951008558 
3.1900000000023074, -0.8973779879213233 
3.2000000000023285, -0.8964226062235177 
3.2100000000023496, -0.8955115012494538 
3.2200000000023707, -0.8946948203169368 
3.230000000002392, -0.8940242722803917 
3.240000000002413, -0.8935444900230383 
3.250000000002434, -0.8932838096571203 
3.260000000002455, -0.8932477830811456 
3.2700000000024763, -0.8934180075388 
3.2800000000024974, -0.8937567082195397 
3.2900000000025185, -0.8942151704628358 
3.3000000000025396, -0.8947428301608316 
3.3100000000025607, -0.8952941971964513 
3.3200000000025818, -0.8958322681087145 
3.330000000002603, -0.896328466939428 
3.340000000002624, -0.8967599214849606 
3.350000000002645, -0.8971056087602521 
3.360000000002666, -0.8973438436657611 
3.3700000000026873, -0.8974535095885969 
3.3800000000027084, -0.8974190958694159 
3.3900000000027295, -0.8972364641810111 
3.4000000000027506, -0.8969157553574844 
3.4100000000027717, -0.8964808284672712 
3.420000000002793, -0.8959677446521781 
3.430000000002814, -0.8954248780198848 
3.440000000002835, -0.8949146098202275 
3.450000000002856, -0.8945135790541062 
3.460000000002877, -0.8943073302659267 
3.4700000000028983, -0.8943774677269698 
3.4800000000029194, -0.8947846327783576 
3.4900000000029405, -0.895554865787946 
3.5000000000029616, -0.8966757540851296 
3.5100000000029827, -0.8981027469572451 
3.520000000003004, -0.8997704482169455 
3.530000000003025, -0.9016024680708208 
3.540000000003046, -0.9035160227060336 
3.550000000003067, -0.9054216615034767 
3.5600000000030882, -0.9072226177204568 
3.5700000000031094, -0.9088203336765508 
3.5800000000031305, -0.9101295562861373 
3.5900000000031516, -0.9110975697305795 
3.6000000000031727, -0.9117152045245447 
3.6100000000031938, -0.9120117793596003 
3.620000000003215, -0.9120386891207509 
3.630000000003236, -0.9118533356632907 
3.640000000003257, -0.9115118016237341 
3.650000000003278, -0.9110722059425168 
3.6600000000032993, -0.9106068722431608 
3.6700000000033204, -0.9102193120358144 
3.6800000000033415, -0.9100584321467933 
3.6900000000033626, -0.9103177582628875 
3.7000000000033837, -0.9112082974710474 
3.710000000003405, -0.9129068162843602 
3.720000000003426, -0.9155006918550225 
3.730000000003447, -0.918956167860166 
3.740000000003468, -0.9231199345610317 
3.750000000003489, -0.9277426872440879 
3.7600000000035103, -0.9325099908994018 
3.7700000000035314, -0.9370794328727825 
3.7800000000035525, -0.94113302879451 
3.7900000000035736, -0.9444418778127556 
3.8000000000035947, -0.9469141199155666 
3.810000000003616, -0.9485934330284593 
3.820000000003637, -0.9496095376596942 
3.830000000003658, -0.9501160364789933 
3.840000000003679, -0.950247875855062 
3.8500000000037002, -0.9501062800085357 
3.8600000000037213, -0.9497635687763462 
3.8700000000037424, -0.9492800368220227 
3.8800000000037635, -0.9487307459744663 
3.8900000000037847, -0.9482429739778329 
3.9000000000038058, -0.9480392672728986 
3.910000000003827, -0.9484638900063738 
3.920000000003848, -0.9499524892556541 
3.930000000003869, -0.9529165449920116 
3.94000000000389, -0.9575736609847988 
3.9500000000039113, -0.9638147088851567 
3.9600000000039324, -0.9711855212487969 
3.9700000000039535, -0.9789874162885391 
3.9800000000039746, -0.9864500120436045 
3.9900000000039957, -0.9929230808630898 
4.000000000004016, -0.9980275241745785 
4.010000000003993, -1.0017010081748894 
4.02000000000397, -1.0041218885070227 
4.030000000003946, -1.0055733901050568 
4.040000000003923, -1.0063308858963727 
4.0500000000039, -1.0066080122444265 
4.0600000000038765, -1.0065497050522416 
4.070000000003853, -1.0062482964538741 
4.08000000000383, -1.0057689545552129 
4.090000000003807, -1.0051831699207439 
4.100000000003783, -1.0046148269738289 
4.11000000000376, -1.0042968373907162 
4.120000000003737, -1.0046112575932056 
4.130000000003713, -1.0060540627211103 
4.14000000000369, -1.0090790041265234 
4.150000000003667, -1.0138730851096365 
4.1600000000036434, -1.0202130910124294 
4.17000000000362, -1.02750660767978 
4.180000000003597, -1.0349762739300972 
4.1900000000035735, -1.0418764975185406 
4.20000000000355, -1.047665297888197 
4.210000000003527, -1.0520934038790917 
4.220000000003504, -1.055191065207136 
4.23000000000348, -1.0571702886973189 
4.240000000003457, -1.058303392930831 
4.250000000003434, -1.058836293615908 
4.26000000000341, -1.058953585870425 
4.270000000003387, -1.0587807100387303 
4.280000000003364, -1.0584045489826743 
4.2900000000033405, -1.0579036211218564 
4.300000000003317, -1.0573865731196848 
4.310000000003294, -1.057033702600744 
4.320000000003271, -1.057117459159308 
4.330000000003247, -1.0579603541464555 
4.340000000003224, -1.0598156518139523 
4.350000000003201, -1.062736223418313 
4.360000000003177, -1.0665345056657842 
4.370000000003154, -1.0708572552564868 
4.380000000003131, -1.075302412064513 
4.390000000003107, -1.0795064221230397 
4.400000000003084, -1.0831890596632099 
4.410000000003061, -1.0861747565009805 
4.4200000000030375, -1.0884007354554464 
4.430000000003014, -1.0899059158079853 
4.440000000002991, -1.090797281128338 
4.450000000002968, -1.091206646749807 
4.460000000002944, -1.0912572844769892 
4.470000000002921, -1.0910505462024078 
4.480000000002898, -1.090671105151111 
4.490000000002874, -1.0902046845582523 
4.500000000002851, -1.089760131048941 
4.510000000002828, -1.0894819597280292 
4.520000000002804, -1.0895342570882187 
4.530000000002781, -1.0900496829480981 
4.540000000002758, -1.091072039415638 
4.5500000000027345, -1.092537740497462 
4.560000000002711, -1.0943079998906422 
4.570000000002688, -1.0962204500723023 
4.580000000002665, -1.0981267103923935 
4.590000000002641, -1.0999070959270085 
4.600000000002618, -1.1014708042263317 
4.610000000002595, -1.1027524453910833 
4.620000000002571, -1.103711314738443 
4.630000000002548, -1.1043335430676897 
4.640000000002525, -1.1046326756519005 
4.6500000000025015, -1.1046449290322902 
4.660000000002478, -1.1044207088111677 
4.670000000002455, -1.1040180384790292 
4.6800000000024315, -1.1035021461923535 
4.690000000002408, -1.1029499530810374 
4.700000000002385, -1.102452215458432 
4.710000000002362, -1.1021041036809736 
4.720000000002338, -1.1019823684696415 
4.730000000002315, -1.1021211747838353 
4.740000000002292, -1.1025031807089685 
4.750000000002268, -1.1030698400420853 
4.760000000002245, -1.1037413106261504 
4.770000000002222, -1.1044353572262584 
4.7800000000021985, -1.1050801246212976 
4.790000000002175, -1.1056198282583025 
4.800000000002152, -1.1060148931963245 
4.810000000002129, -1.106239265215054 
4.820000000002105, -1.1062773917166893 
4.830000000002082, -1.1061224940321899 
4.840000000002059, -1.1057766992014701 
4.850000000002035, -1.1052524720988974 
4.860000000002012, -1.104574345836396 
4.870000000001989, -1.1037805173663782 
4.880000000001965, -1.1029240479626634 
4.890000000001942, -1.1020719740017684 
4.900000000001919, -1.1012992702315807 
4.9100000000018955, -1.1006763997701825 
4.920000000001872, -1.1002535902461055 
4.930000000001849, -1.100047490685184 
