t, s[1].omega / s[0].omega 
0, -1.0399981653703072 
0.009999999999999995, -1.0397203110540127 
0.019999999999999934, -1.0392530187333142 
0.029999999999999874, -1.0386112545669817 
0.04000000000000012, -1.0378636466038191 
0.050000000000000405, -1.0371388364413807 
0.06000000000000069, -1.0365846589704362 
0.07000000000000098, -1.036303217514507 
0.08000000000000126, -1.0363057197317775 
0.09000000000000155, -1.0364937419654088 
0.10000000000000184, -1.0367003683751892 
0.11000000000000212, -1.03677580633781 
0.12000000000000241, -1.03663589561612 
0.130000000000002, -1.0362659525089235 
0.1400000000000009, -1.0356925186424366 
0.1499999999999998, -1.0349431749010274 
0.1599999999999987, -1.0340449125892734 
0.1699999999999976, -1.0330591552382695 
0.1799999999999965, -1.0321016498342022 
0.1899999999999954, -1.031318990725603 
0.1999999999999943, -1.030835892586485 
0.2099999999999932, -1.0306859923410525 
0.2199999999999921, -1.0307597274788185 
0.229999999999991, -1.0308596820510294 
0.2399999999999899, -1.0308090950037676 
0.2499999999999888, -1.0304988648558846 
0.2599999999999877, -1.0298983783783113 
0.2699999999999866, -1.0290461802426205 
0.2799999999999855, -1.0280020665120813 
0.2899999999999844, -1.0268160901165826 
0.2999999999999833, -1.0255528664824114 
0.3099999999999822, -1.0243249100987146 
0.3199999999999811, -1.0232898940529747 
0.32999999999998, -1.0226037208496583 
0.3399999999999789, -1.0223214779611123 
0.3499999999999778, -1.022317799841886 
0.35999999999997667, -1.022362236882213 
0.36999999999997557, -1.0222508757412303 
0.37999999999997447, -1.0218473753219683 
0.38999999999997337, -1.0210932047982009 
0.39999999999997227, -1.0200224717203632 
0.40999999999997117, -1.0187220173419962 
0.41999999999997006, -1.0172715192235846 
0.42999999999996896, -1.0157463759515424 
0.43999999999996786, -1.0142595649809691 
0.44999999999996676, -1.0129793635520592 
0.45999999999996566, -1.0120903211493308 
0.46999999999996456, -1.01167477288909 
0.47999999999996346, -1.0116062663301877 
0.48999999999996235, -1.0116298048702457 
0.49999999999996125, -1.0115167770001847 
0.5099999999999602, -1.0111077907160324 
0.519999999999959, -1.0103143854952028 
0.529999999999958, -1.0091501511131344 
0.5399999999999568, -1.007713290683988 
0.5499999999999557, -1.006109680791369 
0.5599999999999546, -1.004426541056967 
0.5699999999999535, -1.0027724854186753 
0.5799999999999524, -1.0013116581119401 
0.5899999999999513, -1.0002412357586317 
0.5999999999999502, -0.9996795344590762 
0.6099999999999491, -0.9995347151229378 
0.619999999999948, -0.9995521425321752 
0.6299999999999469, -0.9994833476375878 
0.6399999999999458, -0.999151816964539 
0.6499999999999447, -0.9984479166717971 
0.6599999999999436, -0.9973579304569813 
0.6699999999999425, -0.995969871550437 
0.6799999999999414, -0.9943997131477231 
0.6899999999999403, -0.9927391506056465 
0.6999999999999392, -0.9910831013731871 
0.7099999999999381, -0.9895722421145491 
0.719999999999937, -0.9883903495603176 
0.7299999999999359, -0.9876857818466259 
0.7399999999999348, -0.9874391397289977 
0.7499999999999337, -0.9874416704803552 
0.7599999999999326, -0.9874398801933225 
0.7699999999999315, -0.9872423469833426 
0.7799999999999304, -0.9867277307949742 
0.7899999999999293, -0.9858590625576439 
0.7999999999999282, -0.9846982247530992 
0.8099999999999271, -0.9833498080117596 
0.819999999999926, -0.9818976155100656 
0.8299999999999249, -0.9804157170982462 
0.8399999999999238, -0.979011671092011 
0.8499999999999227, -0.9778368031904 
0.8599999999999216, -0.9770429327348097 
0.8699999999999205, -0.9766855090973906 
0.8799999999999194, -0.976648444582446 
0.8899999999999183, -0.9767096360767641 
0.8999999999999172, -0.9766674576611821 
0.9099999999999161, -0.9763896157898392 
0.919999999999915, -0.9758216104434749 
0.9299999999999139, -0.9749946051349399 
0.9399999999999128, -0.9739865947315725 
0.9499999999999117, -0.9728622960213675 
0.9599999999999106, -0.9716714189633284 
0.9699999999999095, -0.9704895424675808 
0.9799999999999084, -0.9694364563564811 
0.9899999999999073, -0.9686490753523495 
0.9999999999999062, -0.9682213139669579 
1.0099999999999052, -0.9681331025317129 
1.019999999999904, -0.9682375061789991 
1.029999999999903, -0.9683453765625761 
1.039999999999902, -0.9683114514700084 
1.0499999999999008, -0.9680632933570484 
1.0599999999998997, -0.9676030230932455 
1.0699999999998986, -0.9669770978562992 
1.0799999999998975, -0.9662248854385431 
1.0899999999998964, -0.9653697947780028 
1.0999999999998953, -0.964457536368078 
1.1099999999998942, -0.963584206486241 
1.119999999999893, -0.9628792209217901 
1.129999999999892, -0.9624529308134898 
1.1399999999998909, -0.9623427265967057 
1.1499999999998898, -0.9624827457897236 
1.1599999999998887, -0.9627285864350631 
1.1699999999998876, -0.9629325112831474 
1.1799999999998865, -0.9630013885723964 
1.1899999999998854, -0.9629091672939508 
1.1999999999998843, -0.9626714308638704 
1.2099999999998832, -0.9623000325460647 
1.219999999999882, -0.9617903976478402 
1.229999999999881, -0.9611579308094532 
1.2399999999998799, -0.9604748064981601 
1.2499999999998788, -0.9598697679902509 
1.2599999999998777, -0.9594822311537733 
1.2699999999998766, -0.9593938996948529 
1.2799999999998755, -0.9595923311911643 
1.2899999999998744, -0.9599815427546788 
1.2999999999998733, -0.9604283352770052 
1.3099999999998722, -0.9608227144154772 
1.319999999999871, -0.9611098043998565 
1.32999999999987, -0.9612748918257413 
1.3399999999998689, -0.9613010000071119 
1.3499999999998678, -0.961152505173826 
1.3599999999998666, -0.9608127501126877 
1.3699999999998655, -0.9603273486987896 
1.3799999999998644, -0.9598146182474809 
1.3899999999998633, -0.959444919287198 
1.3999999999998622, -0.9593712925486657 
1.4099999999998611, -0.9596448986472196 
1.41999999999986, -0.9602030048103244 
1.429999999999859, -0.9609219848358151 
1.4399999999998578, -0.9616778515552675 
1.4499999999998567, -0.962386439993349 
1.4599999999998556, -0.9630012652811349 
1.4699999999998545, -0.9634738525991405 
1.4799999999998534, -0.963731584692523 
1.4899999999998523, -0.9637204056096077 
1.4999999999998512, -0.9634608353513727 
1.5099999999998501, -0.9630549741603712 
1.519999999999849, -0.9626777318777348 
1.529999999999848, -0.9625516449057726 
1.5399999999998468, -0.9628444043412434 
1.5499999999998457, -0.9635640793455357 
1.5599999999998446, -0.9645868882364855 
1.5699999999998435, -0.9657575823447332 
1.5799999999998424, -0.966953515553936 
1.5899999999998413, -0.9680912594472689 
1.5999999999998402, -0.9690869610850336 
1.6099999999998391, -0.9698239723574256 
1.619999999999838, -0.9702002812991735 
1.629999999999837, -0.9702107115375431 
1.6399999999998358, -0.969951102482629 
1.6499999999998347, -0.9695860176600082 
1.6599999999998336, -0.9693575366952939 
1.6699999999998325, -0.9695496343730952 
1.6799999999998314, -0.9703232722901594 
1.6899999999998303, -0.9716077174270219 
1.6999999999998292, -0.9732028722922588 
1.709999999999828, -0.9749208776408874 
1.719999999999827, -0.976626712367457 
1.729999999999826, -0.9781970194687966 
1.7399999999998248, -0.9794698443633773 
1.7499999999998237, -0.9802862578836246 
1.7599999999998226, -0.9806064725917012 
1.7699999999998215, -0.9805298903853412 
1.7799999999998204, -0.9802232706509386 
1.7899999999998193, -0.9799135850371614 
1.7999999999998182, -0.9799273794272569 
1.809999999999817, -0.9805845805827766 
1.819999999999816, -0.9819582931115405 
1.8299999999998149, -0.9838484462041521 
1.8399999999998138, -0.985987671734372 
1.8499999999998127, -0.9881710496759909 
1.8599999999998116, -0.9902346796026453 
1.8699999999998105, -0.9919852310274653 
1.8799999999998094, -0.9932156292244708 
1.8899999999998083, -0.993840159592668 
1.8999999999998072, -0.9939528227652401 
1.909999999999806, -0.9937336057400334 
1.919999999999805, -0.9933970729658791 
1.9299999999998039, -0.9932529995354297 
1.9399999999998028, -0.9936923330225137 
1.9499999999998017, -0.9949348693896006 
1.9599999999998006, -0.9968469120502125 
1.9699999999997995, -0.999118295677582 
1.9799999999997984, -1.0014838979923757 
1.9899999999997973, -1.0037523420570562 
1.9999999999997962, -1.0057302273126738 
2.0099999999998173, -1.0071989948951245 
2.0199999999998384, -1.0080307667890878 
2.0299999999998595, -1.0082872933033766 
2.0399999999998806, -1.0081463192383433 
2.0499999999999017, -1.0078162906085877 
2.059999999999923, -1.0075769761337927 
2.069999999999944, -1.0078090422090011 
2.079999999999965, -1.0087903698333642 
2.089999999999986, -1.0104553253418072 
2.100000000000007, -1.0125084128740804 
2.1100000000000283, -1.0146723594876597 
2.1200000000000494, -1.0167584688251123 
2.1300000000000705, -1.0186058224555181 
2.1400000000000916, -1.0200302920435453 
2.1500000000001127, -1.0208898045895007 
2.160000000000134, -1.0211950357555162 
2.170000000000155, -1.0210889930739908 
2.180000000000176, -1.0207641381983084 
2.190000000000197, -1.020472552255077 
2.2000000000002182, -1.02054921643978 
2.2100000000002393, -1.0212477121993913 
2.2200000000002604, -1.0225289960044022 
2.2300000000002815, -1.0241453346068274 
2.2400000000003026, -1.0258542732416958 
2.2500000000003237, -1.02749441351564 
2.260000000000345, -1.0289490604565197 
2.270000000000366, -1.0300915611399653 
2.280000000000387, -1.0307999923410323 
2.290000000000408, -1.0310439454445273 
2.3000000000004293, -1.0309128653305575 
2.3100000000004504, -1.0305678452140445 
2.3200000000004715, -1.0302321378009807 
2.3300000000004926, -1.0301856881622187 
2.3400000000005137, -1.0306241280437034 
2.3500000000005348, -1.0315111788087181 
2.360000000000556, -1.0326552260605981 
2.370000000000577, -1.0338630647124496 
2.380000000000598, -1.035001640156761 
2.390000000000619, -1.0359880725950268 
2.4000000000006403, -1.0367479908116257 
2.4100000000006614, -1.0371981501954386 
2.4200000000006825, -1.037294006178193 
2.4300000000007036, -1.0370785730904206 
2.4400000000007247, -1.0366755889577302 
2.450000000000746, -1.0362764054191884 
2.460000000000767, -1.0361076200980748 
2.470000000000788, -1.0363111639600366 
2.480000000000809, -1.0368562449802365 
2.49000000000083, -1.0376013028002664 
2.5000000000008513, -1.0383890207585684 
2.5100000000008724, -1.0390993279355754 
2.5200000000008935, -1.0396649283356993 
2.5300000000009146, -1.0400469045447922 
2.5400000000009357, -1.0402022071373194 
2.550000000000957, -1.040095213989112 
2.560000000000978, -1.039742776650897 
2.570000000000999, -1.0392363459229268 
2.58000000000102, -1.0387355579322064 
2.5900000000010412, -1.0384232460536644 
2.6000000000010624, -1.0384096440945603 
2.6100000000010835, -1.0386804177728621 
2.6200000000011046, -1.0391288402255876 
2.6300000000011257, -1.0396097071089807 
2.6400000000011468, -1.0399980009861995 
2.650000000001168, -1.0402256998571051 
2.660000000001189, -1.0402726112331604 
2.67000000000121, -1.0401298462455426 
2.680000000001231, -1.0397838370224906 
2.6900000000012523, -1.039244848921711 
2.7000000000012734, -1.038582300495878 
2.7100000000012945, -1.0379293325067724 
2.7200000000013156, -1.0374407885330779 
2.7300000000013367, -1.0372204457477774 
2.740000000001358, -1.037277399006063 
2.750000000001379, -1.0375204479892992 
2.7600000000014, -1.0377942629767067 
2.770000000001421, -1.0379554581955819 
2.780000000001442, -1.0379227002167672 
2.7900000000014633, -1.037679430098274 
2.8000000000014844, -1.037242711154425 
2.8100000000015055, -1.0366276890606339 
2.8200000000015266, -1.0358530402868322 
2.8300000000015477, -1.0349773533626834 
2.840000000001569, -1.034116399908642 
2.85000000000159, -1.0334151492016541 
2.860000000001611, -1.032991737044779 
2.870000000001632, -1.0328798289506518 
2.8800000000016532, -1.0329860022811437 
2.8900000000016743, -1.0331293587074164 
2.9000000000016954, -1.033140784686775 
2.9100000000017165, -1.032916551188341 
2.9200000000017377, -1.0324287850845424 
2.9300000000017588, -1.0317096973675703 
2.94000000000178, -1.0308059472085485 
2.950000000001801, -1.029756314185012 
2.960000000001822, -1.0286193627776241 
2.970000000001843, -1.0275035432428927 
2.9800000000018643, -1.026558829727222 
2.9900000000018854, -1.025930533514834 
3.0000000000019065, -1.0256759825660715 
3.0100000000019276, -1.0256898981765827 
3.0200000000019487, -1.0257592548660381 
3.03000000000197, -1.025687207460658 
3.040000000001991, -1.0253433452248177 
3.050000000002012, -1.0246752793233211 
3.060000000002033, -1.0237152704572192 
3.070000000002054, -1.0225386235029559 
3.0800000000020753, -1.0212124878527689 
3.0900000000020964, -1.0198045158436515 
3.1000000000021175, -1.018422383914528 
3.1100000000021386, -1.0172262594225658 
3.1200000000021597, -1.0163909263220718 
3.130000000002181, -1.0159999005423053 
3.140000000002202, -1.0159422750275868 
3.150000000002223, -1.0159769857384124 
3.160000000002244, -1.015881025938309 
3.1700000000022652, -1.015499192726527 
3.1800000000022863, -1.0147489349595136 
3.1900000000023074, -1.0136459071059112 
3.2000000000023285, -1.0122818167566812 
3.2100000000023496, -1.0107527250420878 
3.2200000000023707, -1.0091396018034815 
3.230000000002392, -1.007548541904993 
3.240000000002413, -1.006141304077432 
3.250000000002434, -1.0051113099369686 
3.260000000002455, -1.0045747695097997 
3.2700000000024763, -1.0044420618448313 
3.2800000000024974, -1.0044629514067018 
3.2900000000025185, -1.0043923123994634 
3.3000000000025396, -1.0040555787252687 
3.3100000000025607, -1.0033455054262383 
3.3200000000025818, -1.0022511919209272 
3.330000000002603, -1.0008606731085978 
3.340000000002624, -0.9992871232129137 
3.350000000002645, -0.9976209030549766 
3.360000000002666, -0.9959592446409047 
3.3700000000026873, -0.9944478138104508 
3.3800000000027084, -0.9932755514330444 
3.3900000000027295, -0.9925898962307176 
3.4000000000027506, -0.9923599982914288 
3.4100000000027717, -0.9923654072456967 
3.420000000002793, -0.9923500184502487 
3.430000000002814, -0.9921232412839085 
3.440000000002835, -0.9915632629161616 
3.450000000002856, -0.9906341924778277 
3.460000000002877, -0.9894022761629124 
3.4700000000028983, -0.9879770701656923 
3.4800000000029194, -0.9864471665529889 
3.4900000000029405, -0.9848929191377098 
3.5000000000029616, -0.9834304329803554 
3.5100000000029827, -0.9822212303749647 
3.520000000003004, -0.9814227218594782 
3.530000000003025, -0.9810783331691748 
3.540000000003046, -0.9810467684131318 
3.550000000003067, -0.981090716812136 
3.5600000000030882, -0.9810065494154334 
3.5700000000031094, -0.9806617031036362 
3.5800000000031305, -0.98000191415869 
3.5900000000031516, -0.9790639309530714 
3.6000000000031727, -0.9779353216524098 
3.6100000000031938, -0.9766902189190422 
3.620000000003215, -0.9753870621758268 
3.630000000003236, -0.9741100629716938 
3.640000000003257, -0.9729873599384375 
3.650000000003278, -0.9721628067610705 
3.6600000000032993, -0.9717275168629448 
3.6700000000033204, -0.9716395557194526 
3.6800000000033415, -0.9717259266570127 
3.6900000000033626, -0.9717867794004785 
3.7000000000033837, -0.9716765344367028 
3.710000000003405, -0.9713244351181831 
3.720000000003426, -0.9707383428807738 
3.730000000003447, -0.969975402460396 
3.740000000003468, -0.9690866129963726 
3.750000000003489, -0.9681056759357292 
3.7600000000035103, -0.9670869277945358 
3.7700000000035314, -0.966132083909998 
3.7800000000035525, -0.9653716639315622 
3.7900000000035736, -0.9649134334391343 
3.8000000000035947, -0.9647846105526248 
3.810000000003616, -0.9648981586160594 
3.820000000003637, -0.9650914691714104 
3.830000000003658, -0.9652120394217343 
3.840000000003679, -0.9651695702054395 
3.8500000000037002, -0.9649444747955056 
3.8600000000037213, -0.9645628223271362 
3.8700000000037424, -0.9640489126274971 
3.8800000000037635, -0.9634098165530068 
3.8900000000037847, -0.9626701704978587 
3.9000000000038058, -0.9619078859225025 
3.910000000003827, -0.9612503362684124 
3.920000000003848, -0.9608258834330612 
3.930000000003869, -0.9607026868054707 
3.94000000000389, -0.9608564031847222 
3.9500000000039113, -0.9611782952825246 
3.9600000000039324, -0.9615276253852967 
3.9700000000039535, -0.9617960401218352 
3.9800000000039746, -0.961935882494855 
3.9900000000039957, -0.9619431430234558 
4.000000000004016, -0.9618142318561523 
4.010000000003993, -0.9615273086446362 
4.02000000000397, -0.9610760575449695 
4.030000000003946, -0.9605117927232498 
4.040000000003923, -0.9599540895371419 
4.0500000000039, -0.959562298744644 
4.0600000000038765, -0.9594628765120222 
4.070000000003853, -0.9596836182137852 
4.08000000000383, -0.9601539711421568 
4.090000000003807, -0.9607503029109252 
4.100000000003783, -0.9613526063224967 
4.11000000000376, -0.9618850691186404 
4.120000000003737, -0.962312969608256 
4.130000000003713, -0.9626030250458689 
4.14000000000369, -0.9627000168199746 
4.150000000003667, -0.9625630107430904 
4.1600000000036434, -0.9622166658764744 
4.17000000000362, -0.9617635866003165 
4.180000000003597, -0.9613757544058784 
4.1900000000035735, -0.9612524184451038 
4.20000000000355, -0.96151695517421 
4.210000000003527, -0.9621485222121271 
4.220000000003504, -0.9630260556030946 
4.23000000000348, -0.9640094823825841 
4.240000000003457, -0.9649912297975382 
4.250000000003434, -0.9659027813972166 
4.26000000000341, -0.9666779302156244 
4.270000000003387, -0.9672215999442726 
4.280000000003364, -0.9674496249472972 
4.2900000000033405, -0.9673603645597462 
4.300000000003317, -0.9670442446299035 
4.310000000003294, -0.9666640651440614 
4.320000000003271, -0.9664551308224274 
4.330000000003247, -0.966662614211602 
4.340000000003224, -0.9673895229684885 
4.350000000003201, -0.9685427051524328 
4.360000000003177, -0.9699416058759818 
4.370000000003154, -0.9714266411360124 
4.380000000003131, -0.9728852273425461 
4.390000000003107, -0.974214083228936 
4.400000000003084, -0.9752742287120342 
4.410000000003061, -0.9759279035472862 
4.4200000000030375, -0.9761407299734943 
4.430000000003014, -0.9760021310785283 
4.440000000002991, -0.9756708191373273 
4.450000000002968, -0.9753741352669603 
4.460000000002944, -0.9754249942669745 
4.470000000002921, -0.9760924672683431 
4.480000000002898, -0.9774001332466794 
4.490000000002874, -0.9791489794847007 
4.500000000002851, -0.9811033585602653 
4.510000000002828, -0.9830869166864733 
4.520000000002804, -0.984955318435126 
4.530000000002781, -0.9865321798678416 
4.540000000002758, -0.9876268059753994 
4.5500000000027345, -0.988160595731772 
4.560000000002711, -0.9882204344144088 
4.570000000002688, -0.9879761661576145 
4.580000000002665, -0.9876405454390094 
4.590000000002641, -0.987524073972276 
4.600000000002618, -0.9879990540919735 
4.610000000002595, -0.98924970274957 
4.620000000002571, -0.9911290461477071 
4.630000000002548, -0.9933426417749204 
4.640000000002525, -0.9956444575207153 
4.6500000000025015, -0.9978532361755701 
4.660000000002478, -0.9997782020074794 
4.670000000002455, -1.0012017688041772 
4.6800000000024315, -1.0019991373547177 
4.690000000002408, -1.0022337499486942 
4.700000000002385, -1.002081568079441 
4.710000000002362, -1.0017499577941682 
4.720000000002338, -1.001521495632991 
4.730000000002315, -1.0017814119368977 
4.740000000002292, -1.0028097947391372 
4.750000000002268, -1.0045404597540277 
4.760000000002245, -1.0066755124474456 
4.770000000002222, -1.0089339084306936 
4.7800000000021985, -1.011120744536849 
4.790000000002175, -1.0130632942970246 
4.800000000002152, -1.0145620871605405 
4.810000000002129, -1.015467865353362 
4.820000000002105, -1.0157978340651106 
4.830000000002082, -1.0157049609963111 
4.840000000002059, -1.015386672270194 
4.850000000002035, -1.0150985809427318 
4.860000000002012, -1.0151905824454446 
4.870000000001989, -1.0159457710614876 
4.880000000001965, -1.0173418916439756 
4.890000000001942, -1.0191192654949035 
4.900000000001919, -1.0210145375123936 
4.9100000000018955, -1.0228498140398754 
4.920000000001872, -1.0244914617296388 
4.930000000001849, -1.0257914354057207 
