t, s[1].omega / s[0].omega 
0, -0.6000186887003162 
0.009999999999999995, -0.6019135236292689 
0.019999999999999934, -0.6037622359436068 
0.029999999999999874, -0.6054144968041222 
0.04000000000000012, -0.606752381814932 
0.050000000000000405, -0.6077224898977127 
0.06000000000000069, -0.6083341848474875 
0.07000000000000098, -0.6086333029362585 
0.08000000000000126, -0.6086732114931219 
0.09000000000000155, -0.6084959091767315 
0.10000000000000184, -0.6081233242984915 
0.11000000000000212, -0.6075537873535458 
0.12000000000000241, -0.6067588640693582 
0.130000000000002, -0.60567690528573 
0.1400000000000009, -0.6041994799890573 
0.1499999999999998, -0.6021444259325153 
0.1599999999999987, -0.5992051380521084 
0.1699999999999976, -0.5948683431483789 
0.1799999999999965, -0.5883371579638698 
0.1899999999999954, -0.5786423756341263 
0.1999999999999943, -0.5652605220293647 
0.2099999999999932, -0.5490876320225315 
0.2199999999999921, -0.5325512682268422 
0.229999999999991, -0.5182009834153523 
0.2399999999999899, -0.5073066371264047 
0.2499999999999888, -0.49979257479385364 
0.2599999999999877, -0.4949349731896757 
0.2699999999999866, -0.49193314799846294 
0.2799999999999855, -0.4901447698724978 
0.2899999999999844, -0.48911935235448845 
0.2999999999999833, -0.48856120444290163 
0.3099999999999822, -0.48828290710837957 
0.3199999999999811, -0.48816797850913185 
0.32999999999998, -0.48814497725222905 
0.3399999999999789, -0.488170852686087 
0.3499999999999778, -0.4882210007629973 
0.35999999999997667, -0.4882840713998329 
0.36999999999997557, -0.48835997670257303 
0.37999999999997447, -0.48845941044285573 
0.38999999999997337, -0.48860267971948523 
0.39999999999997227, -0.4888155320281407 
0.40999999999997117, -0.48912081164781657 
0.41999999999997006, -0.4895272094028753 
0.42999999999996896, -0.4900190871089906 
0.43999999999996786, -0.4905530844115244 
0.44999999999996676, -0.4910660498371827 
0.45999999999996566, -0.49149287032541056 
0.46999999999996456, -0.4917849709026824 
0.47999999999996346, -0.49191901801194005 
0.48999999999996235, -0.49189319127425757 
0.49999999999996125, -0.4917166251107088 
0.5099999999999602, -0.49139880453152845 
0.519999999999959, -0.4909419026102819 
0.529999999999958, -0.4903353945560093 
0.5399999999999568, -0.4895504651921092 
0.5499999999999557, -0.48853050415421373 
0.5599999999999546, -0.48717139326574166 
0.5699999999999535, -0.4852796542135495 
0.5799999999999524, -0.4824894842534902 
0.5899999999999513, -0.47813083057951317 
0.5999999999999502, -0.47113833033612096 
0.6099999999999491, -0.4603388766703003 
0.619999999999948, -0.4454811010661097 
0.6299999999999469, -0.4282758142510252 
0.6399999999999458, -0.4117178633897008 
0.6499999999999447, -0.3980919276570095 
0.6599999999999436, -0.38803750835261375 
0.6699999999999425, -0.38108283940260185 
0.6799999999999414, -0.37643007618083907 
0.6899999999999403, -0.3733659249676451 
0.6999999999999392, -0.37136651211246074 
0.7099999999999381, -0.37007799096568833 
0.719999999999937, -0.36927053228855666 
0.7299999999999359, -0.3687983219426348 
0.7399999999999348, -0.36857147527644984 
0.7499999999999337, -0.3685381204368102 
0.7599999999999326, -0.368673837175717 
0.7699999999999315, -0.3689762224887573 
0.7799999999999304, -0.36946300032920887 
0.7899999999999293, -0.3701723253574961 
0.7999999999999282, -0.37116355633789067 
0.8099999999999271, -0.37251561973035396 
0.819999999999926, -0.37431800628469625 
0.8299999999999249, -0.3766470268711329 
0.8399999999999238, -0.37952091580487013 
0.8499999999999227, -0.3828409802404891 
0.8599999999999216, -0.3863573643830843 
0.8699999999999205, -0.38971663170287346 
0.8799999999999194, -0.39259415688471466 
0.8899999999999183, -0.3948166234808903 
0.8999999999999172, -0.3963813300025697 
0.9099999999999161, -0.3973885358337169 
0.919999999999915, -0.3979633783339504 
0.9299999999999139, -0.3982103244334655 
0.9399999999999128, -0.398197999913507 
0.9499999999999117, -0.39795848474362167 
0.9599999999999106, -0.3974898933189287 
0.9699999999999095, -0.3967582144150543 
0.9799999999999084, -0.3956999038909995 
0.9899999999999073, -0.3942317155930814 
0.9999999999999062, -0.39227789416517866 
1.0099999999999052, -0.38981952338232745 
1.019999999999904, -0.38694686263189454 
1.029999999999903, -0.3838678404614218 
1.039999999999902, -0.38084388875397135 
1.0499999999999008, -0.3780929916269155 
1.0599999999998997, -0.3757313147716233 
1.0699999999998986, -0.3737770784979824 
1.0799999999998975, -0.3721878027326295 
1.0899999999998964, -0.37089769319550125 
1.0999999999998953, -0.36984184449892143 
1.1099999999998942, -0.36896801622523123 
1.119999999999893, -0.3682406975259497 
1.129999999999892, -0.3676416967516943 
1.1399999999998909, -0.36717024492277456 
1.1499999999998898, -0.36684464961809526 
1.1599999999998887, -0.36670709554271375 
1.1699999999998876, -0.3668333241441763 
1.1799999999998865, -0.3673495939960324 
1.1899999999998854, -0.3684601959180012 
1.1999999999998843, -0.3704885340044391 
1.2099999999998832, -0.3739287884920223 
1.219999999999882, -0.3794805415258442 
1.229999999999881, -0.38797097447706386 
1.2399999999998799, -0.3999605466252615 
1.2499999999998788, -0.41488869333588296 
1.2599999999998777, -0.4303673261132192 
1.2699999999998766, -0.44314134255897863 
1.2799999999998755, -0.45149019413283054 
1.2899999999998744, -0.45604132055550295 
1.2999999999998733, -0.45834122455055903 
1.3099999999998722, -0.45956932351458873 
1.319999999999871, -0.46032238041601736 
1.32999999999987, -0.46084252912765605 
1.3399999999998689, -0.46121823911871235 
1.3499999999998678, -0.4614823885526801 
1.3599999999998666, -0.46164905689957403 
1.3699999999998655, -0.4617249164516791 
1.3799999999998644, -0.46171213063187233 
1.3899999999998633, -0.46160931959410856 
1.3999999999998622, -0.46141315328692445 
1.4099999999998611, -0.4611217486896221 
1.41999999999986, -0.4607400371719949 
1.429999999999859, -0.4602855296071868 
1.4399999999998578, -0.45979087655889106 
1.4499999999998567, -0.4592995647135079 
1.4599999999998556, -0.45885472994225546 
1.4699999999998545, -0.4584859840511365 
1.4799999999998534, -0.4582006449639356 
1.4899999999998523, -0.45798298796518466 
1.4999999999998512, -0.4578011919881474 
1.5099999999998501, -0.4576185766566849 
1.519999999999849, -0.45740409713923064 
1.529999999999848, -0.4571380111856314 
1.5399999999998468, -0.4568120021489722 
1.5499999999998457, -0.45642613200209653 
1.5599999999998446, -0.45598568802473877 
1.5699999999998435, -0.45549991137889095 
1.5799999999998424, -0.4549834376337949 
1.5899999999998413, -0.4544607563648909 
1.5999999999998402, -0.4539735915122445 
1.6099999999998391, -0.45358911946795716 
1.619999999999838, -0.4533994164844672 
1.629999999999837, -0.4534816916637749 
1.6399999999998358, -0.45375038678365315 
1.6499999999998347, -0.45362649657954723 
1.6599999999998336, -0.45169133801921146 
1.6699999999998325, -0.4461130178556182 
1.6799999999998314, -0.43639920809048427 
1.6899999999998303, -0.4245610912178418 
1.6999999999998292, -0.4135388671442102 
1.709999999999828, -0.4050257449829197 
1.719999999999827, -0.3991770340892766 
1.729999999999826, -0.39542294925213584 
1.7399999999998248, -0.39310585085731337 
1.7499999999998237, -0.39171271192438506 
1.7599999999998226, -0.3908967902908872 
1.7699999999998215, -0.39043825985187 
1.7799999999998204, -0.3902021299997337 
1.7899999999998193, -0.3901073988678711 
1.7999999999998182, -0.3901072557403372 
1.809999999999817, -0.3901773931530868 
1.819999999999816, -0.390309827899159 
1.8299999999998149, -0.39051031213528 
1.8399999999998138, -0.39079767885840505 
1.8499999999998127, -0.39120324248579463 
1.8599999999998116, -0.3917679725046773 
1.8699999999998105, -0.3925350592392989 
1.8799999999998094, -0.39353614025131645 
1.8899999999998083, -0.39477165322145646 
1.8999999999998072, -0.3961911182253238 
1.909999999999806, -0.3976868626330369 
1.919999999999805, -0.3991153692630415 
1.9299999999998039, -0.400342585282607 
1.9399999999998028, -0.40128526918771457 
1.9499999999998017, -0.4019217876247537 
1.9599999999998006, -0.4022735184863101 
1.9699999999997995, -0.40237705686925984 
1.9799999999997984, -0.4022626206928826 
1.9899999999997973, -0.4019412963053159 
1.9999999999997962, -0.40139683112750246 
2.0099999999998173, -0.40057691662969247 
2.0199999999998384, -0.39938088985003295 
2.0299999999998595, -0.3976452469723565 
2.0399999999998806, -0.3951389892947628 
2.0499999999999017, -0.39160031455058236 
2.059999999999923, -0.3868568611081002 
2.069999999999944, -0.38101492012745053 
2.079999999999965, -0.3745618770767475 
2.089999999999986, -0.36820473226483313 
2.100000000000007, -0.3625408967283982 
2.1100000000000283, -0.35785732037727075 
2.1200000000000494, -0.3541610971258079 
2.1300000000000705, -0.35131242606014595 
2.1400000000000916, -0.34913444927311954 
2.1500000000001127, -0.3474688205038955 
2.160000000000134, -0.3461936283877733 
2.170000000000155, -0.34522395970570136 
2.180000000000176, -0.3445071247100906 
2.190000000000197, -0.34401802718530133 
2.2000000000002182, -0.3437569013803271 
2.2100000000002393, -0.34375044074509564 
2.2200000000002604, -0.34405721735907707 
2.2300000000002815, -0.34477871388338216 
2.2400000000003026, -0.346077890466464 
2.2500000000003237, -0.3482072339569723 
2.260000000000345, -0.35154537249458734 
2.270000000000366, -0.35662913291780424 
2.280000000000387, -0.364132854497669 
2.290000000000408, -0.3746792019577993 
2.3000000000004293, -0.3883341593685006 
2.3100000000004504, -0.403919400078032 
2.3200000000004715, -0.41898441587446617 
2.3300000000004926, -0.4311470878950666 
2.3400000000005137, -0.4395594963391517 
2.3500000000005348, -0.4448258066012202 
2.360000000000556, -0.44799037291265054 
2.370000000000577, -0.4498902371462411 
2.380000000000598, -0.45104424947861677 
2.390000000000619, -0.4517435471743724 
2.4000000000006403, -0.45214711499977256 
2.4100000000006614, -0.45234115388588386 
2.4200000000006825, -0.45237058553264503 
2.4300000000007036, -0.45225522013521313 
2.4400000000007247, -0.451998871187023 
2.450000000000746, -0.4515964701847232 
2.460000000000767, -0.45104236913005613 
2.470000000000788, -0.4503409119899745 
2.480000000000809, -0.44951673815503534 
2.49000000000083, -0.44861854806745755 
2.5000000000008513, -0.4477109260570697 
2.5100000000008724, -0.44685644888049164 
2.5200000000008935, -0.4460979367232463 
2.5300000000009146, -0.44544990755616276 
2.5400000000009357, -0.44490107879627583 
2.550000000000957, -0.4444240592775227 
2.560000000000978, -0.4439869501761202 
2.570000000000999, -0.44356259282219945 
2.58000000000102, -0.4431333704300295 
2.5900000000010412, -0.44269205273243345 
2.6000000000010624, -0.4422408831386779 
2.6100000000010835, -0.4417913121901636 
2.6200000000011046, -0.4413661779956636 
2.6300000000011257, -0.4410057279084857 
2.6400000000011468, -0.44077904208892393 
2.650000000001168, -0.44080275865701185 
2.660000000001189, -0.4412679806609231 
2.67000000000121, -0.4424694408178767 
2.680000000001231, -0.4448075794640687 
2.6900000000012523, -0.4486786037747475 
2.7000000000012734, -0.45410493088955606 
2.7100000000012945, -0.4601056007309672 
2.7200000000013156, -0.4645149108580527 
2.7300000000013367, -0.4653662018133133 
2.740000000001358, -0.4628181825804777 
2.750000000001379, -0.458826927345289 
2.7600000000014, -0.4551794639838169 
2.770000000001421, -0.4525800925996446 
2.780000000001442, -0.45098432699586455 
2.7900000000014633, -0.45010635033359014 
2.8000000000014844, -0.4496731845396605 
2.8100000000015055, -0.4494904234260659 
2.8200000000015266, -0.4494353441544409 
2.8300000000015477, -0.4494348260149909 
2.840000000001569, -0.44944637730455617 
2.85000000000159, -0.4494454776581195 
2.860000000001611, -0.44941839635962993 
2.870000000001632, -0.4493591916382476 
2.8800000000016532, -0.4492697671272997 
2.8900000000016743, -0.4491615972590191 
2.9000000000016954, -0.44905693267060426 
2.9100000000017165, -0.4489867970493832 
2.9200000000017377, -0.44898413710941953 
2.9300000000017588, -0.44907316331493713 
2.94000000000178, -0.44925854246935976 
2.950000000001801, -0.44951917636539973 
2.960000000001822, -0.4498105637264794 
2.970000000001843, -0.45007655423142445 
2.9800000000018643, -0.45026567290953856 
2.9900000000018854, -0.4503434041533364 
3.0000000000019065, -0.45029476017974757 
3.0100000000019276, -0.4501184873353249 
3.0200000000019487, -0.449818204848344 
3.03000000000197, -0.4493944933103845 
3.040000000001991, -0.44883872595347085 
3.050000000002012, -0.4481270008109453 
3.060000000002033, -0.4472108186034519 
3.070000000002054, -0.4459985616577734 
3.0800000000020753, -0.44431660195835726 
3.0900000000020964, -0.4418317845512928 
3.1000000000021175, -0.4379236275013397 
3.1100000000021386, -0.4315749359240605 
3.1200000000021597, -0.42158200361315823 
3.130000000002181, -0.4074935585909193 
3.140000000002202, -0.3907499773243378 
3.150000000002223, -0.37426439011560175 
3.160000000002244, -0.36045558243010384 
3.1700000000022652, -0.35012220654796433 
3.1800000000022863, -0.3428785174596825 
3.1900000000023074, -0.3379570130348346 
3.2000000000023285, -0.33465212189460264 
3.2100000000023496, -0.33244136246920986 
3.2200000000023707, -0.33097122744123114 
3.230000000002392, -0.3300125895869901 
3.240000000002413, -0.3294212062226637 
3.250000000002434, -0.3291100892824689 
3.260000000002455, -0.3290322164174835 
3.2700000000024763, -0.32917087941234335 
3.2800000000024974, -0.3295355966299476 
3.2900000000025185, -0.33016227315642255 
3.3000000000025396, -0.3311166519264378 
3.3100000000025607, -0.3324996964142294 
3.3200000000025818, -0.33445168821812643 
3.330000000002603, -0.33714722738921127 
3.340000000002624, -0.340765032646416 
3.350000000002645, -0.3454093695992306 
3.360000000002666, -0.35097711347923755 
3.3700000000026873, -0.3570404098717356 
3.3800000000027084, -0.3629041186002757 
3.3900000000027295, -0.36790120361888334 
3.4000000000027506, -0.3716963017337084 
3.4100000000027717, -0.3743270345603339 
3.420000000002793, -0.37603078527637174 
3.430000000002814, -0.37706988784380846 
3.440000000002835, -0.37765012761093225 
3.450000000002856, -0.37790791322753275 
3.460000000002877, -0.377922799775939 
3.4700000000028983, -0.37773263189516093 
3.4800000000029194, -0.3773450946527276 
3.4900000000029405, -0.3767467966927913 
3.5000000000029616, -0.3759137344308793 
3.5100000000029827, -0.3748272160383856 
3.520000000003004, -0.3734955997016234 
3.530000000003025, -0.3719733182399084 
3.540000000003046, -0.37036136045554063 
3.550000000003067, -0.3687813152963182 
3.5600000000030882, -0.3673369189180481 
3.5700000000031094, -0.3660876320152312 
3.5800000000031305, -0.3650453607278069 
3.5900000000031516, -0.36418737002642737 
3.6000000000031727, -0.3634735956622358 
3.6100000000031938, -0.3628611521962522 
3.620000000003215, -0.36231363873352007 
3.630000000003236, -0.36180538336510853 
3.640000000003257, -0.36132211765156746 
3.650000000003278, -0.3608601926527057 
3.6600000000032993, -0.3604263134344495 
3.6700000000033204, -0.3600392584917088 
3.6800000000033415, -0.35973466070997456 
3.6900000000033626, -0.3595736743660897 
3.7000000000033837, -0.3596553094211325 
3.710000000003405, -0.36012736942473556 
3.720000000003426, -0.36117438927461476 
3.730000000003447, -0.36291837276988326 
3.740000000003468, -0.3651047996141671 
3.750000000003489, -0.36652213087272145 
3.7600000000035103, -0.36475996897885654 
3.7700000000035314, -0.35772848596031104 
3.7800000000035525, -0.3462849394760043 
3.7900000000035736, -0.3339124965598294 
3.8000000000035947, -0.3235426995112807 
3.810000000003616, -0.31606495232989307 
3.820000000003637, -0.31108341453555843 
3.830000000003658, -0.3078843747096064 
3.840000000003679, -0.30586156801724396 
3.8500000000037002, -0.3045947773099916 
3.8600000000037213, -0.3038156271092545 
3.8700000000037424, -0.30335936546367515 
3.8800000000037635, -0.30312818846772493 
3.8900000000037847, -0.30306778337211454 
3.9000000000038058, -0.30315377604502786 
3.910000000003827, -0.30338494886642164 
3.920000000003848, -0.3037810630974357 
3.930000000003869, -0.30438372831172134 
3.94000000000389, -0.30525872155573064 
3.9500000000039113, -0.306497250551498 
3.9600000000039324, -0.3082114301889087 
3.9700000000039535, -0.3105153823588179 
3.9800000000039746, -0.3134803229739922 
3.9900000000039957, -0.3170605649253542 
4.000000000004016, -0.32102374077832263 
4.010000000003993, -0.3249651026946161 
4.02000000000397, -0.3284534431642198 
4.030000000003946, -0.33121502730639585 
4.040000000003923, -0.33320089882244314 
4.0500000000039, -0.3345168283815696 
4.0600000000038765, -0.33531738803840855 
4.070000000003853, -0.3357391543740041 
4.08000000000383, -0.33587817835679085 
4.090000000003807, -0.3357902789084325 
4.100000000003783, -0.3354978611628847 
4.11000000000376, -0.33499704134798786 
4.120000000003737, -0.3342653324972462 
4.130000000003713, -0.3332734359533417 
4.14000000000369, -0.33200479977364233 
4.150000000003667, -0.33048098944641524 
4.1600000000036434, -0.3287795844531609 
4.17000000000362, -0.3270258809105702 
4.180000000003597, -0.32535554150851326 
4.1900000000035735, -0.3238714915282134 
4.20000000000355, -0.32262198770776906 
4.210000000003527, -0.3216049312527095 
4.220000000003504, -0.3207857358356404 
4.23000000000348, -0.3201160180399221 
4.240000000003457, -0.3195475097493628 
4.250000000003434, -0.3190402312433413 
4.26000000000341, -0.31856566344608706 
4.270000000003387, -0.3181064702076386 
4.280000000003364, -0.31765470707305193 
4.2900000000033405, -0.31721017663755674 
4.300000000003317, -0.3167798524578615 
4.310000000003294, -0.31637837603583857 
4.320000000003271, -0.3160281254385083 
4.330000000003247, -0.31575339967342114 
4.340000000003224, -0.3155522449169138 
4.350000000003201, -0.31530366168572865 
4.360000000003177, -0.3145323344166707 
4.370000000003154, -0.31200840947286024 
4.380000000003131, -0.30562032636189274 
4.390000000003107, -0.2936782525261232 
4.400000000003084, -0.27737989006791836 
4.410000000003061, -0.26068096926453316 
4.4200000000030375, -0.24691646371851106 
4.430000000003014, -0.23700146076931028 
4.440000000002991, -0.23032207498947704 
4.450000000002968, -0.22592823721405786 
4.460000000002944, -0.22304272802569658 
4.470000000002921, -0.2211377875812064 
4.480000000002898, -0.21988077614933074 
4.490000000002874, -0.21906999894019719 
4.500000000002851, -0.2185886533504803 
4.510000000002828, -0.2183768373951635 
4.520000000002804, -0.21841685208079786 
4.530000000002781, -0.21872818701556812 
4.540000000002758, -0.21937055586489076 
4.5500000000027345, -0.22045504752155648 
4.560000000002711, -0.2221644688121401 
4.570000000002688, -0.22478287768322502 
4.580000000002665, -0.22872636167720603 
4.590000000002641, -0.2345405375928858 
4.600000000002618, -0.24277120051573334 
4.610000000002595, -0.2535653625721982 
4.620000000002571, -0.2660579951328119 
4.630000000002548, -0.27824334596043404 
4.640000000002525, -0.28806994724784174 
4.6500000000025015, -0.294770999058845 
4.660000000002478, -0.29885205690947936 
4.670000000002455, -0.30121029098694363 
4.6800000000024315, -0.30256097026599504 
4.690000000002408, -0.30334029594310413 
4.700000000002385, -0.3037866637956526 
4.710000000002362, -0.3040259364189682 
4.720000000002338, -0.3041244572341248 
4.730000000002315, -0.304117503068171 
4.740000000002292, -0.30402453603460955 
4.750000000002268, -0.303858577079604 
4.760000000002245, -0.30363347621636166 
4.770000000002222, -0.30337022174686323 
4.7800000000021985, -0.30310121888059693 
4.790000000002175, -0.30287020597572023 
4.800000000002152, -0.30272632813625006 
4.810000000002129, -0.30271354687232743 
4.820000000002105, -0.3028585839723289 
4.830000000002082, -0.30316063930842774 
4.840000000002059, -0.303586089554902 
4.850000000002035, -0.30407227017876276 
4.860000000002012, -0.3045425269737562 
