t, s[1].omega / s[0].omega 
0, -0.39999779139451364 
0.009999999999999995, -0.39990431734752885 
0.019999999999999934, -0.40003721261292124 
0.029999999999999874, -0.4003242020216625 
0.04000000000000012, -0.4006633565028901 
0.050000000000000405, -0.400950765973253 
0.06000000000000069, -0.4011072694125345 
0.07000000000000098, -0.4010894634893843 
0.08000000000000126, -0.4008823895822976 
0.09000000000000155, -0.40048321580029533 
0.10000000000000184, -0.39988518667634676 
0.11000000000000212, -0.39906394520176314 
0.12000000000000241, -0.39796092495963276 
0.130000000000002, -0.39644839155827877 
0.1400000000000009, -0.3942315761752725 
0.1499999999999998, -0.39054495708989284 
0.1599999999999987, -0.3831947730389961 
0.1699999999999976, -0.3658678872582962 
0.1799999999999965, -0.32363127278365644 
0.1899999999999954, -0.23948668425428782 
0.1999999999999943, -0.13189261778893266 
0.2099999999999932, -0.04905418939989094 
0.2199999999999921, -0.0031331246758557266 
0.229999999999991, 0.019476579526230116 
0.2399999999999899, 0.030818420793812685 
0.2499999999999888, 0.036789418416363566 
0.2599999999999877, 0.04006541477405948 
0.2699999999999866, 0.04189735115571604 
0.2799999999999855, 0.04289835847740171 
0.2899999999999844, 0.043379005970252744 
0.2999999999999833, 0.043492189324530535 
0.3099999999999822, 0.04329536385746683 
0.3199999999999811, 0.04277241057805683 
0.32999999999998, 0.04183123017501956 
0.3399999999999789, 0.04028757923686786 
0.3499999999999778, 0.03787722228277586 
0.35999999999997667, 0.03452667032743369 
0.36999999999997557, 0.0319253941999265 
0.37999999999997447, 0.03934693465505128 
0.38999999999997337, 0.08019600305706684 
0.39999999999997227, 0.15895073675878582 
0.40999999999997117, 0.2275508249979254 
0.41999999999997006, 0.26388132969549283 
0.42999999999996896, 0.28031695696670045 
0.43999999999996786, 0.28783337355603933 
0.44999999999996676, 0.2914260880138183 
0.45999999999996566, 0.2931764400164173 
0.46999999999996456, 0.2939968984851568 
0.47999999999996346, 0.29432860582926196 
0.48999999999996235, 0.29441375426042893 
0.49999999999996125, 0.2944082841144024 
0.5099999999999602, 0.2944355935216105 
0.519999999999959, 0.29462126743980727 
0.529999999999958, 0.2951244030166219 
0.5399999999999568, 0.29616406569340215 
0.5499999999999557, 0.2980128365834783 
0.5599999999999546, 0.30089478168022976 
0.5699999999999535, 0.3047561076723471 
0.5799999999999524, 0.3090846524558894 
0.5899999999999513, 0.3130985033882868 
0.5999999999999502, 0.31620719217257987 
0.6099999999999491, 0.31823441675645003 
0.619999999999948, 0.31927614561432677 
0.6299999999999469, 0.31947942531106804 
0.6399999999999458, 0.3189204237021018 
0.6499999999999447, 0.31757993113992533 
0.6599999999999436, 0.31538923572231076 
0.6699999999999425, 0.3123478056365765 
0.6799999999999414, 0.30867938893546537 
0.6899999999999403, 0.3048762317421963 
0.6999999999999392, 0.30149503904774405 
0.7099999999999381, 0.2988669671065206 
0.719999999999937, 0.2970161202543933 
0.7299999999999359, 0.2957871841377327 
0.7399999999999348, 0.2949884211149824 
0.7499999999999337, 0.29445644577853847 
0.7599999999999326, 0.2940616259214486 
0.7699999999999315, 0.293690517882972 
0.7799999999999304, 0.2932228245350376 
0.7899999999999293, 0.29250293114354575 
0.7999999999999282, 0.2912913920857839 
0.8099999999999271, 0.2891590153680744 
0.819999999999926, 0.28523319101644257 
0.8299999999999249, 0.2775746397634427 
0.8399999999999238, 0.26174674814262466 
0.8499999999999227, 0.2288683346687149 
0.8599999999999216, 0.1711437932461149 
0.8699999999999205, 0.10794133070288006 
0.8799999999999194, 0.0737454991332454 
0.8899999999999183, 0.06527870437683438 
0.8999999999999172, 0.065590570823584 
0.9099999999999161, 0.06723132685455681 
0.919999999999915, 0.06848145412108361 
0.9299999999999139, 0.06918598520834482 
0.9399999999999128, 0.06945857960693728 
0.9499999999999117, 0.06939979877247367 
0.9599999999999106, 0.06905330407993808 
0.9699999999999095, 0.06840119202924262 
0.9799999999999084, 0.06735215531810376 
0.9899999999999073, 0.06570456889275238 
0.9999999999999062, 0.06305800155702838 
1.0099999999999052, 0.058608624253793075 
1.019999999999904, 0.050664526189131996 
1.029999999999903, 0.035486000432983236 
1.039999999999902, 0.004794423473365307 
1.0499999999999008, -0.05630202248204941 
1.0599999999998997, -0.15798804323488505 
1.0699999999998986, -0.26649277457441306 
1.0799999999998975, -0.3333845020679115 
1.0899999999998964, -0.3613512425007605 
1.0999999999998953, -0.37165436513564165 
1.1099999999998942, -0.37579537239887556 
1.119999999999893, -0.3778143436792817 
1.129999999999892, -0.3789853914219485 
1.1399999999998909, -0.37972772770482954 
1.1499999999998898, -0.38019773728978273 
1.1599999999998887, -0.38046229265875814 
1.1699999999998876, -0.38055140107401264 
1.1799999999998865, -0.3804770873453692 
1.1899999999998854, -0.3802444054907689 
1.1999999999998843, -0.37986306378075385 
1.2099999999998832, -0.3793610450537928 
1.219999999999882, -0.37879550476147583 
1.229999999999881, -0.3782524337797554 
1.2399999999998799, -0.3778309328610131 
1.2499999999998788, -0.37761880260198033 
1.2599999999998777, -0.3776708187398182 
1.2699999999998766, -0.3779945097453742 
1.2799999999998755, -0.37854275436255436 
1.2899999999998744, -0.3792170793112385 
1.2999999999998733, -0.3798895820968474 
1.3099999999998722, -0.38043998063264145 
1.319999999999871, -0.3807867003612498 
1.32999999999987, -0.38089312816585486 
1.3399999999998689, -0.38075105876426146 
1.3499999999998678, -0.38035587483170485 
1.3599999999998666, -0.3796824848076049 
1.3699999999998655, -0.37865886205472854 
1.3799999999998644, -0.37712163511740865 
1.3899999999998633, -0.3747174583182842 
1.3999999999998622, -0.37066294488227813 
1.4099999999998611, -0.36316678829693444 
1.41999999999986, -0.3482559772579238 
1.429999999999859, -0.3187497037883166 
1.4399999999998578, -0.26848192700794304 
1.4499999999998567, -0.20550919216317598 
1.4599999999998556, -0.15075821785240112 
1.4699999999998545, -0.11460130530815578 
1.4799999999998534, -0.09358356611428176 
1.4899999999998523, -0.08163184646260882 
1.4999999999998512, -0.07465042079223438 
1.5099999999998501, -0.07039695197383747 
1.519999999999849, -0.06769400533861407 
1.529999999999848, -0.06591637448589385 
1.5399999999998468, -0.06472682457230271 
1.5499999999998457, -0.06394737189089691 
1.5599999999998446, -0.06349886692389038 
1.5699999999998435, -0.06337786153654922 
1.5799999999998424, -0.06366028043810548 
1.5899999999998413, -0.06453521015626437 
1.5999999999998402, -0.06638638966570436 
1.6099999999998391, -0.06995409791957655 
1.619999999999838, -0.07657956390287053 
1.629999999999837, -0.08810831703596761 
1.6399999999998358, -0.10343911887778175 
1.6499999999998347, -0.10119860435412331 
1.6599999999998336, -0.021345560997671438 
1.6699999999998325, 0.12582651717018503 
1.6799999999998314, 0.2263647211555473 
1.6899999999998303, 0.2693710295263601 
1.6999999999998292, 0.2867476597412695 
1.709999999999828, 0.2943205728255959 
1.719999999999827, 0.2978844609761255 
1.729999999999826, 0.2996307096567606 
1.7399999999998248, 0.30047512205029747 
1.7499999999998237, 0.30084557085097174 
1.7599999999998226, 0.30096939955400437 
1.7699999999998215, 0.3009944692615958 
1.7799999999998204, 0.3010588730331533 
1.7899999999998193, 0.30136054029199444 
1.7999999999998182, 0.30225979708411777 
1.809999999999817, 0.3044140466961013 
1.819999999999816, 0.30878710102170703 
1.8299999999998149, 0.3160768837969206 
1.8399999999998138, 0.32550303459984475 
1.8499999999998127, 0.33471354104223827 
1.8599999999998116, 0.3417487057146973 
1.8699999999998105, 0.34624435172461365 
1.8799999999998094, 0.34875678337664495 
1.8899999999998083, 0.34991696473426553 
1.8999999999998072, 0.3501420878881586 
1.909999999999806, 0.3496491226481212 
1.919999999999805, 0.3485423760179748 
1.9299999999998039, 0.3469093432195277 
1.9399999999998028, 0.3449023142981793 
1.9499999999998017, 0.34276359401595324 
1.9599999999998006, 0.34076390997678063 
1.9699999999997995, 0.339101558739137 
1.9799999999997984, 0.3378516317765709 
1.9899999999997973, 0.33698916832975456 
1.9999999999997962, 0.3364394901416829 
2.0099999999998173, 0.33611297737777884 
2.0199999999998384, 0.3359161528260581 
2.0299999999998595, 0.33574859798880985 
2.0399999999998806, 0.33549420418297515 
2.0499999999999017, 0.33500619655312414 
2.059999999999923, 0.3340729184750662 
2.069999999999944, 0.3323331643680335 
2.079999999999965, 0.3290712070709335 
2.089999999999986, 0.3227292459315855 
2.100000000000007, 0.309847949447673 
2.1100000000000283, 0.28379175186556205 
2.1200000000000494, 0.23904004020512531 
2.1300000000000705, 0.18960291621748418 
2.1400000000000916, 0.16146053563669957 
2.1500000000001127, 0.15377534703740176 
2.160000000000134, 0.1537002274179156 
2.170000000000155, 0.1549843567553142 
2.180000000000176, 0.15602685055921967 
2.190000000000197, 0.1566164746714938 
2.2000000000002182, 0.15681186773608835 
2.2100000000002393, 0.1566722800557604 
2.2200000000002604, 0.15620205422225092 
2.2300000000002815, 0.15532945762894085 
2.2400000000003026, 0.15386741207341129 
2.2500000000003237, 0.15141678755202298 
2.260000000000345, 0.1471272218331448 
2.270000000000366, 0.1390780816478876 
2.280000000000387, 0.12259255512435722 
2.290000000000408, 0.08577336721883286 
2.3000000000004293, 0.0021219386316591905 
2.3100000000004504, -0.14937870610498755 
2.3200000000004715, -0.3006067506629865 
2.3300000000004926, -0.37013636188377635 
2.3400000000005137, -0.3848462711003974 
2.3500000000005348, -0.3842526855998751 
2.360000000000556, -0.38215247189771523 
2.370000000000577, -0.38095179587666606 
2.380000000000598, -0.38051867949334034 
2.390000000000619, -0.3804855631979772 
2.4000000000006403, -0.3806109960507112 
2.4100000000006614, -0.3807660511171232 
2.4200000000006825, -0.38088588960616526 
2.4300000000007036, -0.38093790120962756 
2.4400000000007247, -0.3809061528857497 
2.450000000000746, -0.3807870936090288 
2.460000000000767, -0.3805927896902146 
2.470000000000788, -0.38035763628551866 
2.480000000000809, -0.38014245705313576 
2.49000000000083, -0.38002978407031923 
2.5000000000008513, -0.38010899335634546 
2.5100000000008724, -0.3804560177902909 
2.5200000000008935, -0.3811124021808293 
2.5300000000009146, -0.38206492006429454 
2.5400000000009357, -0.38323066017920276 
2.550000000000957, -0.38446312955964745 
2.560000000000978, -0.38559171994046737 
2.570000000000999, -0.38647774774586097 
2.58000000000102, -0.3870481897916516 
2.5900000000010412, -0.38728833179082944 
2.6000000000010624, -0.3872092955268459 
2.6100000000010835, -0.38681337489828743 
2.6200000000011046, -0.38606401611755725 
2.6300000000011257, -0.3848506383366772 
2.6400000000011468, -0.3829250067218277 
2.650000000001168, -0.3797643499587135 
2.660000000001189, -0.3742778442143018 
2.67000000000121, -0.3642668519645179 
2.680000000001231, -0.34591937304305914 
2.6900000000012523, -0.3151572004806229 
2.7000000000012734, -0.27331024373793056 
2.7100000000012945, -0.2306346599761399 
2.7200000000013156, -0.197292990818667 
2.7300000000013367, -0.17527862247630213 
2.740000000001358, -0.1617006934374244 
2.750000000001379, -0.15337188864767973 
2.7600000000014, -0.148142726396135 
2.770000000001421, -0.144751357213459 
2.780000000001442, -0.1424816787233561 
2.7900000000014633, -0.14092828490767895 
2.8000000000014844, -0.13986474598316617 
2.8100000000015055, -0.13917516150088127 
2.8200000000015266, -0.13882256325421816 
2.8300000000015477, -0.13884247246106077 
2.840000000001569, -0.13936134407282358 
2.85000000000159, -0.14065234497934154 
2.860000000001611, -0.1432633420696887 
2.870000000001632, -0.14829963032457888 
2.8800000000016532, -0.15803766322743573 
2.8900000000016743, -0.1771198855518184 
2.9000000000016954, -0.21375179174742862 
2.9100000000017165, -0.27404800143917385 
2.9200000000017377, -0.32945043996198187 
2.9300000000017588, -0.28962388323033306 
2.94000000000178, -0.133303584410846 
2.950000000001801, 0.00823132134627996 
2.960000000001822, 0.07921335053518694 
2.970000000001843, 0.10981012906102652 
2.9800000000018643, 0.12350678219065858 
2.9900000000018854, 0.13010934874992974 
3.0000000000019065, 0.13346765980061334 
3.0100000000019276, 0.1351804016177421 
3.0200000000019487, 0.13595268742586328 
3.03000000000197, 0.13609422460313317 
3.040000000001991, 0.13570482417906665 
3.050000000002012, 0.13472855080880092 
3.060000000002033, 0.1329262522017422 
3.070000000002054, 0.12975184747370205 
3.0800000000020753, 0.12406312457976712 
3.0900000000020964, 0.11361667865017615 
3.1000000000021175, 0.09523293113191199 
3.1100000000021386, 0.07316152802396655 
3.1200000000021597, 0.09385554209800358 
3.130000000002181, 0.21329455722261098 
3.140000000002202, 0.3288044603934704 
3.150000000002223, 0.3805230856668916 
3.160000000002244, 0.4001262039326793 
3.1700000000022652, 0.40807024027143324 
3.1800000000022863, 0.4115729902655046 
3.1900000000023074, 0.4131776092290945 
3.2000000000023285, 0.41388558708663387 
3.2100000000023496, 0.4141497264160604 
3.2200000000023707, 0.41421235659974354 
3.230000000002392, 0.41423583307989037 
3.240000000002413, 0.41436385792333474 
3.250000000002434, 0.41475888914567915 
3.260000000002455, 0.41562245118842406 
3.2700000000024763, 0.41717419525995253 
3.2800000000024974, 0.41954577865431586 
3.2900000000025185, 0.42260332797470934 
3.3000000000025396, 0.42587619452316694 
3.3100000000025607, 0.4287719491207317 
3.3200000000025818, 0.43089667787071867 
3.330000000002603, 0.43214547294604994 
3.340000000002624, 0.43256263551035473 
3.350000000002645, 0.4321705043058658 
3.360000000002666, 0.4308558691308616 
3.3700000000026873, 0.42830543814106503 
3.3800000000027084, 0.4240255708969613 
3.3900000000027295, 0.4176300112488581 
3.4000000000027506, 0.4095518814206266 
3.4100000000027717, 0.4014829934790389 
3.420000000002793, 0.39528108597693545 
3.430000000002814, 0.39147662199589134 
3.440000000002835, 0.38945505355230503 
3.450000000002856, 0.3884215061318049 
3.460000000002877, 0.3878339766034206 
3.4700000000028983, 0.3873859712929003 
3.4800000000029194, 0.3868914638383075 
3.4900000000029405, 0.38618995496723424 
3.5000000000029616, 0.3850624051571134 
3.5100000000029827, 0.3831042221204901 
3.520000000003004, 0.3794290381130915 
3.530000000003025, 0.3718181854892602 
3.540000000003046, 0.35397045649097464 
3.550000000003067, 0.3066342247836341 
3.5600000000030882, 0.1851565561088553 
3.5700000000031094, 0.013539882945065435 
3.5800000000031305, -0.027246580728286236 
3.5900000000031516, 0.02523440259143775 
3.6000000000031727, 0.06854597217824449 
3.6100000000031938, 0.09099897435103975 
3.620000000003215, 0.10195406630239083 
3.630000000003236, 0.10744824059429885 
3.640000000003257, 0.11026868763200932 
3.650000000003278, 0.11166654133960678 
3.6600000000032993, 0.11221055974799363 
3.6700000000033204, 0.11214201609428062 
3.6800000000033415, 0.11151018795417703 
3.6900000000033626, 0.11019880176106558 
3.7000000000033837, 0.10786362374337619 
3.710000000003405, 0.10372660717501239 
3.720000000003426, 0.09603062621854519 
3.730000000003447, 0.08058653108656041 
3.740000000003468, 0.047031277381034645 
3.750000000003489, -0.02729290823149868 
3.7600000000035103, -0.161396313952832 
3.7700000000035314, -0.278835736915528 
3.7800000000035525, -0.25634272770115846 
3.7900000000035736, -0.1515325831959034 
3.8000000000035947, -0.07078199901992187 
3.810000000003616, -0.028806054756591887 
3.820000000003637, -0.008503020300987612 
3.830000000003658, 0.0016153887350708732 
3.840000000003679, 0.006645780545411935 
3.8500000000037002, 0.009288620179061317 
3.8600000000037213, 0.010619808652117391 
3.8700000000037424, 0.01114314707860856 
3.8800000000037635, 0.011081504999775324 
3.8900000000037847, 0.01049174971617116 
3.9000000000038058, 0.009293710993199162 
3.910000000003827, 0.007235088714337165 
3.920000000003848, 0.0037670857772378096 
3.930000000003869, -0.002131621480108885 
3.94000000000389, -0.012837076564979852 
3.9500000000039113, -0.03452398730513331 
3.9600000000039324, -0.08086799922187216 
3.9700000000039535, -0.1782175517067877 
3.9800000000039746, -0.3431920801059027 
3.9900000000039957, -0.5189289162213231 
4.000000000004016, -0.6328607602915571 
4.010000000003993, -0.6895810076112684 
4.02000000000397, -0.7174630128925956 
4.030000000003946, -0.7323707898573462 
4.040000000003923, -0.7408697799169125 
4.0500000000039, -0.7458459693918618 
4.0600000000038765, -0.7487604569210302 
4.070000000003853, -0.7504151755805921 
4.08000000000383, -0.751254150850886 
4.090000000003807, -0.7515052058884141 
4.100000000003783, -0.7512473480090291 
4.11000000000376, -0.7504316475086364 
4.120000000003737, -0.7488661595638139 
4.130000000003713, -0.7461746520878092 
4.14000000000369, -0.7417632881174236 
4.150000000003667, -0.734893241360109 
4.1600000000036434, -0.7250060192947191 
4.17000000000362, -0.7122653700878872 
4.180000000003597, -0.6978200196554211 
4.1900000000035735, -0.6833193289083052 
4.20000000000355, -0.6701016537474533 
4.210000000003527, -0.6588172838533128 
4.220000000003504, -0.6495627588084018 
4.23000000000348, -0.6421598032293682 
4.240000000003457, -0.6363507781102735 
4.250000000003434, -0.631886874694511 
4.26000000000341, -0.6285521286496858 
4.270000000003387, -0.6261607611890743 
4.280000000003364, -0.6245483674797333 
4.2900000000033405, -0.6235656927537726 
4.300000000003317, -0.6230771587698978 
4.310000000003294, -0.6229629749843534 
4.320000000003271, -0.6231225652452508 
4.330000000003247, -0.6234775341189556 
4.340000000003224, -0.6239736179024312 
4.350000000003201, -0.6245819063025285 
4.360000000003177, -0.6252992016371051 
4.370000000003154, -0.6261457180050607 
4.380000000003131, -0.6271567892656019 
4.390000000003107, -0.6283658163379513 
4.400000000003084, -0.6297791098196401 
4.410000000003061, -0.6313493903895502 
4.4200000000030375, -0.6329630538308024 
4.430000000003014, -0.6344595923912847 
4.440000000002991, -0.6356840402888746 
4.450000000002968, -0.6365405415923897 
4.460000000002944, -0.6370092501630291 
4.470000000002921, -0.6371240352707581 
4.480000000002898, -0.6369387317555808 
4.490000000002874, -0.6365058678368708 
4.500000000002851, -0.6358754938910137 
4.510000000002828, -0.6351162044628322 
4.520000000002804, -0.6343686319146874 
4.530000000002781, -0.6339616492677063 
4.540000000002758, -0.6346579815865059 
4.5500000000027345, -0.6381598875401052 
4.560000000002711, -0.6480973869365687 
4.570000000002688, -0.6717361789341186 
4.580000000002665, -0.7219786350937785 
4.590000000002641, -0.8160236606046508 
4.600000000002618, -0.9610116726763718 
4.610000000002595, -1.1278003999223603 
4.620000000002571, -1.261838865778578 
4.630000000002548, -1.340237331309115 
4.640000000002525, -1.3779926302027357 
4.6500000000025015, -1.3947555104760971 
4.660000000002478, -1.402026870373544 
4.670000000002455, -1.4051008230468123 
4.6800000000024315, -1.406236430987521 
4.690000000002408, -1.4063862587217293 
4.700000000002385, -1.405980831010878 
4.710000000002362, -1.4053292302288718 
4.720000000002338, -1.4048947090128736 
4.730000000002315, -1.4053522380661814 
4.740000000002292, -1.4071569925185714 
4.750000000002268, -1.4100442478581905 
4.760000000002245, -1.4132899775228172 
4.770000000002222, -1.4163129585021423 
4.7800000000021985, -1.4188526037922977 
4.790000000002175, -1.420841027935771 
4.800000000002152, -1.4222814752428259 
4.810000000002129, -1.4231966600238042 
4.820000000002105, -1.423611618343632 
4.830000000002082, -1.4235488758556782 
4.840000000002059, -1.423029732250208 
4.850000000002035, -1.422079017230446 
4.860000000002012, -1.4207315873526196 
4.870000000001989, -1.4190390518845206 
4.880000000001965, -1.4170767842318335 
4.890000000001942, -1.4149662169784585 
4.900000000001919, -1.4129311423064812 
