t, s[1].omega / s[0].omega 
0, -1.0699971729161495 
0.009999999999999995, -1.0696100652247387 
0.019999999999999934, -1.0690153191312872 
0.029999999999999874, -1.0682125385435495 
0.04000000000000012, -1.067207873139559 
0.050000000000000405, -1.066020736862445 
0.06000000000000069, -1.0646886497209491 
0.07000000000000098, -1.0632688527868217 
0.08000000000000126, -1.0618357262120837 
0.09000000000000155, -1.0604734309791293 
0.10000000000000184, -1.0592651936811603 
0.11000000000000212, -1.0582828680785668 
0.12000000000000241, -1.0575790948646853 
0.130000000000002, -1.057180233821333 
0.1400000000000009, -1.0570780076180386 
0.1499999999999998, -1.0572238114952783 
0.1599999999999987, -1.0575332732117548 
0.1699999999999976, -1.0579023741376137 
0.1799999999999965, -1.0582270049516733 
0.1899999999999954, -1.0584167909903917 
0.1999999999999943, -1.0584010547354168 
0.2099999999999932, -1.0581306303264002 
0.2199999999999921, -1.0575789501036679 
0.229999999999991, -1.0567420104309684 
0.2399999999999899, -1.055634647114618 
0.2499999999999888, -1.054282555054151 
0.2599999999999877, -1.0527133997718154 
0.2699999999999866, -1.050951782432992 
0.2799999999999855, -1.0490203540875702 
0.2899999999999844, -1.0469456441627556 
0.2999999999999833, -1.0447651117852588 
0.3099999999999822, -1.0425321587808165 
0.3199999999999811, -1.040317351037904 
0.32999999999998, -1.038205814876361 
0.3399999999999789, -1.0362916291651365 
0.3499999999999778, -1.0346688404927882 
0.35999999999997667, -1.0334166129607192 
0.36999999999997557, -1.0325778913949855 
0.37999999999997447, -1.0321392156997458 
0.38999999999997337, -1.0320256726122967 
0.39999999999997227, -1.0321178126945143 
0.40999999999997117, -1.0322809220111053 
0.41999999999997006, -1.0323894676371053 
0.42999999999996896, -1.0323377227385193 
0.43999999999996786, -1.0320400569229893 
0.44999999999996676, -1.031429631628301 
0.45999999999996566, -1.0304612889830789 
0.46999999999996456, -1.0291177670211868 
0.47999999999996346, -1.027413096016861 
0.48999999999996235, -1.0253875212065002 
0.49999999999996125, -1.0230947398814823 
0.5099999999999602, -1.020588537457553 
0.519999999999959, -1.0179159805077405 
0.529999999999958, -1.015119154830632 
0.5399999999999568, -1.012242436495141 
0.5499999999999557, -1.0093406597034595 
0.5599999999999546, -1.0064847244025017 
0.5699999999999535, -1.0037631075858555 
0.5799999999999524, -1.0012786026082114 
0.5899999999999513, -0.9991387388567304 
0.5999999999999502, -0.9974375653520051 
0.6099999999999491, -0.9962299535613754 
0.619999999999948, -0.9955081387227274 
0.6299999999999469, -0.9951955388370787 
0.6399999999999458, -0.9951647514214005 
0.6499999999999447, -0.9952696443924045 
0.6599999999999436, -0.9953731612117084 
0.6699999999999425, -0.9953601500921984 
0.6799999999999414, -0.9951375966695726 
0.6899999999999403, -0.9946313109585802 
0.6999999999999392, -0.9937866053971075 
0.7099999999999381, -0.992574498566397 
0.719999999999937, -0.990998469998611 
0.7299999999999359, -0.9890941604339768 
0.7399999999999348, -0.9869187563978999 
0.7499999999999337, -0.9845349437985425 
0.7599999999999326, -0.9819983642413568 
0.7699999999999315, -0.9793541503133765 
0.7799999999999304, -0.9766417830615275 
0.7899999999999293, -0.9739036526458564 
0.7999999999999282, -0.9711925879043539 
0.8099999999999271, -0.9685755390593355 
0.819999999999926, -0.9661326032065025 
0.8299999999999249, -0.9639515315363694 
0.8399999999999238, -0.9621175658414747 
0.8499999999999227, -0.9606982492692664 
0.8599999999999216, -0.959725152863888 
0.8699999999999205, -0.9591793094952324 
0.8799999999999194, -0.9589894325809005 
0.8899999999999183, -0.9590463349130848 
0.8999999999999172, -0.9592266278012299 
0.9099999999999161, -0.9594138556170824 
0.919999999999915, -0.9595099313230787 
0.9299999999999139, -0.9594380515289994 
0.9399999999999128, -0.9591427070894267 
0.9499999999999117, -0.958591089924114 
0.9599999999999106, -0.9577756629448937 
0.9699999999999095, -0.9567138757544802 
0.9799999999999084, -0.9554414573625354 
0.9899999999999073, -0.9540004807165692 
0.9999999999999062, -0.9524279649211435 
1.0099999999999052, -0.9507506834538189 
1.019999999999904, -0.948987678177874 
1.029999999999903, -0.9471577641712291 
1.039999999999902, -0.945287743898534 
1.0499999999999008, -0.9434179236054836 
1.0599999999998997, -0.9416032517713124 
1.0699999999998986, -0.939909879168419 
1.0799999999998975, -0.9384080738038965 
1.0899999999998964, -0.9371631982694476 
1.0999999999998953, -0.9362264129170279 
1.1099999999998942, -0.9356260553116182 
1.119999999999893, -0.9353606288940469 
1.129999999999892, -0.935395624672053 
1.1399999999998909, -0.9356670030228896 
1.1499999999998898, -0.9360917983746553 
1.1599999999998887, -0.9365823405778642 
1.1699999999998876, -0.9370589634459273 
1.1799999999998865, -0.9374581911698106 
1.1899999999998854, -0.9377365575868565 
1.1999999999998843, -0.9378713451302407 
1.2099999999998832, -0.9378584828685999 
1.219999999999882, -0.9377069254412929 
1.229999999999881, -0.9374299810289314 
1.2399999999998799, -0.9370365446307147 
1.2499999999998788, -0.9365263677756462 
1.2599999999998777, -0.935891790973557 
1.2699999999998766, -0.9351249089251713 
1.2799999999998755, -0.9342265229864235 
1.2899999999998744, -0.9332132407583507 
1.2999999999998733, -0.9321211207721435 
1.3099999999998722, -0.9310059870722648 
1.319999999999871, -0.9299404829445127 
1.32999999999987, -0.9290071140669381 
1.3399999999998689, -0.9282870796122705 
1.3499999999998678, -0.9278471013471864 
1.3599999999998666, -0.927728535670907 
1.3699999999998655, -0.9279422477481425 
1.3799999999998644, -0.9284695889552131 
1.3899999999998633, -0.9292675205893962 
1.3999999999998622, -0.930276063746736 
1.4099999999998611, -0.9314271961806118 
1.41999999999986, -0.9326542055251225 
1.429999999999859, -0.9338997340339387 
1.4399999999998578, -0.9351206198565201 
1.4499999999998567, -0.9362883460697841 
1.4599999999998556, -0.9373848955430198 
1.4699999999998545, -0.9383950375011185 
1.4799999999998534, -0.9392977555850307 
1.4899999999998523, -0.9400609835485686 
1.4999999999998512, -0.9406434304361037 
1.5099999999998501, -0.9410040108539893 
1.519999999999849, -0.9411146661551032 
1.529999999999848, -0.9409700915601009 
1.5399999999998468, -0.9405907354259986 
1.5499999999998457, -0.9400208774353148 
1.5599999999998446, -0.9393263333995142 
1.5699999999998435, -0.9385942798353781 
1.5799999999998424, -0.9379331237207791 
1.5899999999998413, -0.9374669742227646 
1.5999999999998402, -0.9373202649692767 
1.6099999999998391, -0.9375943822632116 
1.619999999999838, -0.9383458034493956 
1.629999999999837, -0.9395767245408297 
1.6399999999998358, -0.9412417880340892 
1.6499999999998347, -0.9432651434085827 
1.6599999999998336, -0.9455589071706411 
1.6699999999998325, -0.9480373317612694 
1.6799999999998314, -0.9506251629902525 
1.6899999999998303, -0.953260364772638 
1.6999999999998292, -0.9558914121489203 
1.709999999999828, -0.9584697471455189 
1.719999999999827, -0.9609397140720667 
1.729999999999826, -0.9632308254303468 
1.7399999999998248, -0.9652586002087482 
1.7499999999998237, -0.9669375837722879 
1.7599999999998226, -0.9682026037730074 
1.7699999999998215, -0.9690269100715061 
1.7799999999998204, -0.9694269084081973 
1.7899999999998193, -0.9694533815578867 
1.7999999999998182, -0.969178517824928 
1.809999999999817, -0.9686887465121172 
1.819999999999816, -0.9680872994466062 
1.8299999999998149, -0.9675031128822752 
1.8399999999998138, -0.967096747549683 
1.8499999999998127, -0.967051363248032 
1.8599999999998116, -0.9675420486620622 
1.8699999999998105, -0.9686919830197195 
1.8799999999998094, -0.9705385868203761 
1.8899999999998083, -0.9730299371392015 
1.8999999999998072, -0.976050889931176 
1.909999999999806, -0.9794603768979584 
1.919999999999805, -0.9831212767642938 
1.9299999999998039, -0.9869154416585029 
1.9399999999998028, -0.990745466161678 
1.9499999999998017, -0.9945274453940989 
1.9599999999998006, -0.9981789700048647 
1.9699999999997995, -1.0016075977562837 
1.9799999999997984, -1.0047069025026165 
1.9899999999997973, -1.00736646557185 
1.9999999999997962, -1.0094952307447613 
2.0099999999998173, -1.0110468157062025 
2.0199999999998384, -1.0120310846115423 
2.0299999999998595, -1.0125057530442658 
2.0399999999998806, -1.0125566607634044 
2.0499999999999017, -1.0122812643723875 
2.059999999999923, -1.0117844970255945 
2.069999999999944, -1.0111871034123776 
2.079999999999965, -1.0106388757461835 
2.089999999999986, -1.010323263949025 
2.100000000000007, -1.01043878311019 
2.1100000000000283, -1.0111541404051936 
2.1200000000000494, -1.0125569180921443 
2.1300000000000705, -1.0146285057944242 
2.1400000000000916, -1.0172610461522054 
2.1500000000001127, -1.0203009289288987 
2.160000000000134, -1.0235908595251397 
2.170000000000155, -1.0269944420815234 
2.180000000000176, -1.0304032932857752 
2.190000000000197, -1.033733059660171 
2.2000000000002182, -1.0369137368934618 
2.2100000000002393, -1.039878266022416 
2.2200000000002604, -1.042554044631748 
2.2300000000002815, -1.0448627988350991 
2.2400000000003026, -1.0467317552531497 
2.2500000000003237, -1.048112101197914 
2.260000000000345, -1.0489940704811325 
2.270000000000366, -1.0494093530578543 
2.280000000000387, -1.0494213466087365 
2.290000000000408, -1.0491125805147519 
2.3000000000004293, -1.048578721891088 
2.3100000000004504, -1.0479316677404795 
2.3200000000004715, -1.0473058338495207 
2.3300000000004926, -1.0468558545250861 
2.3400000000005137, -1.0467353356595699 
2.3500000000005348, -1.0470594963083477 
2.360000000000556, -1.0478721312919559 
2.370000000000577, -1.0491391226786215 
2.380000000000598, -1.0507703578593657 
2.390000000000619, -1.0526518573086627 
2.4000000000006403, -1.0546704743802653 
2.4100000000006614, -1.0567267664541997 
2.4200000000006825, -1.0587400227098158 
2.4300000000007036, -1.0606490440655545 
2.4400000000007247, -1.0624094934133173 
2.450000000000746, -1.0639880333746743 
2.460000000000767, -1.0653549005387355 
2.470000000000788, -1.0664782541649094 
2.480000000000809, -1.0673238825761346 
2.49000000000083, -1.0678614919629001 
2.5000000000008513, -1.0680746249107362 
2.5100000000008724, -1.0679686727037465 
2.5200000000008935, -1.0675734408681332 
2.5300000000009146, -1.0669415669057338 
2.5400000000009357, -1.0661465785193176 
2.550000000000957, -1.065281847010843 
2.560000000000978, -1.0644567126175604 
2.570000000000999, -1.063784205573622 
2.58000000000102, -1.0633601794375165 
2.5900000000010412, -1.0632430267530162 
2.6000000000010624, -1.0634455146683366 
2.6100000000010835, -1.0639407383755053 
2.6200000000011046, -1.064673832042896 
2.6300000000011257, -1.0655718770125553 
2.6400000000011468, -1.0665520194972105 
2.650000000001168, -1.0675306623817156 
2.660000000001189, -1.0684332806329295 
2.67000000000121, -1.069201757594244 
2.680000000001231, -1.069797226581715 
2.6900000000012523, -1.070198492183131 
2.7000000000012734, -1.0703970517729882 
2.7100000000012945, -1.070390348218725 
2.7200000000013156, -1.0701758939510118 
2.7300000000013367, -1.0697491658735543 
2.740000000001358, -1.0691064836184423 
2.750000000001379, -1.0682513383864054 
2.7600000000014, -1.0672011088712203 
2.770000000001421, -1.0659917698874422 
2.780000000001442, -1.0646795603952377 
2.7900000000014633, -1.0633388056123703 
2.8000000000014844, -1.0620548775139145 
2.8100000000015055, -1.0609129282701693 
2.8200000000015266, -1.0599861007071405 
2.8300000000015477, -1.0593270991587813 
2.840000000001569, -1.0589626879937115 
2.85000000000159, -1.058887932552205 
2.860000000001611, -1.0590611882113377 
2.870000000001632, -1.059406257552634 
2.8800000000016532, -1.0598252594301907 
2.8900000000016743, -1.0602168987260467 
2.9000000000016954, -1.0604912751116027 
2.9100000000017165, -1.0605774020413963 
2.9200000000017377, -1.0604257281935792 
2.9300000000017588, -1.0600089284799528 
2.94000000000178, -1.0593212456661103 
2.950000000001801, -1.0583745177332007 
2.960000000001822, -1.05719053504761 
2.970000000001843, -1.0557927778167882 
2.9800000000018643, -1.0542018882555961 
2.9900000000018854, -1.0524369955752864 
3.0000000000019065, -1.0505215210747847 
3.0100000000019276, -1.0484901146612469 
3.0200000000019487, -1.0463935468084653 
3.03000000000197, -1.0442997493254362 
3.040000000001991, -1.0422908772430401 
3.050000000002012, -1.0404574730671163 
3.060000000002033, -1.0388902000700826 
3.070000000002054, -1.0376672552159447 
3.0800000000020753, -1.036835723928469 
3.0900000000020964, -1.0363918269172834 
3.1000000000021175, -1.0362726561431514 
3.1100000000021386, -1.03636842526064 
3.1200000000021597, -1.0365492679818675 
3.130000000002181, -1.0366905261511719 
3.140000000002202, -1.0366857243215906 
3.150000000002223, -1.0364485984531486 
3.160000000002244, -1.0359121531161286 
3.1700000000022652, -1.0350308978022926 
3.1800000000022863, -1.0337861862058608 
3.1900000000023074, -1.0321892421558445 
3.2000000000023285, -1.0302764824960828 
3.2100000000023496, -1.0280975779273949 
3.2200000000023707, -1.0257027508606977 
3.230000000002392, -1.0231361732217992 
3.240000000002413, -1.0204375613753818 
3.250000000002434, -1.0176492076977812 
3.260000000002455, -1.0148239718590553 
3.2700000000024763, -1.0120308111520824 
3.2800000000024974, -1.0093563411083664 
3.2900000000025185, -1.0069018961628198 
3.3000000000025396, -1.0047747349038731 
3.3100000000025607, -1.0030709110422897 
3.3200000000025818, -1.0018501237027626 
3.330000000002603, -1.0011112939182727 
3.340000000002624, -1.0007840704796476 
3.350000000002645, -1.0007447431921668 
3.360000000002666, -1.0008478997326637 
3.3700000000026873, -1.0009552716496535 
3.3800000000027084, -1.000949857985054 
3.3900000000027295, -1.0007368180976435 
3.4000000000027506, -1.000240112975648 
3.4100000000027717, -0.9994028402808686 
3.420000000002793, -0.9981932940921292 
3.430000000002814, -0.9966120852412256 
3.440000000002835, -0.9946926048731801 
3.450000000002856, -0.9924910628447402 
3.460000000002877, -0.9900705337937422 
3.4700000000028983, -0.9874879662908254 
3.4800000000029194, -0.9847901191516213 
3.4900000000029405, -0.9820180222804036 
3.5000000000029616, -0.9792154579130231 
3.5100000000029827, -0.9764366648184594 
3.520000000003004, -0.973750334916916 
3.530000000003025, -0.971238969161076 
3.540000000003046, -0.9689935434095612 
3.550000000003067, -0.9671030388655639 
3.5600000000030882, -0.9656382640871873 
3.5700000000031094, -0.9646321652912858 
3.5800000000031305, -0.9640642872950432 
3.5900000000031516, -0.9638593182677023 
3.6000000000031727, -0.9639030238372301 
3.6100000000031938, -0.9640675527688607 
3.620000000003215, -0.9642332606092832 
3.630000000003236, -0.9642998231033031 
3.640000000003257, -0.9641884128401458 
3.650000000003278, -0.9638412064642456 
3.6600000000032993, -0.9632228968916426 
3.6700000000033204, -0.9623239902966828 
3.6800000000033415, -0.9611614863221163 
3.6900000000033626, -0.9597727475291427 
3.7000000000033837, -0.9582033440405866 
3.710000000003405, -0.9564947929446189 
3.720000000003426, -0.9546783844423864 
3.730000000003447, -0.9527770255738914 
3.740000000003468, -0.9508125061082825 
3.750000000003489, -0.9488137902493536 
3.7600000000035103, -0.9468227341670536 
3.7700000000035314, -0.9448954163419664 
3.7800000000035525, -0.9430988821716876 
3.7900000000035736, -0.9415042859526392 
3.8000000000035947, -0.9401780140893052 
3.810000000003616, -0.9391721060561378 
3.820000000003637, -0.9385147392129133 
3.830000000003658, -0.9382021722809926 
3.840000000003679, -0.9381953036706766 
3.8500000000037002, -0.9384241502691042 
3.8600000000037213, -0.9388001071087301 
3.8700000000037424, -0.9392313525502081 
3.8800000000037635, -0.9396357048559063 
3.8900000000037847, -0.9399482741825429 
3.9000000000038058, -0.9401247912217531 
3.910000000003827, -0.940142349685426 
3.920000000003848, -0.9399977412025393 
3.930000000003869, -0.9397022866477025 
3.94000000000389, -0.9392732139416868 
3.9500000000039113, -0.9387244202405308 
3.9600000000039324, -0.9380609403389717 
3.9700000000039535, -0.9372798468515829 
3.9800000000039746, -0.9363768178897969 
3.9900000000039957, -0.9353549013137369 
4.000000000004016, -0.9342318157715168 
4.010000000003993, -0.9330439081352033 
4.02000000000397, -0.9318465140436903 
4.030000000003946, -0.930710642751022 
4.040000000003923, -0.9297155500404085 
4.0500000000039, -0.9289376258215615 
4.0600000000038765, -0.9284381664887559 
4.070000000003853, -0.9282538728728679 
4.08000000000383, -0.9283925700909862 
4.090000000003807, -0.928833955726401 
4.100000000003783, -0.9295338842836299 
4.11000000000376, -0.9304312509085763 
4.120000000003737, -0.9314569622093859 
4.130000000003713, -0.9325436833638437 
4.14000000000369, -0.9336341678182207 
4.150000000003667, -0.9346862024136819 
4.1600000000036434, -0.9356731657268591 
4.17000000000362, -0.9365801056756605 
4.180000000003597, -0.9373962470007244 
4.1900000000035735, -0.9381063943608069 
4.20000000000355, -0.9386851724445828 
4.210000000003527, -0.9390978147913875 
4.220000000003504, -0.9393082720719154 
4.23000000000348, -0.9392910454478727 
4.240000000003457, -0.9390408632003517 
4.250000000003434, -0.9385765850335747 
4.26000000000341, -0.9379404889907769 
4.270000000003387, -0.9371966570498974 
4.280000000003364, -0.9364304323255808 
4.2900000000033405, -0.9357468929429014 
4.300000000003317, -0.9352636211201564 
4.310000000003294, -0.9350946961268681 
4.320000000003271, -0.9353289772203092 
4.330000000003247, -0.936011838928477 
4.340000000003224, -0.9371391896058644 
4.350000000003201, -0.9386652408575332 
4.360000000003177, -0.9405180750792618 
4.370000000003154, -0.9426156454260498 
4.380000000003131, -0.9448781096527897 
4.390000000003107, -0.9472355104527888 
4.400000000003084, -0.9496306869544339 
4.410000000003061, -0.9520171566816761 
4.4200000000030375, -0.9543522270448654 
4.430000000003014, -0.9565873587483644 
4.440000000002991, -0.958660259171778 
4.450000000002968, -0.9604946120263104 
4.460000000002944, -0.9620111693069939 
4.470000000002921, -0.9631471661180202 
4.480000000002898, -0.963873951544518 
4.490000000002874, -0.9642029795082541 
4.500000000002851, -0.9641791926005666 
4.510000000002828, -0.9638698275276245 
4.520000000002804, -0.963357936153373 
4.530000000002781, -0.9627445096359594 
4.540000000002758, -0.9621560618841718 
4.5500000000027345, -0.9617488025043651 
4.560000000002711, -0.9616984043091169 
4.570000000002688, -0.962170015245403 
4.580000000002665, -0.9632774800936383 
4.590000000002641, -0.9650533184405607 
4.600000000002618, -0.9674470090361728 
4.610000000002595, -0.9703498737421798 
4.620000000002571, -0.973629407919672 
4.630000000002548, -0.9771565874917888 
4.640000000002525, -0.9808197618699663 
4.6500000000025015, -0.9845264989222999 
4.660000000002478, -0.9881969432535338 
4.670000000002455, -0.9917523396834438 
4.6800000000024315, -0.9951035640971957 
4.690000000002408, -0.9981465830617493 
4.700000000002385, -1.0007714170572537 
4.710000000002362, -1.0028847457969148 
4.720000000002338, -1.004435550569309 
4.730000000002315, -1.0054281283064557 
4.740000000002292, -1.0059153041456401 
4.750000000002268, -1.0059794775242485 
4.760000000002245, -1.0057158519596323 
4.770000000002222, -1.0052274666955776 
4.7800000000021985, -1.004632780668824 
4.790000000002175, -1.0040788830288379 
4.800000000002152, -1.003747385804291 
4.810000000002129, -1.0038383264505824 
4.820000000002105, -1.0045273777457784 
4.830000000002082, -1.0059137440724137 
4.840000000002059, -1.00799096511771 
4.850000000002035, -1.0106592515346207 
4.860000000002012, -1.0137671546739504 
4.870000000001989, -1.0171549418879395 
4.880000000001965, -1.0206816149362563 
4.890000000001942, -1.024233809706967 
4.900000000001919, -1.027722500167964 
4.9100000000018955, -1.0310732344066793 
4.920000000001872, -1.0342142784831991 
4.930000000001849, -1.0370676176165035 
