t, s[1].omega / s[0].omega 
0, -1.149997466244 
0.009999999999999995, -1.1496310514363466 
0.019999999999999934, -1.1490450858069161 
0.029999999999999874, -1.1482534375402573 
0.04000000000000012, -1.1472826507336962 
0.050000000000000405, -1.146175820203826 
0.06000000000000069, -1.1449954580457435 
0.07000000000000098, -1.1438226641797784 
0.08000000000000126, -1.142750018226891 
0.09000000000000155, -1.1418676338723854 
0.10000000000000184, -1.1412430163866463 
0.11000000000000212, -1.1408974621228594 
0.12000000000000241, -1.140790834698731 
0.130000000000002, -1.14083065539694 
0.1400000000000009, -1.1409026965279163 
0.1499999999999998, -1.1408993616415837 
0.1599999999999987, -1.1407291372346584 
0.1699999999999976, -1.1403117278868462 
0.1799999999999965, -1.1395727224548373 
0.1899999999999954, -1.1384468182450802 
0.1999999999999943, -1.1368890781164802 
0.2099999999999932, -1.1348863493487276 
0.2199999999999921, -1.1324614004254712 
0.229999999999991, -1.1296705997632368 
0.2399999999999899, -1.1266030833177128 
0.2499999999999888, -1.1233875470486947 
0.2599999999999877, -1.1202035731995366 
0.2699999999999866, -1.1172822187463902 
0.2799999999999855, -1.1148712000314116 
0.2899999999999844, -1.1131524506663475 
0.2999999999999833, -1.11215151549644 
0.3099999999999822, -1.1117200121893445 
0.3199999999999811, -1.1116169844359918 
0.32999999999998, -1.1116138056724099 
0.3399999999999789, -1.111542879592998 
0.3499999999999778, -1.1112848227487981 
0.35999999999997667, -1.1107296439424053 
0.36999999999997557, -1.1097384963247499 
0.37999999999997447, -1.1081178509439868 
0.38999999999997337, -1.1056173976202424 
0.39999999999997227, -1.1019675389378292 
0.40999999999997117, -1.0969621580752338 
0.41999999999997006, -1.0905606630649811 
0.42999999999996896, -1.0829607938464292 
0.43999999999996786, -1.074614714353503 
0.44999999999996676, -1.0661945747671282 
0.45999999999996566, -1.0585022862817517 
0.46999999999996456, -1.0522880111222743 
0.47999999999996346, -1.0479926706271883 
0.48999999999996235, -1.0455678922313416 
0.49999999999996125, -1.0445491648840597 
0.5099999999999602, -1.0443352739329792 
0.519999999999959, -1.0444370730532362 
0.529999999999958, -1.044555323240214 
0.5399999999999568, -1.0445334469475829 
0.5499999999999557, -1.044278808302302 
0.5599999999999546, -1.04369738177192 
0.5699999999999535, -1.042644110020324 
0.5799999999999524, -1.0408809280493267 
0.5899999999999513, -1.0380460662856454 
0.5999999999999502, -1.0336633020409298 
0.6099999999999491, -1.0272416237795987 
0.619999999999948, -1.0184898939828404 
0.6299999999999469, -1.0075683246277207 
0.6399999999999458, -0.9952077764826545 
0.6499999999999447, -0.9825892631981341 
0.6599999999999436, -0.9710339646293049 
0.6699999999999425, -0.9616322427873902 
0.6799999999999414, -0.9549398169812566 
0.6899999999999403, -0.9508692725001943 
0.6999999999999392, -0.9488434486678757 
0.7099999999999381, -0.9481126231945078 
0.719999999999937, -0.9480308786914694 
0.7299999999999359, -0.9481685797086735 
0.7399999999999348, -0.9482879243681716 
0.7499999999999337, -0.9482675844312279 
0.7599999999999326, -0.948033149205221 
0.7699999999999315, -0.9475081229298047 
0.7799999999999304, -0.946581047476464 
0.7899999999999293, -0.9450848965741466 
0.7999999999999282, -0.9427955815936674 
0.8099999999999271, -0.9394679170376072 
0.819999999999926, -0.9349220836881427 
0.8299999999999249, -0.9291541000293867 
0.8399999999999238, -0.9223972837119062 
0.8499999999999227, -0.9150808338140484 
0.8599999999999216, -0.9077170138338776 
0.8699999999999205, -0.9007937846507371 
0.8799999999999194, -0.8947104804149694 
0.8899999999999183, -0.8897425765656897 
0.8999999999999172, -0.8860151219224663 
0.9099999999999161, -0.8834889710842709 
0.919999999999915, -0.88198020319344 
0.9299999999999139, -0.881219190131277 
0.9399999999999128, -0.880925846254746 
0.9499999999999117, -0.8808658953639903 
0.9599999999999106, -0.880870666951847 
0.9699999999999095, -0.8808275235865481 
0.9799999999999084, -0.8806581092408836 
0.9899999999999073, -0.880298076124031 
0.9999999999999062, -0.8796856016104566 
1.0099999999999052, -0.878762250156956 
1.019999999999904, -0.8774864241021472 
1.029999999999903, -0.8758528996493797 
1.039999999999902, -0.8739044736150883 
1.0499999999999008, -0.871724206792112 
1.0599999999998997, -0.8694120744703799 
1.0699999999998986, -0.867062272208725 
1.0799999999998975, -0.8647533883043582 
1.0899999999998964, -0.8625509304822545 
1.0999999999998953, -0.8605142919444306 
1.1099999999998942, -0.8587009179581011 
1.119999999999893, -0.8571644094640514 
1.129999999999892, -0.8559469655889098 
1.1399999999998909, -0.8550692044668191 
1.1499999999998898, -0.8545220465557073 
1.1599999999998887, -0.8542652474101395 
1.1699999999998876, -0.8542343931787604 
1.1799999999998865, -0.8543536994347102 
1.1899999999998854, -0.8545490772378826 
1.1999999999998843, -0.8547570235837846 
1.2099999999998832, -0.8549285453566859 
1.219999999999882, -0.8550300574460395 
1.229999999999881, -0.8550430837895592 
1.2399999999998799, -0.8549625810916709 
1.2499999999998788, -0.8547925252093066 
1.2599999999998777, -0.8545390351344005 
1.2699999999998766, -0.8542043624661041 
1.2799999999998755, -0.8537857233833293 
1.2899999999998744, -0.8532797491469253 
1.2999999999998733, -0.8526893927215509 
1.3099999999998722, -0.852029390442766 
1.319999999999871, -0.851328886327118 
1.32999999999987, -0.8506321183641757 
1.3399999999998689, -0.8499977649886963 
1.3499999999998678, -0.8494957515085559 
1.3599999999998666, -0.8491996833264508 
1.3699999999998655, -0.8491750453108707 
1.3799999999998644, -0.8494666737090641 
1.3899999999998633, -0.8500906755570486 
1.3999999999998622, -0.8510340464637235 
1.4099999999998611, -0.8522612155841476 
1.41999999999986, -0.8537236742285913 
1.429999999999859, -0.8553681420556043 
1.4399999999998578, -0.8571398328658699 
1.4499999999998567, -0.858979532256933 
1.4599999999998556, -0.8608164041853603 
1.4699999999998545, -0.8625625594949767 
1.4799999999998534, -0.864117901809073 
1.4899999999998523, -0.8653894244885878 
1.4999999999998512, -0.8663168923244609 
1.5099999999998501, -0.86688785365379 
1.519999999999849, -0.8671322390414284 
1.529999999999848, -0.8671037152947235 
1.5399999999998468, -0.8668626581958648 
1.5499999999998457, -0.8664702757821262 
1.5599999999998446, -0.8659956326866027 
1.5699999999998435, -0.8655334214395651 
1.5799999999998424, -0.8652278722079867 
1.5899999999998413, -0.8652931117547202 
1.5999999999998402, -0.8660135825628978 
1.6099999999998391, -0.8677084867807052 
1.619999999999838, -0.8706606221099686 
1.629999999999837, -0.8750349361958023 
1.6399999999998358, -0.8808206192430422 
1.6499999999998347, -0.8878110968427396 
1.6599999999998336, -0.8956122903742789 
1.6699999999998325, -0.9036717023690706 
1.6799999999998314, -0.9113465550610087 
1.6899999999998303, -0.9180352179622163 
1.6999999999998292, -0.9233417619644149 
1.709999999999828, -0.9271731446296192 
1.719999999999827, -0.9296964502797265 
1.729999999999826, -0.9312023378386997 
1.7399999999998248, -0.9319786764058351 
1.7499999999998237, -0.9322478901116489 
1.7599999999998226, -0.9321579540278433 
1.7699999999998215, -0.9317994538295535 
1.7799999999998204, -0.9312332233367047 
1.7899999999998193, -0.9305290449039662 
1.7999999999998182, -0.9298263412010435 
1.809999999999817, -0.9294272894724239 
1.819999999999816, -0.9299079771903249 
1.8299999999998149, -0.9321730579848879 
1.8399999999998138, -0.9373204606003501 
1.8499999999998127, -0.9462338311086178 
1.8599999999998116, -0.9590374774356961 
1.8699999999998105, -0.9747590099210897 
1.8799999999998094, -0.991495621450392 
1.8899999999998083, -1.0070737363625306 
1.8999999999998072, -1.0198546529162187 
1.909999999999806, -1.0292078450580753 
1.919999999999805, -1.0354143951258183 
1.9299999999998039, -1.039210647493614 
1.9399999999998028, -1.0413621756702482 
1.9499999999998017, -1.0424584534597698 
1.9599999999998006, -1.0428850232959805 
1.9699999999997995, -1.0428690935518774 
1.9799999999997984, -1.0425361580711991 
1.9899999999997973, -1.041961981762461 
1.9999999999997962, -1.0412303120391593 
2.0099999999998173, -1.0405164161910991 
2.0199999999998384, -1.0402031111725645 
2.0299999999998595, -1.0409744708956707 
2.0399999999998806, -1.04373846268783 
2.0499999999999017, -1.0492574197839146 
2.059999999999923, -1.0576544430027444 
2.069999999999944, -1.068212207218881 
2.079999999999965, -1.0796436715969857 
2.089999999999986, -1.0905828579018184 
2.100000000000007, -1.0999807259391772 
2.1100000000000283, -1.107294386678244 
2.1200000000000494, -1.1124821482660183 
2.1300000000000705, -1.1158509289705487 
2.1400000000000916, -1.1178460929483984 
2.1500000000001127, -1.1188864980632194 
2.160000000000134, -1.119289835324243 
2.170000000000155, -1.1192690292099274 
2.180000000000176, -1.118963272844638 
2.190000000000197, -1.118482651848765 
2.2000000000002182, -1.1179608244317256 
2.2100000000002393, -1.1176067112631052 
2.2200000000002604, -1.117719549723204 
2.2300000000002815, -1.1186149770773226 
2.2400000000003026, -1.1204718747361972 
2.2500000000003237, -1.1232219481028796 
2.260000000000345, -1.126588038523404 
2.270000000000366, -1.1302199108654902 
2.280000000000387, -1.1338058842730292 
2.290000000000408, -1.1371126763585286 
2.3000000000004293, -1.1399802217287343 
2.3100000000004504, -1.1423085387122225 
2.3200000000004715, -1.14405300260796 
2.3300000000004926, -1.145224050191923 
2.3400000000005137, -1.145879729030781 
2.3500000000005348, -1.1461072207548546 
2.360000000000556, -1.1460020439385807 
2.370000000000577, -1.1456568858928244 
2.380000000000598, -1.1451647803039395 
2.390000000000619, -1.1446311347685791 
2.4000000000006403, -1.1441800797896797 
2.4100000000006614, -1.1439384316793686 
2.4200000000006825, -1.1439969292347285 
2.4300000000007036, -1.1443761496615257 
2.4400000000007247, -1.1450256320723047 
2.450000000000746, -1.1458516309822837 
2.460000000000767, -1.1467485008314369 
2.470000000000788, -1.1476196450660603 
2.480000000000809, -1.14838782600608 
2.49000000000083, -1.1489976457174138 
2.5000000000008513, -1.1494129065901608 
2.5100000000008724, -1.1496119124161217 
2.5200000000008935, -1.1495834173052333 
2.5300000000009146, -1.1493249237765593 
2.5400000000009357, -1.148843622545428 
2.550000000000957, -1.1481589095660718 
2.560000000000978, -1.1473052465968725 
2.570000000000999, -1.146334722792597 
2.58000000000102, -1.1453178939374136 
2.5900000000010412, -1.144339681705879 
2.6000000000010624, -1.1434881484439088 
2.6100000000010835, -1.142838177475774 
2.6200000000011046, -1.1424337321930147 
2.6300000000011257, -1.142272133236229 
2.6400000000011468, -1.1422986792036312 
2.650000000001168, -1.1424205370885576 
2.660000000001189, -1.1425334658525599 
2.67000000000121, -1.1425426872500875 
2.680000000001231, -1.1423685827637775 
2.6900000000012523, -1.1419437181194918 
2.7000000000012734, -1.1412117055989175 
2.7100000000012945, -1.140131987983216 
2.7200000000013156, -1.1386868276105162 
2.7300000000013367, -1.1368844731044343 
2.740000000001358, -1.1347572447960528 
2.750000000001379, -1.1323594132431394 
2.7600000000014, -1.1297703632622085 
2.770000000001421, -1.1271035934623748 
2.780000000001442, -1.1245153414433129 
2.7900000000014633, -1.1221992147983826 
2.8000000000014844, -1.1203488598305715 
2.8100000000015055, -1.1190861623572554 
2.8200000000015266, -1.1183960235492252 
2.8300000000015477, -1.1181297319040002 
2.840000000001569, -1.118080098840756 
2.85000000000159, -1.1180598572975602 
2.860000000001611, -1.1179292316267726 
2.870000000001632, -1.1175781443481179 
2.8800000000016532, -1.1168928464243497 
2.8900000000016743, -1.1157278881389083 
2.9000000000016954, -1.1138954490683355 
2.9100000000017165, -1.1111832160495572 
2.9200000000017377, -1.107406588394651 
2.9300000000017588, -1.1024810098496478 
2.94000000000178, -1.0964810601190071 
2.950000000001801, -1.0896632596872289 
2.960000000001822, -1.0824594986609533 
2.970000000001843, -1.0754499947385177 
2.9800000000018643, -1.0692880466788444 
2.9900000000018854, -1.0645343826297755 
3.0000000000019065, -1.061439517310088 
3.0100000000019276, -1.0598358816309286 
3.0200000000019487, -1.059261742282104 
3.03000000000197, -1.0592131180846238 
3.040000000001991, -1.05931706279681 
3.050000000002012, -1.0593560867863874 
3.060000000002033, -1.0592099383316413 
3.070000000002054, -1.0587863770472874 
3.0800000000020753, -1.0579653805746498 
3.0900000000020964, -1.0565540531324884 
3.1000000000021175, -1.0542502710683017 
3.1100000000021386, -1.0506319358061038 
3.1200000000021597, -1.0452132846198046 
3.130000000002181, -1.0376076769937548 
3.140000000002202, -1.0277666544999078 
3.150000000002223, -1.016163202191531 
3.160000000002244, -1.0037825626627583 
3.1700000000022652, -0.9919036436241052 
3.1800000000022863, -0.9817545216558443 
3.1900000000023074, -0.9741529895153409 
3.2000000000023285, -0.9692756620421505 
3.2100000000023496, -0.9666950295089005 
3.2200000000023707, -0.9656688967822081 
3.230000000002392, -0.9654762998738633 
3.240000000002413, -0.965603541108119 
3.250000000002434, -0.9657561545108226 
3.260000000002455, -0.9657857962603174 
3.2700000000024763, -0.9656106005462706 
3.2800000000024974, -0.9651566554803852 
3.2900000000025185, -0.9643181550496408 
3.3000000000025396, -0.9629291431130005 
3.3100000000025607, -0.9607494452305578 
3.3200000000025818, -0.9574830951540868 
3.330000000002603, -0.9528548316833316 
3.340000000002624, -0.9467422078931419 
3.350000000002645, -0.9392962068761083 
3.360000000002666, -0.9309564828889231 
3.3700000000026873, -0.9223441004090092 
3.3800000000027084, -0.9141104416457188 
3.3900000000027295, -0.9068180696337933 
3.4000000000027506, -0.9008648612874495 
3.4100000000027717, -0.8964348749891566 
3.420000000002793, -0.8934806515036309 
3.430000000002814, -0.8917593122780811 
3.440000000002835, -0.8909226540522687 
3.450000000002856, -0.890621528727842 
3.460000000002877, -0.890576177209207 
3.4700000000028983, -0.8905948798267291 
3.4800000000029194, -0.890556147254191 
3.4900000000029405, -0.8903785485616448 
3.5000000000029616, -0.8899940827243678 
3.5100000000029827, -0.8893319377984182 
3.520000000003004, -0.8883160116661643 
3.530000000003025, -0.8868784617031185 
3.540000000003046, -0.8849860905747391 
3.550000000003067, -0.8826651149008203 
3.5600000000030882, -0.8800046225489225 
3.5700000000031094, -0.8771331728303629 
3.5800000000031305, -0.8741853040010448 
3.5900000000031516, -0.8712793376315666 
3.6000000000031727, -0.8685130187388959 
3.6100000000031938, -0.8659692870283442 
3.620000000003215, -0.8637216379821437 
3.630000000003236, -0.8618329559453037 
3.640000000003257, -0.8603472616402585 
3.650000000003278, -0.8592782847905743 
3.6600000000032993, -0.8586014779778719 
3.6700000000033204, -0.8582554801741035 
3.6800000000033415, -0.8581541505808644 
3.6900000000033626, -0.85820392498673 
3.7000000000033837, -0.8583187061031389 
3.710000000003405, -0.8584277073012034 
3.720000000003426, -0.8584770492800899 
3.730000000003447, -0.8584289252842241 
3.740000000003468, -0.8582613683524161 
3.750000000003489, -0.8579685122489986 
3.7600000000035103, -0.8575586367293455 
3.7700000000035314, -0.857048096160308 
3.7800000000035525, -0.8564532289950065 
3.7900000000035736, -0.855785185123713 
3.8000000000035947, -0.8550508005533395 
3.810000000003616, -0.8542581750798142 
3.820000000003637, -0.8534230680007072 
3.830000000003658, -0.8525732194227249 
3.840000000003679, -0.8517498715707627 
3.8500000000037002, -0.851006501987416 
3.8600000000037213, -0.8504042348199212 
3.8700000000037424, -0.8500035150337206 
3.8800000000037635, -0.849853387837309 
3.8900000000037847, -0.8499818382670348 
3.9000000000038058, -0.8503909485536439 
3.910000000003827, -0.8510585600467928 
3.920000000003848, -0.8519452436427057 
3.930000000003869, -0.8530034836078985 
3.94000000000389, -0.8541856158760573 
3.9500000000039113, -0.8554478268692893 
3.9600000000039324, -0.8567489120807588 
3.9700000000039535, -0.8580444851837807 
3.9800000000039746, -0.8592801448930724 
3.9900000000039957, -0.8603897610625312 
4.000000000004016, -0.8613042036661529 
4.010000000003993, -0.8619688155505196 
4.02000000000397, -0.8623591957710242 
4.030000000003946, -0.8624847626755413 
4.040000000003923, -0.862379980781537 
4.0500000000039, -0.8620925570898488 
4.0600000000038765, -0.8616778604082341 
4.070000000003853, -0.8612031369550396 
4.08000000000383, -0.8607599812024057 
4.090000000003807, -0.8604796694998974 
4.100000000003783, -0.8605418676556505 
4.11000000000376, -0.8611649235990132 
4.120000000003737, -0.8625713857251712 
4.130000000003713, -0.8649372227888698 
4.14000000000369, -0.8683463999010866 
4.150000000003667, -0.8727688900657501 
4.1600000000036434, -0.8780615727439022 
4.17000000000362, -0.8839773315177372 
4.180000000003597, -0.8901731356389575 
4.1900000000035735, -0.8962291331474868 
4.20000000000355, -0.9017060873917793 
4.210000000003527, -0.9062482019995064 
4.220000000003504, -0.9096829526273407 
4.23000000000348, -0.9120449642250522 
4.240000000003457, -0.9135092821923729 
4.250000000003434, -0.9142930194445235 
4.26000000000341, -0.9145861705004998 
4.270000000003387, -0.9145267177931921 
4.280000000003364, -0.9142057148765605 
4.2900000000033405, -0.9136878264695465 
4.300000000003317, -0.9130440438955822 
4.310000000003294, -0.9124027127177975 
4.320000000003271, -0.9120255102849282 
4.330000000003247, -0.9123969563765435 
4.340000000003224, -0.9142727625313603 
4.350000000003201, -0.9185893397280502 
4.360000000003177, -0.9261670530844587 
4.370000000003154, -0.9372841086766931 
4.380000000003131, -0.9513515400502751 
4.390000000003107, -0.9669204725221501 
4.400000000003084, -0.9820898655659 
4.410000000003061, -0.9951604041015031 
4.4200000000030375, -1.0051920341308338 
4.430000000003014, -1.0121375447479046 
4.440000000002991, -1.0165447138488424 
4.450000000002968, -1.0191341236561444 
4.460000000002944, -1.0205245377384768 
4.470000000002921, -1.0211480917533726 
4.480000000002898, -1.021270888953461 
4.490000000002874, -1.0210430209505414 
4.500000000002851, -1.020547570930957 
4.510000000002828, -1.01985005815324 
4.520000000002804, -1.0190658298402673 
4.530000000002781, -1.018464435534289 
4.540000000002758, -1.0185984861778137 
4.5500000000027345, -1.0203576166909998 
4.560000000002711, -1.024769266010585 
4.570000000002688, -1.032494637254748 
4.580000000002665, -1.0433249560280553 
4.590000000002641, -1.0561154745661532 
4.600000000002618, -1.0692191985222288 
4.610000000002595, -1.0810869297157386 
4.620000000002571, -1.0907072582107256 
4.630000000002548, -1.0977554513293042 
4.640000000002525, -1.1024663272938906 
4.6500000000025015, -1.105356835841333 
4.660000000002478, -1.1069699020758326 
4.670000000002455, -1.1077375979424902 
4.6800000000024315, -1.1079535618383196 
4.690000000002408, -1.1078011860875119 
4.700000000002385, -1.107399578207811 
4.710000000002362, -1.106856472592466 
4.720000000002338, -1.106329786487318 
4.730000000002315, -1.1060861684390682 
4.740000000002292, -1.1065059645868334 
4.750000000002268, -1.1079696755643615 
4.760000000002245, -1.1106567906028029 
4.770000000002222, -1.1144251608314089 
4.7800000000021985, -1.1188851444179506 
4.790000000002175, -1.1235776146432779 
4.800000000002152, -1.128105577002423 
4.810000000002129, -1.1321769511199773 
4.820000000002105, -1.135600401956101 
4.830000000002082, -1.1382765485882373 
4.840000000002059, -1.1401940747803252 
4.850000000002035, -1.1414183104162057 
4.860000000002012, -1.1420636637038908 
4.870000000001989, -1.1422590625288653 
4.880000000001965, -1.1421235906624063 
4.890000000001942, -1.14176170218558 
4.900000000001919, -1.1412758389310145 
4.9100000000018955, -1.140785685173288 
4.920000000001872, -1.1404353871494777 
4.930000000001849, -1.1403693096428318 
