t, s[1].omega / s[0].omega 
0, -0.6399728844638659 
0.009999999999999995, -0.6373183376755105 
0.019999999999999934, -0.634847863102633 
0.029999999999999874, -0.6326258233815127 
0.04000000000000012, -0.630673530231674 
0.050000000000000405, -0.6289886693984765 
0.06000000000000069, -0.6275608595295157 
0.07000000000000098, -0.6263804323733835 
0.08000000000000126, -0.625441668147093 
0.09000000000000155, -0.6247427306108619 
0.10000000000000184, -0.6242841916307001 
0.11000000000000212, -0.6240674225533568 
0.12000000000000241, -0.6240936228209442 
0.130000000000002, -0.6243638529117423 
0.1400000000000009, -0.6248800674003643 
0.1499999999999998, -0.6256467631226577 
0.1599999999999987, -0.6266724246069314 
0.1699999999999976, -0.6279693937572647 
0.1799999999999965, -0.6295501270501556 
0.1899999999999954, -0.6314174485480227 
0.1999999999999943, -0.6335475936228387 
0.2099999999999932, -0.6358695059725838 
0.2199999999999921, -0.6382523649780169 
0.229999999999991, -0.6405190518400642 
0.2399999999999899, -0.6424922057414799 
0.2499999999999888, -0.6440505630054666 
0.2599999999999877, -0.6451575390830804 
0.2699999999999866, -0.645847201485787 
0.2799999999999855, -0.6461873627684237 
0.2899999999999844, -0.6462464719012926 
0.2999999999999833, -0.6460752043162782 
0.3099999999999822, -0.6456997927974313 
0.3199999999999811, -0.6451205056041166 
0.32999999999998, -0.6443103758573961 
0.3399999999999789, -0.6432113422918904 
0.3499999999999778, -0.6417255252786013 
0.35999999999997667, -0.6396978197914313 
0.36999999999997557, -0.6368820034403441 
0.37999999999997447, -0.6328803384269615 
0.38999999999997337, -0.627071771268324 
0.39999999999997227, -0.6186560922065805 
0.40999999999997117, -0.6071001661676548 
0.41999999999997006, -0.5929965803430456 
0.42999999999996896, -0.5783734859563336 
0.43999999999996786, -0.5655984027494111 
0.44999999999996676, -0.5559844386518444 
0.45999999999996566, -0.5495410508186553 
0.46999999999996456, -0.5455838869666867 
0.47999999999996346, -0.5433204204405314 
0.48999999999996235, -0.5421129053988165 
0.49999999999996125, -0.5415224983454856 
0.5099999999999602, -0.54127116578026 
0.519999999999959, -0.5411908686390351 
0.529999999999958, -0.541182549920656 
0.5399999999999568, -0.5411880203083699 
0.5499999999999557, -0.5411723222141638 
0.5599999999999546, -0.5411136972619438 
0.5699999999999535, -0.540999101261674 
0.5799999999999524, -0.5408238204422045 
0.5899999999999513, -0.5405934900829685 
0.5999999999999502, -0.5403257685501094 
0.6099999999999491, -0.5400483292096528 
0.619999999999948, -0.5397914829211092 
0.6299999999999469, -0.539577510426646 
0.6399999999999458, -0.5394117432827832 
0.6499999999999447, -0.5392800533731916 
0.6599999999999436, -0.5391541538315201 
0.6699999999999425, -0.5390020148400068 
0.6799999999999414, -0.5387980467470213 
0.6899999999999403, -0.5385285489668714 
0.6999999999999392, -0.5381917404521007 
0.7099999999999381, -0.537795090632464 
0.719999999999937, -0.5373533753772282 
0.7299999999999359, -0.5368898039973435 
0.7399999999999348, -0.5364416386171051 
0.7499999999999337, -0.5360718056806594 
0.7599999999999326, -0.5358888241343581 
0.7699999999999315, -0.5360780337345736 
0.7799999999999304, -0.5369454307879347 
0.7899999999999293, -0.538965780885407 
0.7999999999999282, -0.5427971772700442 
0.8099999999999271, -0.5491634483353901 
0.819999999999926, -0.558456213267509 
0.8299999999999249, -0.5700808958744559 
0.8399999999999238, -0.5821704125537629 
0.8499999999999227, -0.5925071856815165 
0.8599999999999216, -0.5999995336652704 
0.8699999999999205, -0.604956825294525 
0.8799999999999194, -0.608210500985907 
0.8899999999999183, -0.6104237348426558 
0.8999999999999172, -0.6119752452323779 
0.9099999999999161, -0.6130663850773577 
0.919999999999915, -0.6138141526573413 
0.9299999999999139, -0.6142946545046473 
0.9399999999999128, -0.6145587999286783 
0.9499999999999117, -0.6146373811298553 
0.9599999999999106, -0.6145426525672482 
0.9699999999999095, -0.6142688130487284 
0.9799999999999084, -0.6137928399899468 
0.9899999999999073, -0.6130779809929805 
0.9999999999999062, -0.6120833953717382 
1.0099999999999052, -0.6107825043196311 
1.019999999999904, -0.6091864191760072 
1.029999999999903, -0.6073589798598535 
1.039999999999902, -0.6054081334805146 
1.0499999999999008, -0.6034542216249001 
1.0599999999998997, -0.6015953279073143 
1.0699999999998986, -0.5998898306594124 
1.0799999999998975, -0.5983593982122963 
1.0899999999998964, -0.5970028268053362 
1.0999999999998953, -0.5958105106546945 
1.1099999999998942, -0.594774556149675 
1.119999999999893, -0.59389404086217 
1.129999999999892, -0.5931768753344122 
1.1399999999998909, -0.5926398799412136 
1.1499999999998898, -0.5923081620353544 
1.1599999999998887, -0.592214386942259 
1.1699999999998876, -0.5923982940683492 
1.1799999999998865, -0.5929067146809719 
1.1899999999998854, -0.5937941885055595 
1.1999999999998843, -0.5951238290726295 
1.2099999999998832, -0.5969671290557923 
1.219999999999882, -0.5993997285049342 
1.229999999999881, -0.6024878987734454 
1.2399999999998799, -0.606259014918561 
1.2499999999998788, -0.6106531306543133 
1.2599999999998777, -0.6154695849896175 
1.2699999999998766, -0.6203517173323484 
1.2799999999998755, -0.6248609496555683 
1.2899999999998744, -0.6286292509488525 
1.2999999999998733, -0.6314860293376832 
1.3099999999998722, -0.6334663431513028 
1.319999999999871, -0.6347237725860906 
1.32999999999987, -0.6354349343273377 
1.3399999999998689, -0.635744898021183 
1.3499999999998678, -0.6357503386227744 
1.3599999999998666, -0.6355002282374758 
1.3699999999998655, -0.634998903131097 
1.3799999999998644, -0.6342036737120266 
1.3899999999998633, -0.6330125532764906 
1.3999999999998622, -0.6312382919650569 
1.4099999999998611, -0.6285667160318599 
1.41999999999986, -0.6245094944567918 
1.429999999999859, -0.618401285723621 
1.4399999999998578, -0.6095620324884001 
1.4499999999998567, -0.597742027642397 
1.4599999999998556, -0.5836569812643356 
1.4699999999998545, -0.568985035907148 
1.4799999999998534, -0.5555660789295694 
1.4899999999998523, -0.5445457619746451 
1.4999999999998512, -0.53618530005347 
1.5099999999998501, -0.5301810815109813 
1.519999999999849, -0.5260312319022808 
1.529999999999848, -0.5232478428088989 
1.5399999999998468, -0.5214343065407303 
1.5499999999998457, -0.52029398972051 
1.5599999999998446, -0.5196145258429895 
1.5699999999998435, -0.5192478044099637 
1.5799999999998424, -0.5190925669491241 
1.5899999999998413, -0.5190811098845172 
1.5999999999998402, -0.5191698428344009 
1.6099999999998391, -0.5193330756115988 
1.619999999999838, -0.5195593644042682 
1.629999999999837, -0.5198495638529028 
1.6399999999998358, -0.5202152447248396 
1.6499999999998347, -0.520675561587723 
1.6599999999998336, -0.5212506350603724 
1.6699999999998325, -0.5219507705784929 
1.6799999999998314, -0.5227636007684289 
1.6899999999998303, -0.5236448645496133 
1.6999999999998292, -0.5245206267798797 
1.709999999999828, -0.5253048166813798 
1.719999999999827, -0.5259249743457816 
1.729999999999826, -0.5263407702826737 
1.7399999999998248, -0.5265453360906794 
1.7499999999998237, -0.5265530618518256 
1.7599999999998226, -0.5263842112643318 
1.7699999999998215, -0.5260532254377256 
1.7799999999998204, -0.5255615593904095 
1.7899999999998193, -0.5248925866258325 
1.7999999999998182, -0.5240051395298161 
1.809999999999817, -0.5228213478822871 
1.819999999999816, -0.5212016850330983 
1.8299999999998149, -0.5188947613304865 
1.8399999999998138, -0.5154465340431714 
1.8499999999998127, -0.5100822416608762 
1.8599999999998116, -0.501706680535365 
1.8699999999998105, -0.48938885810176247 
1.8799999999998094, -0.4734587879993982 
1.8899999999998083, -0.45611226694203805 
1.8999999999998072, -0.44023038527431135 
1.909999999999806, -0.42759902315365855 
1.919999999999805, -0.418473457301784 
1.9299999999998039, -0.4122481824190721 
1.9399999999998028, -0.40813258112251505 
1.9499999999998017, -0.4054592611662492 
1.9599999999998006, -0.40374681615065605 
1.9699999999997995, -0.40267144081688144 
1.9799999999997984, -0.4020225072307156 
1.9899999999997973, -0.4016657627990323 
1.9999999999997962, -0.4015177004414337 
2.0099999999998173, -0.401529118558069 
2.0199999999998384, -0.4016752785308183 
2.0299999999998595, -0.4019506261587811 
2.0399999999998806, -0.40236654710320324 
2.0499999999999017, -0.40295070722220316 
2.059999999999923, -0.4037461070963132 
2.069999999999944, -0.4048071485378757 
2.079999999999965, -0.40618907747684874 
2.089999999999986, -0.4079270796295975 
2.100000000000007, -0.41000478990574346 
2.1100000000000283, -0.412323089854874 
2.1200000000000494, -0.41469559527132527 
2.1300000000000705, -0.416894788912699 
2.1400000000000916, -0.41873266207206916 
2.1500000000001127, -0.42011909524783614 
2.160000000000134, -0.42106072848095477 
2.170000000000155, -0.4216188561226314 
2.180000000000176, -0.421865454396145 
2.190000000000197, -0.4218566077230702 
2.2000000000002182, -0.4216212414484503 
2.2100000000002393, -0.42115653831792155 
2.2200000000002604, -0.42042350999498207 
2.2300000000002815, -0.41934021020678963 
2.2400000000003026, -0.41777527831560707 
2.2500000000003237, -0.4155534174744299 
2.260000000000345, -0.41249629424913986 
2.270000000000366, -0.40851994076356374 
2.280000000000387, -0.4037584683740795 
2.290000000000408, -0.39860167055364626 
2.3000000000004293, -0.3935595253513467 
2.3100000000004504, -0.3890459911880581 
2.3200000000004715, -0.385260396303235 
2.3300000000004926, -0.38221238269611896 
2.3400000000005137, -0.379808546865656 
2.3500000000005348, -0.3779257575950162 
2.360000000000556, -0.37645089113002606 
2.370000000000577, -0.37529570403530077 
2.380000000000598, -0.37439919758797224 
2.390000000000619, -0.3737255770639265 
2.4000000000006403, -0.3732619865802279 
2.4100000000006614, -0.3730180154154744 
2.4200000000006825, -0.37302807817341693 
2.4300000000007036, -0.37335765599981985 
2.4400000000007247, -0.3741147025381455 
2.450000000000746, -0.37546790652779666 
2.460000000000767, -0.37767314059138263 
2.470000000000788, -0.3811059497182424 
2.480000000000809, -0.38628527050143435 
2.49000000000083, -0.39384040351316935 
2.5000000000008513, -0.40431610621080283 
2.5100000000008724, -0.4177011949423264 
2.5200000000008935, -0.43283881779176464 
2.5300000000009146, -0.4474624850460132 
2.5400000000009357, -0.45939648898005 
2.550000000000957, -0.46782270593978925 
2.560000000000978, -0.47322968654312847 
2.570000000000999, -0.47654914387706865 
2.58000000000102, -0.4785668559959876 
2.5900000000010412, -0.4797931949292441 
2.6000000000010624, -0.48052665597199057 
2.6100000000010835, -0.48093539802103075 
2.6200000000011046, -0.4811119020196203 
2.6300000000011257, -0.4811035313662669 
2.6400000000011468, -0.480928735465845 
2.650000000001168, -0.48058630577056427 
2.660000000001189, -0.4800628617745265 
2.67000000000121, -0.479342484391836 
2.680000000001231, -0.4784204412347351 
2.6900000000012523, -0.47731831129475316 
2.7000000000012734, -0.47609183097795044 
2.7100000000012945, -0.47482248661830867 
2.7200000000013156, -0.4735943216589014 
2.7300000000013367, -0.4724696345506308 
2.740000000001358, -0.4714770285077461 
2.750000000001379, -0.4706143137962563 
2.7600000000014, -0.4698600833193914 
2.770000000001421, -0.469186658207611 
2.780000000001442, -0.4685699188183253 
2.7900000000014633, -0.46799472358323635 
2.8000000000014844, -0.46745696813376564 
2.8100000000015055, -0.46696444804200243 
2.8200000000015266, -0.46653867785322783 
2.8300000000015477, -0.466219379265989 
2.840000000001569, -0.46607316953270034 
2.85000000000159, -0.46620830386728745 
2.860000000001611, -0.46679794000938124 
2.870000000001632, -0.4681144492773438 
2.8800000000016532, -0.4705742544652035 
2.8900000000016743, -0.47477972105939764 
2.9000000000016954, -0.481507924671459 
2.9100000000017165, -0.49152580001313523 
2.9200000000017377, -0.5050725187593934 
2.9300000000017588, -0.521110412833673 
2.94000000000178, -0.5371634713318285 
2.950000000001801, -0.550586061447522 
2.960000000001822, -0.5602075443401751 
2.970000000001843, -0.5664702965416455 
2.9800000000018643, -0.5704097596740381 
2.9900000000018854, -0.5729020297557403 
3.0000000000019065, -0.5745033057277671 
3.0100000000019276, -0.5755349742185949 
3.0200000000019487, -0.5761817214384168 
3.03000000000197, -0.5765514421176507 
3.040000000001991, -0.5767060042126644 
3.050000000002012, -0.5766762746872351 
3.060000000002033, -0.5764693962065064 
3.070000000002054, -0.5760727702467003 
3.0800000000020753, -0.5754582165262484 
3.0900000000020964, -0.5745901177299628 
3.1000000000021175, -0.573440877332732 
3.1100000000021386, -0.5720125608248712 
3.1200000000021597, -0.5703545831538102 
3.130000000002181, -0.5685620867733314 
3.140000000002202, -0.5667500889259354 
3.150000000002223, -0.5650185813610262 
3.160000000002244, -0.5634302137381114 
3.1700000000022652, -0.5620086931827097 
3.1800000000022863, -0.5607509166988262 
3.1900000000023074, -0.5596421656561094 
3.2000000000023285, -0.5586679051023713 
3.2100000000023496, -0.5578206553499772 
3.2200000000023707, -0.557103122377988 
3.230000000002392, -0.5565294318135302 
3.240000000002413, -0.556125883349608 
3.250000000002434, -0.5559319878789164 
3.260000000002455, -0.5560021074883255 
3.2700000000024763, -0.5564078359481419 
3.2800000000024974, -0.5572411557866022 
3.2900000000025185, -0.5586180800503401 
3.3000000000025396, -0.5606814676020078 
3.3100000000025607, -0.5635992961832227 
3.3200000000025818, -0.5675501448038255 
3.330000000002603, -0.5726815452567513 
3.340000000002624, -0.5790254367859776 
3.350000000002645, -0.5863763062867773 
3.360000000002666, -0.5942009018019453 
3.3700000000026873, -0.6017112093035263 
3.3800000000027084, -0.6081515072154156 
3.3900000000027295, -0.6131096163464076 
3.4000000000027506, -0.6165930736801691 
3.4100000000027717, -0.6188681175822347 
3.420000000002793, -0.6202593800052281 
3.430000000002814, -0.621037083694819 
3.440000000002835, -0.6213877077424684 
3.450000000002856, -0.6214225258033994 
3.460000000002877, -0.6211927948992155 
3.4700000000028983, -0.6206989758619395 
3.4800000000029194, -0.619890430122682 
3.4900000000029405, -0.6186550517633794 
3.5000000000029616, -0.6168009630799518 
3.5100000000029827, -0.6140408732142109 
3.520000000003004, -0.6100098591387341 
3.530000000003025, -0.6043707686607159 
3.540000000003046, -0.5970348469143546 
3.550000000003067, -0.5883833727522054 
3.5600000000030882, -0.5792430537304865 
3.5700000000031094, -0.5705458547094928 
3.5800000000031305, -0.562956792663472 
3.5900000000031516, -0.5567473467794724 
3.6000000000031727, -0.5518901519590373 
3.6100000000031938, -0.5482096313373577 
3.620000000003215, -0.5454903824790922 
3.630000000003236, -0.5435309654298025 
3.640000000003257, -0.542162419328583 
3.650000000003278, -0.5412501059023848 
3.6600000000032993, -0.5406896320921809 
3.6700000000033204, -0.5404016878687997 
3.6800000000033415, -0.5403275283530174 
3.6900000000033626, -0.5404255186096926 
3.7000000000033837, -0.5406687239501573 
3.710000000003405, -0.5410433929288683 
3.720000000003426, -0.5415479962710245 
3.730000000003447, -0.5421920526391426 
3.740000000003468, -0.5429932992207959 
3.750000000003489, -0.5439712204428353 
3.7600000000035103, -0.5451353312330365 
3.7700000000035314, -0.5464689855388836 
3.7800000000035525, -0.5479144684200794 
3.7900000000035736, -0.5493706285803414 
3.8000000000035947, -0.5507128990657038 
3.810000000003616, -0.5518307334085945 
3.820000000003637, -0.5526599167318327 
3.830000000003658, -0.553189564525151 
3.840000000003679, -0.5534453416681783 
3.8500000000037002, -0.5534653885572709 
3.8600000000037213, -0.5532818315565063 
3.8700000000037424, -0.5529103679091051 
3.8800000000037635, -0.5523443756820156 
3.8900000000037847, -0.5515487924084312 
3.9000000000038058, -0.5504490748590654 
3.910000000003827, -0.5489094501517506 
3.920000000003848, -0.5466919012902636 
3.930000000003869, -0.5433865667245783 
3.94000000000389, -0.5383233671313825 
3.9500000000039113, -0.5305592892555665 
3.9600000000039324, -0.519197151963366 
3.9700000000039535, -0.5042259405179774 
3.9800000000039746, -0.487254329128019 
3.9900000000039957, -0.4709155064424169 
4.000000000004016, -0.4572791853069054 
4.010000000003993, -0.4470288477636764 
4.02000000000397, -0.439822254854329 
4.030000000003946, -0.43495015758109573 
4.040000000003923, -0.43173098070444393 
4.0500000000039, -0.42963881878763993 
4.0600000000038765, -0.42830451572639816 
4.070000000003853, -0.4274803097157007 
4.08000000000383, -0.4270038205314147 
4.090000000003807, -0.4267706469293454 
4.100000000003783, -0.42671571845817724 
4.11000000000376, -0.4268014358175736 
4.120000000003737, -0.4270106896954082 
4.130000000003713, -0.42734327310877107 
4.14000000000369, -0.42781438763376656 
4.150000000003667, -0.42845370083337875 
4.1600000000036434, -0.42930278521370857 
4.17000000000362, -0.430408045664052 
4.180000000003597, -0.4318060579529286 
4.1900000000035735, -0.43350007116610517 
4.20000000000355, -0.43543294525063586 
4.210000000003527, -0.4374733046537652 
4.220000000003504, -0.43943690154781745 
4.23000000000348, -0.441144853749028 
4.240000000003457, -0.44248350397669717 
4.250000000003434, -0.4434245201545927 
4.26000000000341, -0.4440016516998987 
4.270000000003387, -0.4442724230513252 
4.280000000003364, -0.4442887201596342 
4.2900000000033405, -0.44408122584970366 
4.300000000003317, -0.4436519394299534 
4.310000000003294, -0.4429678577286607 
4.320000000003271, -0.441951205665167 
4.330000000003247, -0.4404649915520575 
4.340000000003224, -0.4382996397967888 
4.350000000003201, -0.4351821229643783 
4.360000000003177, -0.43085029393112356 
4.370000000003154, -0.42522349792357506 
4.380000000003131, -0.41859149262559614 
4.390000000003107, -0.4116115400620125 
4.400000000003084, -0.4050266929591819 
4.410000000003061, -0.3993442066072629 
4.4200000000030375, -0.3947347705541506 
4.430000000003014, -0.39113020837678103 
4.440000000002991, -0.3883613065829639 
4.450000000002968, -0.3862484187263693 
4.460000000002944, -0.38464069590274436 
4.470000000002921, -0.38342561877081666 
4.480000000002898, -0.3825264053822698 
4.490000000002874, -0.3818964947997941 
4.500000000002851, -0.381514982173322 
4.510000000002828, -0.3813844211143439 
4.520000000002804, -0.3815315470057664 
4.530000000002781, -0.3820113605148242 
4.540000000002758, -0.38291515936721315 
4.5500000000027345, -0.3843830907871596 
4.560000000002711, -0.38662081805681503 
4.570000000002688, -0.3899160459513059 
4.580000000002665, -0.3946399415391561 
4.590000000002641, -0.4011959751949229 
4.600000000002618, -0.40985184712880407 
4.610000000002595, -0.4204190469973069 
4.620000000002571, -0.4319478884152102 
4.630000000002548, -0.44288296581548936 
4.640000000002525, -0.45184203832722974 
4.6500000000025015, -0.45831245805008153 
4.660000000002478, -0.4625897608811706 
4.670000000002455, -0.4652762157097703 
4.6800000000024315, -0.46691586000323904 
4.690000000002408, -0.4678873199409893 
4.700000000002385, -0.4684245968636742 
4.710000000002362, -0.46866291065238014 
4.720000000002338, -0.4686743568541396 
4.730000000002315, -0.46848975508695395 
4.740000000002292, -0.46811117740599206 
4.750000000002268, -0.4675205052007624 
4.760000000002245, -0.4666892399983512 
4.770000000002222, -0.4655940187591245 
4.7800000000021985, -0.4642382220412258 
4.790000000002175, -0.46267114374309726 
4.800000000002152, -0.4609890847218904 
4.810000000002129, -0.4593106113092643 
4.820000000002105, -0.4577393439958365 
4.830000000002082, -0.4563379154758408 
4.840000000002059, -0.45512423659498574 
4.850000000002035, -0.4540838609069128 
4.860000000002012, -0.45318689327124917 
4.870000000001989, -0.452401918703743 
4.880000000001965, -0.45170458204297725 
4.890000000001942, -0.4510815951243514 
4.900000000001919, -0.4505322841845015 
