t, s[1].omega / s[0].omega 
0, -0.5099977552130832 
0.009999999999999995, -0.5097985056136584 
0.019999999999999934, -0.5096400304475445 
0.029999999999999874, -0.5094984825980146 
0.04000000000000012, -0.5093441568586796 
0.050000000000000405, -0.5091510272803554 
0.06000000000000069, -0.5089026970925107 
0.07000000000000098, -0.5085933478369182 
0.08000000000000126, -0.508225474392155 
0.09000000000000155, -0.507807306016727 
0.10000000000000184, -0.5073520593973813 
0.11000000000000212, -0.5068801404496809 
0.12000000000000241, -0.5064250496062219 
0.130000000000002, -0.5060439451981189 
0.1400000000000009, -0.5058337815507871 
0.1499999999999998, -0.505951895519955 
0.1599999999999987, -0.5066319023143563 
0.1699999999999976, -0.5081650790065853 
0.1799999999999965, -0.5107839847359485 
0.1899999999999954, -0.5143874014443668 
0.1999999999999943, -0.5182290024299248 
0.2099999999999932, -0.5210597962297647 
0.2199999999999921, -0.5220203954142936 
0.229999999999991, -0.5213764244387148 
0.2399999999999899, -0.5200941691588823 
0.2499999999999888, -0.518956994235385 
0.2599999999999877, -0.5182502048892499 
0.2699999999999866, -0.5179357606872796 
0.2799999999999855, -0.5178755760588085 
0.2899999999999844, -0.517943135423677 
0.2999999999999833, -0.5180518151980409 
0.3099999999999822, -0.5181497674305315 
0.3199999999999811, -0.5182076880750087 
0.32999999999998, -0.5182084447842692 
0.3399999999999789, -0.5181403302000561 
0.3499999999999778, -0.5179937413551718 
0.35999999999997667, -0.5177609708730949 
0.36999999999997557, -0.5174388426134284 
0.37999999999997447, -0.5170332254304328 
0.38999999999997337, -0.5165628883402512 
0.39999999999997227, -0.5160590512823411 
0.40999999999997117, -0.5155585431411573 
0.41999999999997006, -0.5150927530828168 
0.42999999999996896, -0.5146779446650638 
0.43999999999996786, -0.5143117701574798 
0.44999999999996676, -0.5139770419557488 
0.45999999999996566, -0.5136501219011886 
0.46999999999996456, -0.5133095983621095 
0.47999999999996346, -0.5129417906439282 
0.48999999999996235, -0.5125422833104389 
0.49999999999996125, -0.512115134434963 
0.5099999999999602, -0.511672177130122 
0.519999999999959, -0.5112343128318753 
0.529999999999958, -0.510836053340255 
0.5399999999999568, -0.5105344603527675 
0.5499999999999557, -0.5104239559253168 
0.5599999999999546, -0.5106585644798316 
0.5699999999999535, -0.5114813917223402 
0.5799999999999524, -0.513253733453857 
0.5899999999999513, -0.5164558558757772 
0.5999999999999502, -0.5215930231791333 
0.6099999999999491, -0.5289143086039733 
0.619999999999948, -0.5379686230083816 
0.6299999999999469, -0.5474016471686982 
0.6399999999999458, -0.5555566234467327 
0.6499999999999447, -0.5615260466899817 
0.6599999999999436, -0.5654623791885441 
0.6699999999999425, -0.5680003369238595 
0.6799999999999414, -0.5696949986291349 
0.6899999999999403, -0.5708755921517651 
0.6999999999999392, -0.571712033133845 
0.7099999999999381, -0.572294592284538 
0.719999999999937, -0.5726770311870386 
0.7299999999999359, -0.5728938282294316 
0.7399999999999348, -0.5729658730676563 
0.7499999999999337, -0.5729020784736991 
0.7599999999999326, -0.5726999447149586 
0.7699999999999315, -0.5723466432844944 
0.7799999999999304, -0.5718222290977325 
0.7899999999999293, -0.5711068056971232 
0.7999999999999282, -0.5701922529445185 
0.8099999999999271, -0.5690952097091367 
0.819999999999926, -0.5678632749898643 
0.8299999999999249, -0.5665671172213209 
0.8399999999999238, -0.5652805824652134 
0.8499999999999227, -0.5640605768723488 
0.8599999999999216, -0.5629375894258292 
0.8699999999999205, -0.5619185034147519 
0.8799999999999194, -0.5609962191380287 
0.8899999999999183, -0.560159845003388 
0.8999999999999172, -0.5594020459336837 
0.9099999999999161, -0.558723119648717 
0.919999999999915, -0.5581329957985821 
0.9299999999999139, -0.557652609211855 
0.9399999999999128, -0.5573156397261865 
0.9499999999999117, -0.557171073244851 
0.9599999999999106, -0.5572867017735839 
0.9699999999999095, -0.5577535024502461 
0.9799999999999084, -0.5586905842428117 
0.9899999999999073, -0.5602496570993658 
0.9999999999999062, -0.5626160846895412 
1.0099999999999052, -0.5659996095230482 
1.019999999999904, -0.5706014923884667 
1.029999999999903, -0.5765398334063477 
1.039999999999902, -0.583725974957414 
1.0499999999999008, -0.5917369504103066 
1.0599999999998997, -0.5998107353393592 
1.0699999999998986, -0.6070785130142371 
1.0799999999998975, -0.612927599630636 
1.0899999999998964, -0.6171978190097709 
1.0999999999998953, -0.6200862525183284 
1.1099999999998942, -0.6219270790764895 
1.119999999999893, -0.623032533272029 
1.129999999999892, -0.623634196730648 
1.1399999999998909, -0.6238823319256934 
1.1499999999998898, -0.6238625350942039 
1.1599999999998887, -0.6236106415107844 
1.1699999999998876, -0.6231203310722068 
1.1799999999998865, -0.6223429814198358 
1.1899999999998854, -0.6211812874252163 
1.1999999999998843, -0.6194813713220964 
1.2099999999998832, -0.6170358950987712 
1.219999999999882, -0.6136222315480041 
1.229999999999881, -0.6090992521262238 
1.2399999999998799, -0.6035415812303917 
1.2499999999998788, -0.5973099557509147 
1.2599999999998777, -0.5909563957959607 
1.2699999999998766, -0.5850123901584972 
1.2799999999998755, -0.5798246016564045 
1.2899999999998744, -0.5755254984428197 
1.2999999999998733, -0.5720946612184623 
1.3099999999998722, -0.5694349551569593 
1.319999999999871, -0.5674258966666967 
1.32999999999987, -0.5659511675707627 
1.3399999999998689, -0.5649092366279225 
1.3499999999998678, -0.5642156023290329 
1.3599999999998666, -0.5638018057396665 
1.3699999999998655, -0.5636136627793135 
1.3799999999998644, -0.563609644572128 
1.3899999999998633, -0.5637596517967017 
1.3999999999998622, -0.5640441810148206 
1.4099999999998611, -0.5644537545471195 
1.41999999999986, -0.5649882533290299 
1.429999999999859, -0.5656553424297532 
1.4399999999998578, -0.5664666375207107 
1.4499999999998567, -0.567430136225548 
1.4599999999998556, -0.5685385831750185 
1.4699999999998545, -0.5697565734025648 
1.4799999999998534, -0.571013632459118 
1.4899999999998523, -0.5722122147736269 
1.4999999999998512, -0.5732525592533401 
1.5099999999998501, -0.5740622730367364 
1.519999999999849, -0.5746121673927339 
1.529999999999848, -0.5749110031615783 
1.5399999999998468, -0.5749877022974388 
1.5499999999998457, -0.5748736284493172 
1.5599999999998446, -0.5745910778170613 
1.5699999999998435, -0.5741474128754441 
1.5799999999998424, -0.5735317003203815 
1.5899999999998413, -0.5727107194744459 
1.5999999999998402, -0.5716214011687513 
1.6099999999998391, -0.5701558385930122 
1.619999999999838, -0.5681327947208034 
1.629999999999837, -0.565249053402283 
1.6399999999998358, -0.5610191287421677 
1.6499999999998347, -0.5547760131607564 
1.6599999999998336, -0.5459163479795542 
1.6699999999998325, -0.5344984721758461 
1.6799999999998314, -0.5217247217115244 
1.6899999999998303, -0.5095020523010761 
1.6999999999998292, -0.4993422943910752 
1.709999999999828, -0.49176900874162854 
1.719999999999827, -0.4865391752247203 
1.729999999999826, -0.4831102781118152 
1.7399999999998248, -0.48094460889976665 
1.7499999999998237, -0.47962007924055106 
1.7599999999998226, -0.478838744500686 
1.7699999999998215, -0.4784015091558668 
1.7799999999998204, -0.47817935737959366 
1.7899999999998193, -0.47809036111580705 
1.7999999999998182, -0.4780835572047928 
1.809999999999817, -0.4781285083953953 
1.819999999999816, -0.4782091337789468 
1.8299999999998149, -0.4783205999335577 
1.8399999999998138, -0.47846807844197115 
1.8499999999998127, -0.47866584548631674 
1.8599999999998116, -0.47893481025223705 
1.8699999999998105, -0.4792967725614935 
1.8799999999998094, -0.4797650777045831 
1.8899999999998083, -0.4803337549755794 
1.8999999999998072, -0.48096990805224654 
1.909999999999806, -0.48161532934724327 
1.919999999999805, -0.48220011118281453 
1.9299999999998039, -0.48266290499009157 
1.9399999999998028, -0.4829662600649239 
1.9499999999998017, -0.4830990758125771 
1.9599999999998006, -0.4830681012325785 
1.9699999999997995, -0.4828859383506804 
1.9799999999997984, -0.4825610346892034 
1.9899999999997973, -0.4820906728335162 
1.9999999999997962, -0.4814550642193066 
2.0099999999998173, -0.4806094415935179 
2.0199999999998384, -0.47947004139972754 
2.0299999999998595, -0.47788816701182046 
2.0399999999998806, -0.4756056487738912 
2.0499999999999017, -0.472194103207369 
2.059999999999923, -0.46702449736487617 
2.069999999999944, -0.45941099204608654 
2.079999999999965, -0.44909462681792184 
2.089999999999986, -0.4368356228148847 
2.100000000000007, -0.4243307592571354 
2.1100000000000283, -0.41325984047624137 
2.1200000000000494, -0.4044720445700672 
2.1300000000000705, -0.3979818925256907 
2.1400000000000916, -0.39338579138577345 
2.1500000000001127, -0.39020313077108854 
2.160000000000134, -0.3880270235901849 
2.170000000000155, -0.38655637428082373 
2.180000000000176, -0.38558231003415455 
2.190000000000197, -0.3849651855855011 
2.2000000000002182, -0.38461466287092805 
2.2100000000002393, -0.3844754361496867 
2.2200000000002604, -0.3845180576410751 
2.2300000000002815, -0.3847337396762065 
2.2400000000003026, -0.38513212298251 
2.2500000000003237, -0.3857410892951055 
2.260000000000345, -0.3866074300771202 
2.270000000000366, -0.38779632205051584 
2.280000000000387, -0.38938591731160505 
2.290000000000408, -0.39145116667431934 
2.3000000000004293, -0.39403033856858916 
2.3100000000004504, -0.39707479809132795 
2.3200000000004715, -0.40040483472256627 
2.3300000000004926, -0.40371986143287514 
2.3400000000005137, -0.4066926314394819 
2.3500000000005348, -0.4090959507777325 
2.360000000000556, -0.4108638280979708 
2.370000000000577, -0.4120571690336413 
2.380000000000598, -0.412789877655411 
2.390000000000619, -0.4131725447818349 
2.4000000000006403, -0.4132874746959482 
2.4100000000006614, -0.4131836116934622 
2.4200000000006825, -0.4128785938610129 
2.4300000000007036, -0.41236131540782683 
2.4400000000007247, -0.41159371415107654 
2.450000000000746, -0.41051455345690513 
2.460000000000767, -0.4090516987860984 
2.470000000000788, -0.40715063852859706 
2.480000000000809, -0.4048184591735821 
2.49000000000083, -0.4021603362365048 
2.5000000000008513, -0.39937080807499303 
2.5100000000008724, -0.3966700534392497 
2.5200000000008935, -0.3942281235391073 
2.5300000000009146, -0.3921282691362956 
2.5400000000009357, -0.39037717802687416 
2.550000000000957, -0.3889364824547104 
2.560000000000978, -0.3877519324671993 
2.570000000000999, -0.3867718252313076 
2.58000000000102, -0.3859558627844222 
2.5900000000010412, -0.38527821937111406 
2.6000000000010624, -0.3847281912920798 
2.6100000000010835, -0.38431079956965314 
2.6200000000011046, -0.38404893258589795 
2.6300000000011257, -0.38398825975893164 
2.6400000000011468, -0.3842062131070135 
2.650000000001168, -0.38482664669863786 
2.660000000001189, -0.38604181689247885 
2.67000000000121, -0.3881415247238939 
2.680000000001231, -0.3915414216074409 
2.6900000000012523, -0.3967796092877034 
2.7000000000012734, -0.4044037090569719 
2.7100000000012945, -0.4146309055556844 
2.7200000000013156, -0.4267982949195083 
2.7300000000013367, -0.4391175176679146 
2.740000000001358, -0.44947754250002775 
2.750000000001379, -0.4568004898749301 
2.7600000000014, -0.46137962666133914 
2.770000000001421, -0.4641015878555713 
2.780000000001442, -0.4657380648656105 
2.7900000000014633, -0.466761787631345 
2.8000000000014844, -0.4674230510668753 
2.8100000000015055, -0.46784990739607923 
2.8200000000015266, -0.4681095650212745 
2.8300000000015477, -0.46823832590501413 
2.840000000001569, -0.4682550334190257 
2.85000000000159, -0.4681672879930631 
2.860000000001611, -0.4679751444855584 
2.870000000001632, -0.4676748407669863 
2.8800000000016532, -0.467264020554352 
2.8900000000016743, -0.46674856879227383 
2.9000000000016954, -0.46614891919843443 
2.9100000000017165, -0.4655016367651522 
2.9200000000017377, -0.46485303659350297 
2.9300000000017588, -0.4642465106832292 
2.94000000000178, -0.4637099903458994 
2.950000000001801, -0.46324975548615593 
2.960000000001822, -0.46285246934371405 
2.970000000001843, -0.46249314409723974 
2.9800000000018643, -0.46214482727632217 
2.9900000000018854, -0.4617860739830658 
3.0000000000019065, -0.4614043023639581 
3.0100000000019276, -0.46099570868386175 
3.0200000000019487, -0.46056389900360906 
3.03000000000197, -0.4601193373739643 
3.040000000001991, -0.4596809984786533 
3.050000000002012, -0.45928115540822095 
3.060000000002033, -0.45897421384549586 
3.070000000002054, -0.4588503818941764 
3.0800000000020753, -0.4590532349850398 
3.0900000000020964, -0.45979328338632336 
3.1000000000021175, -0.46133059793665343 
3.1100000000021386, -0.4638648156946116 
3.1200000000021597, -0.467259398753303 
3.130000000002181, -0.4706912767442309 
3.140000000002202, -0.47274376955645014 
3.150000000002223, -0.472406146283347 
3.160000000002244, -0.47005025990701854 
3.1700000000022652, -0.46698881442486784 
3.1800000000022863, -0.4643118078082913 
3.1900000000023074, -0.46242321373764517 
3.2000000000023285, -0.4612657444674281 
3.2100000000023496, -0.46063169415419314 
3.2200000000023707, -0.4603235006983807 
3.230000000002392, -0.4601981636618966 
3.240000000002413, -0.46016373296962126 
3.250000000002434, -0.46016443697817266 
3.260000000002455, -0.4601672564019964 
3.2700000000024763, -0.46015270976990913 
3.2800000000024974, -0.4601096058668072 
3.2900000000025185, -0.46003301456768675 
3.3000000000025396, -0.45992467593738506 
3.3100000000025607, -0.459794689054749 
3.3200000000025818, -0.45966253903116383 
3.330000000002603, -0.4595551017444784 
3.340000000002624, -0.45950031249558726 
3.350000000002645, -0.4595177066709895 
3.360000000002666, -0.45960943020889744 
3.3700000000026873, -0.4597560137893633 
3.3800000000027084, -0.45991983489108684 
3.3900000000027295, -0.4600557630730818 
3.4000000000027506, -0.46012410676182103 
3.4100000000027717, -0.4600992399994692 
3.420000000002793, -0.45997056153816346 
3.430000000002814, -0.4597376073019272 
3.440000000002835, -0.4594033962714647 
3.450000000002856, -0.4589688104408175 
3.460000000002877, -0.4584285118091345 
3.4700000000028983, -0.45776728739576844 
3.4800000000029194, -0.4569545834085848 
3.4900000000029405, -0.45593314826006104 
3.5000000000029616, -0.45459375169172933 
3.5100000000029827, -0.45272194787608083 
3.520000000003004, -0.44990436288752844 
3.530000000003025, -0.44543055620210287 
3.540000000003046, -0.43838219043003746 
3.550000000003067, -0.42822166611156287 
3.5600000000030882, -0.41567323638118897 
3.5700000000031094, -0.40273227953544055 
3.5800000000031305, -0.39140310688361485 
3.5900000000031516, -0.382630647520236 
3.6000000000031727, -0.3763516757033982 
3.6100000000031938, -0.3720524142580347 
3.620000000003215, -0.3691753252885546 
3.630000000003236, -0.36727440486443313 
3.640000000003257, -0.36603402438008126 
3.650000000003278, -0.36524343142360666 
3.6600000000032993, -0.36476650895463025 
3.6700000000033204, -0.36451813685824264 
3.6800000000033415, -0.3644482345680155 
3.6900000000033626, -0.36453195961596097 
3.7000000000033837, -0.3647643919390145 
3.710000000003405, -0.36515837698834774 
3.720000000003426, -0.365744357618737 
3.730000000003447, -0.36657073174049415 
3.740000000003468, -0.3677023735516233 
3.750000000003489, -0.36921338870877807 
3.7600000000035103, -0.37116843642967184 
3.7700000000035314, -0.37358768418291205 
3.7800000000035525, -0.3764001067928377 
3.7900000000035736, -0.37941258090962127 
3.8000000000035947, -0.3823386979629791 
3.810000000003616, -0.3848975821934544 
3.820000000003637, -0.3869186116233432 
3.830000000003658, -0.3883731201712063 
3.840000000003679, -0.38933001608496043 
3.8500000000037002, -0.3898913423986826 
3.8600000000037213, -0.39014906850365494 
3.8700000000037424, -0.3901677201162821 
3.8800000000037635, -0.38998152435555944 
3.8900000000037847, -0.3895961552199799 
3.9000000000038058, -0.3889907093214573 
3.910000000003827, -0.3881201765313036 
3.920000000003848, -0.38692253287004574 
3.930000000003869, -0.38533743839324636 
3.94000000000389, -0.3833410095849107 
3.9500000000039113, -0.38098648207547164 
3.9600000000039324, -0.37841986622382434 
3.9700000000039535, -0.3758437012375899 
3.9800000000039746, -0.37344567144984936 
3.9900000000039957, -0.3713430028023788 
4.000000000004016, -0.3695722486996378 
4.010000000003993, -0.36811219406482565 
4.02000000000397, -0.3669140245898551 
4.030000000003946, -0.36592395212340906 
4.040000000003923, -0.36509580195825314 
4.0500000000039, -0.3643962872791674 
4.0600000000038765, -0.3638063973492075 
4.070000000003853, -0.3633216386152554 
4.08000000000383, -0.3629530743032059 
4.090000000003807, -0.36273059803154006 
4.100000000003783, -0.3627097812946175 
4.11000000000376, -0.3629839123598377 
4.120000000003737, -0.36370315360885486 
4.130000000003713, -0.36510192383993384 
4.14000000000369, -0.3675301705456117 
4.150000000003667, -0.3714654228848059 
4.1600000000036434, -0.37743665631144957 
4.17000000000362, -0.385729360407425 
4.180000000003597, -0.3958121663420627 
4.1900000000035735, -0.40593253286658193 
4.20000000000355, -0.4138549434856508 
4.210000000003527, -0.4185132532730593 
4.220000000003504, -0.4205300931203129 
4.23000000000348, -0.42114861706730017 
4.240000000003457, -0.421266178419127 
4.250000000003434, -0.4212874255414659 
4.26000000000341, -0.42132978710121777 
4.270000000003387, -0.421400064052366 
4.280000000003364, -0.4214777137394374 
4.2900000000033405, -0.42154265298018984 
4.300000000003317, -0.4215808522843053 
4.310000000003294, -0.4215834071560713 
4.320000000003271, -0.42154486608033137 
4.330000000003247, -0.4214626621969155 
4.340000000003224, -0.4213381380913185 
4.350000000003201, -0.42117892961970566 
4.360000000003177, -0.42100155641248727 
4.370000000003154, -0.42083208655710697 
4.380000000003131, -0.42070270770991913 
4.390000000003107, -0.42064377623864385 
4.400000000003084, -0.42067360971034296 
4.410000000003061, -0.42079002765881607 
4.4200000000030375, -0.42096761527812177 
4.430000000003014, -0.4211630486040872 
4.440000000002991, -0.42132726654703256 
4.450000000002968, -0.4214188911353423 
4.460000000002944, -0.4214121268018579 
4.470000000002921, -0.42129642324747296 
4.480000000002898, -0.4210704343589405 
4.490000000002874, -0.4207344755211159 
4.500000000002851, -0.4202838539132525 
4.510000000002828, -0.41970288516073684 
4.520000000002804, -0.4189575490511549 
4.530000000002781, -0.4179831292630041 
4.540000000002758, -0.4166608685262224 
4.5500000000027345, -0.41477508436304955 
4.560000000002711, -0.41194613053170065 
4.570000000002688, -0.40756931145779757 
4.580000000002665, -0.4008909793626865 
4.590000000002641, -0.39144044374172765 
4.600000000002618, -0.37972395636459827 
4.610000000002595, -0.36736455418984726 
4.620000000002571, -0.3561845806143018 
4.630000000002548, -0.34720803880178674 
4.640000000002525, -0.34053727354597124 
4.6500000000025015, -0.3357858682915695 
4.660000000002478, -0.3324660056579757 
4.670000000002455, -0.33016287907803943 
4.6800000000024315, -0.32857234079207287 
4.690000000002408, -0.3274866492663198 
4.700000000002385, -0.32677003759627277 
4.710000000002362, -0.32633804294866264 
4.720000000002338, -0.32614327449094016 
4.730000000002315, -0.3261669734708875 
4.740000000002292, -0.32641524326555915 
4.750000000002268, -0.326919108630482 
4.760000000002245, -0.32773781423955956 
4.770000000002222, -0.32896453709045664 
4.7800000000021985, -0.33073230404006515 
4.790000000002175, -0.333214134415633 
4.800000000002152, -0.3366037550278321 
4.810000000002129, -0.3410534948899372 
4.820000000002105, -0.3465505232308156 
4.830000000002082, -0.352769490397516 
4.840000000002059, -0.3590484317951742 
4.850000000002035, -0.3646279103461522 
4.860000000002012, -0.36901510706044 
4.870000000001989, -0.37213678711816933 
4.880000000001965, -0.37420383485031306 
