t, s[1].omega / s[0].omega 
0, -0.07999783633081567 
0.009999999999999995, -0.07996173079618335 
0.019999999999999934, -0.08026502133843419 
0.029999999999999874, -0.0808512788789724 
0.04000000000000012, -0.08162117392957191 
0.050000000000000405, -0.08244424751834459 
0.06000000000000069, -0.08319035931207597 
0.07000000000000098, -0.0837626021164298 
0.08000000000000126, -0.08410946704099123 
0.09000000000000155, -0.08421320091095674 
0.10000000000000184, -0.08406767678673084 
0.11000000000000212, -0.08365839308486782 
0.12000000000000241, -0.08294962530428938 
0.130000000000002, -0.08188087345268988 
0.1400000000000009, -0.08037833956914489 
0.1499999999999998, -0.07839116961428279 
0.1599999999999987, -0.07595238696718533 
0.1699999999999976, -0.07322942501872752 
0.1799999999999965, -0.07050193265238844 
0.1899999999999954, -0.06805542310902915 
0.1999999999999943, -0.06607405540315632 
0.2099999999999932, -0.06461267385373345 
0.2199999999999921, -0.06363548964221173 
0.229999999999991, -0.06306420945066617 
0.2399999999999899, -0.06280517855314473 
0.2499999999999888, -0.06275874170910936 
0.2599999999999877, -0.06282459645002444 
0.2699999999999866, -0.06291058367715126 
0.2799999999999855, -0.06294193999231282 
0.2899999999999844, -0.06286400366279613 
0.2999999999999833, -0.06263552758264349 
0.3099999999999822, -0.062215042849744454 
0.3199999999999811, -0.06154368180605696 
0.32999999999998, -0.06052637317425974 
0.3399999999999789, -0.05901495614522444 
0.3499999999999778, -0.05680745917550657 
0.35999999999997667, -0.05369844673851694 
0.36999999999997557, -0.04961821285030853 
0.37999999999997447, -0.04481180079704766 
0.38999999999997337, -0.03985606412699834 
0.39999999999997227, -0.03539081269061223 
0.40999999999997117, -0.031802568069507514 
0.41999999999997006, -0.029153837930807208 
0.42999999999996896, -0.027312989137959598 
0.43999999999996786, -0.02609300339796683 
0.44999999999996676, -0.025319612101719995 
0.45999999999996566, -0.024847211687606514 
0.46999999999996456, -0.02455612532341251 
0.47999999999996346, -0.024348885636855035 
0.48999999999996235, -0.02414842865319655 
0.49999999999996125, -0.023894727226447764 
0.5099999999999602, -0.023536859198735258 
0.519999999999959, -0.023019873813488623 
0.529999999999958, -0.022266414473293857 
0.5399999999999568, -0.021152413181333797 
0.5499999999999557, -0.01947897432616946 
0.5599999999999546, -0.01695814398791664 
0.5699999999999535, -0.013267258299431664 
0.5799999999999524, -0.008250097797956962 
0.5899999999999513, -0.002214588751591708 
0.5999999999999502, 0.00373324099836804 
0.6099999999999491, 0.008818790449493703 
0.619999999999948, 0.012703545453001994 
0.6299999999999469, 0.015369511476921425 
0.6399999999999458, 0.017041023995757153 
0.6499999999999447, 0.01798221157356656 
0.6599999999999436, 0.018415463233233544 
0.6699999999999425, 0.018512337485838113 
0.6799999999999414, 0.018405557033034644 
0.6899999999999403, 0.018199512047185836 
0.6999999999999392, 0.01797599276560139 
0.7099999999999381, 0.017799277389428988 
0.719999999999937, 0.017724510681491324 
0.7299999999999359, 0.017810740449019175 
0.7399999999999348, 0.018138637955036056 
0.7499999999999337, 0.018832264622764862 
0.7599999999999326, 0.020079408730467003 
0.7699999999999315, 0.022128135148542942 
0.7799999999999304, 0.02520877955816031 
0.7899999999999293, 0.02934056813328286 
0.7999999999999282, 0.034131010589681564 
0.8099999999999271, 0.038851203169568665 
0.819999999999926, 0.04283176019550986 
0.8299999999999249, 0.04577350792397721 
0.8399999999999238, 0.04771773445022346 
0.8499999999999227, 0.048856789384338475 
0.8599999999999216, 0.04939723558453285 
0.8699999999999205, 0.04951262058474047 
0.8799999999999194, 0.04934353897440165 
0.8899999999999183, 0.049007949843551675 
0.8999999999999172, 0.04860616427805453 
0.9099999999999161, 0.048220350047376154 
0.919999999999915, 0.047914846633064556 
0.9299999999999139, 0.047741974267990595 
0.9399999999999128, 0.04775335671288452 
0.9499999999999117, 0.04801387053540198 
0.9599999999999106, 0.048613815859702855 
0.9699999999999095, 0.04967074737206144 
0.9799999999999084, 0.0513039427386797 
0.9899999999999073, 0.053563022379603566 
0.9999999999999062, 0.05632840631685454 
1.0099999999999052, 0.05927557339886965 
1.019999999999904, 0.061990518484649634 
1.029999999999903, 0.06416021207078691 
1.039999999999902, 0.06566504631079584 
1.0499999999999008, 0.06653480865277586 
1.0599999999998997, 0.06686281792972987 
1.0699999999998986, 0.06675243149108089 
1.0799999999998975, 0.06630414062582803 
1.0899999999998964, 0.06562198627339708 
1.0999999999998953, 0.06481748978149492 
1.1099999999998942, 0.06400082261731 
1.119999999999893, 0.06326459773292362 
1.129999999999892, 0.06267369089082644 
1.1399999999998909, 0.06226823512744142 
1.1499999999998898, 0.06207583588107627 
1.1599999999998887, 0.06212451834781037 
1.1699999999998876, 0.06244935744150178 
1.1799999999998865, 0.06308727099140174 
1.1899999999998854, 0.0640555107787178 
1.1999999999998843, 0.06531663456504516 
1.2099999999998832, 0.06675092182109894 
1.219999999999882, 0.0681692502879854 
1.229999999999881, 0.06937278351879198 
1.2399999999998799, 0.07021630160059147 
1.2499999999998788, 0.07062865581518564 
1.2599999999998777, 0.07059216826959017 
1.2699999999998766, 0.07011521793416002 
1.2799999999998755, 0.0692239786185947 
1.2899999999998744, 0.06797653208161024 
1.2999999999998733, 0.06648235472439326 
1.3099999999998722, 0.06489946607538677 
1.319999999999871, 0.06339616162086076 
1.32999999999987, 0.06210070795326765 
1.3399999999998689, 0.0610767874557529 
1.3499999999998678, 0.06033468308574658 
1.3599999999998666, 0.05985842085980858 
1.3699999999998655, 0.059627790437926945 
1.3799999999998644, 0.05962721885651699 
1.3899999999998633, 0.059842078653103356 
1.3999999999998622, 0.06024579648442925 
1.4099999999998611, 0.060784022766877166 
1.41999999999986, 0.0613664820806317 
1.429999999999859, 0.06187597029909454 
1.4399999999998578, 0.062191259249177365 
1.4499999999998567, 0.062206999399741524 
1.4599999999998556, 0.06183718584685656 
1.4699999999998545, 0.061006826403534276 
1.4799999999998534, 0.0596505520775787 
1.4899999999998523, 0.05773766389772218 
1.4999999999998512, 0.0553265444155305 
1.5099999999998501, 0.05261184673049789 
1.519999999999849, 0.049896683282103234 
1.529999999999848, 0.04747474144533431 
1.5399999999998468, 0.04551524251870888 
1.5499999999998457, 0.04404312138153208 
1.5599999999998446, 0.042996351689443865 
1.5699999999998435, 0.04228976145103008 
1.5799999999998424, 0.04184944032284196 
1.5899999999998413, 0.0416202994118819 
1.5999999999998402, 0.041559130510667244 
1.6099999999998391, 0.04162199357605744 
1.619999999999838, 0.04175177347045217 
1.629999999999837, 0.04187120183995598 
1.6399999999998358, 0.04188449756159505 
1.6499999999998347, 0.04168463295309431 
1.6599999999998336, 0.04115794973145802 
1.6699999999998325, 0.04018105329840864 
1.6799999999998314, 0.038616963696913795 
1.6899999999998303, 0.03633204190028116 
1.6999999999998292, 0.0332615844421693 
1.709999999999828, 0.029522801195938454 
1.719999999999827, 0.025486046064501538 
1.729999999999826, 0.02166766593937513 
1.7399999999998248, 0.018477230014913935 
1.7499999999998237, 0.016057693173757475 
1.7599999999998226, 0.014333805930758258 
1.7699999999998215, 0.01314659779904984 
1.7799999999998204, 0.012345934474905503 
1.7899999999998193, 0.011820998873813184 
1.7999999999998182, 0.011496775408713552 
1.809999999999817, 0.011319410088345314 
1.819999999999816, 0.011240254454645816 
1.8299999999998149, 0.01120240359730794 
1.8399999999998138, 0.011132416795831771 
1.8499999999998127, 0.010938574992708665 
1.8599999999998116, 0.010513119803946315 
1.8699999999998105, 0.009732659271349645 
1.8799999999998094, 0.008454182588702584 
1.8899999999998083, 0.006515747164828824 
1.8999999999998072, 0.003766760079638659 
1.909999999999806, 0.00015780810718821913 
1.919999999999805, -0.0037061824550340926 
1.9299999999998039, -0.007755874623675034 
1.9399999999998028, -0.011424275563462965 
1.9499999999998017, -0.01431241971092572 
1.9599999999998006, -0.016335428232336052 
1.9699999999997995, -0.017622171605676674 
1.9799999999997984, -0.018361014057226097 
1.9899999999997973, -0.018712797291958363 
1.9999999999997962, -0.01878988121093405 
2.0099999999998173, -0.018665349559611893 
2.0199999999998384, -0.01839007698118817 
2.0299999999998595, -0.01800968516650679 
2.0399999999998806, -0.017578575978612187 
2.0499999999999017, -0.01716840740285959 
2.059999999999923, -0.016869121154350623 
2.069999999999944, -0.01678459622587077 
2.079999999999965, -0.017028831267678395 
2.089999999999986, -0.017725823823979286 
2.100000000000007, -0.019005623089739652 
2.1100000000000283, -0.020976565081132142 
2.1200000000000494, -0.02365400609553109 
2.1300000000000705, -0.026865278657129437 
2.1400000000000916, -0.030226197988334765 
2.1500000000001127, -0.03327939454651483 
2.160000000000134, -0.0357086267738932 
2.170000000000155, -0.03743231081179056 
2.180000000000176, -0.03853519484378795 
2.190000000000197, -0.03915591994404214 
2.2000000000002182, -0.039417874525156174 
2.2100000000002393, -0.039408520556442214 
2.2200000000002604, -0.03918409060256929 
2.2300000000002815, -0.03878337119910341 
2.2400000000003026, -0.03824387694629115 
2.2500000000003237, -0.03761674205239003 
2.260000000000345, -0.036975419129510245 
2.270000000000366, -0.036413682646886665 
2.280000000000387, -0.03603447215035963 
2.290000000000408, -0.035938112647444835 
2.3000000000004293, -0.03621677850151575 
2.3100000000004504, -0.036951060560296255 
2.3200000000004715, -0.03819455667458502 
2.3300000000004926, -0.03993539713072146 
2.3400000000005137, -0.04204851532374768 
2.3500000000005348, -0.044288614720001694 
2.360000000000556, -0.046365560389025805 
2.370000000000577, -0.04806052352690093 
2.380000000000598, -0.049287063360335566 
2.390000000000619, -0.050066063891852516 
2.4000000000006403, -0.05046482308956396 
2.4100000000006614, -0.05055058571953348 
2.4200000000006825, -0.05037076670971685 
2.4300000000007036, -0.04995208019349638 
2.4400000000007247, -0.049310563476274785 
2.450000000000746, -0.04846842505209316 
2.460000000000767, -0.04747311607179827 
2.470000000000788, -0.04640903936939684 
2.480000000000809, -0.04539109192646976 
2.49000000000083, -0.04454050979502464 
2.5000000000008513, -0.043959133881298816 
2.5100000000008724, -0.04371787709358735 
2.5200000000008935, -0.043858008679682245 
2.5300000000009146, -0.04439080824255498 
2.5400000000009357, -0.045284945361617764 
2.550000000000957, -0.04644813049844942 
2.560000000000978, -0.047727021345835466 
2.570000000000999, -0.048943937882913555 
2.58000000000102, -0.04995337259399791 
2.5900000000010412, -0.050676790404160954 
2.6000000000010624, -0.05109673060828114 
2.6100000000010835, -0.051227449071025374 
2.6200000000011046, -0.05108665101560515 
2.6300000000011257, -0.05067931480404404 
2.6400000000011468, -0.04999425381457692 
2.650000000001168, -0.04901287863589853 
2.660000000001189, -0.04773097555248727 
2.67000000000121, -0.04618961298516844 
2.680000000001231, -0.044497658973128816 
2.6900000000012523, -0.042820557963708504 
2.7000000000012734, -0.04133173020022909 
2.7100000000012945, -0.04016025554212503 
2.7200000000013156, -0.039370672439500834 
2.7300000000013367, -0.03897443280324699 
2.740000000001358, -0.03894783150968013 
2.750000000001379, -0.03923854773712596 
2.7600000000014, -0.03976265876623915 
2.770000000001421, -0.04040682762185258 
2.780000000001442, -0.04104692839144325 
2.7900000000014633, -0.04157650765687869 
2.8000000000014844, -0.04192574311989271 
2.8100000000015055, -0.042059827221641796 
2.8200000000015266, -0.04196261802919633 
2.8300000000015477, -0.04161757119077989 
2.840000000001569, -0.040993687998376147 
2.85000000000159, -0.04004023712331916 
2.860000000001611, -0.03869530173132704 
2.870000000001632, -0.03691593274758275 
2.8800000000016532, -0.03473003876041468 
2.8900000000016743, -0.032281825624094 
2.9000000000016954, -0.02981798752792279 
2.9100000000017165, -0.027599519945188482 
2.9200000000017377, -0.0258052760127389 
2.9300000000017588, -0.024500527617513763 
2.94000000000178, -0.02366697356506233 
2.950000000001801, -0.023244679596716243 
2.960000000001822, -0.023155115087502176 
2.970000000001843, -0.02330620379680858 
2.9800000000018643, -0.023594223497152254 
2.9900000000018854, -0.02391365830448982 
3.0000000000019065, -0.02417312226634471 
3.0100000000019276, -0.024306284486015642 
3.0200000000019487, -0.024270197542227527 
3.03000000000197, -0.02403313202522938 
3.040000000001991, -0.023558748046823723 
3.050000000002012, -0.022792209396604736 
3.060000000002033, -0.021653034237662634 
3.070000000002054, -0.02004344667251051 
3.0800000000020753, -0.01788658969421897 
3.0900000000020964, -0.015199751022595676 
3.1000000000021175, -0.012163683690502712 
3.1100000000021386, -0.009104761581974232 
3.1200000000021597, -0.006363976126999274 
3.130000000002181, -0.0041586633772684525 
3.140000000002202, -0.0025476634802081535 
3.150000000002223, -0.0014841428305790653 
3.160000000002244, -0.0008785579169863673 
3.1700000000022652, -0.0006314733202481842 
3.1800000000022863, -0.000640598849010688 
3.1900000000023074, -0.0008006964821186014 
3.2000000000023285, -0.0010091828001277613 
3.2100000000023496, -0.0011773866008698917 
3.2200000000023707, -0.0012386438227005876 
3.230000000002392, -0.0011463934364575406 
3.240000000002413, -0.0008631923681752397 
3.250000000002434, -0.00034599857726470764 
3.260000000002455, 0.0002396745961895632 
3.2700000000024763, 0.0009999717145563376 
3.2800000000024974, 0.0022453518399924025 
3.2900000000025185, 0.004049238778492253 
3.3000000000025396, 0.006378572867674392 
3.3100000000025607, 0.009028139341244633 
3.3200000000025818, 0.011654102779687623 
3.330000000002603, 0.013918084047942526 
3.340000000002624, 0.015620258348697342 
3.350000000002645, 0.016719356219314693 
3.360000000002666, 0.0172716867325712 
3.3700000000026873, 0.017369013268374353 
3.3800000000027084, 0.01710982994169183 
3.3900000000027295, 0.016595774748472993 
3.4000000000027506, 0.015933324156360694 
3.4100000000027717, 0.01522784455105253 
3.420000000002793, 0.014570783016505967 
3.430000000002814, 0.014030140591577922 
3.440000000002835, 0.01365186999370882 
3.450000000002856, 0.013470948957761672 
3.460000000002877, 0.013525849946694877 
3.4700000000028983, 0.013870422582365916 
3.4800000000029194, 0.014577377925016705 
3.4900000000029405, 0.01572433740290461 
3.5000000000029616, 0.017351908564526113 
3.5100000000029827, 0.019399343507346754 
3.520000000003004, 0.02166408227951986 
3.530000000003025, 0.023847829037279906 
3.540000000003046, 0.025677288982343588 
3.550000000003067, 0.0269987304403768 
3.5600000000030882, 0.027782311703345934 
3.5700000000031094, 0.02807149669414228 
3.5800000000031305, 0.027937669354876245 
3.5900000000031516, 0.027462954231416974 
3.6000000000031727, 0.02674206329388279 
3.6100000000031938, 0.02588428718332475 
3.620000000003215, 0.025003251706191186 
3.630000000003236, 0.024197696234453454 
3.640000000003257, 0.02353748881770365 
3.650000000003278, 0.023064378213494042 
3.6600000000032993, 0.022804514304294025 
3.6700000000033204, 0.022783720237917374 
3.6800000000033415, 0.02303811912407305 
3.6900000000033626, 0.023614803548323998 
3.7000000000033837, 0.02455663904671465 
3.710000000003405, 0.02586733479430452 
3.720000000003426, 0.027467955416266832 
3.730000000003447, 0.02918102977245659 
3.740000000003468, 0.03077578967794007 
3.750000000003489, 0.03205213561276281 
3.7600000000035103, 0.032896616879503904 
3.7700000000035314, 0.03327920079508211 
3.7800000000035525, 0.03321928500747574 
3.7900000000035736, 0.03275985640534952 
3.8000000000035947, 0.031963731884798535 
3.810000000003616, 0.03092234894183781 
3.820000000003637, 0.029757291829489795 
3.830000000003658, 0.02860138568626302 
3.840000000003679, 0.027567529199113445 
3.8500000000037002, 0.026727797942133813 
3.8600000000037213, 0.026115137899661543 
3.8700000000037424, 0.02574037486164586 
3.8800000000037635, 0.02561052038006682 
3.8900000000037847, 0.025739462181718964 
3.9000000000038058, 0.026147350887787774 
3.910000000003827, 0.026846606136351276 
3.920000000003848, 0.027815625029892294 
3.930000000003869, 0.028972059597947252 
3.94000000000389, 0.030169779427047915 
3.9500000000039113, 0.03123443891091641 
3.9600000000039324, 0.03201697958131225 
3.9700000000039535, 0.03242515803492587 
3.9800000000039746, 0.032419200778524 
3.9900000000039957, 0.031992063199900174 
4.000000000004016, 0.031159918206215748 
4.010000000003993, 0.029971848687513864 
4.02000000000397, 0.028527100891128716 
4.030000000003946, 0.02697473454096294 
4.040000000003923, 0.025480032959488846 
4.0500000000039, 0.024175446991388152 
4.0600000000038765, 0.023132509199712735 
4.070000000003853, 0.02236890682033846 
4.08000000000383, 0.021874389753142952 
4.090000000003807, 0.021634305466515465 
4.100000000003783, 0.02164120497356115 
4.11000000000376, 0.021893659259727787 
4.120000000003737, 0.022383715138197906 
4.130000000003713, 0.023076657349413002 
4.14000000000369, 0.02389341505285249 
4.150000000003667, 0.024711458545614583 
4.1600000000036434, 0.02539075263389174 
4.17000000000362, 0.02580869874707447 
4.180000000003597, 0.02587914562509077 
4.1900000000035735, 0.025549014966986677 
4.20000000000355, 0.024788330817640137 
4.210000000003527, 0.023593272784287543 
4.220000000003504, 0.022008700052101877 
4.23000000000348, 0.020153847341150284 
4.240000000003457, 0.018216880246479793 
4.250000000003434, 0.016400908745623277 
4.26000000000341, 0.014854988199795466 
4.270000000003387, 0.013643102866486841 
4.280000000003364, 0.012762250663479307 
4.2900000000033405, 0.012179710670514432 
4.300000000003317, 0.01186157852871787 
4.310000000003294, 0.011784537292895894 
4.320000000003271, 0.011933601772814781 
4.330000000003247, 0.012289877580039606 
4.340000000003224, 0.012813035472479296 
4.350000000003201, 0.013427372902093768 
4.360000000003177, 0.014023128616434144 
4.370000000003154, 0.014476553159200442 
4.380000000003131, 0.01467577651641316 
4.390000000003107, 0.01453438902968896 
4.400000000003084, 0.01398929352449165 
4.410000000003061, 0.012996731503600556 
4.4200000000030375, 0.011543841109262726 
4.430000000003014, 0.009680244778895633 
4.440000000002991, 0.007547872616499559 
4.450000000002968, 0.005367171384515721 
4.460000000002944, 0.003364967774612733 
4.470000000002921, 0.0016937072656877852 
4.480000000002898, 0.0004045295616841397 
4.490000000002874, -0.0002594298731233969 
4.500000000002851, -0.00043728461797414253 
4.510000000002828, -0.00034540915019436804 
4.520000000002804, -0.00001394959508411639 
4.530000000002781, 0.00011650765622498475 
4.540000000002758, 0.0004291369157841139 
4.5500000000027345, 0.0008973306415526915 
4.560000000002711, 0.0014465453147505668 
4.570000000002688, 0.001970835067043489 
4.580000000002665, 0.002351188806522961 
4.590000000002641, 0.002478920786874119 
4.600000000002618, 0.0022680039347362816 
4.610000000002595, 0.001653837676052971 
4.620000000002571, 0.0005918136440482155 
4.630000000002548, -0.0006789039939017343 
4.640000000002525, -0.002163502987799372 
4.6500000000025015, -0.0038969377276456495 
4.660000000002478, -0.005653187182074718 
4.670000000002455, -0.007208732049682974 
4.6800000000024315, -0.008420603390363315 
4.690000000002408, -0.009246757776055457 
4.700000000002385, -0.009712764799951602 
4.710000000002362, -0.009867084507393178 
4.720000000002338, -0.009752465426395912 
4.730000000002315, -0.00939670576256164 
4.740000000002292, -0.008817199044427465 
4.750000000002268, -0.008034495713238837 
4.760000000002245, -0.007090210130948381 
4.770000000002222, -0.006060620856325408 
4.7800000000021985, -0.005054825149959969 
4.790000000002175, -0.004194664324391512 
