t, s[1].omega / s[0].omega 
0, -1.2299962512396714 
0.009999999999999995, -1.2294612967319924 
0.019999999999999934, -1.228610263730113 
0.029999999999999874, -1.2274461295184005 
0.04000000000000012, -1.225975322309071 
0.050000000000000405, -1.2242097669697931 
0.06000000000000069, -1.2221690649452304 
0.07000000000000098, -1.2198823826015175 
0.08000000000000126, -1.2173896556306953 
0.09000000000000155, -1.2147418536532708 
0.10000000000000184, -1.2120004693172537 
0.11000000000000212, -1.2092370062440354 
0.12000000000000241, -1.2065333229987651 
0.130000000000002, -1.2039823160241234 
0.1400000000000009, -1.2016857856386198 
0.1499999999999998, -1.1997447157928842 
0.1599999999999987, -1.1982397653226289 
0.1699999999999976, -1.1972069681341977 
0.1799999999999965, -1.196620467439927 
0.1899999999999954, -1.1963930990574154 
0.1999999999999943, -1.1963953696227931 
0.2099999999999932, -1.196482183825364 
0.2199999999999921, -1.1965140509091243 
0.229999999999991, -1.1963657602694946 
0.2399999999999899, -1.1959235423607826 
0.2499999999999888, -1.1950759840335876 
0.2599999999999877, -1.1937042508071465 
0.2699999999999866, -1.1916758330223565 
0.2799999999999855, -1.1888446759454718 
0.2899999999999844, -1.1850592014869086 
0.2999999999999833, -1.1801776951106957 
0.3099999999999822, -1.1740876890632348 
0.3199999999999811, -1.166723553638011 
0.32999999999998, -1.1580765395556258 
0.3399999999999789, -1.148194878589285 
0.3499999999999778, -1.1371765523143045 
0.35999999999997667, -1.1251608193172657 
0.36999999999997557, -1.1123246017553206 
0.37999999999997447, -1.0988868336745383 
0.38999999999997337, -1.0851194991739677 
0.39999999999997227, -1.071359538175654 
0.40999999999997117, -1.0580118061484782 
0.41999999999997006, -1.045531398317071 
0.42999999999996896, -1.0343769758481745 
0.43999999999996786, -1.0249379287769858 
0.44999999999996676, -1.0174548903717626 
0.45999999999996566, -1.0119650823736563 
0.46999999999996456, -1.008299028445287 
0.47999999999996346, -1.006131964877326 
0.48999999999996235, -1.0050667037818881 
0.49999999999996125, -1.0047136148989333 
0.5099999999999602, -1.0047428385239083 
0.519999999999959, -1.0049026926454616 
0.529999999999958, -1.0050125151982254 
0.5399999999999568, -1.0049424906491833 
0.5499999999999557, -1.0045903009184034 
0.5599999999999546, -1.0038598316462481 
0.5699999999999535, -1.0026438284121704 
0.5799999999999524, -1.000811175279155 
0.5899999999999513, -0.9981999840306338 
0.5999999999999502, -0.9946191088425271 
0.6099999999999491, -0.9898617969067862 
0.619999999999948, -0.9837341590482602 
0.6299999999999469, -0.9760963329208547 
0.6399999999999458, -0.9669061789664406 
0.6499999999999447, -0.9562488499156455 
0.6599999999999436, -0.9443374720108103 
0.6699999999999425, -0.9314823918855601 
0.6799999999999414, -0.9180414662268285 
0.6899999999999403, -0.9043708036456423 
0.6999999999999392, -0.8907906469201292 
0.7099999999999381, -0.8775705777132294 
0.719999999999937, -0.8649297494840402 
0.7299999999999359, -0.8530446832064545 
0.7399999999999348, -0.8420580904913844 
0.7499999999999337, -0.8320847378332236 
0.7599999999999326, -0.8232128815815309 
0.7699999999999315, -0.8155017141730622 
0.7799999999999304, -0.8089765381765371 
0.7899999999999293, -0.8036240642306919 
0.7999999999999282, -0.7993902589484075 
0.8099999999999271, -0.7961824943386573 
0.819999999999926, -0.7938764916649397 
0.8299999999999249, -0.7923270934842006 
0.8399999999999238, -0.7913807731769785 
0.8499999999999227, -0.7908874231963314 
0.8599999999999216, -0.7907094273614866 
0.8699999999999205, -0.7907270278398252 
0.8799999999999194, -0.7908400847164456 
0.8899999999999183, -0.7909671240757561 
0.8999999999999172, -0.7910429346102762 
0.9099999999999161, -0.7910159546049661 
0.919999999999915, -0.7908464165266972 
0.9299999999999139, -0.7905057806576897 
0.9399999999999128, -0.7899774369755123 
0.9499999999999117, -0.7892580471295738 
0.9599999999999106, -0.7883584050529155 
0.9699999999999095, -0.7873025919709485 
0.9799999999999084, -0.7861246974329813 
0.9899999999999073, -0.7848633593463964 
0.9999999999999062, -0.7835553603485081 
1.0099999999999052, -0.7822299644246701 
1.019999999999904, -0.7809053975897268 
1.029999999999903, -0.7795881220801847 
1.039999999999902, -0.7782747398085881 
1.0499999999999008, -0.7769557682353598 
1.0599999999998997, -0.7756202496907314 
1.0699999999998986, -0.7742601786434862 
1.0799999999998975, -0.7728740130124767 
1.0899999999998964, -0.771468960541301 
1.0999999999998953, -0.7700621231915166 
1.1099999999998942, -0.7686807885334831 
1.119999999999893, -0.767362136258848 
1.129999999999892, -0.7661524595596161 
1.1399999999998909, -0.7651058196757576 
1.1499999999998898, -0.7642819717878375 
1.1599999999998887, -0.7637434729009668 
1.1699999999998876, -0.7635520858952024 
1.1799999999998865, -0.763764847052052 
1.1899999999998854, -0.7644303579278169 
1.1999999999998843, -0.7655859063934504 
1.2099999999998832, -0.7672558878774797 
1.219999999999882, -0.7694517328084592 
1.229999999999881, -0.7721732429780218 
1.2399999999998799, -0.775410986655831 
1.2499999999998788, -0.7791492435749512 
1.2599999999998777, -0.783368917930521 
1.2699999999998766, -0.7880498126316892 
1.2799999999998755, -0.7931716484100637 
1.2899999999998744, -0.7987132165086613 
1.2999999999998733, -0.8046491204754702 
1.3099999999998722, -0.8109437910965164 
1.319999999999871, -0.8175429955752945 
1.32999999999987, -0.824364055832262 
1.3399999999998689, -0.8312874449112576 
1.3499999999998678, -0.8381539193514602 
1.3599999999998666, -0.8447717564260866 
1.3699999999998655, -0.8509365084407235 
1.3799999999998644, -0.8564604873958251 
1.3899999999998633, -0.8612031908673741 
1.3999999999998622, -0.8650915239139962 
1.4099999999998611, -0.868122749430378 
1.41999999999986, -0.8703512358981871 
1.429999999999859, -0.8718665540472137 
1.4399999999998578, -0.8727716992231497 
1.4499999999998567, -0.8731672149681811 
1.4599999999998556, -0.8731430746227288 
1.4699999999998545, -0.8727776765683474 
1.4799999999998534, -0.8721426322358234 
1.4899999999998523, -0.8713124884266767 
1.4999999999998512, -0.8703792857632281 
1.5099999999998501, -0.8694722596553309 
1.519999999999849, -0.8687825199842382 
1.529999999999848, -0.8685907536284588 
1.5399999999998468, -0.8692926907211747 
1.5499999999998457, -0.8714128159557991 
1.5599999999998446, -0.8755934010412446 
1.5699999999998435, -0.8825463419090203 
1.5799999999998424, -0.8929622853116982 
1.5899999999998413, -0.9073854634869949 
1.5999999999998402, -0.9260796330854744 
1.6099999999998391, -0.9489227114422656 
1.619999999999838, -0.9753665367310766 
1.629999999999837, -1.0044800045374176 
1.6399999999998358, -1.035065215398133 
1.6499999999998347, -1.0658126187963273 
1.6599999999998336, -1.0954558500822202 
1.6699999999998325, -1.122899694890598 
1.6799999999998314, -1.1473119129173428 
1.6899999999998303, -1.168178063010672 
1.6999999999998292, -1.1853166198318505 
1.709999999999828, -1.198849627614655 
1.719999999999827, -1.2091313531075571 
1.729999999999826, -1.2166515601507484 
1.7399999999998248, -1.221939308148481 
1.7499999999998237, -1.22548953075371 
1.7599999999998226, -1.2277217291274227 
1.7699999999998215, -1.2289676049514255 
1.7799999999998204, -1.2294784815194684 
1.7899999999998193, -1.2294436446958743 
1.7999999999998182, -1.2290138319136554 
1.809999999999817, -1.2283267570471064 
1.819999999999816, -1.2275318077306157 
1.8299999999998149, -1.226808292442372 
1.8399999999998138, -1.2263675802147815 
1.8499999999998127, -1.2264295359340425 
1.8599999999998116, -1.2271742100120653 
1.8699999999998105, -1.2286886998423157 
1.8799999999998094, -1.2309398829700198 
1.8899999999998083, -1.233790428450545 
1.8999999999998072, -1.2370468196388382 
1.909999999999806, -1.2405109121530147 
1.919999999999805, -1.24401315540131 
1.9299999999998039, -1.2474234458372506 
1.9399999999998028, -1.2506476790570553 
1.9499999999998017, -1.253619611956864 
1.9599999999998006, -1.2562934811436852 
1.9699999999997995, -1.2586386413081985 
1.9799999999997984, -1.2606355905637168 
1.9899999999997973, -1.2622726693278623 
1.9999999999997962, -1.2635432526019776 
2.0099999999998173, -1.264443662552241 
2.0199999999998384, -1.2649721163225527 
2.0299999999998595, -1.2651288456094063 
2.0399999999998806, -1.2649172128373904 
2.0499999999999017, -1.2643453888750396 
2.059999999999923, -1.2634281154114886 
2.069999999999944, -1.2621882606072603 
2.079999999999965, -1.2606580857667427 
2.089999999999986, -1.258880111852704 
2.100000000000007, -1.2569071842711292 
2.1100000000000283, -1.2548011755684885 
2.1200000000000494, -1.2526303010252446 
2.1300000000000705, -1.2504662381808056 
2.1400000000000916, -1.2483829361352161 
2.1500000000001127, -1.2464575240648157 
2.160000000000134, -1.2447701845697303 
2.170000000000155, -1.243397395208943 
2.180000000000176, -1.2423955677098528 
2.190000000000197, -1.2417799771514837 
2.2000000000002182, -1.2415107739079823 
2.2100000000002393, -1.2414959249925375 
2.2200000000002604, -1.241610031253567 
2.2300000000002815, -1.2417178186441595 
2.2400000000003026, -1.2416904053578761 
2.2500000000003237, -1.2414095537037086 
2.260000000000345, -1.2407624108211344 
2.270000000000366, -1.239632314861649 
2.280000000000387, -1.2378908656777043 
2.290000000000408, -1.2353949444165877 
2.3000000000004293, -1.2319907902555882 
2.3100000000004504, -1.2275253750305282 
2.3200000000004715, -1.2218628549998212 
2.3300000000004926, -1.2149015239899377 
2.3400000000005137, -1.2065860859903776 
2.3500000000005348, -1.1969123495278546 
2.360000000000556, -1.1859257450132012 
2.370000000000577, -1.173718818870094 
2.380000000000598, -1.1604338725953725 
2.390000000000619, -1.1462747615659643 
2.4000000000006403, -1.131527256117999 
2.4100000000006614, -1.1165809321349203 
2.4200000000006825, -1.101938207700332 
2.4300000000007036, -1.0881911631295376 
2.4400000000007247, -1.0759510333263012 
2.450000000000746, -1.065734967879493 
2.460000000000767, -1.0578450153737773 
2.470000000000788, -1.0522937835391435 
2.480000000000809, -1.0488165781241667 
2.49000000000083, -1.0469642674314776 
2.5000000000008513, -1.0462290718041662 
2.5100000000008724, -1.0461486855779496 
2.5200000000008935, -1.046360093525485 
2.5300000000009146, -1.0466059052125614 
2.5400000000009357, -1.0467121599478735 
2.550000000000957, -1.046556148867554 
2.560000000000978, -1.0460350909684855 
2.570000000000999, -1.0450393081280422 
2.58000000000102, -1.0434297168420061 
2.5900000000010412, -1.0410188100164282 
2.6000000000010624, -1.0375559878172862 
2.6100000000010835, -1.0327214303484766 
2.6200000000011046, -1.026136659213822 
2.6300000000011257, -1.0174019684473639 
2.6400000000011468, -1.0061665595621527 
2.650000000001168, -0.992222907426166 
2.660000000001189, -0.9755965317109677 
2.67000000000121, -0.9565910183071061 
2.680000000001231, -0.9357615479449878 
2.6900000000012523, -0.9138247532345118 
2.7000000000012734, -0.8915429782198855 
2.7100000000012945, -0.8696249111529752 
2.7200000000013156, -0.8486651657351949 
2.7300000000013367, -0.8291222403040492 
2.740000000001358, -0.8113216867766702 
2.750000000001379, -0.7954703728637934 
2.7600000000014, -0.7816726344136875 
2.770000000001421, -0.769944598597119 
2.780000000001442, -0.760226621474465 
2.7900000000014633, -0.7523953319110664 
2.8000000000014844, -0.7462767592291119 
2.8100000000015055, -0.7416611472292357 
2.8200000000015266, -0.7383189455570833 
2.8300000000015477, -0.7360166016866297 
2.840000000001569, -0.734530443222706 
2.85000000000159, -0.733657197712146 
2.860000000001611, -0.7332203823947245 
2.870000000001632, -0.7330726199217736 
2.8800000000016532, -0.7330946206395477 
2.8900000000016743, -0.7331919603632009 
2.9000000000016954, -0.7332908641592952 
2.9100000000017165, -0.7333340677877378 
2.9200000000017377, -0.733277571983921 
2.9300000000017588, -0.73308878862591 
2.94000000000178, -0.7327462011569713 
2.950000000001801, -0.732240206424241 
2.960000000001822, -0.7315743178987837 
2.970000000001843, -0.730765566922166 
2.9800000000018643, -0.729842998472579 
2.9900000000018854, -0.7288437653285199 
3.0000000000019065, -0.7278072944529399 
3.0100000000019276, -0.7267688468019746 
3.0200000000019487, -0.7257540701392164 
3.03000000000197, -0.7247757841172903 
3.040000000001991, -0.7238335314619829 
3.050000000002012, -0.7229157297635767 
3.060000000002033, -0.7220037412270289 
3.070000000002054, -0.7210768732869784 
3.0800000000020753, -0.7201172541615779 
3.0900000000020964, -0.7191137344908748 
3.1000000000021175, -0.718064409572123 
3.1100000000021386, -0.7169778632999676 
3.1200000000021597, -0.7158735869339828 
3.130000000002181, -0.7147821032660844 
3.140000000002202, -0.7137451618882971 
3.150000000002223, -0.7128160893334368 
3.160000000002244, -0.7120601074005651 
3.1700000000022652, -0.7115542583823187 
3.1800000000022863, -0.7113865367419663 
3.1900000000023074, -0.7116539306488314 
3.2000000000023285, -0.7124593024453467 
3.2100000000023496, -0.7139073296798979 
3.2200000000023707, -0.716100002016645 
3.230000000002392, -0.7191323289575803 
3.240000000002413, -0.7230888891249265 
3.250000000002434, -0.728041628168107 
3.260000000002455, -0.7340489313601046 
3.2700000000024763, -0.7411555352228167 
3.2800000000024974, -0.7493923775655879 
3.2900000000025185, -0.7587750778115382 
3.3000000000025396, -0.7692994513002444 
3.3100000000025607, -0.780932415522831 
3.3200000000025818, -0.7935971162081727 
3.330000000002603, -0.8071525703510605 
3.340000000002624, -0.8213711576758874 
3.350000000002645, -0.8359219413171308 
3.360000000002666, -0.8503723906711848 
3.3700000000026873, -0.8642212726447192 
3.3800000000027084, -0.8769660843663043 
3.3900000000027295, -0.8881897052089589 
3.4000000000027506, -0.8976342654431106 
3.4100000000027717, -0.9052314446334827 
3.420000000002793, -0.9110803732395619 
3.430000000002814, -0.9153903283111338 
3.440000000002835, -0.9184163537352151 
3.450000000002856, -0.9204089479391928 
3.460000000002877, -0.9215851041943033 
3.4700000000028983, -0.9221178577243009 
3.4800000000029194, -0.9221380277877617 
3.4900000000029405, -0.9217428450188737 
3.5000000000029616, -0.9210087473207544 
3.5100000000029827, -0.9200081772856581 
3.520000000003004, -0.9188321600619024 
3.530000000003025, -0.9176215323126974 
3.540000000003046, -0.9166093662283664 
3.550000000003067, -0.9161742330536075 
3.5600000000030882, -0.9168970482081606 
3.5700000000031094, -0.9196029246618806 
3.5800000000031305, -0.9253565840599469 
3.5900000000031516, -0.9353733523942687 
3.6000000000031727, -0.9508192932370119 
3.6100000000031938, -0.9725127615988777 
3.620000000003215, -1.0006013735421317 
3.630000000003236, -1.0343441891337468 
3.640000000003257, -1.0721277337259092 
3.650000000003278, -1.111752275595781 
3.6600000000032993, -1.1508837587648977 
3.6700000000033204, -1.1874859152653132 
3.6800000000033415, -1.2200903033671566 
3.6900000000033626, -1.2478746423307678 
3.7000000000033837, -1.2706025864855368 
3.710000000003405, -1.288493865908082 
3.720000000003426, -1.3020725156523958 
3.730000000003447, -1.3120202878185347 
3.740000000003468, -1.3190530922876855 
3.750000000003489, -1.3238327579517968 
3.7600000000035103, -1.3269181157468761 
3.7700000000035314, -1.3287502409182377 
3.7800000000035525, -1.3296613426961494 
3.7900000000035736, -1.3298967433326703 
3.8000000000035947, -1.3296425226037945 
3.810000000003616, -1.3290545525231143 
3.820000000003637, -1.3282854191210822 
3.830000000003658, -1.327503323476575 
3.840000000003679, -1.3268936301162506 
3.8500000000037002, -1.3266355476304803 
3.8600000000037213, -1.3268594289011002 
3.8700000000037424, -1.3276083422279044 
3.8800000000037635, -1.3288308352526994 
3.8900000000037847, -1.330410137034696 
3.9000000000038058, -1.3322084241242143 
3.910000000003827, -1.334099747187598 
3.920000000003848, -1.3359813423641702 
3.930000000003869, -1.3377700522816147 
3.94000000000389, -1.3393954124976473 
3.9500000000039113, -1.340795962345041 
3.9600000000039324, -1.3419189601482375 
3.9700000000039535, -1.3427210566484198 
3.9800000000039746, -1.3431682450206504 
3.9900000000039957, -1.3432349030611326 
4.000000000004016, -1.3429023867086465 
4.010000000003993, -1.3421575136136963 
4.02000000000397, -1.3409910509796594 
4.030000000003946, -1.3393963334855408 
4.040000000003923, -1.3373682948986134 
4.0500000000039, -1.33490327573807 
4.0600000000038765, -1.3319998717789607 
4.070000000003853, -1.328660903952676 
4.08000000000383, -1.3248965232890995 
4.090000000003807, -1.3207287503976675 
4.100000000003783, -1.3161984930143291 
4.11000000000376, -1.3113768126642755 
4.120000000003737, -1.3063813176687507 
4.130000000003713, -1.3013937563997633 
4.14000000000369, -1.2966659619258407 
4.150000000003667, -1.2924944788508475 
4.1600000000036434, -1.289152515580576 
4.17000000000362, -1.2867983642055598 
4.180000000003597, -1.285411746808115 
4.1900000000035735, -1.2848030347233332 
4.20000000000355, -1.2846883157423832 
4.210000000003527, -1.2847775834162654 
4.220000000003504, -1.284828116416765 
4.23000000000348, -1.284651786436682 
4.240000000003457, -1.284091328857884 
4.250000000003434, -1.282983252509721 
4.26000000000341, -1.281116056822094 
4.270000000003387, -1.2781841737217416 
4.280000000003364, -1.2737349308683656 
4.2900000000033405, -1.26710831081612 
4.300000000003317, -1.2573781512861602 
4.310000000003294, -1.2433201066961592 
4.320000000003271, -1.223454455658049 
4.330000000003247, -1.1962288415090645 
4.340000000003224, -1.1603902112137596 
4.350000000003201, -1.1155146520069108 
4.360000000003177, -1.06252058577197 
4.370000000003154, -1.0038703640125908 
4.380000000003131, -0.9432197332938165 
4.390000000003107, -0.884566747489695 
4.400000000003084, -0.8312878141056919 
4.410000000003061, -0.7855119897256339 
4.4200000000030375, -0.7480187270356745 
4.430000000003014, -0.7185256684731871 
4.440000000002991, -0.696111873312411 
4.450000000002968, -0.6795892589741945 
4.460000000002944, -0.6677522174910436 
4.470000000002921, -0.6595126382315456 
4.480000000002898, -0.65395469892659 
4.490000000002874, -0.6503427025218548 
4.500000000002851, -0.6481053929644951 
4.510000000002828, -0.6468108098227897 
4.520000000002804, -0.6461392745643048 
4.530000000002781, -0.6458582395087059 
4.540000000002758, -0.6458005937476133 
4.5500000000027345, -0.6458468929948696 
4.560000000002711, -0.6459114219358978 
4.570000000002688, -0.6459317646570875 
4.580000000002665, -0.6458615113531339 
4.590000000002641, -0.6456657674643477 
4.600000000002618, -0.64531915957627 
4.610000000002595, -0.6448059550909471 
4.620000000002571, -0.6441216642021821 
4.630000000002548, -0.6432751058543189 
4.640000000002525, -0.642289589083878 
4.6500000000025015, -0.6412019039768622 
4.660000000002478, -0.6400584541502845 
4.670000000002455, -0.638908949623303 
4.6800000000024315, -0.6377990808972684 
4.690000000002408, -0.6367639635369249 
4.700000000002385, -0.6358237626992175 
4.710000000002362, -0.6349821407682432 
4.720000000002338, -0.6342274741156939 
4.730000000002315, -0.633536345486603 
4.740000000002292, -0.6328785554868294 
4.750000000002268, -0.6322227071827949 
4.760000000002245, -0.6315413513484975 
4.770000000002222, -0.6308148690707127 
4.7800000000021985, -0.6300337331507423 
4.790000000002175, -0.6291993550100934 
4.800000000002152, -0.6283241416812035 
4.810000000002129, -0.6274315200283108 
4.820000000002105, -0.6265565678941489 
4.830000000002082, -0.6257476560260403 
4.840000000002059, -0.6250692697555951 
4.850000000002035, -0.6246060005279233 
4.860000000002012, -0.6244675744306636 
4.870000000001989, -0.6247946944906217 
4.880000000001965, -0.6257653922430355 
4.890000000001942, -0.6276014935739607 
4.900000000001919, -0.6305746813780381 
4.9100000000018955, -0.635011439355243 
4.920000000001872, -0.6412958065682807 
4.930000000001849, -0.6498682389044962 
