t, s[1].omega / s[0].omega 
0, -1.3099973589395166 
0.009999999999999995, -1.3095660256358044 
0.019999999999999934, -1.3088074848322755 
0.029999999999999874, -1.307735038421765 
0.04000000000000012, -1.3063763551450012 
0.050000000000000405, -1.3047811589924818 
0.06000000000000069, -1.3030303463752944 
0.07000000000000098, -1.3012464352009032 
0.08000000000000126, -1.2996020002961166 
0.09000000000000155, -1.2982995402126103 
0.10000000000000184, -1.2974847490618493 
0.11000000000000212, -1.2971375966140029 
0.12000000000000241, -1.2970705693726943 
0.130000000000002, -1.2970428638551914 
0.1400000000000009, -1.2968496138270393 
0.1499999999999998, -1.296314144666923 
0.1599999999999987, -1.2952218968092022 
0.1699999999999976, -1.2932402448195386 
0.1799999999999965, -1.2898456536337908 
0.1899999999999954, -1.2842903172260698 
0.1999999999999943, -1.2756714544287 
0.2099999999999932, -1.2631769193947089 
0.2199999999999921, -1.246552628359751 
0.229999999999991, -1.2267620035999518 
0.2399999999999899, -1.2065123578901102 
0.2499999999999888, -1.1897130475324802 
0.2599999999999877, -1.1792466841786091 
0.2699999999999866, -1.174946023797814 
0.2799999999999855, -1.1743823991270297 
0.2899999999999844, -1.1751734857263394 
0.2999999999999833, -1.1760485868387833 
0.3099999999999822, -1.176581989935588 
0.3199999999999811, -1.1766931092568416 
0.32999999999998, -1.1763549824839097 
0.3399999999999789, -1.1754579593523053 
0.3499999999999778, -1.1737054886438612 
0.35999999999997667, -1.1704503751334054 
0.36999999999997557, -1.1643989620589026 
0.37999999999997447, -1.153182579169538 
0.38999999999997337, -1.1331699025078952 
0.39999999999997227, -1.10084949261763 
0.40999999999997117, -1.0572952603220187 
0.41999999999997006, -1.0123031718406774 
0.42999999999996896, -0.9794193102275163 
0.43999999999996786, -0.9647060298028525 
0.44999999999996676, -0.9639302336777057 
0.45999999999996566, -0.9693047684071111 
0.46999999999996456, -0.975415017098418 
0.47999999999996346, -0.9801496045720169 
0.48999999999996235, -0.983263168673643 
0.49999999999996125, -0.9851106814211981 
0.5099999999999602, -0.9860799710787822 
0.519999999999959, -0.9864364227032946 
0.529999999999958, -0.9863112748756862 
0.5399999999999568, -0.9857108846912082 
0.5499999999999557, -0.9845019801569519 
0.5599999999999546, -0.9823486507845194 
0.5699999999999535, -0.9785712473115116 
0.5799999999999524, -0.9718901869778666 
0.5899999999999513, -0.96006279874459 
0.5999999999999502, -0.9396623330662509 
0.6099999999999491, -0.9068416017464387 
0.619999999999948, -0.8602416113809376 
0.6299999999999469, -0.8048781007398796 
0.6399999999999458, -0.751508450796461 
0.6499999999999447, -0.7095717851345146 
0.6599999999999436, -0.6818294510389448 
0.6699999999999425, -0.665783911676923 
0.6799999999999414, -0.6574745667817156 
0.6899999999999403, -0.6536309658153674 
0.6999999999999392, -0.6521213788020878 
0.7099999999999381, -0.6517191918686807 
0.719999999999937, -0.6517728140516423 
0.7299999999999359, -0.6519558395864083 
0.7399999999999348, -0.652110772574411 
0.7499999999999337, -0.6521598976368086 
0.7599999999999326, -0.6520572431397428 
0.7699999999999315, -0.651764523071366 
0.7799999999999304, -0.6512425057008032 
0.7899999999999293, -0.6504551668297227 
0.7999999999999282, -0.6493852574239328 
0.8099999999999271, -0.6480544394127942 
0.819999999999926, -0.6465327098803908 
0.8299999999999249, -0.6449237442990314 
0.8399999999999238, -0.6433314120547966 
0.8499999999999227, -0.6418293847512856 
0.8599999999999216, -0.6404505817753019 
0.8699999999999205, -0.639195745293026 
0.8799999999999194, -0.6380504934786622 
0.8899999999999183, -0.637001204162041 
0.8999999999999172, -0.636045282481611 
0.9099999999999161, -0.635195861496052 
0.919999999999915, -0.6344830567303631 
0.9299999999999139, -0.6339537038321378 
0.9399999999999128, -0.6336703776398621 
0.9499999999999117, -0.6337097210798974 
0.9599999999999106, -0.6341601595129578 
0.9699999999999095, -0.6351196370121824 
0.9799999999999084, -0.6366944416424702 
0.9899999999999073, -0.6389998432239834 
0.9999999999999062, -0.6421616686888258 
1.0099999999999052, -0.6463147119084836 
1.019999999999904, -0.6515887362583455 
1.029999999999903, -0.6580667370691441 
1.039999999999902, -0.6656996847254748 
1.0499999999999008, -0.6741861793131743 
1.0599999999998997, -0.6828941927967955 
1.0699999999998986, -0.6909657219669925 
1.0799999999998975, -0.6976427726411233 
1.0899999999998964, -0.702583941528222 
1.0999999999998953, -0.7058976227631757 
1.1099999999998942, -0.7079315896482834 
1.119999999999893, -0.7090536278959095 
1.129999999999892, -0.7095441579119642 
1.1399999999998909, -0.7095771054402646 
1.1499999999998898, -0.7092332247195327 
1.1599999999998887, -0.7085123529924445 
1.1699999999998876, -0.7073306251324071 
1.1799999999998865, -0.7054941711639564 
1.1899999999998854, -0.7026354497252135 
1.1999999999998843, -0.6980828067039282 
1.2099999999998832, -0.6906079550066415 
1.219999999999882, -0.6779940745448867 
1.229999999999881, -0.6566003754942166 
1.2399999999998799, -0.622083536259656 
1.2499999999998788, -0.5734371710714858 
1.2599999999998777, -0.5181081262025107 
1.2699999999998766, -0.46853838599311626 
1.2799999999998755, -0.43203340334158324 
1.2899999999998744, -0.4082476644900588 
1.2999999999998733, -0.39363692005551637 
1.3099999999998722, -0.38484421527369006 
1.319999999999871, -0.3795692582386916 
1.32999999999987, -0.3764034298438748 
1.3399999999998689, -0.37451525633929067 
1.3499999999998678, -0.37341698964456727 
1.3599999999998666, -0.3728215684191681 
1.3699999999998655, -0.37256027005597864 
1.3799999999998644, -0.3725364156021134 
1.3899999999998633, -0.3726999945558901 
1.3999999999998622, -0.37303473012911154 
1.4099999999998611, -0.373552868920072 
1.41999999999986, -0.37429470779219864 
1.429999999999859, -0.37533019572489584 
1.4399999999998578, -0.3767592063359682 
1.4499999999998567, -0.3787050993331393 
1.4599999999998556, -0.38129240440050866 
1.4699999999998545, -0.3845959587151522 
1.4799999999998534, -0.38855784682059935 
1.4899999999998523, -0.3929100355800386 
1.4999999999998512, -0.39719480038668337 
1.5099999999998501, -0.4009351159524054 
1.519999999999849, -0.4038406611048873 
1.529999999999848, -0.405872831027959 
1.5399999999998468, -0.4071564004901753 
1.5499999999998457, -0.4078587628532161 
1.5599999999998446, -0.40811670283603985 
1.5699999999998435, -0.4080107047282321 
1.5799999999998424, -0.4075601874890891 
1.5899999999998413, -0.40672031481509857 
1.5999999999998402, -0.40537301689649885 
1.6099999999998391, -0.4033165102535693 
1.619999999999838, -0.40027587776275697 
1.629999999999837, -0.39598220656575134 
1.6399999999998358, -0.39035867609393193 
1.6499999999998347, -0.3837297192642394 
1.6599999999998336, -0.37681075437171957 
1.6699999999998325, -0.3703812004755388 
1.6799999999998314, -0.36493326015748323 
1.6899999999998303, -0.36059041823921034 
1.6999999999998292, -0.35723850786724487 
1.709999999999828, -0.3546785837231404 
1.719999999999827, -0.3527164890939906 
1.729999999999826, -0.3511969701911656 
1.7399999999998248, -0.3500096998899954 
1.7499999999998237, -0.349085297794158 
1.7599999999998226, -0.34838995737002004 
1.7699999999998215, -0.34792259659650865 
1.7799999999998204, -0.34771679934520194 
1.7899999999998193, -0.347849823710905 
1.7999999999998182, -0.3484623287761316 
1.809999999999817, -0.34979558059999694 
1.819999999999816, -0.35225855242557924 
1.8299999999998149, -0.3565461537000497 
1.8399999999998138, -0.36383834673369553 
1.8499999999998127, -0.3760936154001947 
1.8599999999998116, -0.39630952078666914 
1.8699999999998105, -0.42811231800789173 
1.8799999999998094, -0.473202461736411 
1.8899999999998083, -0.5265812839516929 
1.8999999999998072, -0.5762901417454328 
1.909999999999806, -0.6128037110979181 
1.919999999999805, -0.6354867543240593 
1.9299999999998039, -0.6485484730682325 
1.9399999999998028, -0.6559964966676606 
1.9499999999998017, -0.6603150583408085 
1.9599999999998006, -0.6628552381062158 
1.9699999999997995, -0.664337614209146 
1.9799999999997984, -0.6651508099094688 
1.9899999999997973, -0.6655018310602251 
1.9999999999997962, -0.6654882583751834 
2.0099999999998173, -0.6651302654621456 
2.0199999999998384, -0.6643805419246105 
2.0299999999998595, -0.6631229152045016 
2.0399999999998806, -0.6611731026449231 
2.0499999999999017, -0.6583058497802824 
2.059999999999923, -0.6543389464847333 
2.069999999999944, -0.6492709258573115 
2.079999999999965, -0.6433822887831251 
2.089999999999986, -0.6371766804883741 
2.100000000000007, -0.6311776746328894 
2.1100000000000283, -0.6257495405536656 
2.1200000000000494, -0.6210536255784501 
2.1300000000000705, -0.6171042840635301 
2.1400000000000916, -0.6138437684495581 
2.1500000000001127, -0.6111943722070479 
2.160000000000134, -0.6090837427719983 
2.170000000000155, -0.607452484408745 
2.180000000000176, -0.6062531006170686 
2.190000000000197, -0.605446127704087 
2.2000000000002182, -0.6049965883256189 
2.2100000000002393, -0.6048721431501114 
2.2200000000002604, -0.605043266008748 
2.2300000000002815, -0.6054851549555994 
2.2400000000003026, -0.6061807763082452 
2.2500000000003237, -0.607124266469627 
2.260000000000345, -0.6083236182587657 
2.270000000000366, -0.6098008600676944 
2.280000000000387, -0.6115867956872824 
2.290000000000408, -0.6137065178158984 
2.3000000000004293, -0.6161531831234097 
2.3100000000004504, -0.6188542039695207 
2.3200000000004715, -0.6216481051804599 
2.3300000000004926, -0.6243019144332395 
2.3400000000005137, -0.6265812894032281 
2.3500000000005348, -0.6283346349899882 
2.360000000000556, -0.6295286521493928 
2.370000000000577, -0.6302190153452976 
2.380000000000598, -0.6304946381726004 
2.390000000000619, -0.6304346195658638 
2.4000000000006403, -0.6300876715362992 
2.4100000000006614, -0.6294657729616145 
2.4200000000006825, -0.6285421388256953 
2.4300000000007036, -0.6272473763259195 
2.4400000000007247, -0.6254597782768132 
2.450000000000746, -0.6229819917231488 
2.460000000000767, -0.6194768934722292 
2.470000000000788, -0.6142742070106167 
2.480000000000809, -0.6058362820498076 
2.49000000000083, -0.5907225519070138 
2.5000000000008513, -0.5632387321792403 
2.5100000000008724, -0.5197483677070815 
2.5200000000008935, -0.4668057020732202 
2.5300000000009146, -0.4185936020483264 
2.5400000000009357, -0.38370149557399696 
2.550000000000957, -0.36166722399646256 
2.560000000000978, -0.34857101162698556 
2.570000000000999, -0.3409196587126858 
2.58000000000102, -0.33644348596566076 
2.5900000000010412, -0.3338140333326888 
2.6000000000010624, -0.3322767779366546 
2.6100000000010835, -0.3314039703724776 
2.6200000000011046, -0.3309521313035692 
2.6300000000011257, -0.3307838333075253 
2.6400000000011468, -0.33082568924866973 
2.650000000001168, -0.33104665813198364 
2.660000000001189, -0.33144823679388963 
2.67000000000121, -0.3320620129274233 
2.680000000001231, -0.33295173572033393 
2.6900000000012523, -0.33421726877783964 
2.7000000000012734, -0.33599658125567816 
2.7100000000012945, -0.33845825126980644 
2.7200000000013156, -0.3417694579212669 
2.7300000000013367, -0.34601806044990147 
2.740000000001358, -0.3510865517480938 
2.750000000001379, -0.35655280312905824 
2.7600000000014, -0.36176830532915416 
2.770000000001421, -0.36614496898808313 
2.780000000001442, -0.3694123814108991 
2.7900000000014633, -0.3716243082470119 
2.8000000000014844, -0.3729934025873226 
2.8100000000015055, -0.37374132402401555 
2.8200000000015266, -0.37403149613376063 
2.8300000000015477, -0.3739569036647505 
2.840000000001569, -0.3735460174725803 
2.85000000000159, -0.37276880450304206 
2.860000000001611, -0.37154043265796277 
2.870000000001632, -0.36973188907442794 
2.8800000000016532, -0.36720736426329137 
2.8900000000016743, -0.3639068275192144 
2.9000000000016954, -0.35995106711363095 
2.9100000000017165, -0.3556763387305571 
2.9200000000017377, -0.3515207989264479 
2.9300000000017588, -0.34783717560386396 
2.94000000000178, -0.3447885641640502 
2.950000000001801, -0.342371037470202 
2.960000000001822, -0.3404904496697584 
2.970000000001843, -0.3390267878783909 
2.9800000000018643, -0.33786943593332774 
2.9900000000018854, -0.33693158178435045 
3.0000000000019065, -0.33615380900987446 
3.0100000000019276, -0.3355031952846583 
3.0200000000019487, -0.33497190889473194 
3.03000000000197, -0.3345784114065007 
3.040000000001991, -0.33437429478341923 
3.050000000002012, -0.3344607960112752 
3.060000000002033, -0.3350219919599493 
3.070000000002054, -0.3363877459307202 
3.0800000000020753, -0.339149567993341 
3.0900000000020964, -0.3443624357077255 
3.1000000000021175, -0.35384189458911347 
3.1100000000021386, -0.370363466510279 
3.1200000000021597, -0.39682857105666935 
3.130000000002181, -0.4324320386407984 
3.140000000002202, -0.46721920692235697 
3.150000000002223, -0.48689463529483695 
3.160000000002244, -0.4886697481471424 
3.1700000000022652, -0.4818693794600373 
3.1800000000022863, -0.4748155451425706 
3.1900000000023074, -0.47019637491637223 
3.2000000000023285, -0.4677623012156973 
3.2100000000023496, -0.46668543830809994 
3.2200000000023707, -0.46632431576176003 
3.230000000002392, -0.4662951593082715 
3.240000000002413, -0.46639060924063847 
3.250000000002434, -0.46650343083143697 
3.260000000002455, -0.46657824083555494 
3.2700000000024763, -0.4665848525852132 
3.2800000000024974, -0.4665053552621303 
3.2900000000025185, -0.466330146792178 
3.3000000000025396, -0.4660602492605158 
3.3100000000025607, -0.46571305763367743 
3.3200000000025818, -0.46532663689637327 
3.330000000002603, -0.4649566561169761 
3.340000000002624, -0.4646635717402899 
3.350000000002645, -0.46449439143168797 
3.360000000002666, -0.4644668871260708 
3.3700000000026873, -0.46456221200309333 
3.3800000000027084, -0.46472875340640096 
3.3900000000027295, -0.46489720524439393 
3.4000000000027506, -0.46500154402771915 
3.4100000000027717, -0.4649956383393034 
3.420000000002793, -0.4648579167330579 
3.430000000002814, -0.4645854334533458 
3.440000000002835, -0.4641843657349094 
3.450000000002856, -0.46366284618775194 
3.460000000002877, -0.4630283994516448 
3.4700000000028983, -0.4622901203398385 
3.4800000000029194, -0.4614651673248355 
3.4900000000029405, -0.46058707657741016 
3.5000000000029616, -0.4597010895933929 
3.5100000000029827, -0.4587823852319227 
3.520000000003004, -0.45736173439447175 
3.530000000003025, -0.45336390249807945 
3.540000000003046, -0.44099538488603046 
3.550000000003067, -0.4111857415489676 
3.5600000000030882, -0.361883658297924 
3.5700000000031094, -0.3074353345154065 
3.5800000000031305, -0.2643175352526032 
3.5900000000031516, -0.23641468944679755 
3.6000000000031727, -0.2198243126933621 
3.6100000000031938, -0.21010647320799763 
3.620000000003215, -0.2043248240894112 
3.630000000003236, -0.20080459015721885 
3.640000000003257, -0.19862550695264095 
3.650000000003278, -0.1972826021608266 
3.6600000000032993, -0.1964993246462114 
3.6700000000033204, -0.19613055194070014 
3.6800000000033415, -0.19611446967286872 
3.6900000000033626, -0.19645211670338167 
3.7000000000033837, -0.19720535015239204 
3.710000000003405, -0.1985113559862214 
3.720000000003426, -0.20061760568216136 
3.730000000003447, -0.20394685204654742 
3.740000000003468, -0.20920507128350652 
3.750000000003489, -0.21752939352605738 
3.7600000000035103, -0.2305757394408074 
3.7700000000035314, -0.2501385347520046 
3.7800000000035525, -0.27652377817907187 
3.7900000000035736, -0.30609474043284124 
3.8000000000035947, -0.33209072714747845 
3.810000000003616, -0.35015392578983184 
3.820000000003637, -0.3608187628343374 
3.830000000003658, -0.3666828648707733 
3.840000000003679, -0.3698957539688675 
3.8500000000037002, -0.3717000365854004 
3.8600000000037213, -0.3727299865836386 
3.8700000000037424, -0.37330042819280085 
3.8800000000037635, -0.3735679182017733 
3.8900000000037847, -0.37360867099753386 
3.9000000000038058, -0.37345596880342674 
3.910000000003827, -0.37312068036997237 
3.920000000003848, -0.3726068879982389 
3.930000000003869, -0.37192782078093883 
3.94000000000389, -0.37112082830143955 
3.9500000000039113, -0.37025390492547866 
3.9600000000039324, -0.3694161882431135 
3.9700000000039535, -0.3686947521804297 
3.9800000000039746, -0.368150563433822 
3.9900000000039957, -0.3678049739096267 
4.000000000004016, -0.3676385094320629 
4.010000000003993, -0.3675987990599842 
4.02000000000397, -0.3676153978186677 
4.030000000003946, -0.36761829477481306 
4.040000000003923, -0.36755321797105844 
4.0500000000039, -0.36738729135015374 
4.0600000000038765, -0.36710474116999176 
4.070000000003853, -0.36669746527752556 
4.08000000000383, -0.3661549308000349 
4.090000000003807, -0.36545411623281493 
4.100000000003783, -0.3645457416083736 
4.11000000000376, -0.3633265092961261 
4.120000000003737, -0.36157193077768773 
4.130000000003713, -0.3587672701114799 
4.14000000000369, -0.35370739660802875 
4.150000000003667, -0.3437577542874853 
4.1600000000036434, -0.3244368289257461 
4.17000000000362, -0.29217008185027604 
4.180000000003597, -0.25109747719449105 
4.1900000000035735, -0.21266314651700693 
4.20000000000355, -0.1844441328427533 
4.210000000003527, -0.16632072987282923 
4.220000000003504, -0.1552016627627808 
4.23000000000348, -0.14835650652035043 
4.240000000003457, -0.14404063619387283 
4.250000000003434, -0.14124322805287837 
4.26000000000341, -0.13939309038357944 
4.270000000003387, -0.13817024185731966 
4.280000000003364, -0.13740187853996463 
4.2900000000033405, -0.13700936337251146 
4.300000000003317, -0.13698602692264272 
4.310000000003294, -0.13739740680164841 
4.320000000003271, -0.13840502634273555 
4.330000000003247, -0.1403255079111212 
4.340000000003224, -0.14375368694385565 
4.350000000003201, -0.14980558895950485 
4.360000000003177, -0.16055696178979925 
4.370000000003154, -0.1796063244346032 
4.380000000003131, -0.21168224601768643 
4.390000000003107, -0.25749745758175246 
4.400000000003084, -0.3031042867555297 
4.410000000003061, -0.3260415693703048 
4.4200000000030375, -0.32378994887864565 
4.430000000003014, -0.31176011036195783 
4.440000000002991, -0.30086584594649507 
4.450000000002968, -0.2936277646762678 
4.460000000002944, -0.289319944849921 
4.470000000002921, -0.2868587831141857 
4.480000000002898, -0.2854788403230338 
4.490000000002874, -0.2847224074391469 
4.500000000002851, -0.2843302008627681 
4.510000000002828, -0.2841588155032775 
4.520000000002804, -0.28413191908375124 
4.530000000002781, -0.2842141405510545 
4.540000000002758, -0.2843986538320835 
4.5500000000027345, -0.2847030364187463 
4.560000000002711, -0.28517009356633366 
4.570000000002688, -0.2858711149358468 
4.580000000002665, -0.28690898829693373 
4.590000000002641, -0.28841759215752105 
4.600000000002618, -0.2905504012026797 
4.610000000002595, -0.2934442963934283 
4.620000000002571, -0.2971419891656643 
4.630000000002548, -0.30148399861072106 
4.640000000002525, -0.3060545499459344 
4.6500000000025015, -0.310298150511507 
4.660000000002478, -0.3137722126251609 
4.670000000002455, -0.31631436997547824 
4.6800000000024315, -0.3180024296556087 
4.690000000002408, -0.31901371303911363 
4.700000000002385, -0.3195174377415036 
4.710000000002362, -0.31963085354354137 
4.720000000002338, -0.31941256188057227 
4.730000000002315, -0.3188673215521342 
4.740000000002292, -0.31795227117379915 
4.750000000002268, -0.3165872438484125 
4.760000000002245, -0.3146810468446787 
4.770000000002222, -0.312186660772321 
4.7800000000021985, -0.30917572467219434 
4.790000000002175, -0.3058768002457303 
4.800000000002152, -0.30261551561974426 
4.810000000002129, -0.29968313727992896 
4.820000000002105, -0.2972400508935638 
4.830000000002082, -0.29531046969418 
4.840000000002059, -0.29383213785158924 
4.850000000002035, -0.2927077615750344 
4.860000000002012, -0.2918375850391945 
4.870000000001989, -0.2911357869509717 
4.880000000001965, -0.29053724199225306 
