t, s[1].omega / s[0].omega 
0, -1.2799862908290154 
0.009999999999999995, -1.2784216275175326 
0.019999999999999934, -1.2764790687731398 
0.029999999999999874, -1.2741929906361356 
0.04000000000000012, -1.2716471679488945 
0.050000000000000405, -1.2689991045403102 
0.06000000000000069, -1.2664946229970857 
0.07000000000000098, -1.2644310816392317 
0.08000000000000126, -1.2630360660617823 
0.09000000000000155, -1.2623278438337397 
0.10000000000000184, -1.2621068652300058 
0.11000000000000212, -1.262095991869775 
0.12000000000000241, -1.2620724995929735 
0.130000000000002, -1.2618932767891722 
0.1400000000000009, -1.261448732940027 
0.1499999999999998, -1.2605999490515885 
0.1599999999999987, -1.2591140515600263 
0.1699999999999976, -1.2565934540795256 
0.1799999999999965, -1.2524110083568754 
0.1899999999999954, -1.2457200387481273 
0.1999999999999943, -1.2356984615312072 
0.2099999999999932, -1.2222022870735987 
0.2199999999999921, -1.2066603617125005 
0.229999999999991, -1.1922436811735222 
0.2399999999999899, -1.1822413430542358 
0.2499999999999888, -1.1777055301222452 
0.2599999999999877, -1.1771237657666027 
0.2699999999999866, -1.178251362646674 
0.2799999999999855, -1.1796054219538397 
0.2899999999999844, -1.180609091322066 
0.2999999999999833, -1.181167967184882 
0.3099999999999822, -1.1813348580006475 
0.3199999999999811, -1.1811599565323991 
0.32999999999998, -1.1806390689145627 
0.3399999999999789, -1.17969115748239 
0.3499999999999778, -1.1781393596750853 
0.35999999999997667, -1.1757088367738786 
0.36999999999997557, -1.1721190193675362 
0.37999999999997447, -1.1674483908938105 
0.38999999999997337, -1.1629099984299793 
0.39999999999997227, -1.1614631545894365 
0.40999999999997117, -1.166536135446711 
0.41999999999997006, -1.1786250028449443 
0.42999999999996896, -1.1939656094151703 
0.43999999999996786, -1.2078059799148766 
0.44999999999996676, -1.2177992955013734 
0.45999999999996566, -1.2240523618672023 
0.46999999999996456, -1.227618845886405 
0.47999999999996346, -1.2295020859659596 
0.48999999999996235, -1.2303812766184063 
0.49999999999996125, -1.2306522235115842 
0.5099999999999602, -1.2305259042773842 
0.519999999999959, -1.230109928129759 
0.529999999999958, -1.22947600334587 
0.5399999999999568, -1.228739864475939 
0.5499999999999557, -1.2281704700682448 
0.5599999999999546, -1.2282743700996333 
0.5699999999999535, -1.2296869864823545 
0.5799999999999524, -1.2327846370373026 
0.5899999999999513, -1.2373403761681354 
0.5999999999999502, -1.2426363880150437 
0.6099999999999491, -1.247882999232627 
0.619999999999948, -1.2525155601734068 
0.6299999999999469, -1.2562498272525804 
0.6399999999999458, -1.259019006661572 
0.6499999999999447, -1.2608951345550912 
0.6599999999999436, -1.262022938799224 
0.6699999999999425, -1.2625677663873043 
0.6799999999999414, -1.2626809492011701 
0.6899999999999403, -1.2624863368120924 
0.6999999999999392, -1.2620862331345175 
0.7099999999999381, -1.2615793606237187 
0.719999999999937, -1.2610776019042418 
0.7299999999999359, -1.2607027426267945 
0.7399999999999348, -1.2605539074969876 
0.7499999999999337, -1.2606681410134843 
0.7599999999999326, -1.2610109820274678 
0.7699999999999315, -1.2615004684111117 
0.7799999999999304, -1.2620380532434163 
0.7899999999999293, -1.2625301429669182 
0.7999999999999282, -1.262899607607872 
0.8099999999999271, -1.263088981322361 
0.819999999999926, -1.2630581316782505 
0.8299999999999249, -1.2627806481549677 
0.8399999999999238, -1.2622415386515768 
0.8499999999999227, -1.2614364975393602 
0.8599999999999216, -1.2603726707093572 
0.8699999999999205, -1.2590716351415245 
0.8799999999999194, -1.2575753925657467 
0.8899999999999183, -1.2559548666091411 
0.8999999999999172, -1.2543177957647695 
0.9099999999999161, -1.2528082137919532 
0.919999999999915, -1.2515826387204925 
0.9299999999999139, -1.2507522914021658 
0.9399999999999128, -1.2503189103223469 
0.9499999999999117, -1.2501672662395915 
0.9599999999999106, -1.2501287183456893 
0.9699999999999095, -1.2500498635542396 
0.9799999999999084, -1.2498113029374283 
0.9899999999999073, -1.2493036106586832 
0.9999999999999062, -1.2483890180087873 
1.0099999999999052, -1.2468659495379906 
1.019999999999904, -1.2444477103151037 
1.029999999999903, -1.2407746374780042 
1.039999999999902, -1.2354882295220917 
1.0499999999999008, -1.2283885672671981 
1.0599999999998997, -1.21966251237734 
1.0699999999998986, -1.210100232070532 
1.0799999999998975, -1.2010956053210138 
1.0899999999998964, -1.1941685143945526 
1.0999999999998953, -1.1901190472557928 
1.1099999999998942, -1.1885855679224337 
1.119999999999893, -1.1885208041784652 
1.129999999999892, -1.1889712253491287 
1.1399999999998909, -1.1894065750368181 
1.1499999999998898, -1.1896259259924806 
1.1599999999998887, -1.1895735337041364 
1.1699999999998876, -1.1892156390191095 
1.1799999999998865, -1.1884725785342933 
1.1899999999998854, -1.1871668532701647 
1.1999999999998843, -1.1849602752436446 
1.2099999999998832, -1.1812815562672547 
1.219999999999882, -1.1753165972268669 
1.229999999999881, -1.1662873226919197 
1.2399999999998799, -1.1543482600330588 
1.2499999999998788, -1.1418375829331195 
1.2599999999998777, -1.1330420819684406 
1.2699999999998766, -1.1310558382873643 
1.2799999999998755, -1.1349463722369024 
1.2899999999998744, -1.1411679139921806 
1.2999999999998733, -1.146826419155805 
1.3099999999998722, -1.150860424798057 
1.319999999999871, -1.1533623514542688 
1.32999999999987, -1.1547553641620232 
1.3399999999998689, -1.1554144279519925 
1.3499999999998678, -1.1555820664379568 
1.3599999999998666, -1.1553841548557249 
1.3699999999998655, -1.1548598081498447 
1.3799999999998644, -1.1539872179579658 
1.3899999999998633, -1.1527210814413638 
1.3999999999998622, -1.1510883846523958 
1.4099999999998611, -1.149417829638356 
1.41999999999986, -1.1487123480872838 
1.429999999999859, -1.1508279204765912 
1.4399999999998578, -1.157711743815859 
1.4499999999998567, -1.1696762928048958 
1.4599999999998556, -1.1845227590600866 
1.4699999999998545, -1.1989152891706811 
1.4799999999998534, -1.2104786937752636 
1.4899999999998523, -1.218552769942599 
1.4999999999998512, -1.2236345950012366 
1.5099999999998501, -1.226580268655305 
1.519999999999849, -1.2281450201296151 
1.529999999999848, -1.228853731808524 
1.5399999999998468, -1.229028598248991 
1.5499999999998457, -1.2288561399182198 
1.5599999999998446, -1.2284518268964677 
1.5699999999998435, -1.2279209259023909 
1.5799999999998424, -1.227420924053553 
1.5899999999998413, -1.2272051464298008 
1.5999999999998402, -1.2275856403988548 
1.6099999999998391, -1.2287814828326016 
1.619999999999838, -1.2307648015240624 
1.629999999999837, -1.233271321574174 
1.6399999999998358, -1.235954242239648 
1.6499999999998347, -1.2385214050800963 
1.6599999999998336, -1.2407809235206606 
1.6699999999998325, -1.2426282155583475 
1.6799999999998314, -1.2440206639976865 
1.6899999999998303, -1.2449590858036805 
1.6999999999998292, -1.2454758931212992 
1.709999999999828, -1.2456247771801368 
1.719999999999827, -1.2454703396398203 
1.729999999999826, -1.2450810045550575 
1.7399999999998248, -1.2445289053641795 
1.7499999999998237, -1.2438953254296536 
1.7599999999998226, -1.243273152673976 
1.7699999999998215, -1.2427561625633716 
1.7799999999998204, -1.2424160948966483 
1.7899999999998193, -1.24228287553254 
1.7999999999998182, -1.2423395548484575 
1.809999999999817, -1.2425292379216528 
1.819999999999816, -1.2427695781901105 
1.8299999999998149, -1.242971861868959 
1.8399999999998138, -1.2430562732763761 
1.8499999999998127, -1.2429567978133524 
1.8599999999998116, -1.2426190374132915 
1.8699999999998105, -1.2419982205760214 
1.8799999999998094, -1.2410607243197236 
1.8899999999998083, -1.2397876981046532 
1.8999999999998072, -1.2381787269637299 
1.909999999999806, -1.2362562336639822 
1.919999999999805, -1.2340736147926208 
1.9299999999998039, -1.231728869020481 
1.9399999999998028, -1.2293793838030602 
1.9499999999998017, -1.2272411376768217 
1.9599999999998006, -1.2255434383076005 
1.9699999999997995, -1.2244309242470175 
1.9799999999997984, -1.2238768252403591 
1.9899999999997973, -1.2237006323203705 
1.9999999999997962, -1.2236765183164497 
2.0099999999998173, -1.223622371457332 
2.0199999999998384, -1.2234125027186238 
2.0299999999998595, -1.2229410555628808 
2.0399999999998806, -1.2220732640026961 
2.0499999999999017, -1.2205980057933021 
2.059999999999923, -1.218186308495978 
2.069999999999944, -1.214374824340312 
2.079999999999965, -1.2086217151073444 
2.089999999999986, -1.200499082562327 
2.100000000000007, -1.1900425489231194 
2.1100000000000283, -1.178131804853961 
2.1200000000000494, -1.1665583668269233 
2.1300000000000705, -1.157394364261104 
2.1400000000000916, -1.1518408558748312 
2.1500000000001127, -1.1495862327827233 
2.160000000000134, -1.1493551561924664 
2.170000000000155, -1.149910699900052 
2.180000000000176, -1.1505329322336526 
2.190000000000197, -1.1509406616674185 
2.2000000000002182, -1.1510661121146382 
2.2100000000002393, -1.1508978754998123 
2.2200000000002604, -1.1504015809911423 
2.2300000000002815, -1.1494741251833314 
2.2400000000003026, -1.147897285211513 
2.2500000000003237, -1.1452758209245284 
2.260000000000345, -1.1409783106307985 
2.270000000000366, -1.1341816272226095 
2.280000000000387, -1.1242623360096415 
2.290000000000408, -1.1117561450269628 
2.3000000000004293, -1.099322625013846 
2.3100000000004504, -1.0909476725202905 
2.3200000000004715, -1.088942911296216 
2.3300000000004926, -1.092077477867085 
2.3400000000005137, -1.0972338594966589 
2.3500000000005348, -1.102000944177276 
2.360000000000556, -1.105469046533915 
2.370000000000577, -1.107666407175952 
2.380000000000598, -1.1089123570803847 
2.390000000000619, -1.1095065152248302 
2.4000000000006403, -1.1096478912647452 
2.4100000000006614, -1.1094380010734837 
2.4200000000006825, -1.108897992169696 
2.4300000000007036, -1.1079804104096849 
2.4400000000007247, -1.10658197008339 
2.450000000000746, -1.104589298275864 
2.460000000000767, -1.1020309125031011 
2.470000000000788, -1.0994332586285798 
2.480000000000809, -1.0983171326240233 
2.49000000000083, -1.101218581823228 
2.5000000000008513, -1.1102795973319568 
2.5100000000008724, -1.1249678980476405 
2.5200000000008935, -1.141726413966007 
2.5300000000009146, -1.1565441325728008 
2.5400000000009357, -1.1674082596285182 
2.550000000000957, -1.174397784894741 
2.560000000000978, -1.1785104883765398 
2.570000000000999, -1.1807638384277648 
2.58000000000102, -1.1818861175529136 
2.5900000000010412, -1.1823219587548617 
2.6000000000010624, -1.1823187545732528 
2.6100000000010835, -1.1820057676445948 
2.6200000000011046, -1.1814560847358688 
2.6300000000011257, -1.1807498601308524 
2.6400000000011468, -1.180061603319706 
2.650000000001168, -1.179763909391927 
2.660000000001189, -1.180451073861448 
2.67000000000121, -1.1827253283908854 
2.680000000001231, -1.1867899840148928 
2.6900000000012523, -1.1922346325022142 
2.7000000000012734, -1.1982557952703143 
2.7100000000012945, -1.2040542767047744 
2.7200000000013156, -1.2090760049966613 
2.7300000000013367, -1.2130520891872378 
2.740000000001358, -1.2159431373726997 
2.750000000001379, -1.2178604880432604 
2.7600000000014, -1.2189887241423933 
2.770000000001421, -1.2195224495942099 
2.780000000001442, -1.2196285847878157 
2.7900000000014633, -1.2194364846120238 
2.8000000000014844, -1.2190493794272181 
2.8100000000015055, -1.2185674727862907 
2.8200000000015266, -1.2181096733338674 
2.8300000000015477, -1.2178140830332709 
2.840000000001569, -1.2178023773637243 
2.85000000000159, -1.2181271542764995 
2.860000000001611, -1.218749971986731 
2.870000000001632, -1.2195683380214595 
2.8800000000016532, -1.2204608585555117 
2.8900000000016743, -1.2213187251066846 
2.9000000000016954, -1.2220583001193028 
2.9100000000017165, -1.2226219227858586 
2.9200000000017377, -1.2229734454539833 
2.9300000000017588, -1.2230928263140848 
2.94000000000178, -1.2229721998993575 
2.950000000001801, -1.222614106854562 
2.960000000001822, -1.2220315489827744 
2.970000000001843, -1.221249410599417 
2.9800000000018643, -1.220307102863685 
2.9900000000018854, -1.2192617994586983 
3.0000000000019065, -1.2181897390704886 
3.0100000000019276, -1.2171818342491938 
3.0200000000019487, -1.2163311907961063 
3.03000000000197, -1.2157118774904012 
3.040000000001991, -1.2153517393342719 
3.050000000002012, -1.21521382695893 
3.060000000002033, -1.2152061901467788 
3.070000000002054, -1.2152159465260428 
3.0800000000020753, -1.2151385014445641 
3.0900000000020964, -1.2148833754065194 
3.1000000000021175, -1.2143633216986465 
3.1100000000021386, -1.2134825035977854 
3.1200000000021597, -1.2121349562147565 
3.130000000002181, -1.2102173814038473 
3.140000000002202, -1.2076531728823554 
3.150000000002223, -1.2044198754974347 
3.160000000002244, -1.20057510228747 
3.1700000000022652, -1.1962833585544967 
3.1800000000022863, -1.1918431266995948 
3.1900000000023074, -1.1876871166272003 
3.2000000000023285, -1.1842965081145234 
3.2100000000023496, -1.1820053083209934 
3.2200000000023707, -1.1808166703930563 
3.230000000002392, -1.1804240188508066 
3.240000000002413, -1.180424163267599 
3.250000000002434, -1.180504374779877 
3.260000000002455, -1.180483219318112 
3.2700000000024763, -1.1802585440234912 
3.2800000000024974, -1.1797396919268015 
3.2900000000025185, -1.178788794033326 
3.3000000000025396, -1.1771636898092486 
3.3100000000025607, -1.174454479056837 
3.3200000000025818, -1.1700310360093558 
3.330000000002603, -1.1630759311818284 
3.340000000002624, -1.1528483451808824 
3.350000000002645, -1.1392890650091556 
3.360000000002666, -1.1237285548557945 
3.3700000000026873, -1.1089147873879361 
3.3800000000027084, -1.097736699883257 
3.3900000000027295, -1.09146688945868 
3.4000000000027506, -1.089289333311331 
3.4100000000027717, -1.0894133950958214 
3.420000000002793, -1.0903336248404545 
3.430000000002814, -1.0912490787610278 
3.440000000002835, -1.0918782959424376 
3.450000000002856, -1.092178108267738 
3.460000000002877, -1.092168601788193 
3.4700000000028983, -1.0918532063400623 
3.4800000000029194, -1.091181163744349 
3.4900000000029405, -1.0900158028692557 
3.5000000000029616, -1.0880897175225235 
3.5100000000029827, -1.0849443689882672 
3.520000000003004, -1.0798875100830225 
3.530000000003025, -1.0720861024875439 
3.540000000003046, -1.061017632589548 
3.550000000003067, -1.047370147940603 
3.5600000000030882, -1.0337140907532028 
3.5700000000031094, -1.023571946433813 
3.5800000000031305, -1.0189971945981304 
3.5900000000031516, -1.0192563099833147 
3.6000000000031727, -1.0220156894656414 
3.6100000000031938, -1.0252210856830943 
3.620000000003215, -1.0278491818437958 
3.630000000003236, -1.029662090481293 
3.640000000003257, -1.03076391979562 
3.650000000003278, -1.031327909718238 
3.6600000000032993, -1.0314901597441393 
3.6700000000033204, -1.0313235289166518 
3.6800000000033415, -1.0308342257431478 
3.6900000000033626, -1.0299554991002382 
3.7000000000033837, -1.0285290429971834 
3.710000000003405, -1.0262743592788592 
3.720000000003426, -1.0227637580999884 
3.730000000003447, -1.0174625771925554 
3.740000000003468, -1.0099583601286517 
3.750000000003489, -1.0004884718013733 
3.7600000000035103, -0.9905387690318905 
3.7700000000035314, -0.9826895016973601 
3.7800000000035525, -0.9791436185913927 
3.7900000000035736, -0.9801093024459284 
3.8000000000035947, -0.9838782224684085 
3.810000000003616, -0.9883437652401865 
3.820000000003637, -0.9921794600750549 
3.830000000003658, -0.99495958993194 
3.840000000003679, -0.9967629946672598 
3.8500000000037002, -0.9978198185605007 
3.8600000000037213, -0.998341332371264 
3.8700000000037424, -0.9984700050139848 
3.8800000000037635, -0.9982761846894593 
3.8900000000037847, -0.9977620873361781 
3.9000000000038058, -0.9968572280048658 
3.910000000003827, -0.9953994667995929 
3.920000000003848, -0.9931018345317438 
3.930000000003869, -0.9895188015972209 
3.94000000000389, -0.9840611133410755 
3.9500000000039113, -0.9761686845422908 
3.9600000000039324, -0.9657652340480768 
3.9700000000039535, -0.9538815536402895 
3.9800000000039746, -0.9427983129894116 
3.9900000000039957, -0.9350169323392346 
4.000000000004016, -0.9316593078348072 
4.010000000003993, -0.9319426788171808 
4.02000000000397, -0.9341349520569286 
4.030000000003946, -0.936742904337542 
4.040000000003923, -0.9389728307228087 
4.0500000000039, -0.9405882471110315 
4.0600000000038765, -0.9416254732470692 
4.070000000003853, -0.9421983292404267 
4.08000000000383, -0.9424085636019962 
4.090000000003807, -0.9423154755898961 
4.100000000003783, -0.9419263745115449 
4.11000000000376, -0.941187015198001 
4.120000000003737, -0.9399612249611089 
4.130000000003713, -0.9379935877651778 
4.14000000000369, -0.9348559063527689 
4.150000000003667, -0.929900334732608 
4.1600000000036434, -0.9222955440690009 
4.17000000000362, -0.9112897804547575 
4.180000000003597, -0.8967898876594053 
4.1900000000035735, -0.8799690318558282 
4.20000000000355, -0.8631895849228082 
4.210000000003527, -0.848949122316994 
4.220000000003504, -0.8386803347428344 
4.23000000000348, -0.832401000852844 
4.240000000003457, -0.8292092815954627 
4.250000000003434, -0.8279733911107044 
4.26000000000341, -0.8277633911470431 
4.270000000003387, -0.827974305785388 
4.280000000003364, -0.8282744978499477 
4.2900000000033405, -0.8285064572147911 
4.300000000003317, -0.8286026040622945 
4.310000000003294, -0.8285301566930485 
4.320000000003271, -0.8282587425193961 
4.330000000003247, -0.827741301458729 
4.340000000003224, -0.8269025474987192 
4.350000000003201, -0.8256352669905068 
4.360000000003177, -0.8238111996881271 
4.370000000003154, -0.8213156274472212 
4.380000000003131, -0.8181038815581962 
4.390000000003107, -0.8142524287172354 
4.400000000003084, -0.8099634355113234 
4.410000000003061, -0.8055111530832569 
4.4200000000030375, -0.8011666694333754 
4.430000000003014, -0.7971464337401093 
4.440000000002991, -0.793597608985333 
4.450000000002968, -0.7906053063431882 
4.460000000002944, -0.7882038539738238 
4.470000000002921, -0.7863843998444446 
4.480000000002898, -0.785100120174275 
4.490000000002874, -0.784273351627882 
4.500000000002851, -0.783807009693939 
4.510000000002828, -0.7835987162703316 
4.520000000002804, -0.7835535228115725 
4.530000000002781, -0.7835917194154642 
4.540000000002758, -0.7836509845588036 
4.5500000000027345, -0.7836847486488067 
4.560000000002711, -0.7836596401568294 
4.570000000002688, -0.7835541617232272 
4.580000000002665, -0.7833588666770392 
4.590000000002641, -0.7830762292437401 
4.600000000002618, -0.7827177474406224 
4.610000000002595, -0.7822978301846479 
4.620000000002571, -0.7818273247031073 
4.630000000002548, -0.7813106757665311 
4.640000000002525, -0.7807482429092358 
4.6500000000025015, -0.7801417342020137 
4.660000000002478, -0.7794994027116267 
4.670000000002455, -0.778839165991194 
4.6800000000024315, -0.7781899276018696 
4.690000000002408, -0.777592008601499 
4.700000000002385, -0.7770967352897048 
4.710000000002362, -0.7767642248532943 
4.720000000002338, -0.7766584123442708 
4.730000000002315, -0.7768395832096859 
4.740000000002292, -0.7773563199794894 
4.750000000002268, -0.7782395162699117 
4.760000000002245, -0.7795001497106505 
4.770000000002222, -0.7811303030375527 
4.7800000000021985, -0.7831048050177707 
4.790000000002175, -0.7853800306525593 
4.800000000002152, -0.7878876243326852 
4.810000000002129, -0.7905248292387117 
4.820000000002105, -0.7931494242747494 
4.830000000002082, -0.7955917586796187 
4.840000000002059, -0.797690043128013 
4.850000000002035, -0.7993351720062123 
4.860000000002012, -0.8004964097169198 
4.870000000001989, -0.8012118364369876 
4.880000000001965, -0.8015557158883677 
4.890000000001942, -0.8016065301165142 
4.900000000001919, -0.8014290552647261 
4.9100000000018955, -0.8010707172828315 
4.920000000001872, -0.800568128765689 
4.930000000001849, -0.7999621192027921 
