t, s[1].omega / s[0].omega 
0, -0.6399977141045254 
0.009999999999999995, -0.6397704806319998 
0.019999999999999934, -0.6395395750655595 
0.029999999999999874, -0.6392891613113356 
0.04000000000000012, -0.6390014047612916 
0.050000000000000405, -0.6386639410237083 
0.06000000000000069, -0.6382740227712531 
0.07000000000000098, -0.6378391785356827 
0.08000000000000126, -0.6373766367193447 
0.09000000000000155, -0.6369140439400438 
0.10000000000000184, -0.6364929954129025 
0.11000000000000212, -0.6361758752026907 
0.12000000000000241, -0.6360558669004844 
0.130000000000002, -0.6362694417610582 
0.1400000000000009, -0.6370097086311441 
0.1499999999999998, -0.6385372179844062 
0.1599999999999987, -0.6411813365189322 
0.1699999999999976, -0.6453189368656541 
0.1799999999999965, -0.6513079317236005 
0.1899999999999954, -0.6593489655064305 
0.1999999999999943, -0.669276215520697 
0.2099999999999932, -0.6803739743113505 
0.2199999999999921, -0.6914338250673306 
0.229999999999991, -0.7011836622084731 
0.2399999999999899, -0.7088328048521958 
0.2499999999999888, -0.7142763283116158 
0.2599999999999877, -0.7178762905471143 
0.2699999999999866, -0.7201300975399413 
0.2799999999999855, -0.7214684939627435 
0.2899999999999844, -0.7221975719680661 
0.2999999999999833, -0.722511075526678 
0.3099999999999822, -0.7225185197654002 
0.3199999999999811, -0.722267228322518 
0.32999999999998, -0.721753066441501 
0.3399999999999789, -0.7209195289341414 
0.3499999999999778, -0.7196452647784924 
0.35999999999997667, -0.7177210050616788 
0.36999999999997557, -0.7148234093159374 
0.37999999999997447, -0.7105128973419994 
0.38999999999997337, -0.7043152284589591 
0.39999999999997227, -0.6959510043717547 
0.40999999999997117, -0.68565756960231 
0.41999999999997006, -0.6743277715364304 
0.42999999999996896, -0.6632180688995127 
0.43999999999996786, -0.6534134385025154 
0.44999999999996676, -0.6454886945816443 
0.45999999999996566, -0.6395201541012623 
0.46999999999996456, -0.6352781644635084 
0.47999999999996346, -0.6324144243073503 
0.48999999999996235, -0.6305774511360129 
0.49999999999996125, -0.6294651205371713 
0.5099999999999602, -0.6288398250588997 
0.519999999999959, -0.6285254690270208 
0.529999999999958, -0.6283971567959673 
0.5399999999999568, -0.6283691153045045 
0.5499999999999557, -0.6283836014967542 
0.5599999999999546, -0.6284021318018497 
0.5699999999999535, -0.6283996212912932 
0.5799999999999524, -0.6283614866548309 
0.5899999999999513, -0.628283061032932 
0.5999999999999502, -0.6281696442269743 
0.6099999999999491, -0.6280347527030953 
0.619999999999948, -0.6278948671659196 
0.6299999999999469, -0.6277616031168975 
0.6399999999999458, -0.6276349936308312 
0.6499999999999447, -0.6275019070722972 
0.6599999999999436, -0.6273408570470054 
0.6699999999999425, -0.6271305165788877 
0.6799999999999414, -0.6268572047436611 
0.6899999999999403, -0.6265181919781155 
0.6999999999999392, -0.6261212520864812 
0.7099999999999381, -0.6256832537830658 
0.719999999999937, -0.6252305594508669 
0.7299999999999359, -0.6248028494638048 
0.7399999999999348, -0.6244611050876527 
0.7499999999999337, -0.624300121515297 
0.7599999999999326, -0.6244655881147013 
0.7699999999999315, -0.6251747356642982 
0.7799999999999304, -0.626736827604047 
0.7899999999999293, -0.6295637315969136 
0.7999999999999282, -0.6341492007881488 
0.8099999999999271, -0.6409787024692413 
0.819999999999926, -0.6503251378364268 
0.8299999999999249, -0.661939817663203 
0.8399999999999238, -0.674816824103377 
0.8499999999999227, -0.687366227083864 
0.8599999999999216, -0.6980872314649791 
0.8699999999999205, -0.7062282789856338 
0.8799999999999194, -0.7118691605744275 
0.8899999999999183, -0.7155368350927227 
0.8999999999999172, -0.7178176617528431 
0.9099999999999161, -0.7191761433596873 
0.919999999999915, -0.7199272021964224 
0.9299999999999139, -0.7202654920624394 
0.9399999999999128, -0.7203000398379206 
0.9499999999999117, -0.720078174968853 
0.9599999999999106, -0.7195968106737449 
0.9699999999999095, -0.7188022537351113 
0.9799999999999084, -0.7175798126515149 
0.9899999999999073, -0.7157361388088458 
0.9999999999999062, -0.7129850105564215 
1.0099999999999052, -0.7089652358754435 
1.019999999999904, -0.7033387275814755 
1.029999999999903, -0.6959926517686424 
1.039999999999902, -0.6872507619138621 
1.0499999999999008, -0.6778824536529919 
1.0599999999998997, -0.6688239303203664 
1.0699999999998986, -0.6608216308455127 
1.0799999999998975, -0.6542568743822252 
1.0899999999998964, -0.6491835236516449 
1.0999999999998953, -0.6454550223864535 
1.1099999999998942, -0.6428392110740866 
1.119999999999893, -0.641090202852022 
1.129999999999892, -0.6399844650876994 
1.1399999999998909, -0.6393351800783703 
1.1499999999998898, -0.6389950003872398 
1.1599999999998887, -0.6388529011921326 
1.1699999999998876, -0.6388282929007326 
1.1799999999998865, -0.6388643817779138 
1.1899999999998854, -0.638922171901109 
1.1999999999998843, -0.6389760457840141 
1.2099999999998832, -0.6390113115146937 
1.219999999999882, -0.6390232855015532 
1.229999999999881, -0.6390164493621933 
1.2399999999998799, -0.6390016452855073 
1.2499999999998788, -0.638990201705796 
1.2599999999998777, -0.638986401629885 
1.2699999999998766, -0.6389820479571179 
1.2799999999998755, -0.6389567560895874 
1.2899999999998744, -0.6388844853466527 
1.2999999999998733, -0.6387427717488052 
1.3099999999998722, -0.6385195730470201 
1.319999999999871, -0.638215105311485 
1.32999999999987, -0.6378400514459119 
1.3399999999998689, -0.6374135240030757 
1.3499999999998678, -0.6369635933231886 
1.3599999999998666, -0.6365318354049547 
1.3699999999998655, -0.6361825594911253 
1.3799999999998644, -0.6360171370503949 
1.3899999999998633, -0.6361934734512011 
1.3999999999998622, -0.6369492630368045 
1.4099999999998611, -0.6386240802209132 
1.41999999999986, -0.6416677404859528 
1.429999999999859, -0.6466086231749508 
1.4399999999998578, -0.6539382517525107 
1.4499999999998567, -0.6638699229674242 
1.4599999999998556, -0.6760091206920719 
1.4699999999998545, -0.6891681785122445 
1.4799999999998534, -0.7016655849428831 
1.4899999999998523, -0.7120773362803394 
1.4999999999998512, -0.7198207489038994 
1.5099999999998501, -0.7251060289093666 
1.519999999999849, -0.7285071859071914 
1.529999999999848, -0.730604342332031 
1.5399999999998468, -0.7318392373098668 
1.5499999999998457, -0.7325052483004244 
1.5599999999998446, -0.7327808576419338 
1.5699999999998435, -0.7327632867148881 
1.5799999999998424, -0.732490261492776 
1.5899999999998413, -0.7319490423932284 
1.5999999999998402, -0.7310738577854003 
1.6099999999998391, -0.7297327832976129 
1.619999999999838, -0.7277072536806988 
1.629999999999837, -0.7246767630090625 
1.6399999999998358, -0.7202423022267184 
1.6499999999998347, -0.7140431191970016 
1.6599999999998336, -0.7059884613267766 
1.6699999999998325, -0.696485042917183 
1.6799999999998314, -0.6864197428122977 
1.6899999999998303, -0.6768252723000077 
1.6999999999998292, -0.6684875757571134 
1.709999999999828, -0.6617743033999042 
1.719999999999827, -0.6566962388176045 
1.729999999999826, -0.6530559036825322 
1.7399999999998248, -0.6505750355071404 
1.7499999999998237, -0.6489720488132992 
1.7599999999998226, -0.647999441905356 
1.7699999999998215, -0.6474570193532208 
1.7799999999998204, -0.6471921784213538 
1.7899999999998193, -0.647093854890034 
1.7999999999998182, -0.6470839952769125 
1.809999999999817, -0.647108969791881 
1.819999999999816, -0.6471324602421781 
1.8299999999998149, -0.6471307035036988 
1.8399999999998138, -0.6470903071619911 
1.8499999999998127, -0.6470079284746315 
1.8599999999998116, -0.6468899733054574 
1.8699999999998105, -0.646749956821419 
1.8799999999998094, -0.6466024479450461 
1.8899999999998083, -0.6464554150630021 
1.8999999999998072, -0.6463050169881389 
1.909999999999806, -0.6461361673197386 
1.919999999999805, -0.6459287588944393 
1.9299999999998039, -0.6456658969877234 
1.9399999999998028, -0.6453397759170639 
1.9499999999998017, -0.6449534307636243 
1.9599999999998006, -0.6445198982156212 
1.9699999999997995, -0.6440616629950747 
1.9799999999997984, -0.6436125888246602 
1.9899999999997973, -0.6432233246293395 
1.9999999999997962, -0.6429703543152867 
2.0099999999998173, -0.6429683230114032 
2.0199999999998384, -0.6433845236325102 
2.0299999999998595, -0.6444529572002508 
2.0399999999998806, -0.646482561959701 
2.0499999999999017, -0.6498490079153859 
2.059999999999923, -0.6549509791479032 
2.069999999999944, -0.6621032955939107 
2.079999999999965, -0.6713480721315521 
2.089999999999986, -0.6822294848090766 
2.100000000000007, -0.6937071038541165 
2.1100000000000283, -0.7044269085344035 
2.1200000000000494, -0.7132891050226425 
2.1300000000000705, -0.7198655915358598 
2.1400000000000916, -0.7243497710107945 
2.1500000000001127, -0.727223637316115 
2.160000000000134, -0.7289747098172767 
2.170000000000155, -0.7299763984180538 
2.180000000000176, -0.730476777320672 
2.190000000000197, -0.7306245628168822 
2.2000000000002182, -0.7304960337754964 
2.2100000000002393, -0.7301117266624523 
2.2200000000002604, -0.7294412399481994 
2.2300000000002815, -0.7283962329332324 
2.2400000000003026, -0.7268116706345403 
2.2500000000003237, -0.7244181244460801 
2.260000000000345, -0.7208199969982975 
2.270000000000366, -0.715522910295441 
2.280000000000387, -0.7080846773576648 
2.290000000000408, -0.6984227383825836 
2.3000000000004293, -0.6871123061708602 
2.3100000000004504, -0.6753357654325909 
2.3200000000004715, -0.6643991548394801 
2.3300000000004926, -0.6552097871092035 
2.3400000000005137, -0.6480967943125502 
2.3500000000005348, -0.642946117684717 
2.360000000000556, -0.6394228189150672 
2.370000000000577, -0.6371383901014296 
2.380000000000598, -0.6357390612894309 
2.390000000000619, -0.6349388029116196 
2.4000000000006403, -0.6345228364877868 
2.4100000000006614, -0.6343381553778755 
2.4200000000006825, -0.634279884660023 
2.4300000000007036, -0.6342778715662638 
2.4400000000007247, -0.634285571686362 
2.450000000000746, -0.634272108491944 
2.460000000000767, -0.6342177492995272 
2.470000000000788, -0.6341124767304962 
2.480000000000809, -0.6339564367239648 
2.49000000000083, -0.6337599337142568 
2.5000000000008513, -0.6335403992179512 
2.5100000000008724, -0.63331559145075 
2.5200000000008935, -0.6330955257019093 
2.5300000000009146, -0.632877539650387 
2.5400000000009357, -0.6326475005708249 
2.550000000000957, -0.6323864229452 
2.560000000000978, -0.6320785793248194 
2.570000000000999, -0.6317170274537707 
2.58000000000102, -0.6313052324725122 
2.5900000000010412, -0.6308564710702732 
2.6000000000010624, -0.6303937334915511 
2.6100000000010835, -0.629952111122503 
2.6200000000011046, -0.6295845705254342 
2.6300000000011257, -0.6293713181100092 
2.6400000000011468, -0.6294325039305991 
2.650000000001168, -0.6299433035118641 
2.660000000001189, -0.6311488804444743 
2.67000000000121, -0.633373524874314 
2.680000000001231, -0.6370119952020048 
2.6900000000012523, -0.6424807113534181 
2.7000000000012734, -0.6500964648094116 
2.7100000000012945, -0.6598635125628081 
2.7200000000013156, -0.6712319520031189 
2.7300000000013367, -0.6830393119674864 
2.740000000001358, -0.693861605324875 
2.750000000001379, -0.7026362474176142 
2.7600000000014, -0.7090386065110901 
2.770000000001421, -0.7133504781933399 
2.780000000001442, -0.716092853922002 
2.7900000000014633, -0.717756444882591 
2.8000000000014844, -0.7187041947687898 
2.8100000000015055, -0.7191724541072939 
2.8200000000015266, -0.7193008006165026 
2.8300000000015477, -0.7191590143773692 
2.840000000001569, -0.7187628030124189 
2.85000000000159, -0.7180776574684502 
2.860000000001611, -0.7170114010621356 
2.870000000001632, -0.7153963410721385 
2.8800000000016532, -0.7129660596397829 
2.8900000000016743, -0.7093458630033401 
2.9000000000016954, -0.7041025614259832 
2.9100000000017165, -0.6969139498921346 
2.9200000000017377, -0.6878459900804221 
2.9300000000017588, -0.6775421457612453 
2.94000000000178, -0.6670711387259374 
2.950000000001801, -0.657486000845262 
2.960000000001822, -0.6494558120280584 
2.970000000001843, -0.643191855128461 
2.9800000000018643, -0.6385804985599342 
2.9900000000018854, -0.6353515795379658 
3.0000000000019065, -0.6331969725673011 
3.0100000000019276, -0.6318325298165093 
3.0200000000019487, -0.6310224484230904 
3.03000000000197, -0.6305836112331187 
3.040000000001991, -0.6303805663563076 
3.050000000002012, -0.6303168389304193 
3.060000000002033, -0.6303256167940159 
3.070000000002054, -0.6303615209617563 
3.0800000000020753, -0.6303944327722698 
3.0900000000020964, -0.6304058068491936 
3.1000000000021175, -0.6303872502334605 
3.1100000000021386, -0.6303402036821637 
3.1200000000021597, -0.6302746363548163 
3.130000000002181, -0.6302047856580935 
3.140000000002202, -0.6301419437407983 
3.150000000002223, -0.6300871552527954 
3.160000000002244, -0.6300280083466485 
3.1700000000022652, -0.6299419228747836 
3.1800000000022863, -0.6298044051116537 
3.1900000000023074, -0.6295976112530575 
3.2000000000023285, -0.629314995889244 
3.2100000000023496, -0.6289613584868585 
3.2200000000023707, -0.6285508316606866 
3.230000000002392, -0.6281060156016867 
3.240000000002413, -0.6276603664586268 
3.250000000002434, -0.6272648461349645 
3.260000000002455, -0.6269994015341342 
3.2700000000024763, -0.6269896727759736 
3.2800000000024974, -0.6274286594685048 
3.2900000000025185, -0.6286009053562613 
3.3000000000025396, -0.6309015138945926 
3.3100000000025607, -0.634831527730779 
3.3200000000025818, -0.6409334647816491 
3.330000000002603, -0.6496156038253654 
3.340000000002624, -0.6608434898435621 
3.350000000002645, -0.673823925667327 
3.360000000002666, -0.6870204245655135 
3.3700000000026873, -0.6987423030240831 
3.3800000000027084, -0.7079316595222419 
3.3900000000027295, -0.714448524715958 
3.4000000000027506, -0.7187546920477235 
3.4100000000027717, -0.7214681514907755 
3.420000000002793, -0.7231122360225599 
3.430000000002814, -0.7240540365507953 
3.440000000002835, -0.7245262485113019 
3.450000000002856, -0.7246644621145087 
3.460000000002877, -0.7245357626781205 
3.4700000000028983, -0.7241543750748612 
3.4800000000029194, -0.723485366202177 
3.4900000000029405, -0.7224377844661154 
3.5000000000029616, -0.7208492761269125 
3.5100000000029827, -0.7184693282326222 
3.520000000003004, -0.7149624221133225 
3.530000000003025, -0.7099732422531898 
3.540000000003046, -0.7032930393585295 
3.550000000003067, -0.6950814480362131 
3.5600000000030882, -0.6859614175685068 
3.5700000000031094, -0.6768327458581792 
3.5800000000031305, -0.6685192904271032 
3.5900000000031516, -0.6615236264048214 
3.6000000000031727, -0.6560016679982116 
3.6100000000031938, -0.6518684825039422 
3.620000000003215, -0.6489189857511943 
3.630000000003236, -0.646912393983366 
3.640000000003257, -0.6456185398990936 
3.650000000003278, -0.644838819098631 
3.6600000000032993, -0.644412861708729 
3.6700000000033204, -0.6442175901457504 
3.6800000000033415, -0.6441623872131775 
3.6900000000033626, -0.6441826939457991 
3.7000000000033837, -0.6442336853061057 
3.710000000003405, -0.6442852029581061 
3.720000000003426, -0.6443186092627051 
3.730000000003447, -0.6443254860903562 
3.740000000003468, -0.6443070721942316 
3.750000000003489, -0.6442724514635232 
3.7600000000035103, -0.6442338136090939 
3.7700000000035314, -0.6441992185960745 
3.7800000000035525, -0.6441660039186311 
3.7900000000035736, -0.6441188435516627 
3.8000000000035947, -0.6440342201889094 
3.810000000003616, -0.6438890332382377 
3.820000000003637, -0.643668466477114 
3.830000000003658, -0.6433694807901467 
3.840000000003679, -0.6430001007169053 
3.8500000000037002, -0.642577435907765 
3.8600000000037213, -0.6421274929287504 
3.8700000000037424, -0.6416885573257688 
3.8800000000037635, -0.6413188761967998 
3.8900000000037847, -0.6411089112749483 
3.9000000000038058, -0.6411980343776944 
3.910000000003827, -0.6417944575575453 
3.920000000003848, -0.6431945865565868 
3.930000000003869, -0.6457926189989689 
3.94000000000389, -0.6500614057116982 
3.9500000000039113, -0.6564716422215886 
3.9600000000039324, -0.6653102602580122 
3.9700000000039535, -0.6764004801790435 
3.9800000000039746, -0.6888652528011456 
3.9900000000039957, -0.7012300087298085 
4.000000000004016, -0.7120023269667332 
4.010000000003993, -0.7203312922385238 
4.02000000000397, -0.7261814466788885 
4.030000000003946, -0.7300161824593707 
4.040000000003923, -0.7324089406537676 
4.0500000000039, -0.7338346987799551 
4.0600000000038765, -0.7346230491977701 
4.070000000003853, -0.73498039182507 
4.08000000000383, -0.7350236525595388 
4.090000000003807, -0.7348051410556689 
4.100000000003783, -0.7343248109713294 
4.11000000000376, -0.7335304363540934 
4.120000000003737, -0.732306313639449 
4.130000000003713, -0.7304519129892555 
4.14000000000369, -0.7276583105883337 
4.150000000003667, -0.7235087058479409 
4.1600000000036434, -0.7175585860567086 
4.17000000000362, -0.7095513299827009 
4.180000000003597, -0.6997123305969677 
4.1900000000035735, -0.6888711221159916 
4.20000000000355, -0.6781960370297744 
4.210000000003527, -0.6687108730365259 
4.220000000003504, -0.6609810996426085 
4.23000000000348, -0.6551108280524746 
4.240000000003457, -0.6509084627605746 
4.250000000003434, -0.6480567143050042 
4.26000000000341, -0.6462229891379284 
4.270000000003387, -0.6451137264197213 
4.280000000003364, -0.6444933858376934 
4.2900000000033405, -0.6441848243919465 
4.300000000003317, -0.6440611472878126 
4.310000000003294, -0.6440346554878296 
4.320000000003271, -0.6440460176823766 
4.330000000003247, -0.6440553861045832 
4.340000000003224, -0.6440363287837894 
4.350000000003201, -0.6439728220721543 
4.360000000003177, -0.6438587662495243 
4.370000000003154, -0.643698367036128 
4.380000000003131, -0.6435048309281862 
4.390000000003107, -0.643295464225612 
4.400000000003084, -0.6430839579681027 
4.410000000003061, -0.6428735513961199 
4.4200000000030375, -0.6426551281507844 
4.430000000003014, -0.6424114803149744 
4.440000000002991, -0.6421251426623806 
4.450000000002968, -0.6417853945705011 
4.460000000002944, -0.6413916073570793 
4.470000000002921, -0.6409533779002148 
4.480000000002898, -0.6404899538105481 
4.490000000002874, -0.6400313677645291 
4.500000000002851, -0.6396225829180057 
4.510000000002828, -0.6393309833226104 
4.520000000002804, -0.639256937926811 
4.530000000002781, -0.6395465573902104 
4.540000000002758, -0.640404701203346 
4.5500000000027345, -0.6421042735703113 
4.560000000002711, -0.6449840178113919 
4.570000000002688, -0.6494202510538984 
4.580000000002665, -0.6557491119672872 
4.590000000002641, -0.6641152359610014 
4.600000000002618, -0.6742602542805214 
4.610000000002595, -0.6853698984210197 
4.620000000002571, -0.6961970927172747 
4.630000000002548, -0.7055357984866244 
4.640000000002525, -0.7127255035292455 
4.6500000000025015, -0.717768137505113 
4.660000000002478, -0.7210672379630514 
4.670000000002455, -0.7231133067647427 
4.6800000000024315, -0.7243127041600793 
4.690000000002408, -0.7249475623743424 
4.700000000002385, -0.725193283698234 
4.710000000002362, -0.7251460785930083 
4.720000000002338, -0.7248428578176653 
4.730000000002315, -0.7242696606340708 
4.740000000002292, -0.7233584175972793 
4.750000000002268, -0.7219719951672626 
4.760000000002245, -0.7198788320548999 
4.770000000002222, -0.7167267016863657 
4.7800000000021985, -0.7120479638465825 
4.790000000002175, -0.7053631166027705 
4.800000000002152, -0.6964425682887296 
4.810000000002129, -0.6856372091763324 
4.820000000002105, -0.6739651768558058 
4.830000000002082, -0.6627415502827281 
4.840000000002059, -0.6530205538454219 
4.850000000002035, -0.6452995401878402 
4.860000000002012, -0.6395799033236893 
4.870000000001989, -0.6355810320403565 
4.880000000001965, -0.6329275749992384 
4.890000000001942, -0.6312578604516703 
4.900000000001919, -0.6302696416106226 
4.9100000000018955, -0.629730354329556 
4.920000000001872, -0.6294708910025756 
