t, s[1].omega / s[0].omega 
0, -0.6999976926891451 
0.009999999999999995, -0.6997622571289868 
0.019999999999999934, -0.6995102680727208 
0.029999999999999874, -0.6992240622670857 
0.04000000000000012, -0.6988848679450486 
0.050000000000000405, -0.698481958274096 
0.06000000000000069, -0.6980176541121557 
0.07000000000000098, -0.6975083474384329 
0.08000000000000126, -0.6969845561439281 
0.09000000000000155, -0.696492813089834 
0.10000000000000184, -0.6961002773669407 
0.11000000000000212, -0.6959010543327216 
0.12000000000000241, -0.6960219662753494 
0.130000000000002, -0.6966250549550235 
0.1400000000000009, -0.6979045672159023 
0.1499999999999998, -0.7000773405979115 
0.1599999999999987, -0.7033661364115515 
0.1699999999999976, -0.7079736960555375 
0.1799999999999965, -0.7140405071645424 
0.1899999999999954, -0.7215753338953474 
0.1999999999999943, -0.7303566887130278 
0.2099999999999932, -0.7398434556448923 
0.2199999999999921, -0.7491952994878435 
0.229999999999991, -0.7574973886255333 
0.2399999999999899, -0.7641086343415129 
0.2499999999999888, -0.7688678205676982 
0.2599999999999877, -0.7720095855059116 
0.2699999999999866, -0.7739291288665848 
0.2799999999999855, -0.7749969971721391 
0.2899999999999844, -0.7754850770263381 
0.2999999999999833, -0.7755633743751672 
0.3099999999999822, -0.775319313962118 
0.3199999999999811, -0.7747748416746676 
0.32999999999998, -0.7738935204750214 
0.3399999999999789, -0.7725764051859135 
0.3499999999999778, -0.7706471554698733 
0.35999999999997667, -0.7678276925013507 
0.36999999999997557, -0.7637076017770223 
0.37999999999997447, -0.7577146102106271 
0.38999999999997337, -0.7491097866146526 
0.39999999999997227, -0.7371046447825254 
0.40999999999997117, -0.7213505539932937 
0.41999999999997006, -0.702883056110139 
0.42999999999996896, -0.6845148964735506 
0.43999999999996786, -0.6694058085622513 
0.44999999999996676, -0.6590810579084588 
0.45999999999996566, -0.653128027141613 
0.46999999999996456, -0.6502392507434361 
0.47999999999996346, -0.6491431142606614 
0.48999999999996235, -0.6489472340827271 
0.49999999999996125, -0.6491247555360746 
0.5099999999999602, -0.6493983763813528 
0.519999999999959, -0.6496344043621696 
0.529999999999958, -0.6497716463849965 
0.5399999999999568, -0.6497795808217355 
0.5499999999999557, -0.6496354661542066 
0.5599999999999546, -0.6493129486701189 
0.5699999999999535, -0.6487788767462649 
0.5799999999999524, -0.6479983197396433 
0.5899999999999513, -0.6469484082044963 
0.5999999999999502, -0.645637315104768 
0.6099999999999491, -0.6441169458321394 
0.619999999999948, -0.642476300950337 
0.6299999999999469, -0.6408153094047807 
0.6399999999999458, -0.6392155135617805 
0.6499999999999447, -0.6377249095390592 
0.6599999999999436, -0.6363605445892895 
0.6699999999999425, -0.6351211253290956 
0.6799999999999414, -0.6340005496067025 
0.6899999999999403, -0.6329974633201287 
0.6999999999999392, -0.6321201243641908 
0.7099999999999381, -0.6313879118455207 
0.719999999999937, -0.63083099803734 
0.7299999999999359, -0.6304890958526512 
0.7399999999999348, -0.630409709870168 
0.7499999999999337, -0.6306462454154581 
0.7599999999999326, -0.6312564787897108 
0.7699999999999315, -0.6323019016175488 
0.7799999999999304, -0.6338480072796379 
0.7899999999999293, -0.6359644825744906 
0.7999999999999282, -0.6387223904188726 
0.8099999999999271, -0.6421828990970929 
0.819999999999926, -0.6463700942757354 
0.8299999999999249, -0.6512230383690596 
0.8399999999999238, -0.6565377096507554 
0.8499999999999227, -0.661940805061169 
0.8599999999999216, -0.6669552805545317 
0.8699999999999205, -0.6711620276377339 
0.8799999999999194, -0.6743523590994142 
0.8899999999999183, -0.6765534608228445 
0.8999999999999172, -0.6779356900486186 
0.9099999999999161, -0.6787006253032879 
0.919999999999915, -0.6790144436777105 
0.9299999999999139, -0.6789867925936754 
0.9399999999999128, -0.6786714515479693 
0.9499999999999117, -0.6780701924317994 
0.9599999999999106, -0.6771302015873618 
0.9699999999999095, -0.6757293110252431 
0.9799999999999084, -0.6736422229004431 
0.9899999999999073, -0.6704767887904624 
0.9999999999999062, -0.6655678157291632 
1.0099999999999052, -0.6578416196365169 
1.019999999999904, -0.645789529921811 
1.029999999999903, -0.6279611951851873 
1.039999999999902, -0.6043588523533334 
1.0499999999999008, -0.5777470665629205 
1.0599999999998997, -0.5526323368560886 
1.0699999999998986, -0.5324006883784171 
1.0799999999998975, -0.5179206103228837 
1.0899999999998964, -0.5083395342258507 
1.0999999999998953, -0.5023101421502155 
1.1099999999998942, -0.4986456694681086 
1.119999999999893, -0.49648541247097044 
1.129999999999892, -0.49525710401497536 
1.1399999999998909, -0.4945959117462932 
1.1499999999998898, -0.49427415952423226 
1.1599999999998887, -0.49415145819800854 
1.1699999999998876, -0.49414207920373315 
1.1799999999998865, -0.4941946393706922 
1.1899999999998854, -0.4942802334030554 
1.1999999999998843, -0.4943863795841315 
1.2099999999998832, -0.4945147373513993 
1.219999999999882, -0.49468035401825483 
1.229999999999881, -0.49490962928834914 
1.2399999999998799, -0.4952343038188817 
1.2499999999998788, -0.4956804631074581 
1.2599999999998777, -0.4962544787906274 
1.2699999999998766, -0.49693094410412364 
1.2799999999998755, -0.4976498927467895 
1.2899999999998744, -0.49832904064400313 
1.2999999999998733, -0.4988881693172088 
1.3099999999998722, -0.4992721342127454 
1.319999999999871, -0.4994590555820079 
1.32999999999987, -0.49945249557864857 
1.3399999999998689, -0.4992666669837325 
1.3499999999998678, -0.4989132637639459 
1.3599999999998666, -0.4983925736610456 
1.3699999999998655, -0.4976870440611093 
1.3799999999998644, -0.4967534835595159 
1.3899999999998633, -0.4955081069940765 
1.3999999999998622, -0.4937932886464703 
1.4099999999998611, -0.49130229572422623 
1.41999999999986, -0.4874195662850579 
1.429999999999859, -0.48095055396285724 
1.4399999999998578, -0.4699370751691557 
1.4499999999998567, -0.4523507113375788 
1.4599999999998556, -0.42836505704775113 
1.4699999999998545, -0.4019684483260015 
1.4799999999998534, -0.3784408995632867 
1.4899999999998523, -0.36057360415934403 
1.4999999999998512, -0.34825963723150205 
1.5099999999998501, -0.3401629339874031 
1.519999999999849, -0.33492735629846504 
1.529999999999848, -0.331550408037682 
1.5399999999998468, -0.3293724497903707 
1.5499999999998457, -0.32797904186210436 
1.5599999999998446, -0.3271148639727732 
1.5699999999998435, -0.3266253582886352 
1.5799999999998424, -0.32642087038857626 
1.5899999999998413, -0.3264559963728094 
1.5999999999998402, -0.326718900976786 
1.6099999999998391, -0.3272274725024479 
1.619999999999838, -0.3280305431950679 
1.629999999999837, -0.3292129133703006 
1.6399999999998358, -0.3309022873631685 
1.6499999999998347, -0.3332735103279519 
1.6599999999998336, -0.336538773828785 
1.6699999999998325, -0.3409007777265858 
1.6799999999998314, -0.3464392216262314 
1.6899999999998303, -0.35293805708766335 
1.6999999999998292, -0.3597796079358385 
1.709999999999828, -0.3661107415224535 
1.719999999999827, -0.37125415043892446 
1.729999999999826, -0.37499013236307943 
1.7399999999998248, -0.3774829210480956 
1.7499999999998237, -0.379041285717388 
1.7599999999998226, -0.379949008827832 
1.7699999999998215, -0.38040834058126094 
1.7799999999998204, -0.38054305108084724 
1.7899999999998193, -0.3804165578557655 
1.7999999999998182, -0.38004772101520684 
1.809999999999817, -0.3794221526727568 
1.819999999999816, -0.3785032158841446 
1.8299999999998149, -0.37724949189308493 
1.8399999999998138, -0.3756437523234887 
1.8499999999998127, -0.3737276623281501 
1.8599999999998116, -0.3716192674430926 
1.8699999999998105, -0.3694890815708841 
1.8799999999998094, -0.36750242448841236 
1.8899999999998083, -0.3657681756926404 
1.8999999999998072, -0.36432361150455556 
1.909999999999806, -0.3631501097407816 
1.919999999999805, -0.36219887666530176 
1.9299999999998039, -0.3614128059383249 
1.9399999999998028, -0.3607406014590758 
1.9499999999998017, -0.36014388056980057 
1.9599999999998006, -0.3595992919194942 
1.9699999999997995, -0.35909819398840237 
1.9799999999997984, -0.358646480668883 
1.9899999999997973, -0.3582667872051813 
1.9999999999997962, -0.35800510796429297 
2.0099999999998173, -0.3579442722608427 
2.0199999999998384, -0.3582276145616445 
2.0299999999998595, -0.35909591945117714 
2.0399999999998806, -0.3609328579175641 
2.0499999999999017, -0.36427775622039926 
2.059999999999923, -0.3696519841726122 
2.069999999999944, -0.3768458015771998 
2.079999999999965, -0.3834879358053991 
2.089999999999986, -0.38459919539395726 
2.100000000000007, -0.37654215134965074 
2.1100000000000283, -0.36196092287462245 
2.1200000000000494, -0.34700474832375705 
2.1300000000000705, -0.3354179758699674 
2.1400000000000916, -0.32765516204667533 
2.1500000000001127, -0.32280008887512807 
2.160000000000134, -0.31985136154887334 
2.170000000000155, -0.3180839341508749 
2.180000000000176, -0.3170385753648804 
2.190000000000197, -0.31643912381903605 
2.2000000000002182, -0.316123453628926 
2.2100000000002393, -0.315998870683296 
2.2200000000002604, -0.3160160225666959 
2.2300000000002815, -0.31615480689541864 
2.2400000000003026, -0.31641786167175495 
2.2500000000003237, -0.31682886352179956 
2.260000000000345, -0.3174335795653475 
2.270000000000366, -0.3183015032486488 
2.280000000000387, -0.3195249961972232 
2.290000000000408, -0.3212108540023392 
2.3000000000004293, -0.32345606513107905 
2.3100000000004504, -0.32629887279150493 
2.3200000000004715, -0.3296500592367249 
2.3300000000004926, -0.3332475818642713 
2.3400000000005137, -0.33670546720893013 
2.3500000000005348, -0.33966533948405664 
2.360000000000556, -0.34193752241716135 
2.370000000000577, -0.34352063959456786 
2.380000000000598, -0.3445227882758904 
2.390000000000619, -0.3450748561057463 
2.4000000000006403, -0.3452822906017005 
2.4100000000006614, -0.3452100569746156 
2.4200000000006825, -0.34488243394959783 
2.4300000000007036, -0.3442861574263483 
2.4400000000007247, -0.34337423073677276 
2.450000000000746, -0.34207469918755995 
2.460000000000767, -0.3403138898884927 
2.470000000000788, -0.33806178136928994 
2.480000000000809, -0.3353874787679944 
2.49000000000083, -0.3324812863164275 
2.5000000000008513, -0.3296034435148412 
2.5100000000008724, -0.32698516963837837 
2.5200000000008935, -0.3247574985897644 
2.5300000000009146, -0.32294586741565773 
2.5400000000009357, -0.32150608787046636 
2.550000000000957, -0.32036433138177156 
2.560000000000978, -0.3194443156372127 
2.570000000000999, -0.31868145857034375 
2.58000000000102, -0.31802835447008726 
2.5900000000010412, -0.3174554585587923 
2.6000000000010624, -0.31694997947725734 
2.6100000000010835, -0.3165153964966534 
2.6200000000011046, -0.31617358169943455 
2.6300000000011257, -0.31597139448964884 
2.6400000000011468, -0.3159939975640336 
2.650000000001168, -0.3163875215693607 
2.660000000001189, -0.3173913985247034 
2.67000000000121, -0.3193657979623072 
2.680000000001231, -0.32274261961514433 
2.6900000000012523, -0.32767593554280244 
2.7000000000012734, -0.3329980372252293 
2.7100000000012945, -0.3347814579595866 
2.7200000000013156, -0.3275800388603643 
2.7300000000013367, -0.31061673194323336 
2.740000000001358, -0.2902015963157796 
2.750000000001379, -0.2728705566657502 
2.7600000000014, -0.2606999163367439 
2.770000000001421, -0.25287558266800875 
2.780000000001442, -0.24799969126208338 
2.7900000000014633, -0.24497439289849332 
2.8000000000014844, -0.24309149049682244 
2.8100000000015055, -0.24192483938568138 
2.8200000000015266, -0.24122510331801172 
2.8300000000015477, -0.24085024904213048 
2.840000000001569, -0.2407250917765603 
2.85000000000159, -0.240819725974906 
2.860000000001611, -0.2411399902855476 
2.870000000001632, -0.24172629125611045 
2.8800000000016532, -0.24265917763333342 
2.8900000000016743, -0.24407101857453167 
2.9000000000016954, -0.24616242233156954 
2.9100000000017165, -0.24921719600329967 
2.9200000000017377, -0.2535949746727757 
2.9300000000017588, -0.25965091556448877 
2.94000000000178, -0.267510288928667 
2.950000000001801, -0.27672087080545554 
2.960000000001822, -0.2861121363981278 
2.970000000001843, -0.2942871425533825 
2.9800000000018643, -0.30043086612488296 
2.9900000000018854, -0.30456235125017717 
3.0000000000019065, -0.3071536858604807 
3.0100000000019276, -0.3087130528836237 
3.0200000000019487, -0.30961483575830906 
3.03000000000197, -0.31009361716744654 
3.040000000001991, -0.31028429675993563 
3.050000000002012, -0.3102588281296701 
3.060000000002033, -0.3100509837098707 
3.070000000002054, -0.30967297347573564 
3.0800000000020753, -0.30912919580310255 
3.0900000000020964, -0.30843041995352827 
3.1000000000021175, -0.3076075002847741 
3.1100000000021386, -0.3067185998031837 
3.1200000000021597, -0.3058429282621645 
3.130000000002181, -0.30506148882823486 
3.140000000002202, -0.30443520701688026 
3.150000000002223, -0.3039914760004917 
3.160000000002244, -0.3037219846843169 
3.1700000000022652, -0.30358871602584847 
3.1800000000022863, -0.30353516378641443 
3.1900000000023074, -0.3035005344240414 
3.2000000000023285, -0.30343278219265096 
3.2100000000023496, -0.3032954639601301 
3.2200000000023707, -0.3030665833616121 
3.230000000002392, -0.302731739558747 
3.240000000002413, -0.3022748698161056 
3.250000000002434, -0.30166763650212797 
3.260000000002455, -0.30085508908193115 
3.2700000000024763, -0.2997312789356602 
3.2800000000024974, -0.29809334312725394 
3.2900000000025185, -0.29555857711880706 
3.3000000000025396, -0.2914457117293018 
3.3100000000025607, -0.2847219963848445 
3.3200000000025818, -0.27435030664784293 
3.330000000002603, -0.2603380931107716 
3.340000000002624, -0.24461274391306329 
3.350000000002645, -0.23003672063205985 
3.360000000002666, -0.21843111603803136 
3.3700000000026873, -0.21002328921605212 
3.3800000000027084, -0.20419453457758538 
3.3900000000027295, -0.2001957678771893 
3.4000000000027506, -0.19743091647893718 
3.4100000000027717, -0.19549064550184597 
3.420000000002793, -0.19411169082156 
3.430000000002814, -0.19313215395309394 
3.440000000002835, -0.1924596042113343 
3.450000000002856, -0.19205239715845923 
3.460000000002877, -0.19191203446994598 
3.4700000000028983, -0.19208574255721061 
3.4800000000029194, -0.19268101428878254 
3.4900000000029405, -0.19389742053998335 
3.5000000000029616, -0.19608557128796206 
3.5100000000029827, -0.19984558647618328 
3.520000000003004, -0.2061595258767555 
3.530000000003025, -0.21644326273103273 
3.540000000003046, -0.2320404607672421 
3.550000000003067, -0.25219977209588307 
3.5600000000030882, -0.27119857936636516 
3.5700000000031094, -0.2807859004113707 
3.5800000000031305, -0.27921844668443774 
3.5900000000031516, -0.2722052794495265 
3.6000000000031727, -0.26513062771323154 
3.6100000000031938, -0.2599129700171769 
3.620000000003215, -0.2565081278145421 
3.630000000003236, -0.2543932587447414 
3.640000000003257, -0.2531072522900121 
3.650000000003278, -0.2523396889721416 
3.6600000000032993, -0.25190054940950074 
3.6700000000033204, -0.2516793878598315 
3.6800000000033415, -0.2516164280401243 
3.6900000000033626, -0.2516856672981934 
3.7000000000033837, -0.25188663649733845 
3.710000000003405, -0.25224211460123613 
3.720000000003426, -0.2527999935329426 
3.730000000003447, -0.25363782009025554 
3.740000000003468, -0.2548680287290577 
3.750000000003489, -0.25663974398447575 
3.7600000000035103, -0.25912756822586064 
3.7700000000035314, -0.2624886136183791 
3.7800000000035525, -0.2667667199800103 
3.7900000000035736, -0.2717601829451642 
3.8000000000035947, -0.2769638538864765 
3.810000000003616, -0.28172810354364686 
3.820000000003637, -0.2855696506447243 
3.830000000003658, -0.28834990115032777 
3.840000000003679, -0.2901990522382737 
3.8500000000037002, -0.29134237858543 
3.8600000000037213, -0.2919838191005254 
3.8700000000037424, -0.2922677324239706 
3.8800000000037635, -0.2922810544403247 
3.8900000000037847, -0.29206632676004135 
3.9000000000038058, -0.29163457341220855 
3.910000000003827, -0.29097754387890695 
3.920000000003848, -0.29008274475511286 
3.930000000003869, -0.2889537272611207 
3.94000000000389, -0.28763156723811745 
3.9500000000039113, -0.28620430917635864 
3.9600000000039324, -0.2847914179888579 
3.9700000000039535, -0.28350802399049824 
3.9800000000039746, -0.2824317871044525 
3.9900000000039957, -0.2815902955563891 
4.000000000004016, -0.2809676126787166 
4.010000000003993, -0.2805189794209889 
4.02000000000397, -0.28018612991528735 
4.030000000003946, -0.27991059636685967 
4.040000000003923, -0.27964330105533747 
4.0500000000039, -0.2793486547592388 
4.0600000000038765, -0.27900302771494323 
4.070000000003853, -0.27858942633782924 
4.08000000000383, -0.278090325485026 
4.090000000003807, -0.27747878734477127 
4.100000000003783, -0.2767049952243642 
4.11000000000376, -0.27567066892511 
4.120000000003737, -0.2741755930333251 
4.130000000003713, -0.2718091667858834 
4.14000000000369, -0.267767763905687 
4.150000000003667, -0.26070381093897016 
4.1600000000036434, -0.2490960972586646 
4.17000000000362, -0.23274675663437122 
4.180000000003597, -0.21419290581548428 
4.1900000000035735, -0.19726343355541426 
4.20000000000355, -0.1841903920798613 
4.210000000003527, -0.1750355530822078 
4.220000000003504, -0.16888204964278614 
4.23000000000348, -0.16476877826697836 
4.240000000003457, -0.16198524272267006 
4.250000000003434, -0.16006741130926636 
4.26000000000341, -0.1587276509703427 
4.270000000003387, -0.1577941491263243 
4.280000000003364, -0.1571715727944313 
4.2900000000033405, -0.1568193576047246 
4.300000000003317, -0.15674343448554912 
4.310000000003294, -0.15699989897879615 
4.320000000003271, -0.15771260288480954 
4.330000000003247, -0.15911091426009075 
4.340000000003224, -0.16159842753680342 
4.350000000003201, -0.16586122594022662 
4.360000000003177, -0.17298043194177248 
4.370000000003154, -0.18430906313829581 
4.380000000003131, -0.20033352091889056 
4.390000000003107, -0.21769201403040922 
4.400000000003084, -0.2277889958204174 
4.410000000003061, -0.22468635601248893 
4.4200000000030375, -0.21296165483228974 
4.430000000003014, -0.2006317521362592 
4.440000000002991, -0.19137470425622125 
4.450000000002968, -0.18529073121699524 
4.460000000002944, -0.1814712329169269 
4.470000000002921, -0.17909496626207608 
4.480000000002898, -0.17761597576234736 
4.490000000002874, -0.17670544645600492 
4.500000000002851, -0.1761742585445975 
4.510000000002828, -0.17591989956976414 
4.520000000002804, -0.17589621360548643 
4.530000000002781, -0.1760989254883116 
4.540000000002758, -0.17656218777025298 
4.5500000000027345, -0.1773642118784639 
4.560000000002711, -0.1786422174992694 
4.570000000002688, -0.1806180833897695 
4.580000000002665, -0.18363407560649175 
4.590000000002641, -0.18818522477829205 
4.600000000002618, -0.1948936836732709 
4.610000000002595, -0.20428958579202475 
4.620000000002571, -0.216250252225971 
4.630000000002548, -0.22937313930780734 
4.640000000002525, -0.2413059090111672 
4.6500000000025015, -0.2502923603348118 
4.660000000002478, -0.25613317413742115 
4.670000000002455, -0.25961432779088905 
4.6800000000024315, -0.2616181769176701 
4.690000000002408, -0.26276235054226094 
4.700000000002385, -0.26340723111786085 
4.710000000002362, -0.26374864913687956 
4.720000000002338, -0.26389066346937473 
4.730000000002315, -0.26388837051434993 
4.740000000002292, -0.26377172692968986 
4.750000000002268, -0.2635601140554019 
4.760000000002245, -0.2632731514896903 
4.770000000002222, -0.26293951559509987 
4.7800000000021985, -0.262602400187396 
4.790000000002175, -0.26231884989548193 
4.800000000002152, -0.2621519282433459 
4.810000000002129, -0.2621582065923266 
4.820000000002105, -0.26237440077759 
4.830000000002082, -0.2628053154060675 
4.840000000002059, -0.2634150799376064 
4.850000000002035, -0.26412733909618963 
4.860000000002012, -0.26484105025687904 
4.870000000001989, -0.2654589568979598 
