t, s[1].omega / s[0].omega 
0, -1.5699918695509192 
0.009999999999999995, -1.568899976742871 
0.019999999999999934, -1.5672557372004332 
0.029999999999999874, -1.5650580945893828 
0.04000000000000012, -1.5623049880415025 
0.050000000000000405, -1.5589934501527365 
0.06000000000000069, -1.55511974004774 
0.07000000000000098, -1.5506795148898902 
0.08000000000000126, -1.545668043937476 
0.09000000000000155, -1.5400804706913869 
0.10000000000000184, -1.5339121318862092 
0.11000000000000212, -1.5271589483804093 
0.12000000000000241, -1.5198179136948078 
0.130000000000002, -1.511887721631154 
0.1400000000000009, -1.5033695940472642 
0.1499999999999998, -1.4942683897942985 
0.1599999999999987, -1.4845940889817022 
0.1699999999999976, -1.4743637427901541 
0.1799999999999965, -1.4636039457782746 
0.1899999999999954, -1.4523538138421352 
0.1999999999999943, -1.4406683308313168 
0.2099999999999932, -1.4286217647900128 
0.2199999999999921, -1.416310670395634 
0.229999999999991, -1.4038558247148973 
0.2399999999999899, -1.3914023425061535 
0.2499999999999888, -1.3791172464244181 
0.2599999999999877, -1.3671839785496704 
0.2699999999999866, -1.3557937503697144 
0.2799999999999855, -1.34513419802004 
0.2899999999999844, -1.3353764289034025 
0.2999999999999833, -1.3266620538217493 
0.3099999999999822, -1.3190920300487763 
0.3199999999999811, -1.3127189885089074 
0.32999999999998, -1.3075441845001912 
0.3399999999999789, -1.3035194176480671 
0.3499999999999778, -1.3005534154473415 
0.35999999999997667, -1.2985214785265138 
0.36999999999997557, -1.2972767965649294 
0.37999999999997447, -1.2966618111087729 
0.38999999999997337, -1.296518272754653 
0.39999999999997227, -1.2966950953373741 
0.40999999999997117, -1.2970536107973458 
0.41999999999997006, -1.2974702618936158 
0.42999999999996896, -1.2978370704479913 
0.43999999999996786, -1.2980603708737457 
0.44999999999996676, -1.2980583237831977 
0.45999999999996566, -1.2977576622637883 
0.46999999999996456, -1.2970900158496814 
0.47999999999996346, -1.2959880382194426 
0.48999999999996235, -1.2943814565266922 
0.49999999999996125, -1.2921930746251518 
0.5099999999999602, -1.289334703358298 
0.519999999999959, -1.2857029587399469 
0.529999999999958, -1.2811748627064719 
0.5399999999999568, -1.2756032022091244 
0.5499999999999557, -1.2688116549059603 
0.5599999999999546, -1.2605897817896428 
0.5699999999999535, -1.2506881310684101 
0.5799999999999524, -1.238813908867913 
0.5899999999999513, -1.2246279659211872 
0.5999999999999502, -1.2077442328463908 
0.6099999999999491, -1.1877331961264324 
0.619999999999948, -1.1641314853581781 
0.6299999999999469, -1.136460008741104 
0.6399999999999458, -1.1042530918724018 
0.6499999999999447, -1.067100392492823 
0.6599999999999436, -1.0247015649623366 
0.6699999999999425, -0.9769304251869929 
0.6799999999999414, -0.9239008440770156 
0.6899999999999403, -0.8660217332463784 
0.6999999999999392, -0.8040252725259869 
0.7099999999999381, -0.7389535490873964 
0.719999999999937, -0.6720958541931336 
0.7299999999999359, -0.6048812811284131 
0.7399999999999348, -0.5387448655107655 
0.7499999999999337, -0.4749943071095933 
0.7599999999999326, -0.414703927147759 
0.7699999999999315, -0.3586531481227686 
0.7799999999999304, -0.30731310237643905 
0.7899999999999293, -0.2608729884200891 
0.7999999999999282, -0.21929137398263032 
0.8099999999999271, -0.18235719875537698 
0.819999999999926, -0.1497487190665461 
0.8299999999999249, -0.12108344975201528 
0.8399999999999238, -0.09595641684162325 
0.8499999999999227, -0.07396693263351296 
0.8599999999999216, -0.05473563100656417 
0.8699999999999205, -0.037914012755102505 
0.8799999999999194, -0.0231886630218878 
0.8899999999999183, -0.010281940938706645 
0.8999999999999172, 0.0008935875095938712 
0.9099999999999161, 0.009276388299400572 
0.919999999999915, 0.016480623555062406 
0.9299999999999139, 0.022665353755920166 
0.9399999999999128, 0.027967203216241975 
0.9499999999999117, 0.03250345849686292 
0.9599999999999106, 0.036374811859713405 
0.9699999999999095, 0.03966774909256366 
0.9799999999999084, 0.04245660389103367 
0.9899999999999073, 0.044805312102036664 
0.9999999999999062, 0.04676890309645043 
1.0099999999999052, 0.04839476537489693 
1.019999999999904, 0.04972372116730144 
1.029999999999903, 0.050790941492175896 
1.039999999999902, 0.05162672965458122 
1.0499999999999008, 0.05225719794638854 
1.0599999999998997, 0.052704859655243026 
1.0699999999998986, 0.052989156579378194 
1.0799999999998975, 0.0531269412348572 
1.0899999999998964, 0.053132932985586814 
1.0999999999998953, 0.05302016862309941 
1.1099999999998942, 0.052800470751756576 
1.119999999999893, 0.05248496209781754 
1.129999999999892, 0.05208466113486992 
1.1399999999998909, 0.0516112050220645 
1.1499999999998898, 0.051077760931534134 
1.1599999999998887, 0.050500207980440553 
1.1699999999998876, 0.04989870133568446 
1.1799999999998865, 0.049299770502912926 
1.1899999999998854, 0.04873915908983657 
1.1999999999998843, 0.04826568812489928 
1.2099999999998832, 0.047946524769699524 
1.219999999999882, 0.04787436851508828 
1.229999999999881, 0.04817723141310686 
1.2399999999998799, 0.049031685152893585 
1.2499999999998788, 0.05068065815038398 
1.2599999999998777, 0.0534570390177579 
1.2699999999998766, 0.05781435888265717 
1.2799999999998755, 0.06436543159893605 
1.2899999999998744, 0.07392853486794801 
1.2999999999998733, 0.0875776226912147 
1.3099999999998722, 0.10668670579190413 
1.319999999999871, 0.13294692836939392 
1.32999999999987, 0.16831643064844212 
1.3399999999998689, 0.21484009146216707 
1.3499999999998678, 0.27426290165860495 
1.3599999999998666, 0.3473943001572921 
1.3699999999998655, 0.43331715393165654 
1.3799999999998644, 0.5287830088201096 
1.3899999999998633, 0.6283226391123342 
1.3999999999998622, 0.7253798327689673 
1.4099999999998611, 0.814069296714694 
1.41999999999986, 0.8905955985040467 
1.429999999999859, 0.9536401663242698 
1.4399999999998578, 1.0038262137327256 
1.4499999999998567, 1.0428447596069654 
1.4599999999998556, 1.0727175983042985 
1.4699999999998545, 1.0953571927945442 
1.4799999999998534, 1.1123777532971741 
1.4899999999998523, 1.125056884003403 
1.4999999999998512, 1.134366773625974 
1.5099999999998501, 1.1410274751902192 
1.519999999999849, 1.1455597813736562 
1.529999999999848, 1.14832927559153 
1.5399999999998468, 1.149579781774918 
1.5499999999998457, 1.14945704356145 
1.5599999999998446, 1.1480241837778706 
1.5699999999998435, 1.1452704670612885 
1.5799999999998424, 1.1411146686407871 
1.5899999999998413, 1.1354042196937975 
1.5999999999998402, 1.1279114355724078 
1.6099999999998391, 1.1183287180677657 
1.619999999999838, 1.1062658729087023 
1.629999999999837, 1.091254805371835 
1.6399999999998358, 1.0727698411113364 
1.6499999999998347, 1.050275049288461 
1.6599999999998336, 1.0233109753090064 
1.6699999999998325, 0.9916276514349693 
1.6799999999998314, 0.955353002181332 
1.6899999999998303, 0.9151543857446167 
1.6999999999998292, 0.8723184591174816 
1.709999999999828, 0.8286708593213561 
1.719999999999827, 0.7863100994360395 
1.729999999999826, 0.7472254244660763 
1.7399999999998248, 0.7129399879140944 
1.7499999999998237, 0.684307694580912 
1.7599999999998226, 0.6615056555982247 
1.7699999999998215, 0.6441742981700302 
1.7799999999998204, 0.631618600854991 
1.7899999999998193, 0.622997605121114 
1.7999999999998182, 0.6174647841202692 
1.809999999999817, 0.6142526231955844 
1.819999999999816, 0.6127114822479655 
1.8299999999998149, 0.6123176566000011 
1.8399999999998138, 0.6126639577389119 
1.8499999999998127, 0.6134423774781562 
1.8599999999998116, 0.6144247412842639 
1.8699999999998105, 0.6154445032031401 
1.8799999999998094, 0.6163810464614207 
1.8899999999998083, 0.6171468200244413 
1.8999999999998072, 0.6176771134755564 
1.909999999999806, 0.6179220489732673 
1.919999999999805, 0.6178403107876991 
1.9299999999998039, 0.6173941533955907 
1.9399999999998028, 0.6165452783524886 
1.9499999999998017, 0.6152512212625902 
1.9599999999998006, 0.6134619295414393 
1.9699999999997995, 0.6111162326704368 
1.9799999999997984, 0.6081379056648001 
1.9899999999997973, 0.6044310006270744 
1.9999999999997962, 0.5998740670417244 
2.0099999999998173, 0.594312794121164 
2.0199999999998384, 0.5875504819521179 
2.0299999999998595, 0.5793355758262596 
2.0399999999998806, 0.5693452753786195 
2.0499999999999017, 0.5571639601660171 
2.059999999999923, 0.5422548789322095 
2.069999999999944, 0.5239232962547251 
2.079999999999965, 0.5012692248622007 
2.089999999999986, 0.47312828518605604 
2.100000000000007, 0.43800063323620847 
2.1100000000000283, 0.3939710429961161 
2.1200000000000494, 0.3386289770181251 
2.1300000000000705, 0.26900614551179297 
2.1400000000000916, 0.18155901393126925 
2.1500000000001127, 0.07222984143762273 
2.160000000000134, -0.06268466407192468 
2.170000000000155, -0.22746291161253043 
2.180000000000176, -0.4270497444268828 
2.190000000000197, -0.664237409342539 
2.2000000000002182, -0.9387754968909081 
2.2100000000002393, -1.2441453148552897 
2.2200000000002604, -1.563947927820102 
2.2300000000002815, -1.8723194499381257 
2.2400000000003026, -2.142485737861646 
2.2500000000003237, -2.3585008408484422 
2.260000000000345, -2.5193830738919476 
2.270000000000366, -2.6339782236427456 
2.280000000000387, -2.7138579816307025 
2.290000000000408, -2.76920358479852 
2.3000000000004293, -2.8076377331296234 
2.3100000000004504, -2.834457933604605 
2.3200000000004715, -2.853229200649729 
2.3300000000004926, -2.8663258624352768 
2.3400000000005137, -2.875329491737054 
2.3500000000005348, -2.8812973834580373 
2.360000000000556, -2.884937328168653 
2.370000000000577, -2.8867197656245946 
2.380000000000598, -2.88694922426267 
2.390000000000619, -2.885809156504331 
2.4000000000006403, -2.883388698265284 
2.4100000000006614, -2.8796961295339463 
2.4200000000006825, -2.8746615437569076 
2.4300000000007036, -2.8681305157058254 
2.4400000000007247, -2.8598519168590153 
2.450000000000746, -2.8494673009109133 
2.460000000000767, -2.8365174208446384 
2.470000000000788, -2.8204941061675317 
2.480000000000809, -2.8009808849567643 
2.49000000000083, -2.777929972302502 
2.5000000000008513, -2.752076932388759 
2.5100000000008724, -2.7253394858451787 
2.5200000000008935, -2.700811995955512 
2.5300000000009146, -2.68194593606312 
2.5400000000009357, -2.6710846592855457 
2.550000000000957, -2.668351849671188 
2.560000000000978, -2.671815386410392 
2.570000000000999, -2.678686396808012 
2.58000000000102, -2.686516577185169 
2.5900000000010412, -2.693732598186043 
2.6000000000010624, -2.699581171487935 
2.6100000000010835, -2.7038430066199513 
2.6200000000011046, -2.706564360899247 
2.6300000000011257, -2.70788470173316 
2.6400000000011468, -2.7079510146737897 
2.650000000001168, -2.7068899110282634 
2.660000000001189, -2.7048164623841027 
2.67000000000121, -2.701869911497172 
2.680000000001231, -2.698271646093653 
2.6900000000012523, -2.6943950439340862 
2.7000000000012734, -2.6908172109866415 
2.7100000000012945, -2.688297396493512 
2.7200000000013156, -2.687627644996192 
2.7300000000013367, -2.6893685556258364 
2.740000000001358, -2.693598634008838 
2.750000000001379, -2.699851687926623 
2.7600000000014, -2.7072996867708476 
2.770000000001421, -2.7150571845171534 
2.780000000001442, -2.7224257200474713 
2.7900000000014633, -2.728989026487529 
2.8000000000014844, -2.7345833510863526 
2.8100000000015055, -2.7392109572427543 
2.8200000000015266, -2.7429507509213575 
2.8300000000015477, -2.7458916521503145 
2.840000000001569, -2.7480940941826177 
2.85000000000159, -2.7495745055082557 
2.860000000001611, -2.7503032628952777 
2.870000000001632, -2.7502062708134325 
2.8800000000016532, -2.7491625706089113 
2.8900000000016743, -2.746993260221467 
2.9000000000016954, -2.743438669975187 
2.9100000000017165, -2.7381202910920543 
2.9200000000017377, -2.7304812887750622 
2.9300000000017588, -2.719694529957462 
2.94000000000178, -2.704519480453439 
2.950000000001801, -2.683078382703156 
2.960000000001822, -2.6525082669973723 
2.970000000001843, -2.608434866283082 
2.9800000000018643, -2.5442327161859506 
2.9900000000018854, -2.450156437674852 
3.0000000000019065, -2.3128077545495214 
3.0100000000019276, -2.116187059213024 
3.0200000000019487, -1.8462943760530128 
3.03000000000197, -1.4998124519289093 
3.040000000001991, -1.0922153219343864 
3.050000000002012, -0.6575217809232557 
3.060000000002033, -0.23833334979526166 
3.070000000002054, 0.1274352328365775 
3.0800000000020753, 0.41875422701245546 
3.0900000000020964, 0.6355032172438435 
3.1000000000021175, 0.7894622337164662 
3.1100000000021386, 0.8963081933331769 
3.1200000000021597, 0.9700130029424046 
3.130000000002181, 1.021089490180918 
3.140000000002202, 1.0568358962713231 
3.150000000002223, 1.082142673466685 
3.160000000002244, 1.1002514484875798 
3.1700000000022652, 1.113316330778195 
3.1800000000022863, 1.1227825340895945 
3.1900000000023074, 1.1296323694625194 
3.2000000000023285, 1.1345431597638884 
3.2100000000023496, 1.1379887273495766 
3.2200000000023707, 1.1403051578520058 
3.230000000002392, 1.1417339410554546 
3.240000000002413, 1.1424506925192963 
3.250000000002434, 1.1425845982370577 
3.260000000002455, 1.142231828530001 
3.2700000000024763, 1.1414649905203929 
3.2800000000024974, 1.1403399511064773 
3.2900000000025185, 1.1389008930418645 
3.3000000000025396, 1.1371841615750924 
3.3100000000025607, 1.1352212554103058 
3.3200000000025818, 1.1330411760701613 
3.330000000002603, 1.1306722523771164 
3.340000000002624, 1.1281434899352185 
3.350000000002645, 1.125485453527796 
3.360000000002666, 1.1227306709095597 
3.3700000000026873, 1.1199135482381406 
3.3800000000027084, 1.1170698080917671 
3.3900000000027295, 1.1142354960491758 
3.4000000000027506, 1.1114456437252107 
3.4100000000027717, 1.1087327153722213 
3.420000000002793, 1.1061249917461031 
3.430000000002814, 1.1036450510677196 
3.440000000002835, 1.1013084890618805 
3.450000000002856, 1.099122980104111 
3.460000000002877, 1.097087726205331 
3.4700000000028983, 1.095193279544812 
3.4800000000029194, 1.0934216672510622 
3.4900000000029405, 1.091746701375607 
3.5000000000029616, 1.0901343256470664 
3.5100000000029827, 1.0885428322858826 
3.520000000003004, 1.086922771700204 
3.530000000003025, 1.0852163672960693 
3.540000000003046, 1.0833562270858355 
3.550000000003067, 1.0812631017977932 
3.5600000000030882, 1.0788423618582768 
3.5700000000031094, 1.0759787344470428 
3.5800000000031305, 1.0725286299945265 
3.5900000000031516, 1.0683090538501352 
3.6000000000031727, 1.0630815788014147 
3.6100000000031938, 1.0565290461639751 
3.620000000003215, 1.0482214105547654 
3.630000000003236, 1.0375652139334262 
3.640000000003257, 1.0237282535026833 
3.650000000003278, 1.0055267592575654 
3.6600000000032993, 0.9812567478378402 
3.6700000000033204, 0.9484452866965618 
3.6800000000033415, 0.9034960041363729 
3.6900000000033626, 0.8412205559838802 
3.7000000000033837, 0.7543170814372513 
3.710000000003405, 0.633033060561742 
3.720000000003426, 0.4655588568527291 
3.730000000003447, 0.23993999130894383 
3.740000000003468, -0.05190450790650538 
3.750000000003489, -0.4092020624146033 
3.7600000000035103, -0.8223422833082877 
3.7700000000035314, -1.2668808521444832 
3.7800000000035525, -1.7041041866955255 
3.7900000000035736, -2.0894657309279476 
3.8000000000035947, -2.3925904921952026 
3.810000000003616, -2.6098232705877584 
3.820000000003637, -2.756668173505427 
3.830000000003658, -2.853374118975659 
3.840000000003679, -2.9167771403920284 
3.8500000000037002, -2.958614972016487 
3.8600000000037213, -2.9864810131369777 
3.8700000000037424, -3.005157983132278 
3.8800000000037635, -3.01764832017253 
3.8900000000037847, -3.0258500736269216 
3.9000000000038058, -3.0309744460633863 
3.910000000003827, -3.0337988089313326 
3.920000000003848, -3.0348197035446747 
3.930000000003869, -3.0343454328491135 
3.94000000000389, -3.032551237416489 
3.9500000000039113, -3.0295097494872776 
3.9600000000039324, -3.0252034182481853 
3.9700000000039535, -3.0195230351466704 
3.9800000000039746, -3.0122575198859307 
3.9900000000039957, -3.003085338279115 
4.000000000004016, -2.9915877700006495 
4.010000000003993, -2.9773186158605354 
4.02000000000397, -2.959979799217901 
4.030000000003946, -2.939746744229311 
4.040000000003923, -2.9177051975254527 
4.0500000000039, -2.8961436295794782 
4.0600000000038765, -2.878215938164737 
4.070000000003853, -2.8667175651401555 
4.08000000000383, -2.8626369029455723 
4.090000000003807, -2.864729988076299 
4.100000000003783, -2.870467293561417 
4.11000000000376, -2.8773784616976004 
4.120000000003737, -2.883802654718944 
4.130000000003713, -2.8889288910777102 
4.14000000000369, -2.892512844425524 
4.150000000003667, -2.894588458535294 
4.1600000000036434, -2.895283658441383 
4.17000000000362, -2.8947341533705604 
4.180000000003597, -2.893063972354371 
4.1900000000035735, -2.8904108712120524 
4.20000000000355, -2.8869861427981793 
4.210000000003527, -2.8831568189336556 
4.220000000003504, -2.8795160541996188 
4.23000000000348, -2.8768714659628642 
4.240000000003457, -2.8760746196484255 
4.250000000003434, -2.8777032305505874 
4.26000000000341, -2.8817703126323293 
4.270000000003387, -2.887688880146653 
4.280000000003364, -2.8945355003705378 
4.2900000000033405, -2.9014150116826887 
4.300000000003317, -2.907701607566448 
4.310000000003294, -2.9130889940893705 
4.320000000003271, -2.917514933175259 
4.330000000003247, -2.9210484498270333 
4.340000000003224, -2.9237934010280893 
4.350000000003201, -2.9258271601278976 
4.360000000003177, -2.9271730277574872 
4.370000000003154, -2.9277951798134 
4.380000000003131, -2.927601714471862 
4.390000000003107, -2.9264431938955116 
4.400000000003084, -2.924098253533026 
4.410000000003061, -2.9202406612152134 
4.4200000000030375, -2.914381224778022 
4.430000000003014, -2.9057723762796033 
4.440000000002991, -2.8932524579632326 
4.450000000002968, -2.8749889121588907 
4.460000000002944, -2.848052267253808 
4.470000000002921, -2.8077179919568307 
4.480000000002898, -2.746377153881534 
4.490000000002874, -2.6520487841567877 
4.500000000002851, -2.507033066329169 
4.510000000002828, -2.2886700787111827 
4.520000000002804, -1.9757591164948136 
4.530000000002781, -1.5612931369842544 
4.540000000002758, -1.0620122718389866 
4.5500000000027345, -0.5155061398968219 
4.560000000002711, 0.02574776843993312 
4.570000000002688, 0.5002164029174607 
4.580000000002665, 0.866028851171579 
4.590000000002641, 1.1185241286247443 
4.600000000002618, 1.2815538433397469 
4.610000000002595, 1.3842523381771028 
4.620000000002571, 1.449109602349177 
4.630000000002548, 1.4907091935044372 
4.640000000002525, 1.5179027208097309 
4.6500000000025015, 1.53597710678046 
4.660000000002478, 1.548112077486723 
4.670000000002455, 1.5562511106737786 
4.6800000000024315, 1.5616032492125138 
4.690000000002408, 1.5649312692243476 
4.700000000002385, 1.5667190234108204 
4.710000000002362, 1.5672703354790996 
4.720000000002338, 1.5667686710486437 
4.730000000002315, 1.5653140777609742 
4.740000000002292, 1.5629469735690948 
4.750000000002268, 1.559664638890162 
4.760000000002245, 1.5554342980808626 
4.770000000002222, 1.5502056543447913 
4.7800000000021985, 1.543925160084928 
4.790000000002175, 1.5365537468261634 
4.800000000002152, 1.5280887856613175 
4.810000000002129, 1.5185893017701213 
4.820000000002105, 1.5082007581144232 
4.830000000002082, 1.497172527929033 
4.840000000002059, 1.485858990643625 
4.850000000002035, 1.474696313716812 
4.860000000002012, 1.4641531282853841 
4.870000000001989, 1.454663398962592 
4.880000000001965, 1.4465590645481503 
4.890000000001942, 1.4400224723204573 
4.900000000001919, 1.4350717370968669 
4.9100000000018955, 1.431579530597691 
4.920000000001872, 1.4293145478412501 
4.930000000001849, 1.4279902338888961 
4.940000000001826, 1.4273076307716623 
4.950000000001802, 1.42698514066958 
4.960000000001779, 1.4267738650601263 
4.970000000001756, 1.4264608921172268 
4.980000000001732, 1.4258642320374795 
