t, s[1].omega / s[0].omega 
0, -0.7699976639774972 
0.009999999999999995, -0.7697389952380005 
0.019999999999999934, -0.7694284449667921 
0.029999999999999874, -0.7690612414234905 
0.04000000000000012, -0.7686346135147618 
0.050000000000000405, -0.7681520616774196 
0.06000000000000069, -0.7676256572457733 
0.07000000000000098, -0.767076773765134 
0.08000000000000126, -0.766536610953507 
0.09000000000000155, -0.7660472270597347 
0.10000000000000184, -0.7656625115187091 
0.11000000000000212, -0.7654476409982509 
0.12000000000000241, -0.7654756203436093 
0.130000000000002, -0.7658205911486092 
0.1400000000000009, -0.766549161929267 
0.1499999999999998, -0.7677119776160269 
0.1599999999999987, -0.7693371680823253 
0.1699999999999976, -0.7714253548335533 
0.1799999999999965, -0.7739439501975525 
0.1899999999999954, -0.7768185161485315 
0.1999999999999943, -0.7799226396471177 
0.2099999999999932, -0.7830749780711099 
0.2199999999999921, -0.7860575244271105 
0.229999999999991, -0.7886616801589379 
0.2399999999999899, -0.7907449655447298 
0.2499999999999888, -0.7922633636770154 
0.2599999999999877, -0.7932597471483809 
0.2699999999999866, -0.7938234383987941 
0.2799999999999855, -0.794050138204501 
0.2899999999999844, -0.7940184718720018 
0.2999999999999833, -0.7937827189038846 
0.3099999999999822, -0.7933751866350788 
0.3199999999999811, -0.7928136521426735 
0.32999999999998, -0.7921135190545617 
0.3399999999999789, -0.7913082371338839 
0.3499999999999778, -0.7904842353389652 
0.35999999999997667, -0.7898357080452577 
0.36999999999997557, -0.7897336233995331 
0.37999999999997447, -0.7907730944730834 
0.38999999999997337, -0.7937155380183283 
0.39999999999997227, -0.7992229630868899 
0.40999999999997117, -0.8073981599549374 
0.41999999999997006, -0.8174324551285675 
0.42999999999996896, -0.8278039560500797 
0.43999999999996786, -0.8370165850531623 
0.44999999999996676, -0.8442451885275417 
0.45999999999996566, -0.8494099740916108 
0.46999999999996456, -0.8528592811101818 
0.47999999999996346, -0.8550468023862168 
0.48999999999996235, -0.8563630237026552 
0.49999999999996125, -0.857089645303604 
0.5099999999999602, -0.8574090595634282 
0.519999999999959, -0.8574266908354286 
0.529999999999958, -0.8571890116399621 
0.5399999999999568, -0.8566922656513041 
0.5499999999999557, -0.8558808210078823 
0.5599999999999546, -0.8546346579421369 
0.5699999999999535, -0.8527463469604675 
0.5799999999999524, -0.849893187244693 
0.5899999999999513, -0.8456265644261723 
0.5999999999999502, -0.839432376637764 
0.6099999999999491, -0.8309401651424355 
0.619999999999948, -0.8202869328717789 
0.6299999999999469, -0.8084055401594213 
0.6399999999999458, -0.7968482515610045 
0.6499999999999447, -0.7871098074841154 
0.6599999999999436, -0.7799868798995774 
0.6699999999999425, -0.7754522794244185 
0.6799999999999414, -0.772960427168967 
0.6899999999999403, -0.7718277925485757 
0.6999999999999392, -0.7714708877367059 
0.7099999999999381, -0.7714839603753074 
0.719999999999937, -0.7716222527389643 
0.7299999999999359, -0.7717532513680546 
0.7399999999999348, -0.7718097138238617 
0.7499999999999337, -0.7717553619564553 
0.7599999999999326, -0.7715628891524241 
0.7699999999999315, -0.771200898929725 
0.7799999999999304, -0.7706274221857857 
0.7899999999999293, -0.7697901619383303 
0.7999999999999282, -0.7686356423606377 
0.8099999999999271, -0.7671282549820215 
0.819999999999926, -0.7652735154674308 
0.8299999999999249, -0.7631315149612296 
0.8399999999999238, -0.7608080766967207 
0.8499999999999227, -0.758426863905029 
0.8599999999999216, -0.7561001411996444 
0.8699999999999205, -0.7539131686114294 
0.8799999999999194, -0.7519236292517648 
0.8899999999999183, -0.7501685760904825 
0.8999999999999172, -0.7486714450749915 
0.9099999999999161, -0.7474457150104965 
0.919999999999915, -0.7464952635266304 
0.9299999999999139, -0.7458131523012459 
0.9399999999999128, -0.7453808428259828 
0.9499999999999117, -0.7451692114872446 
0.9599999999999106, -0.7451416358593763 
0.9699999999999095, -0.7452583808878966 
0.9799999999999084, -0.7454810239889464 
0.9899999999999073, -0.7457758765531606 
0.9999999999999062, -0.7461159548316874 
1.0099999999999052, -0.7464814758593651 
1.019999999999904, -0.7468588131614797 
1.029999999999903, -0.7472376464295637 
1.039999999999902, -0.7476064355995903 
1.0499999999999008, -0.7479477308787561 
1.0599999999998997, -0.7482362578331235 
1.0699999999998986, -0.748442229180002 
1.0799999999998975, -0.7485391161406836 
1.0899999999998964, -0.7485115168092658 
1.0999999999998953, -0.7483586201307244 
1.1099999999998942, -0.7480925334978124 
1.119999999999893, -0.7477345319499621 
1.129999999999892, -0.7473129816284516 
1.1399999999998909, -0.746865059337186 
1.1499999999998898, -0.7464425768140499 
1.1599999999998887, -0.7461209823518644 
1.1699999999998876, -0.7460094764933209 
1.1799999999998865, -0.7462587340855248 
1.1899999999998854, -0.7470613604228404 
1.1999999999998843, -0.7486398720489197 
1.2099999999998832, -0.7512181746676689 
1.219999999999882, -0.7549745768850475 
1.229999999999881, -0.7599771136898907 
1.2399999999998799, -0.7661091115951535 
1.2499999999998788, -0.7730118112606033 
1.2599999999998777, -0.7800975611301254 
1.2699999999998766, -0.7866831800437951 
1.2799999999998755, -0.7922116770076159 
1.2899999999998744, -0.7964251183371708 
1.2999999999998733, -0.7993721528398716 
1.3099999999998722, -0.8012819843585559 
1.319999999999871, -0.802423787389728 
1.32999999999987, -0.80302460331415 
1.3399999999998689, -0.8032448135067367 
1.3499999999998678, -0.8031828241623018 
1.3599999999998666, -0.8028870509341688 
1.3699999999998655, -0.8023653687481662 
1.3799999999998644, -0.8015895159246872 
1.3899999999998633, -0.8004952405085725 
1.3999999999998622, -0.7989810222737151 
1.4099999999998611, -0.7969108947994817 
1.41999999999986, -0.7941305192108378 
1.429999999999859, -0.7905078015715229 
1.4399999999998578, -0.7860049007699718 
1.4499999999998567, -0.7807743335044891 
1.4599999999998556, -0.7752462395293279 
1.4699999999998545, -0.7701220903148374 
1.4799999999998534, -0.7661570189828744 
1.4899999999998523, -0.763785519082947 
1.4999999999998512, -0.762916941929086 
1.5099999999998501, -0.7630898862625094 
1.519999999999849, -0.763779865131996 
1.529999999999848, -0.7645976387384821 
1.5399999999998468, -0.765326988845105 
1.5499999999998457, -0.7658791107408478 
1.5599999999998446, -0.7662344515210127 
1.5699999999998435, -0.7664002505498877 
1.5799999999998424, -0.7663856734464176 
1.5899999999998413, -0.7661882906821672 
1.5999999999998402, -0.7657859682313223 
1.6099999999998391, -0.7651309708330445 
1.619999999999838, -0.7641465373973919 
1.629999999999837, -0.7627304318835618 
1.6399999999998358, -0.7607737687623951 
1.6499999999998347, -0.7582011807699768 
1.6599999999998336, -0.7550227667034686 
1.6699999999998325, -0.7513658164566961 
1.6799999999998314, -0.7474548559655682 
1.6899999999998303, -0.7435468806125232 
1.6999999999998292, -0.7398646352547988 
1.709999999999828, -0.7365624423980982 
1.719999999999827, -0.7337256208471736 
1.729999999999826, -0.7313857633574367 
1.7399999999998248, -0.7295368258805806 
1.7499999999998237, -0.72814652715479 
1.7599999999998226, -0.7271638850872421 
1.7699999999998215, -0.7265254230597128 
1.7799999999998204, -0.7261615948787302 
1.7899999999998193, -0.7260033234765488 
1.7999999999998182, -0.7259875427634344 
1.809999999999817, -0.7260607199977871 
1.819999999999816, -0.7261801663782197 
1.8299999999998149, -0.7263138004038285 
1.8399999999998138, -0.7264393426307894 
1.8499999999998127, -0.7265435044885056 
1.8599999999998116, -0.7266208268171146 
1.8699999999998105, -0.7266711486670383 
1.8799999999998094, -0.7266951794299158 
1.8899999999998083, -0.7266894355512376 
1.8999999999998072, -0.7266434089770075 
1.909999999999806, -0.7265412693432645 
1.919999999999805, -0.7263675092199225 
1.9299999999998039, -0.7261131623953877 
1.9399999999998028, -0.7257792902370683 
1.9499999999998017, -0.7253771743635581 
1.9599999999998006, -0.7249272369847801 
1.9699999999997995, -0.7244591460046694 
1.9799999999997984, -0.7240143717830134 
1.9899999999997973, -0.7236510002750561 
1.9999999999997962, -0.7234494668322632 
2.0099999999998173, -0.7235170419107709 
2.0199999999998384, -0.7239884471633566 
2.0299999999998595, -0.7250201764379782 
2.0399999999998806, -0.7267768977456367 
2.0499999999999017, -0.729408965028616 
2.059999999999923, -0.7330197673933456 
2.069999999999944, -0.7376214975937025 
2.079999999999965, -0.7430828186508254 
2.089999999999986, -0.749088245517588 
2.100000000000007, -0.7551520232636599 
2.1100000000000283, -0.7607258058305331 
2.1200000000000494, -0.7653730561554573 
2.1300000000000705, -0.7689008903979485 
2.1400000000000916, -0.7713605061805408 
2.1500000000001127, -0.7729445752745976 
2.160000000000134, -0.773875283682474 
2.170000000000155, -0.774339085439077 
2.180000000000176, -0.7744668466930402 
2.190000000000197, -0.7743370083803248 
2.2000000000002182, -0.7739844129377056 
2.2100000000002393, -0.7734068061162187 
2.2200000000002604, -0.7725667391971103 
2.2300000000002815, -0.7713891592541711 
2.2400000000003026, -0.7697565084658674 
2.2500000000003237, -0.7675052258041049 
2.260000000000345, -0.7644310029935906 
2.270000000000366, -0.7603155063040257 
2.280000000000387, -0.7549953538192222 
2.290000000000408, -0.7484988986109319 
2.3000000000004293, -0.7412337744240236 
2.3100000000004504, -0.7340602721285869 
2.3200000000004715, -0.7280107167246871 
2.3300000000004926, -0.7237621111626591 
2.3400000000005137, -0.7213539215603609 
2.3500000000005348, -0.7203581957803131 
2.360000000000556, -0.7202221694217871 
2.370000000000577, -0.7204947154732485 
2.380000000000598, -0.7208879059508012 
2.390000000000619, -0.72124844574699 
2.4000000000006403, -0.7215073880060487 
2.4100000000006614, -0.7216385266980494 
2.4200000000006825, -0.7216312334393841 
2.4300000000007036, -0.7214744595237479 
2.4400000000007247, -0.721147599728838 
2.450000000000746, -0.7206157661677657 
2.460000000000767, -0.7198296949536883 
2.470000000000788, -0.7187329987502904 
2.480000000000809, -0.7172797438213049 
2.49000000000083, -0.715460099184988 
2.5000000000008513, -0.7133215139922346 
2.5100000000008724, -0.7109681623724078 
2.5200000000008935, -0.7085341447403073 
2.5300000000009146, -0.7061469078998954 
2.5400000000009357, -0.7039026154971155 
2.550000000000957, -0.7018612331076626 
2.560000000000978, -0.7000546246940879 
2.570000000000999, -0.6984976416677184 
2.58000000000102, -0.697196250153276 
2.5900000000010412, -0.6961513421766248 
2.6000000000010624, -0.695359343659768 
2.6100000000010835, -0.69481140000088 
2.6200000000011046, -0.6944926802631112 
2.6300000000011257, -0.6943827340343665 
2.6400000000011468, -0.6944571280079173 
2.650000000001168, -0.6946899911925991 
2.660000000001189, -0.6950567773163417 
2.67000000000121, -0.695536527662051 
2.680000000001231, -0.6961130139996857 
2.6900000000012523, -0.6967741510343948 
2.7000000000012734, -0.6975090393506093 
2.7100000000012945, -0.6983024165731605 
2.7200000000013156, -0.6991277641074256 
2.7300000000013367, -0.6999426275538405 
2.740000000001358, -0.700690916034184 
2.750000000001379, -0.7013142018995355 
2.7600000000014, -0.701767418107196 
2.770000000001421, -0.7020297256712527 
2.780000000001442, -0.7021046602473429 
2.7900000000014633, -0.7020118756943157 
2.8000000000014844, -0.7017773678889931 
2.8100000000015055, -0.7014274848975276 
2.8200000000015266, -0.7009885429155432 
2.8300000000015477, -0.700492135871754 
2.840000000001569, -0.6999865012385947 
2.85000000000159, -0.6995552355207239 
2.860000000001611, -0.69934474183744 
2.870000000001632, -0.6995992823314572 
2.8800000000016532, -0.7006948960982038 
2.8900000000016743, -0.7031480305734227 
2.9000000000016954, -0.707552708561803 
2.9100000000017165, -0.7143887567722574 
2.9200000000017377, -0.7236939078399223 
2.9300000000017588, -0.7347595760014966 
2.94000000000178, -0.7461862520944508 
2.950000000001801, -0.7564565967020881 
2.960000000001822, -0.7646188674643655 
2.970000000001843, -0.7705058929653439 
2.9800000000018643, -0.7744671520515564 
2.9900000000018854, -0.7770049290905493 
3.0000000000019065, -0.7785624978281983 
3.0100000000019276, -0.7794623109306269 
3.0200000000019487, -0.7799154337228693 
3.03000000000197, -0.7800483614232884 
3.040000000001991, -0.7799256570375376 
3.050000000002012, -0.7795629617201937 
3.060000000002033, -0.7789299913789651 
3.070000000002054, -0.7779438372948533 
3.0800000000020753, -0.7764532320726297 
3.0900000000020964, -0.774217861464267 
3.1000000000021175, -0.7708980458460982 
3.1100000000021386, -0.7660919283918826 
3.1200000000021597, -0.7594730160666281 
3.130000000002181, -0.7510335478342186 
3.140000000002202, -0.7412919200485559 
3.150000000002223, -0.731228908741063 
3.160000000002244, -0.7219173908664457 
3.1700000000022652, -0.7141240668407832 
3.1800000000022863, -0.7081508862357514 
3.1900000000023074, -0.7039160655925452 
3.2000000000023285, -0.7011248753057553 
3.2100000000023496, -0.6994171403113376 
3.2200000000023707, -0.6984570826197307 
3.230000000002392, -0.6979732034641672 
3.240000000002413, -0.6977659287990318 
3.250000000002434, -0.697698391598962 
3.260000000002455, -0.6976809238323602 
3.2700000000024763, -0.6976554874502605 
3.2800000000024974, -0.6975830944755491 
3.2900000000025185, -0.6974353899261357 
3.3000000000025396, -0.6971907199862167 
3.3100000000025607, -0.6968344824529418 
3.3200000000025818, -0.6963625083182551 
3.330000000002603, -0.6957844945254763 
3.340000000002624, -0.6951235881708677 
3.350000000002645, -0.6944102738757023 
3.360000000002666, -0.6936731633087008 
3.3700000000026873, -0.6929320000020491 
3.3800000000027084, -0.6921964036922825 
3.3900000000027295, -0.6914697301079541 
3.4000000000027506, -0.6907548214963397 
3.4100000000027717, -0.6900587711208762 
3.420000000002793, -0.6893957277044869 
3.430000000002814, -0.6887882413701254 
3.440000000002835, -0.6882679009170066 
3.450000000002856, -0.6878754924394579 
3.460000000002877, -0.687660398733724 
3.4700000000028983, -0.6876788782255401 
3.4800000000029194, -0.6879911943223112 
3.4900000000029405, -0.6886580000379785 
3.5000000000029616, -0.6897364844603995 
3.5100000000029827, -0.6912762235314864 
3.520000000003004, -0.6933134499683715 
3.530000000003025, -0.6958610989270892 
3.540000000003046, -0.6988918258550559 
3.550000000003067, -0.7023146084200124 
3.5600000000030882, -0.7059547714209832 
3.5700000000031094, -0.7095589199283022 
3.5800000000031305, -0.7128445716366825 
3.5900000000031516, -0.7155832527808372 
3.6000000000031727, -0.7176668594724707 
3.6100000000031938, -0.7191132117366923 
3.620000000003215, -0.7200190078909859 
3.630000000003236, -0.7205026325344678 
3.640000000003257, -0.720666667381572 
3.650000000003278, -0.7205831608952036 
3.6600000000032993, -0.720292081033749 
3.6700000000033204, -0.7198039603041189 
3.6800000000033415, -0.719101981006547 
3.6900000000033626, -0.7181419625734812 
3.7000000000033837, -0.7168504735223171 
3.710000000003405, -0.7151222398936371 
3.720000000003426, -0.7128184264244279 
3.730000000003447, -0.7097675561419475 
3.740000000003468, -0.7057749051141635 
3.750000000003489, -0.7006665873948866 
3.7600000000035103, -0.694426988480109 
3.7700000000035314, -0.6874319236096953 
3.7800000000035525, -0.6805395688398538 
3.7900000000035736, -0.6747471642442276 
3.8000000000035947, -0.6706450572385434 
3.810000000003616, -0.6682166586769696 
3.820000000003637, -0.6670597588835603 
3.830000000003658, -0.6666945987377011 
3.840000000003679, -0.6667374618268824 
3.8500000000037002, -0.6669390046752166 
3.8600000000037213, -0.6671583625891822 
3.8700000000037424, -0.6673239763676797 
3.8800000000037635, -0.6674015269479332 
3.8900000000037847, -0.667372531567336 
3.9000000000038058, -0.6672214468899598 
3.910000000003827, -0.6669286652437094 
3.920000000003848, -0.6664681658832018 
3.930000000003869, -0.6658102076669158 
3.94000000000389, -0.6649300306081971 
3.9500000000039113, -0.663821450025041 
3.9600000000039324, -0.6625092793088894 
3.9700000000039535, -0.6610511542996833 
3.9800000000039746, -0.6595242556732882 
3.9900000000039957, -0.6580038795421493 
4.000000000004016, -0.6565467512291371 
4.010000000003993, -0.6551863499753761 
4.02000000000397, -0.6539381551319449 
4.030000000003946, -0.6528085289936547 
4.040000000003923, -0.6518023535284618 
4.0500000000039, -0.6509276050821412 
4.0600000000038765, -0.6501971155896447 
4.070000000003853, -0.6496284313191941 
4.08000000000383, -0.6492425924094053 
4.090000000003807, -0.6490624473193776 
4.100000000003783, -0.6491110135630238 
4.11000000000376, -0.6494103248148482 
4.120000000003737, -0.6499810110585046 
4.130000000003713, -0.6508424536358728 
4.14000000000369, -0.6520127408562406 
4.150000000003667, -0.6535068944145812 
4.1600000000036434, -0.6553311708070579 
4.17000000000362, -0.657471346320422 
4.180000000003597, -0.6598752212000233 
4.1900000000035735, -0.6624356857857283 
4.20000000000355, -0.664988812400549 
4.210000000003527, -0.6673418628778962 
4.220000000003504, -0.6693274494816567 
4.23000000000348, -0.6708529140086115 
4.240000000003457, -0.6719124389691811 
4.250000000003434, -0.6725609670684892 
4.26000000000341, -0.6728755900286278 
4.270000000003387, -0.672926738480513 
4.280000000003364, -0.6727644443732557 
4.2900000000033405, -0.6724146056336175 
4.300000000003317, -0.671879010043883 
4.310000000003294, -0.6711351917394743 
4.320000000003271, -0.6701342612255222 
4.330000000003247, -0.6687957836343232 
4.340000000003224, -0.6669987073580768 
4.350000000003201, -0.6645667879516557 
4.360000000003177, -0.6612490331711356 
4.370000000003154, -0.6567122875176282 
4.380000000003131, -0.6506115307270948 
4.390000000003107, -0.6428405970189138 
4.400000000003084, -0.6339005971691647 
4.410000000003061, -0.6249546785121569 
4.4200000000030375, -0.6172720127171006 
4.430000000003014, -0.6115600114549847 
4.440000000002991, -0.6078168729666376 
4.450000000002968, -0.6056259155772812 
4.460000000002944, -0.604483955664241 
4.470000000002921, -0.6039736548019163 
4.480000000002898, -0.6038046019274723 
4.490000000002874, -0.6037944953599156 
4.500000000002851, -0.6038360921955521 
4.510000000002828, -0.6038682868837466 
4.520000000002804, -0.6038555272935903 
4.530000000002781, -0.6037747327926637 
4.540000000002758, -0.6036080077528471 
4.5500000000027345, -0.603339995209983 
4.560000000002711, -0.602959295107671 
4.570000000002688, -0.602463059090956 
4.580000000002665, -0.6018622847357072 
4.590000000002641, -0.6011836131086137 
4.600000000002618, -0.600464297251421 
4.610000000002595, -0.5997415266236978 
4.620000000002571, -0.5990418482500554 
4.630000000002548, -0.5983763617739271 
4.640000000002525, -0.5977430845618477 
4.6500000000025015, -0.5971336924342421 
4.660000000002478, -0.5965406027478698 
4.670000000002455, -0.5959618338106931 
4.6800000000024315, -0.5954034110671603 
4.690000000002408, -0.5948805988654072 
4.700000000002385, -0.5944194223400927 
4.710000000002362, -0.5940593712514582 
4.720000000002338, -0.5938575440090827 
4.730000000002315, -0.5938940688640676 
4.740000000002292, -0.5942783413487776 
4.750000000002268, -0.595155177388976 
4.760000000002245, -0.5967089567258698 
4.770000000002222, -0.5991614825043838 
4.7800000000021985, -0.6027547374426225 
4.790000000002175, -0.6077034059142072 
4.800000000002152, -0.6141001607210481 
4.810000000002129, -0.6217776852563766 
4.820000000002105, -0.630196276938167 
4.830000000002082, -0.6384977358846095 
4.840000000002059, -0.6458004749917939 
4.850000000002035, -0.6515600641957674 
4.860000000002012, -0.6557017412071111 
4.870000000001989, -0.6584749438540467 
4.880000000001965, -0.6602297976286324 
4.890000000001942, -0.661275819275559 
4.900000000001919, -0.6618371152770339 
4.9100000000018955, -0.6620573681380229 
4.920000000001872, -0.6620175651395853 
