t, s[1].omega / s[0].omega 
0, -0.6799977003930567 
0.009999999999999995, -0.6797685620841009 
0.019999999999999934, -0.679532870674078 
0.029999999999999874, -0.6792704235046798 
0.04000000000000012, -0.6789590247453333 
0.050000000000000405, -0.6785844608325576 
0.06000000000000069, -0.6781460146031302 
0.07000000000000098, -0.6776574940623188 
0.08000000000000126, -0.6771469925533349 
0.09000000000000155, -0.6766586494914365 
0.10000000000000184, -0.6762578561847824 
0.11000000000000212, -0.6760394863192397 
0.12000000000000241, -0.6761374175566042 
0.130000000000002, -0.6767327570479432 
0.1400000000000009, -0.6780578045277449 
0.1499999999999998, -0.6803928371094907 
0.1599999999999987, -0.6840524076919765 
0.1699999999999976, -0.68935506765778 
0.1799999999999965, -0.6965638893306892 
0.1899999999999954, -0.7057791198004912 
0.1999999999999943, -0.7167772332703964 
0.2099999999999932, -0.7288549467074821 
0.2199999999999921, -0.7408439617732718 
0.229999999999991, -0.7514551708783965 
0.2399999999999899, -0.7598121913009924 
0.2499999999999888, -0.7657391632583641 
0.2599999999999877, -0.7696004334367115 
0.2699999999999866, -0.7719472397700068 
0.2799999999999855, -0.7732700077794739 
0.2899999999999844, -0.7739161110830252 
0.2999999999999833, -0.7740986740064326 
0.3099999999999822, -0.7739282368121954 
0.3199999999999811, -0.7734372155721041 
0.32999999999998, -0.7725890325541604 
0.3399999999999789, -0.7712701348929993 
0.3499999999999778, -0.7692623692240271 
0.35999999999997667, -0.7661905452959875 
0.36999999999997557, -0.7614400839514079 
0.37999999999997447, -0.7540551947964591 
0.38999999999997337, -0.7426980142033679 
0.39999999999997227, -0.7259322711137728 
0.40999999999997117, -0.7032410355922489 
0.41999999999997006, -0.6765017882979918 
0.42999999999996896, -0.6500266067211793 
0.43999999999996786, -0.6280760785255483 
0.44999999999996676, -0.6124616557754458 
0.45999999999996566, -0.6026074344289587 
0.46999999999996456, -0.5969443588469308 
0.47999999999996346, -0.5939505331368307 
0.48999999999996235, -0.5925116398594146 
0.49999999999996125, -0.5919146147430656 
0.5099999999999602, -0.5917368830921401 
0.519999999999959, -0.5917397720614747 
0.529999999999958, -0.5917920473926224 
0.5399999999999568, -0.5918212153193099 
0.5499999999999557, -0.5917846114028459 
0.5599999999999546, -0.5916536551403471 
0.5699999999999535, -0.5914072709434014 
0.5799999999999524, -0.5910323522963421 
0.5899999999999513, -0.5905291710187102 
0.5999999999999502, -0.5899175161734588 
0.6099999999999491, -0.5892372330420048 
0.619999999999948, -0.5885389853682248 
0.6299999999999469, -0.5878682395790149 
0.6399999999999458, -0.5872512481547804 
0.6499999999999447, -0.5866902861811631 
0.6599999999999436, -0.58616904887493 
0.6699999999999425, -0.5856638647435103 
0.6799999999999414, -0.5851548169893401 
0.6899999999999403, -0.5846327713994564 
0.6999999999999392, -0.5841019962386598 
0.7099999999999381, -0.5835808859318709 
0.719999999999937, -0.5831038325164256 
0.7299999999999359, -0.5827263365732361 
0.7399999999999348, -0.5825344455449883 
0.7499999999999337, -0.5826591374681838 
0.7599999999999326, -0.5832961165429931 
0.7699999999999315, -0.584731089496609 
0.7799999999999304, -0.5873689077846558 
0.7899999999999293, -0.5917595655090839 
0.7999999999999282, -0.5985997945960969 
0.8099999999999271, -0.6086589453928669 
0.819999999999926, -0.6225373547494772 
0.8299999999999249, -0.6401801242825426 
0.8399999999999238, -0.6603052870101801 
0.8499999999999227, -0.6803699874914549 
0.8599999999999216, -0.6976276038830388 
0.8699999999999205, -0.7105576314926078 
0.8799999999999194, -0.7192506294470304 
0.8899999999999183, -0.7246866701565939 
0.8999999999999172, -0.7279355162208196 
0.9099999999999161, -0.7298049666474798 
0.919999999999915, -0.7308128192149537 
0.9299999999999139, -0.731261745263801 
0.9399999999999128, -0.7313120463671621 
0.9499999999999117, -0.7310271319275041 
0.9599999999999106, -0.7303925778093642 
0.9699999999999095, -0.7293122108083419 
0.9799999999999084, -0.7275814903624158 
0.9899999999999073, -0.7248379701101703 
0.9999999999999062, -0.7205017365166101 
1.0099999999999052, -0.7137652530501641 
1.019999999999904, -0.7037746696050995 
1.029999999999903, -0.6901428898056654 
1.039999999999902, -0.6735862909892013 
1.0499999999999008, -0.6559793503150118 
1.0599999999998997, -0.639496603985221 
1.0699999999998986, -0.6256194793682517 
1.0799999999998975, -0.6148361501693452 
1.0899999999998964, -0.6069343327758624 
1.0999999999998953, -0.6013993165862287 
1.1099999999998942, -0.5976716032985866 
1.119999999999893, -0.5952602707942709 
1.129999999999892, -0.5937740928631755 
1.1399999999998909, -0.5929175729868003 
1.1499999999998898, -0.5924755177677895 
1.1599999999998887, -0.592295746817954 
1.1699999999998876, -0.5922733798472916 
1.1799999999998865, -0.5923379044843078 
1.1899999999998854, -0.5924434973526311 
1.1999999999998843, -0.5925627431988147 
1.2099999999998832, -0.5926834403790349 
1.219999999999882, -0.5928072916603865 
1.229999999999881, -0.5929481166196325 
1.2399999999998799, -0.5931267945828698 
1.2499999999998788, -0.5933617183807371 
1.2599999999998777, -0.5936569346115137 
1.2699999999998766, -0.59399327976195 
1.2799999999998755, -0.5943283366553369 
1.2899999999998744, -0.5946074541769831 
1.2999999999998733, -0.5947810856295076 
1.3099999999998722, -0.5948186492313752 
1.319999999999871, -0.5947120343953294 
1.32999999999987, -0.5944702305616902 
1.3399999999998689, -0.594111742018772 
1.3499999999998678, -0.5936605352698283 
1.3599999999998666, -0.5931483054193832 
1.3699999999998655, -0.5926246643372044 
1.3799999999998644, -0.5921780552001784 
1.3899999999998633, -0.5919728531896398 
1.3999999999998622, -0.592310813255113 
1.4099999999998611, -0.5937243121485404 
1.41999999999986, -0.5970942068070697 
1.429999999999859, -0.6037307479595042 
1.4399999999998578, -0.6152260392490037 
1.4499999999998567, -0.6327372103367426 
1.4599999999998556, -0.65562205196724 
1.4699999999998545, -0.6805839762809326 
1.4799999999998534, -0.7031600432805231 
1.4899999999998523, -0.7205722891343487 
1.4999999999998512, -0.7326394728799572 
1.5099999999998501, -0.7405401592464151 
1.519999999999849, -0.7455783727614052 
1.529999999999848, -0.7487421434113327 
1.5399999999998468, -0.7506919358230254 
1.5499999999998457, -0.7518476967112153 
1.5599999999998446, -0.7524670173638206 
1.5699999999998435, -0.7526982692736417 
1.5799999999998424, -0.7526121542886692 
1.5899999999998413, -0.7522162996710995 
1.5999999999998402, -0.7514558480460891 
1.6099999999998391, -0.7502022436558302 
1.619999999999838, -0.7482355857886879 
1.629999999999837, -0.7452377005438247 
1.6399999999998358, -0.74083473946491 
1.6499999999998347, -0.73473707886658 
1.6599999999998336, -0.7269610069598655 
1.6699999999998325, -0.717975418906061 
1.6799999999998314, -0.7085895135011943 
1.6899999999998303, -0.699634109813062 
1.6999999999998292, -0.6916956452907168 
1.709999999999828, -0.6850501202849013 
1.719999999999827, -0.6797363369014507 
1.729999999999826, -0.6756569124598071 
1.7399999999998248, -0.6726519376644753 
1.7499999999998237, -0.6705405204403582 
1.7599999999998226, -0.6691422217793768 
1.7699999999998215, -0.668288977321467 
1.7799999999998204, -0.6678326357393304 
1.7899999999998193, -0.6676493854755441 
1.7999999999998182, -0.6676410321713544 
1.809999999999817, -0.6677334592117519 
1.819999999999816, -0.6678734195392332 
1.8299999999998149, -0.6680252049859483 
1.8399999999998138, -0.6681683591121461 
1.8499999999998127, -0.6682964141161261 
1.8599999999998116, -0.6684150511736666 
1.8699999999998105, -0.6685372974104636 
1.8799999999998094, -0.668674801411198 
1.8899999999998083, -0.6688276564209763 
1.8999999999998072, -0.6689780689800421 
1.909999999999806, -0.6690925440393396 
1.919999999999805, -0.6691325940268464 
1.9299999999998039, -0.6690681538068024 
1.9399999999998028, -0.668886182729438 
1.9499999999998017, -0.6685915287039906 
1.9599999999998006, -0.6682033345615286 
1.9699999999997995, -0.6677525161064085 
1.9799999999997984, -0.6672842106421095 
1.9899999999997973, -0.6668668722630993 
1.9999999999997962, -0.6666085484272617 
2.0099999999998173, -0.6666802556589564 
2.0199999999998384, -0.6673450914096772 
2.0299999999998595, -0.6689888554857327 
2.0399999999998806, -0.6721426528500702 
2.0499999999999017, -0.6774784615831226 
2.059999999999923, -0.6857420543152989 
2.069999999999944, -0.6975660154296014 
2.079999999999965, -0.713109401528219 
2.089999999999986, -0.731588611486288 
2.100000000000007, -0.75105753993256 
2.1100000000000283, -0.7689502844059208 
2.1200000000000494, -0.7832783086502575 
2.1300000000000705, -0.7934488556002803 
2.1400000000000916, -0.8000373318897598 
2.1500000000001127, -0.8040438086501988 
2.160000000000134, -0.8063642193840769 
2.170000000000155, -0.8076260399516352 
2.180000000000176, -0.8082154104479569 
2.190000000000197, -0.8083474263053428 
2.2000000000002182, -0.8081215723628457 
2.2100000000002393, -0.8075513406315811 
2.2200000000002604, -0.8065695924516488 
2.2300000000002815, -0.8050100950715582 
2.2400000000003026, -0.802561070915506 
2.2500000000003237, -0.798683973244846 
2.260000000000345, -0.7925010812606039 
2.270000000000366, -0.7827101230718784 
2.280000000000387, -0.7677341910806287 
2.290000000000408, -0.7464953233883164 
2.3000000000004293, -0.7198618694557364 
2.3100000000004504, -0.6914338104450894 
2.3200000000004715, -0.6659298054324755 
2.3300000000004926, -0.6464070846805182 
2.3400000000005137, -0.6332727777212488 
2.3500000000005348, -0.6252867840818934 
2.360000000000556, -0.620827233884475 
2.370000000000577, -0.6185420449599983 
2.380000000000598, -0.6174954384603107 
2.390000000000619, -0.6171024109890881 
2.4000000000006403, -0.6170199837235276 
2.4100000000006614, -0.6170553972089341 
2.4200000000006825, -0.617102300405019 
2.4300000000007036, -0.6171004325845612 
2.4400000000007247, -0.617011935909835 
2.450000000000746, -0.6168091371288387 
2.460000000000767, -0.6164709059763359 
2.470000000000788, -0.6159858685961962 
2.480000000000809, -0.6153596704600662 
2.49000000000083, -0.6146205439876472 
2.5000000000008513, -0.6138163354170891 
2.5100000000008724, -0.6130011180874422 
2.5200000000008935, -0.6122179737999293 
2.5300000000009146, -0.6114877994384968 
2.5400000000009357, -0.6108090957143087 
2.550000000000957, -0.6101665530230261 
2.560000000000978, -0.6095425738827954 
2.570000000000999, -0.6089265147331802 
2.58000000000102, -0.608319651026989 
2.5900000000010412, -0.6077371154765546 
2.6000000000010624, -0.6072093883300036 
2.6100000000010835, -0.6067853425928347 
2.6200000000011046, -0.6065376269463754 
2.6300000000011257, -0.6065702442836819 
2.6400000000011468, -0.6070277249031918 
2.650000000001168, -0.6081050801058796 
2.660000000001189, -0.6100573303643413 
2.67000000000121, -0.6132059335801183 
2.680000000001231, -0.6179350789183757 
2.6900000000012523, -0.6246609650204187 
2.7000000000012734, -0.6337415020273397 
2.7100000000012945, -0.6452857978656696 
2.7200000000013156, -0.6588701425202874 
2.7300000000013367, -0.6733304104493337 
2.740000000001358, -0.6869686263256045 
2.750000000001379, -0.6982704670345175 
2.7600000000014, -0.7065820991190388 
2.770000000001421, -0.7121396831857875 
2.780000000001442, -0.7156082220119937 
2.7900000000014633, -0.7176574579638263 
2.8000000000014844, -0.7187862607429159 
2.8100000000015055, -0.7193130921563763 
2.8200000000015266, -0.7194185238971973 
2.8300000000015477, -0.719184610473038 
2.840000000001569, -0.7186159092247506 
2.85000000000159, -0.7176399555405197 
2.860000000001611, -0.7160852491807117 
2.870000000001632, -0.7136319165898515 
2.8800000000016532, -0.7097328260547346 
2.8900000000016743, -0.7035304519403489 
2.9000000000016954, -0.6938827269270638 
2.9100000000017165, -0.6797447103688423 
2.9200000000017377, -0.6610526354310692 
2.9300000000017588, -0.639512710401085 
2.94000000000178, -0.6181244980739572 
2.950000000001801, -0.5995621143629289 
2.960000000001822, -0.5850628201812039 
2.970000000001843, -0.574556438982466 
2.9800000000018643, -0.5673322526757395 
2.9900000000018854, -0.5625568927691125 
3.0000000000019065, -0.5595087315067275 
3.0100000000019276, -0.5576357657077026 
3.0200000000019487, -0.556541121315242 
3.03000000000197, -0.5559494501954985 
3.040000000001991, -0.5556742588283209 
3.050000000002012, -0.5555916151071287 
3.060000000002033, -0.55562064142554 
3.070000000002054, -0.5557099275855754 
3.0800000000020753, -0.5558289033511421 
3.0900000000020964, -0.5559632356341206 
3.1000000000021175, -0.5561129532710574 
3.1100000000021386, -0.5562911540216801 
3.1200000000021597, -0.5565204397979 
3.130000000002181, -0.5568248870644615 
3.140000000002202, -0.5572179714387812 
3.150000000002223, -0.5576903390768516 
3.160000000002244, -0.558203730715897 
3.1700000000022652, -0.5586967083098076 
3.1800000000022863, -0.5591021348694217 
3.1900000000023074, -0.5593676365840247 
3.2000000000023285, -0.5594671561914585 
3.2100000000023496, -0.5593990652944479 
3.2200000000023707, -0.5591761669982043 
3.230000000002392, -0.5588156898930069 
3.240000000002413, -0.5583339397640514 
3.250000000002434, -0.5577467086605596 
3.260000000002455, -0.5570757147590362 
3.2700000000024763, -0.5563626571164935 
3.2800000000024974, -0.5556943378551082 
3.2900000000025185, -0.5552420458213768 
3.3000000000025396, -0.5553083123551706 
3.3100000000025607, -0.5563343863720018 
3.3200000000025818, -0.5587258841737299 
3.330000000002603, -0.5622700003982753 
3.340000000002624, -0.5652885288091313 
3.350000000002645, -0.5649177611302836 
3.360000000002666, -0.5597385895549818 
3.3700000000026873, -0.5517231638031654 
3.3800000000027084, -0.544144901226229 
3.3900000000027295, -0.5387749993568828 
3.4000000000027506, -0.5356537412903324 
3.4100000000027717, -0.5341218057487287 
3.420000000002793, -0.5335196651283065 
3.430000000002814, -0.533390910450401 
3.440000000002835, -0.5334654542461499 
3.450000000002856, -0.5335963209203636 
3.460000000002877, -0.533706844120335 
3.4700000000028983, -0.5337565358024345 
3.4800000000029194, -0.5337214406590436 
3.4900000000029405, -0.5335842030575895 
3.5000000000029616, -0.5333310147196694 
3.5100000000029827, -0.5329540946914565 
3.520000000003004, -0.532458123332517 
3.530000000003025, -0.5318668102070256 
3.540000000003046, -0.531223571302889 
3.550000000003067, -0.5305822505037797 
3.5600000000030882, -0.5299907582280406 
3.5700000000031094, -0.5294762325976581 
3.5800000000031305, -0.5290390851153035 
3.5900000000031516, -0.5286574615002051 
3.6000000000031727, -0.5282986426309941 
3.6100000000031938, -0.5279316561813955 
3.620000000003215, -0.5275360271257289 
3.630000000003236, -0.527104914178936 
3.640000000003257, -0.5266446368722832 
3.650000000003278, -0.5261742372693998 
3.6600000000032993, -0.5257282337111961 
3.6700000000033204, -0.5253648965904683 
3.6800000000033415, -0.525182495157143 
3.6900000000033626, -0.5253472071074923 
3.7000000000033837, -0.5261382477686685 
3.710000000003405, -0.5280167425468225 
3.720000000003426, -0.5317198936691454 
3.730000000003447, -0.5383561893717463 
3.740000000003468, -0.5493982660590768 
3.750000000003489, -0.5663132591323758 
3.7600000000035103, -0.5895000694736316 
3.7700000000035314, -0.6168536076298189 
3.7800000000035525, -0.6437749420154522 
3.7900000000035736, -0.6658601088430138 
3.8000000000035947, -0.6815236070935252 
3.810000000003616, -0.6916846430134584 
3.820000000003637, -0.6980168600401014 
3.830000000003658, -0.7019121613157246 
3.840000000003679, -0.7042916794457622 
3.8500000000037002, -0.705717688593228 
3.8600000000037213, -0.7065234700837506 
3.8700000000037424, -0.7069006632598425 
3.8800000000037635, -0.7069495632320945 
3.8900000000037847, -0.7067046956580454 
3.9000000000038058, -0.7061438638131186 
3.910000000003827, -0.7051856956599599 
3.920000000003848, -0.70368134812103 
3.930000000003869, -0.7014128185579702 
3.94000000000389, -0.6981233715428048 
3.9500000000039113, -0.6936107876386144 
3.9600000000039324, -0.687875156799229 
3.9700000000039535, -0.6812233616033089 
3.9800000000039746, -0.6742061994179973 
3.9900000000039957, -0.6674079754492486 
4.000000000004016, -0.6612564063785226 
4.010000000003993, -0.6559657781362649 
4.02000000000397, -0.6515835947238421 
4.030000000003946, -0.6480629042343798 
4.040000000003923, -0.6453162994942618 
4.0500000000039, -0.6432448372934212 
4.0600000000038765, -0.6417499882377533 
4.070000000003853, -0.6407375649805415 
4.08000000000383, -0.6401192649320573 
4.090000000003807, -0.6398142503257633 
4.100000000003783, -0.639751138151731 
4.11000000000376, -0.6398699024694765 
4.120000000003737, -0.6401231901659551 
4.130000000003713, -0.6404769394149981 
4.14000000000369, -0.6409104436208549 
4.150000000003667, -0.6414157339212656 
4.1600000000036434, -0.6419953574884483 
4.17000000000362, -0.6426569453683783 
4.180000000003597, -0.6434035348132329 
4.1900000000035735, -0.6442211870029385 
4.20000000000355, -0.6450692747320373 
4.210000000003527, -0.645881102607433 
4.220000000003504, -0.6465790452987019 
4.23000000000348, -0.6470981964220063 
4.240000000003457, -0.647404187323653 
4.250000000003434, -0.647495190971762 
4.26000000000341, -0.6473911565398234 
4.270000000003387, -0.6471206585787541 
4.280000000003364, -0.6467132021018819 
4.2900000000033405, -0.64619964682604 
4.300000000003317, -0.6456214356182014 
4.310000000003294, -0.6450508304897361 
4.320000000003271, -0.6446276329250367 
4.330000000003247, -0.6446211169939587 
4.340000000003224, -0.6455258354384281 
4.350000000003201, -0.6481874512278216 
4.360000000003177, -0.6539083157739176 
4.370000000003154, -0.6643708630971488 
4.380000000003131, -0.6810675581980121 
4.390000000003107, -0.7040439861547289 
4.400000000003084, -0.7307069524953917 
4.410000000003061, -0.756495067357014 
4.4200000000030375, -0.7775682709559594 
4.430000000003014, -0.7926694241682126 
4.440000000002991, -0.8025923775565842 
4.450000000002968, -0.808790932517707 
4.460000000002944, -0.8125491962722448 
4.470000000002921, -0.8147698379323354 
4.480000000002898, -0.8160247098494275 
4.490000000002874, -0.8166543862572769 
4.500000000002851, -0.8168474909797888 
4.510000000002828, -0.8166893918604401 
4.520000000002804, -0.8161842918730171 
4.530000000002781, -0.8152543831861548 
4.540000000002758, -0.8137159956993282 
4.5500000000027345, -0.8112309567172762 
4.560000000002711, -0.8072402399592287 
4.570000000002688, -0.8009246079967001 
4.580000000002665, -0.7913170772446815 
4.590000000002641, -0.777740172490464 
4.600000000002618, -0.7605093515309271 
4.610000000002595, -0.7412967077633207 
4.620000000002571, -0.7225348554764579 
4.630000000002548, -0.7062749750693421 
4.640000000002525, -0.6935114057520504 
4.6500000000025015, -0.6842663666739989 
4.660000000002478, -0.6780124526507554 
4.670000000002455, -0.6740443148804507 
4.6800000000024315, -0.6716911425974439 
4.690000000002408, -0.6704046700468738 
4.700000000002385, -0.669776827330528 
4.710000000002362, -0.6695241208120404 
4.720000000002338, -0.6694597965074031 
4.730000000002315, -0.6694650490269983 
4.740000000002292, -0.6694647696150956 
4.750000000002268, -0.6694099611382113 
4.760000000002245, -0.6692672667531244 
4.770000000002222, -0.6690152840724178 
4.7800000000021985, -0.6686463088066826 
4.790000000002175, -0.6681700628688396 
4.800000000002152, -0.6676139787932186 
4.810000000002129, -0.6670159708149066 
4.820000000002105, -0.6664113836445028 
4.830000000002082, -0.6658211987875615 
4.840000000002059, -0.6652480831732722 
4.850000000002035, -0.6646814130637024 
4.860000000002012, -0.6641072039411581 
4.870000000001989, -0.6635174301790645 
4.880000000001965, -0.6629155659502146 
4.890000000001942, -0.662318766029554 
4.900000000001919, -0.6617590516119624 
4.9100000000018955, -0.6612854526675317 
4.920000000001872, -0.6609675429640538 
