t, s[1].omega / s[0].omega 
0, -1.4099972838643742 
0.009999999999999995, -1.4095114379038036 
0.019999999999999934, -1.4086021331229406 
0.029999999999999874, -1.4072735827101943 
0.04000000000000012, -1.4055396930463957 
0.050000000000000405, -1.403434897978459 
0.06000000000000069, -1.40103512800455 
0.07000000000000098, -1.3985052924151289 
0.08000000000000126, -1.39616172346328 
0.09000000000000155, -1.3944224456813652 
0.10000000000000184, -1.3935270146038645 
0.11000000000000212, -1.3933005475431444 
0.12000000000000241, -1.3933186500314507 
0.130000000000002, -1.3932039357279822 
0.1400000000000009, -1.392679664664121 
0.1499999999999998, -1.391423616009191 
0.1599999999999987, -1.3888309637685983 
0.1699999999999976, -1.3836371775613374 
0.1799999999999965, -1.3732687063409332 
0.1899999999999954, -1.352936872489209 
0.1999999999999943, -1.3153515317673685 
0.2099999999999932, -1.2540464136979694 
0.2199999999999921, -1.1732047559668695 
0.229999999999991, -1.0939699348661673 
0.2399999999999899, -1.0388812762009754 
0.2499999999999888, -1.0123174123341903 
0.2599999999999877, -1.0044893982565928 
0.2699999999999866, -1.0047359234106559 
0.2799999999999855, -1.0070374550244163 
0.2899999999999844, -1.0091370085337217 
0.2999999999999833, -1.0105246586299448 
0.3099999999999822, -1.0112367792371584 
0.3199999999999811, -1.011381248654213 
0.32999999999998, -1.0109860285636727 
0.3399999999999789, -1.0099341449416168 
0.3499999999999778, -1.0078741779046705 
0.35999999999997667, -1.0040295874660492 
0.36999999999997557, -0.9968152378899612 
0.37999999999997447, -0.983190732294155 
0.38999999999997337, -0.9580076130878643 
0.39999999999997227, -0.9147502384706447 
0.40999999999997117, -0.8502565942687804 
0.41999999999997006, -0.7718780855265023 
0.42999999999996896, -0.696181480989838 
0.43999999999996786, -0.6365066913439427 
0.44999999999996676, -0.5957891018806982 
0.45999999999996566, -0.5703402230736023 
0.46999999999996456, -0.5552207747114168 
0.47999999999996346, -0.5465334247614385 
0.48999999999996235, -0.5416915399807952 
0.49999999999996125, -0.5390947014891526 
0.5099999999999602, -0.5377822228496804 
0.519999999999959, -0.5371857790344308 
0.529999999999958, -0.5369719017688812 
0.5399999999999568, -0.5369457075077968 
0.5499999999999557, -0.5369933475100508 
0.5599999999999546, -0.5370488888930973 
0.5699999999999535, -0.5370771957063941 
0.5799999999999524, -0.5370675062785752 
0.5899999999999513, -0.5370328897366469 
0.5999999999999502, -0.5370095553143437 
0.6099999999999491, -0.537049929566719 
0.619999999999948, -0.5372072421778058 
0.6299999999999469, -0.5375152952625724 
0.6399999999999458, -0.5379704907347458 
0.6499999999999447, -0.5385236561873171 
0.6599999999999436, -0.5390884698799535 
0.6699999999999425, -0.5395673228385317 
0.6799999999999414, -0.5398825496802996 
0.6899999999999403, -0.5399944449712522 
0.6999999999999392, -0.5398986768861123 
0.7099999999999381, -0.5396120051239641 
0.719999999999937, -0.539159522906606 
0.7299999999999359, -0.5385711525312857 
0.7399999999999348, -0.5378908605713509 
0.7499999999999337, -0.5372041148034689 
0.7599999999999326, -0.5366979663021667 
0.7699999999999315, -0.5367852734367071 
0.7799999999999304, -0.5383517407055206 
0.7899999999999293, -0.543205430081468 
0.7999999999999282, -0.5547087199241997 
0.8099999999999271, -0.5779300761983999 
0.819999999999926, -0.6169576140847458 
0.8299999999999249, -0.667440013834329 
0.8399999999999238, -0.7139663384430615 
0.8499999999999227, -0.74514143907263 
0.8599999999999216, -0.7640537168298352 
0.8699999999999205, -0.7775595770547563 
0.8799999999999194, -0.7882463621678804 
0.8899999999999183, -0.7963093414513248 
0.8999999999999172, -0.8019186278879745 
0.9099999999999161, -0.805571760239633 
0.919999999999915, -0.8078246286670456 
0.9299999999999139, -0.8091179795517188 
0.9399999999999128, -0.8097412325385166 
0.9499999999999117, -0.8098494235084115 
0.9599999999999106, -0.809481241629659 
0.9699999999999095, -0.8085567672230521 
0.9799999999999084, -0.8068454010529648 
0.9899999999999073, -0.8039016973444981 
0.9999999999999062, -0.798992990388229 
1.0099999999999052, -0.7911194250436173 
1.019999999999904, -0.7793304262152947 
1.029999999999903, -0.7634301018538667 
1.039999999999902, -0.7445779290261915 
1.0499999999999008, -0.7249600164185253 
1.0599999999998997, -0.7066876292292221 
1.0699999999998986, -0.6910135408486379 
1.0799999999998975, -0.6783160759093547 
1.0899999999998964, -0.6684470762622591 
1.0999999999998953, -0.6610404137071746 
1.1099999999998942, -0.655678299754593 
1.119999999999893, -0.6519579324993179 
1.129999999999892, -0.6495130658148747 
1.1399999999998909, -0.6480215592278746 
1.1499999999998898, -0.6472100390819729 
1.1599999999998887, -0.646856633733645 
1.1699999999998876, -0.6467900676229452 
1.1799999999998865, -0.6468846741833556 
1.1899999999998854, -0.6470529971822702 
1.1999999999998843, -0.6472387346261511 
1.2099999999998832, -0.6474122286420488 
1.219999999999882, -0.6475685519392559 
1.229999999999881, -0.6477252209848656 
1.2399999999998799, -0.6479148990163138 
1.2499999999998788, -0.6481707601844675 
1.2599999999998777, -0.6485078003582985 
1.2699999999998766, -0.6489080335029966 
1.2799999999998755, -0.6493181844238056 
1.2899999999998744, -0.6496641649254838 
1.2999999999998733, -0.6498767832553065 
1.3099999999998722, -0.6499139813101595 
1.319999999999871, -0.6497679025402264 
1.32999999999987, -0.6494588003160005 
1.3399999999998689, -0.6490271948862932 
1.3499999999998678, -0.6485345205276898 
1.3599999999998666, -0.6480778298506161 
1.3699999999998655, -0.647822370771373 
1.3799999999998644, -0.6480570363845108 
1.3899999999998633, -0.6492789167226447 
1.3999999999998622, -0.6523113097571832 
1.4099999999998611, -0.6584501825480736 
1.41999999999986, -0.6696062417545924 
1.429999999999859, -0.6883347424052932 
1.4399999999998578, -0.7174758724289941 
1.4499999999998567, -0.7589066170594245 
1.4599999999998556, -0.8111542380592027 
1.4699999999998545, -0.867429840018025 
1.4799999999998534, -0.9177269580592604 
1.4899999999998523, -0.9549938133090743 
1.4999999999998512, -0.9786161100690016 
1.5099999999998501, -0.992067583313499 
1.519999999999849, -0.9992595359201133 
1.529999999999848, -1.0029485279766843 
1.5399999999998468, -1.0047256345832936 
1.5499999999998457, -1.005421492668417 
1.5599999999998446, -1.0054368947442303 
1.5699999999998435, -1.0049355142453686 
1.5799999999998424, -1.0039496654579843 
1.5899999999998413, -1.0024675717261051 
1.5999999999998402, -1.0006010306515323 
1.6099999999998391, -0.9990064065264992 
1.619999999999838, -0.9997597855017235 
1.629999999999837, -1.0074738391901035 
1.6399999999998358, -1.0291089411724719 
1.6499999999998347, -1.0699453328769402 
1.6599999999998336, -1.1267988001777127 
1.6699999999998325, -1.1868967575326372 
1.6799999999998314, -1.2368934021117775 
1.6899999999998303, -1.271327194824884 
1.6999999999998292, -1.2920214421869791 
1.709999999999828, -1.30335785745446 
1.719999999999827, -1.3091792943094185 
1.729999999999826, -1.3119825144811257 
1.7399999999998248, -1.3131639286117203 
1.7499999999998237, -1.3134461767821617 
1.7599999999998226, -1.3132030707528364 
1.7699999999998215, -1.312680252998062 
1.7799999999998204, -1.3121628208796088 
1.7899999999998193, -1.3120654450696032 
1.7999999999998182, -1.3128128558847976 
1.809999999999817, -1.314530082664217 
1.819999999999816, -1.316925948214948 
1.8299999999998149, -1.3195448189337113 
1.8399999999998138, -1.3220360898439423 
1.8499999999998127, -1.3242113019325068 
1.8599999999998116, -1.32598852576312 
1.8699999999998105, -1.3273389442641224 
1.8799999999998094, -1.328257969144112 
1.8899999999998083, -1.3287515196765987 
1.8999999999998072, -1.3288314432924062 
1.909999999999806, -1.32851701236532 
1.919999999999805, -1.3278390873584338 
1.9299999999998039, -1.3268447941687114 
1.9399999999998028, -1.3256021234597883 
1.9499999999998017, -1.3242017135537876 
1.9599999999998006, -1.3227540258394495 
1.9699999999997995, -1.3213907852891011 
1.9799999999997984, -1.3202692171056643 
1.9899999999997973, -1.3195327616336539 
1.9999999999997962, -1.3192099745048826 
2.0099999999998173, -1.3191603010923096 
2.0199999999998384, -1.3191493649844022 
2.0299999999998595, -1.3189490730082611 
2.0399999999998806, -1.3183495891682449 
2.0499999999999017, -1.3170989265531952 
2.059999999999923, -1.3148275317738507 
2.069999999999944, -1.3109978722067024 
2.079999999999965, -1.3049148143354279 
2.089999999999986, -1.2958240037297595 
2.100000000000007, -1.283095413858895 
2.1100000000000283, -1.266501436167616 
2.1200000000000494, -1.2466835111476864 
2.1300000000000705, -1.2257912937137034 
2.1400000000000916, -1.2075430292162515 
2.1500000000001127, -1.1954240914612695 
2.160000000000134, -1.1900129562689388 
2.170000000000155, -1.1889843705978413 
2.180000000000176, -1.1896482740903394 
2.190000000000197, -1.1904867151611354 
2.2000000000002182, -1.1909699668848726 
2.2100000000002393, -1.1909714817333557 
2.2200000000002604, -1.1904078212534432 
2.2300000000002815, -1.1890479793863118 
2.2400000000003026, -1.186316213977638 
2.2500000000003237, -1.1809140503427207 
2.260000000000345, -1.1700390944473045 
2.270000000000366, -1.1480247783037556 
2.280000000000387, -1.1051258779861106 
2.290000000000408, -1.030232465558314 
2.3000000000004293, -0.9225977328129848 
2.3100000000004504, -0.8029234537841274 
2.3200000000004715, -0.7010690415564719 
2.3300000000004926, -0.6319883439599214 
2.3400000000005137, -0.5920771353370441 
2.3500000000005348, -0.5712155774287059 
2.360000000000556, -0.561008309350491 
2.370000000000577, -0.5563087831766457 
2.380000000000598, -0.5543254644374409 
2.390000000000619, -0.5536232309923335 
2.4000000000006403, -0.5534831101710826 
2.4100000000006614, -0.5535496270931255 
2.4200000000006825, -0.5536468003647057 
2.4300000000007036, -0.5536842256750271 
2.4400000000007247, -0.5536103897729253 
2.450000000000746, -0.5533919189325638 
2.460000000000767, -0.5530089827668101 
2.470000000000788, -0.5524614401295055 
2.480000000000809, -0.5517787251829894 
2.49000000000083, -0.5510226276982026 
2.5000000000008513, -0.5502743236693597 
2.5100000000008724, -0.5496088755751909 
2.5200000000008935, -0.5490710539425228 
2.5300000000009146, -0.5486642151312384 
2.5400000000009357, -0.548354602266655 
2.550000000000957, -0.5480872076116323 
2.560000000000978, -0.547806376639 
2.570000000000999, -0.5474727380996661 
2.58000000000102, -0.5470708868384494 
2.5900000000010412, -0.5466093051122141 
2.6000000000010624, -0.546119149380602 
2.6100000000010835, -0.5456587755842113 
2.6200000000011046, -0.5453293376837078 
2.6300000000011257, -0.5453071656062092 
2.6400000000011468, -0.5459022394593086 
2.650000000001168, -0.5476591915714912 
2.660000000001189, -0.5515280140277279 
2.67000000000121, -0.5591427250873953 
2.680000000001231, -0.5732352472729126 
2.6900000000012523, -0.5980866812082101 
2.7000000000012734, -0.639424877803913 
2.7100000000012945, -0.7020963190969559 
2.7200000000013156, -0.783870848117091 
2.7300000000013367, -0.8702349630611345 
2.740000000001358, -0.9419229479441029 
2.750000000001379, -0.9898638809673379 
2.7600000000014, -1.0173780709054654 
2.770000000001421, -1.0318702643797968 
2.780000000001442, -1.0392096564949556 
2.7900000000014633, -1.0428376931739 
2.8000000000014844, -1.0445307706275846 
2.8100000000015055, -1.0451518044979262 
2.8200000000015266, -1.0450924186233859 
2.8300000000015477, -1.0444933063786965 
2.840000000001569, -1.0433535090565906 
2.85000000000159, -1.0416224963141316 
2.860000000001611, -1.0394066575521177 
2.870000000001632, -1.0375323752315373 
2.8800000000016532, -1.038727097773569 
2.8900000000016743, -1.0489366843540597 
2.9000000000016954, -1.0762262287910167 
2.9100000000017165, -1.1243208765573238 
2.9200000000017377, -1.185335592726214 
2.9300000000017588, -1.2434613201207152 
2.94000000000178, -1.2873892585604112 
2.950000000001801, -1.3154327382553448 
2.960000000001822, -1.331400191915184 
2.970000000001843, -1.3398243578680158 
2.9800000000018643, -1.344011153509158 
2.9900000000018854, -1.3459234113387923 
3.0000000000019065, -1.346607550037968 
3.0100000000019276, -1.3465975920583417 
3.0200000000019487, -1.346192134736389 
3.03000000000197, -1.345648191318491 
3.040000000001991, -1.345309852198046 
3.050000000002012, -1.3455798061978832 
3.060000000002033, -1.346675086134801 
3.070000000002054, -1.3484393069548095 
3.0800000000020753, -1.3504946499591568 
3.0900000000020964, -1.3525080296817626 
3.1000000000021175, -1.3542834049456893 
3.1100000000021386, -1.3557237545204002 
3.1200000000021597, -1.356784221287597 
3.130000000002181, -1.3574472185712554 
3.140000000002202, -1.3577092793153935 
3.150000000002223, -1.3575735286218293 
3.160000000002244, -1.3570471277312315 
3.1700000000022652, -1.3561432321024012 
3.1800000000022863, -1.3548862718462138 
3.1900000000023074, -1.3533191398304985 
3.2000000000023285, -1.3515108150313986 
3.2100000000023496, -1.349567239115715 
3.2200000000023707, -1.347654944503232 
3.230000000002392, -1.346018225400583 
3.240000000002413, -1.344905813706397 
3.250000000002434, -1.3443898690302314 
3.260000000002455, -1.3442802477063769 
3.2700000000024763, -1.344262182100451 
3.2800000000024974, -1.3440549883806756 
3.2900000000025185, -1.3434175109489224 
3.3000000000025396, -1.342041679508617 
3.3100000000025607, -1.3394013658745014 
3.3200000000025818, -1.3345724290111898 
3.330000000002603, -1.326060539441666 
3.340000000002624, -1.311779804073391 
3.350000000002645, -1.2894615955830715 
3.360000000002666, -1.257842026743726 
3.3700000000026873, -1.2187389635276833 
3.3800000000027084, -1.1787587795104568 
3.3900000000027295, -1.1471568660201867 
3.4000000000027506, -1.1292327584881297 
3.4100000000027717, -1.1228616377047687 
3.420000000002793, -1.1224696260846208 
3.430000000002814, -1.1238591233535782 
3.440000000002835, -1.1252012087579704 
3.450000000002856, -1.1260151293595073 
3.460000000002877, -1.126268659378004 
3.4700000000028983, -1.1259709150620891 
3.4800000000029194, -1.1250117847555103 
3.4900000000029405, -1.1230368575543754 
3.5000000000029616, -1.1192183731169147 
3.5100000000029827, -1.1117677679207816 
3.520000000003004, -1.0969942890886821 
3.530000000003025, -1.0679588335365966 
3.540000000003046, -1.0142343523054447 
3.550000000003067, -0.9272623397782087 
3.5600000000030882, -0.8131700620452511 
3.5700000000031094, -0.6976919604051186 
3.5800000000031305, -0.6071218206484328 
3.5900000000031516, -0.5488079723427969 
3.6000000000031727, -0.5155118291917489 
3.6100000000031938, -0.4976181542528252 
3.620000000003215, -0.4882851312892426 
3.630000000003236, -0.4835227333338021 
3.640000000003257, -0.4811650132741138 
3.650000000003278, -0.4800609181390613 
3.6600000000032993, -0.4795995643277623 
3.6700000000033204, -0.47945467847898715 
3.6800000000033415, -0.479450156677793 
3.6900000000033626, -0.47948974803256733 
3.7000000000033837, -0.4795210964226362 
3.710000000003405, -0.4795191715969834 
3.720000000003426, -0.4794811823524821 
3.730000000003447, -0.47942722857137754 
3.740000000003468, -0.47940049642962157 
3.750000000003489, -0.4794610880806389 
3.7600000000035103, -0.4796713092759333 
3.7700000000035314, -0.48007551052001507 
3.7800000000035525, -0.480680123956995 
3.7900000000035736, -0.4814402889235708 
3.8000000000035947, -0.48226173040424314 
3.810000000003616, -0.4830246615922541 
3.820000000003637, -0.48362197483547636 
3.830000000003658, -0.48398855016491227 
3.840000000003679, -0.4841047774745452 
3.8500000000037002, -0.4839793994501038 
3.8600000000037213, -0.48362780476101175 
3.8700000000037424, -0.48305593605856467 
3.8800000000037635, -0.4822504494682973 
3.8900000000037847, -0.48117063684588723 
3.9000000000038058, -0.4797340876341053 
3.910000000003827, -0.4777764404066847 
3.920000000003848, -0.4749207196506899 
3.930000000003869, -0.47013857484908084 
3.94000000000389, -0.46036959602673094 
3.9500000000039113, -0.43717304700953824 
3.9600000000039324, -0.3841334051127257 
3.9700000000039535, -0.2924049709413141 
3.9800000000039746, -0.1914185940988466 
3.9900000000039957, -0.1192352472269671 
4.000000000004016, -0.07891446957757217 
4.010000000003993, -0.05785150105878319 
4.02000000000397, -0.04658561027921145 
4.030000000003946, -0.040240462213341224 
4.040000000003923, -0.03647730959426657 
4.0500000000039, -0.034158325339781685 
4.0600000000038765, -0.03271356418326868 
4.070000000003853, -0.03185784514586269 
4.08000000000383, -0.03146591972442343 
4.090000000003807, -0.03152367051081108 
4.100000000003783, -0.03212556886207047 
4.11000000000376, -0.033517802678980656 
4.120000000003737, -0.03621503021428099 
4.130000000003713, -0.04126722934349409 
4.14000000000369, -0.05084009228420824 
4.150000000003667, -0.06929845638965733 
4.1600000000036434, -0.10385270045307601 
4.17000000000362, -0.15664041789251015 
4.180000000003597, -0.19227189895483585 
4.1900000000035735, -0.14268738672976441 
4.20000000000355, -0.035588686834974535 
4.210000000003527, 0.0432746327400815 
4.220000000003504, 0.08258260048138905 
4.23000000000348, 0.10083600576950906 
4.240000000003457, 0.1096526894927174 
4.250000000003434, 0.1141450224558775 
4.26000000000341, 0.11649855671945468 
4.270000000003387, 0.11768881613041338 
4.280000000003364, 0.11816558098038465 
4.2900000000033405, 0.11812316711770673 
4.300000000003317, 0.11760292636725811 
4.310000000003294, 0.11651421677688953 
4.320000000003271, 0.11459319570749534 
4.330000000003247, 0.1112800018508279 
4.340000000003224, 0.10547385386052628 
4.350000000003201, 0.09527257020077495 
4.360000000003177, 0.0791668863493036 
4.370000000003154, 0.06605339417348917 
4.380000000003131, 0.0964202097580285 
4.390000000003107, 0.18818913451632327 
4.400000000003084, 0.26700171855449917 
4.410000000003061, 0.30506971766821805 
4.4200000000030375, 0.3211935275139699 
4.430000000003014, 0.32831381399318577 
4.440000000002991, 0.33166251021847964 
4.450000000002968, 0.3332907445095716 
4.460000000002944, 0.33406817862745586 
4.470000000002921, 0.33440542738908086 
4.480000000002898, 0.3345243139701923 
4.490000000002874, 0.3345715486245334 
4.500000000002851, 0.33468019699910684 
4.510000000002828, 0.3350203805481985 
4.520000000002804, 0.3358543450084136 
4.530000000002781, 0.33757612891230726 
4.540000000002758, 0.3406391880648703 
4.5500000000027345, 0.34522462251613956 
4.560000000002711, 0.35079191792578346 
4.570000000002688, 0.3561849057812218 
4.580000000002665, 0.36043235299322035 
4.590000000002641, 0.3632482619473778 
4.600000000002618, 0.36481805766021813 
4.610000000002595, 0.36542378404785303 
4.620000000002571, 0.36525968747567894 
4.630000000002548, 0.3644052789937134 
4.640000000002525, 0.36287142596113203 
4.6500000000025015, 0.36068960916600507 
4.660000000002478, 0.3580181484041871 
4.670000000002455, 0.3551832177703377 
4.6800000000024315, 0.35257316863133253 
4.690000000002408, 0.3504574494471452 
4.700000000002385, 0.3489036709505434 
4.710000000002362, 0.3478331230409119 
4.720000000002338, 0.34711427945238094 
4.730000000002315, 0.34661825582956585 
4.740000000002292, 0.3462317153798495 
4.750000000002268, 0.3458474793226255 
4.760000000002245, 0.3453456060923406 
4.770000000002222, 0.34456380804805253 
4.7800000000021985, 0.34323998462496597 
4.790000000002175, 0.34088077969155434 
4.800000000002152, 0.33643916856466766 
4.810000000002129, 0.3275127652914036 
4.820000000002105, 0.30860184363943544 
4.830000000002082, 0.27000662929792935 
4.840000000002059, 0.21086311497308677 
4.850000000002035, 0.1638341891421739 
4.860000000002012, 0.15013146704297264 
4.870000000001989, 0.15236338723899118 
4.880000000001965, 0.1566911551834125 
4.890000000001942, 0.15979668778845973 
4.900000000001919, 0.16163564731998345 
4.9100000000018955, 0.16259770941405466 
4.920000000001872, 0.16296701739820824 
