t, s[1].omega / s[0].omega 
0, -0.7499976723243176 
0.009999999999999995, -0.749744510740652 
0.019999999999999934, -0.7494475340249165 
0.029999999999999874, -0.7490989274517049 
0.04000000000000012, -0.7486921792354623 
0.050000000000000405, -0.7482274898651804 
0.06000000000000069, -0.7477146768735604 
0.07000000000000098, -0.747173984955752 
0.08000000000000126, -0.7466365787133402 
0.09000000000000155, -0.7461459028659282 
0.10000000000000184, -0.7457596093241364 
0.11000000000000212, -0.7455505466075987 
0.12000000000000241, -0.7456049896738179 
0.130000000000002, -0.7460170521997604 
0.1400000000000009, -0.7468797803949322 
0.1499999999999998, -0.7482747990211819 
0.1599999999999987, -0.7502623358672611 
0.1699999999999976, -0.752871592361894 
0.1799999999999965, -0.7560889409539788 
0.1899999999999954, -0.7598409309979146 
0.1999999999999943, -0.7639738220567768 
0.2099999999999932, -0.7682427195434605 
0.2199999999999921, -0.7723342377368183 
0.229999999999991, -0.7759371590622549 
0.2399999999999899, -0.7788351683719792 
0.2499999999999888, -0.7809616281214271 
0.2599999999999877, -0.7823816753331108 
0.2699999999999866, -0.7832278732472884 
0.2799999999999855, -0.783638797411827 
0.2899999999999844, -0.783725334997355 
0.2999999999999833, -0.7835613672837243 
0.3099999999999822, -0.7831868283126309 
0.3199999999999811, -0.7826149179919979 
0.32999999999998, -0.7818412968294559 
0.3399999999999789, -0.7808580862809021 
0.3499999999999778, -0.7796797759219181 
0.35999999999997667, -0.7783911476701937 
0.36999999999997557, -0.777223616238615 
0.37999999999997447, -0.7766423632396833 
0.38999999999997337, -0.777368516955237 
0.39999999999997227, -0.7801983733116544 
0.40999999999997117, -0.7855528801923937 
0.41999999999997006, -0.7930203196366212 
0.42999999999996896, -0.8014076996175306 
0.43999999999996786, -0.8093727141782054 
0.44999999999996676, -0.8160318405977665 
0.45999999999996566, -0.8210998101796367 
0.46999999999996456, -0.8246985438406929 
0.47999999999996346, -0.8271199880364447 
0.48999999999996235, -0.828670361480959 
0.49999999999996125, -0.8296005440749594 
0.5099999999999602, -0.8300895228370054 
0.519999999999959, -0.8302504175121393 
0.529999999999958, -0.830140879977959 
0.5399999999999568, -0.8297692900380081 
0.5499999999999557, -0.8290930361339182 
0.5599999999999546, -0.8280070262106255 
0.5699999999999535, -0.826322340066385 
0.5799999999999524, -0.8237409940778813 
0.5899999999999513, -0.8198493402172804 
0.5999999999999502, -0.8141802657419716 
0.6099999999999491, -0.8064028287924891 
0.619999999999948, -0.7966137432318303 
0.6299999999999469, -0.7855255395333869 
0.6399999999999458, -0.7743083233195124 
0.6499999999999447, -0.7641384532914308 
0.6599999999999436, -0.7557957599217671 
0.6699999999999425, -0.7495420908503105 
0.6799999999999414, -0.7452323934136512 
0.6899999999999403, -0.7425015505240544 
0.6999999999999392, -0.74092331962583 
0.7099999999999381, -0.7401094812512651 
0.719999999999937, -0.7397542214396312 
0.7299999999999359, -0.7396404398158938 
0.7399999999999348, -0.7396254041864203 
0.7499999999999337, -0.7396193091303516 
0.7599999999999326, -0.7395649623872214 
0.7699999999999315, -0.7394223187019481 
0.7799999999999304, -0.739159026068793 
0.7899999999999293, -0.7387472683421886 
0.7999999999999282, -0.7381666920854943 
0.8099999999999271, -0.7374115556635797 
0.819999999999926, -0.7364972892361448 
0.8299999999999249, -0.7354603089498568 
0.8399999999999238, -0.7343488007557305 
0.8499999999999227, -0.7332093332999399 
0.8599999999999216, -0.7320773010136065 
0.8699999999999205, -0.7309753499329343 
0.8799999999999194, -0.7299180316208125 
0.8899999999999183, -0.7289183185503422 
0.8999999999999172, -0.7279926690617566 
0.9099999999999161, -0.7271634927240562 
0.919999999999915, -0.7264592026405868 
0.9299999999999139, -0.725912354047724 
0.9399999999999128, -0.7255563671953759 
0.9499999999999117, -0.7254215302538531 
0.9599999999999106, -0.7255313029947207 
0.9699999999999095, -0.7259000058626798 
0.9799999999999084, -0.7265325259379173 
0.9899999999999073, -0.7274258057844002 
0.9999999999999062, -0.7285709490263972 
1.0099999999999052, -0.7299541027073245 
1.019999999999904, -0.7315541022619624 
1.029999999999903, -0.7333355998689728 
1.039999999999902, -0.7352388042258687 
1.0499999999999008, -0.7371713851060361 
1.0599999999998997, -0.7390121675441559 
1.0699999999998986, -0.7406335389980204 
1.0799999999998975, -0.7419359751626926 
1.0899999999998964, -0.742874160565934 
1.0999999999998953, -0.7434582173915137 
1.1099999999998942, -0.7437335931548136 
1.119999999999893, -0.743756246402472 
1.129999999999892, -0.7435757983203111 
1.1399999999998909, -0.7432293933324952 
1.1499999999998898, -0.7427439357050847 
1.1599999999998887, -0.7421449133674294 
1.1699999999998876, -0.7414729512594909 
1.1799999999998865, -0.7408122165361171 
1.1899999999998854, -0.7403360146532102 
1.1999999999998843, -0.7403707636582408 
1.2099999999998832, -0.7414629360501294 
1.219999999999882, -0.7443965829961889 
1.229999999999881, -0.7500589764506331 
1.2399999999998799, -0.7590500268157891 
1.2499999999998788, -0.7711103833619917 
1.2599999999998777, -0.7848178624019696 
1.2699999999998766, -0.7980784410395846 
1.2799999999998755, -0.809180047349708 
1.2899999999998744, -0.8174549317077805 
1.2999999999998733, -0.8231257598904964 
1.3099999999998722, -0.8267950521990401 
1.319999999999871, -0.8290694796580984 
1.32999999999987, -0.8304151182760083 
1.3399999999998689, -0.8311460214746292 
1.3499999999998678, -0.831456046289915 
1.3599999999998666, -0.8314521329239046 
1.3699999999998655, -0.8311763631414409 
1.3799999999998644, -0.8306148155011677 
1.3899999999998633, -0.8296932417455836 
1.3999999999998622, -0.8282589980886577 
1.4099999999998611, -0.8260494749419971 
1.41999999999986, -0.8226551840888441 
1.429999999999859, -0.8175102566703778 
1.4399999999998578, -0.8099875886442597 
1.4499999999998567, -0.7996937800042028 
1.4599999999998556, -0.7869199535980211 
1.4699999999998545, -0.772889253696064 
1.4799999999998534, -0.7593923147310518 
1.4899999999998523, -0.7479860356072823 
1.4999999999998512, -0.7394234191539903 
1.5099999999998501, -0.7336484341850914 
1.519999999999849, -0.7301303792387908 
1.529999999999848, -0.7282068091774166 
1.5399999999998468, -0.7272898391837928 
1.5499999999998457, -0.7269416865676772 
1.5599999999998446, -0.7268722643325869 
1.5699999999998435, -0.7269049847806888 
1.5799999999998424, -0.7269379228953005 
1.5899999999998413, -0.7269119218733713 
1.5999999999998402, -0.7267882561630359 
1.6099999999998391, -0.7265349083722566 
1.619999999999838, -0.726120213908287 
1.629999999999837, -0.7255135388177327 
1.6399999999998358, -0.7246927711545033 
1.6499999999998347, -0.7236559853194846 
1.6599999999998336, -0.7224303473154686 
1.6699999999998325, -0.7210702048859796 
1.6799999999998314, -0.7196429676740572 
1.6899999999998303, -0.7182110655726084 
1.6999999999998292, -0.7168205326848797 
1.709999999999828, -0.715500078443005 
1.719999999999827, -0.7142671887345802 
1.729999999999826, -0.7131357038562918 
1.7399999999998248, -0.712121276772063 
1.7499999999998237, -0.71124369588433 
1.7599999999998226, -0.7105264984370013 
1.7699999999998215, -0.7099947074676576 
1.7799999999998204, -0.7096715902363008 
1.7899999999998193, -0.7095754174197708 
1.7999999999998182, -0.7097172045398054 
1.809999999999817, -0.7101001262277638 
1.819999999999816, -0.7107206829463999 
1.8299999999998149, -0.7115709616912046 
1.8399999999998138, -0.7126407018078537 
1.8499999999998127, -0.713917487834659 
1.8599999999998116, -0.7153833831527319 
1.8699999999998105, -0.7170071488528984 
1.8799999999998094, -0.7187336812402048 
1.8899999999998083, -0.7204766050402639 
1.8999999999998072, -0.7221232827307436 
1.909999999999806, -0.7235575730569992 
1.919999999999805, -0.7246920973408775 
1.9299999999998039, -0.7254902790568012 
1.9399999999998028, -0.7259648404886352 
1.9499999999998017, -0.7261582429861875 
1.9599999999998006, -0.7261205383880288 
1.9699999999997995, -0.7258951204139095 
1.9799999999997984, -0.7255141103835433 
1.9899999999997973, -0.7250012398151126 
1.9999999999997962, -0.7243810057234356 
2.0099999999998173, -0.7236956747834002 
2.0199999999998384, -0.7230344330675665 
2.0299999999998595, -0.7225798311735977 
2.0399999999998806, -0.722671749401827 
2.0499999999999017, -0.7238706668283006 
2.059999999999923, -0.7269617152742628 
2.069999999999944, -0.7327898620972545 
2.079999999999965, -0.7418316366237929 
2.089999999999986, -0.7536362986327514 
2.100000000000007, -0.7666540201286636 
2.1100000000000283, -0.7788866192237653 
2.1200000000000494, -0.7889020254779785 
2.1300000000000705, -0.7962798435758992 
2.1400000000000916, -0.8013293841786149 
2.1500000000001127, -0.8046176630323549 
2.160000000000134, -0.8066774380269027 
2.170000000000155, -0.8079100808668457 
2.180000000000176, -0.8085858610817747 
2.190000000000197, -0.8088723663736136 
2.2000000000002182, -0.8088616905157678 
2.2100000000002393, -0.8085877538218413 
2.2200000000002604, -0.8080322932652682 
2.2300000000002815, -0.8071193630555106 
2.2400000000003026, -0.8056981826668496 
2.2500000000003237, -0.803516589847329 
2.260000000000345, -0.8001978293986266 
2.270000000000366, -0.7952582466176803 
2.280000000000387, -0.7882330683283544 
2.290000000000408, -0.7789519129869225 
2.3000000000004293, -0.7678456528161035 
2.3100000000004504, -0.7559858288906138 
2.3200000000004715, -0.744703199482435 
2.3300000000004926, -0.7350586950938319 
2.3400000000005137, -0.7275582608369568 
2.3500000000005348, -0.7221948732525927 
2.360000000000556, -0.718648943655497 
2.370000000000577, -0.7164844058793723 
2.380000000000598, -0.7152775664094893 
2.390000000000619, -0.7146795673906954 
2.4000000000006403, -0.7144328320788784 
2.4100000000006614, -0.7143618699575017 
2.4200000000006825, -0.714353612298678 
2.4300000000007036, -0.7143366888757807 
2.4400000000007247, -0.7142643353203704 
2.450000000000746, -0.7141026430021478 
2.460000000000767, -0.7138245494022577 
2.470000000000788, -0.7134094810999068 
2.480000000000809, -0.7128476313718893 
2.49000000000083, -0.7121457163992336 
2.5000000000008513, -0.7113290359518716 
2.5100000000008724, -0.7104360168925509 
2.5200000000008935, -0.7095069523651109 
2.5300000000009146, -0.7085735107986414 
2.5400000000009357, -0.7076546872426799 
2.550000000000957, -0.7067597296866714 
2.560000000000978, -0.7058945494866379 
2.570000000000999, -0.7050677830101103 
2.58000000000102, -0.7042946498007862 
2.5900000000010412, -0.7035986317870637 
2.6000000000010624, -0.7030116141572528 
2.6100000000010835, -0.7025728363815578 
2.6200000000011046, -0.7023266657335594 
2.6300000000011257, -0.7023193087967512 
2.6400000000011468, -0.7025950244612554 
2.650000000001168, -0.7031927588720405 
2.660000000001189, -0.7041439641791399 
2.67000000000121, -0.705471557055146 
2.680000000001231, -0.7071887437204505 
2.6900000000012523, -0.7092952613057939 
2.7000000000012734, -0.7117682166561259 
2.7100000000012945, -0.7145464779780426 
2.7200000000013156, -0.7175132209952435 
2.7300000000013367, -0.7204902062501166 
2.740000000001358, -0.7232614356250202 
2.750000000001379, -0.7256289246846019 
2.7600000000014, -0.7274723404284689 
2.770000000001421, -0.7287723772281907 
2.780000000001442, -0.7295872560357515 
2.7900000000014633, -0.7300080385978437 
2.8000000000014844, -0.7301221031033884 
2.8100000000015055, -0.7299949792165858 
2.8200000000015266, -0.7296660705154339 
2.8300000000015477, -0.7291510968536864 
2.840000000001569, -0.7284472737893807 
2.85000000000159, -0.7275411519657639 
2.860000000001611, -0.726422316636019 
2.870000000001632, -0.7251085083460463 
2.8800000000016532, -0.723686829085145 
2.8900000000016743, -0.7223645010709061 
2.9000000000016954, -0.7214918229841325 
2.9100000000017165, -0.7214815068859904 
2.9200000000017377, -0.7225825621277324 
2.9300000000017588, -0.7246637012847221 
2.94000000000178, -0.7272991938466319 
2.950000000001801, -0.7300975338191057 
2.960000000001822, -0.7328421545590277 
2.970000000001843, -0.7353870773256632 
2.9800000000018643, -0.737595819236235 
2.9900000000018854, -0.7393793532141304 
3.0000000000019065, -0.7407227569126533 
3.0100000000019276, -0.7416671000268862 
3.0200000000019487, -0.7422759705395608 
3.03000000000197, -0.7426098375737877 
3.040000000001991, -0.7427122735073564 
3.050000000002012, -0.742603650237503 
3.060000000002033, -0.7422774057889278 
3.070000000002054, -0.7416959989858906 
3.0800000000020753, -0.7407864168068391 
3.0900000000020964, -0.7394390480928864 
3.1000000000021175, -0.7375191739663236 
3.1100000000021386, -0.7349033608173443 
3.1200000000021597, -0.7315427203618555 
3.130000000002181, -0.7275249419526193 
3.140000000002202, -0.7230836585811902 
3.150000000002223, -0.7185330726428253 
3.160000000002244, -0.714170717500444 
3.1700000000022652, -0.7102115111464535 
3.1800000000022863, -0.7067747203744449 
3.1900000000023074, -0.7039038566775988 
3.2000000000023285, -0.7015931625596314 
3.2100000000023496, -0.6998074442569409 
3.2200000000023707, -0.6984937500470874 
3.230000000002392, -0.697588117661762 
3.240000000002413, -0.6970206532578671 
3.250000000002434, -0.6967205240198489 
3.260000000002455, -0.6966208245655605 
3.2700000000024763, -0.6966625104393938 
3.2800000000024974, -0.6967967527306229 
3.2900000000025185, -0.6969857222937501 
3.3000000000025396, -0.6972023617202586 
3.3100000000025607, -0.6974297136253375 
3.3200000000025818, -0.6976597673940576 
3.330000000002603, -0.697890988197337 
3.340000000002624, -0.6981236172612029 
3.350000000002645, -0.6983532232973333 
3.360000000002666, -0.6985652491563406 
3.3700000000026873, -0.6987343318020713 
3.3800000000027084, -0.6988301067960783 
3.3900000000027295, -0.6988268110465475 
3.4000000000027506, -0.6987110949081305 
3.4100000000027717, -0.6984842362096809 
3.420000000002793, -0.698159651156892 
3.430000000002814, -0.6977596011629454 
3.440000000002835, -0.6973146191901572 
3.450000000002856, -0.6968673402920608 
3.460000000002877, -0.6964810322872882 
3.4700000000028983, -0.6962523446263637 
3.4800000000029194, -0.6963268557873782 
3.4900000000029405, -0.6969142652147614 
3.5000000000029616, -0.6982974019973193 
3.5100000000029827, -0.7008257576820958 
3.520000000003004, -0.7048801077236277 
3.530000000003025, -0.7107910569442859 
3.540000000003046, -0.718698039646705 
3.550000000003067, -0.7283662883151312 
3.5600000000030882, -0.739057207216174 
3.5700000000031094, -0.7496226657380433 
3.5800000000031305, -0.7588995279240471 
3.5900000000031516, -0.7661748246781461 
3.6000000000031727, -0.7713544522668354 
3.6100000000031938, -0.7747720342197318 
3.620000000003215, -0.7768933812709438 
3.630000000003236, -0.7781279997869985 
3.640000000003257, -0.7787696564521337 
3.650000000003278, -0.7790043770294538 
3.6600000000032993, -0.7789356174772752 
3.6700000000033204, -0.7786046782183043 
3.6800000000033415, -0.778000364146318 
3.6900000000033626, -0.7770569356065209 
3.7000000000033837, -0.7756396966449851 
3.710000000003405, -0.7735173659229864 
3.720000000003426, -0.7703240145903979 
3.730000000003447, -0.765529158446512 
3.740000000003468, -0.7584747050458315 
3.750000000003489, -0.7485912817236815 
3.7600000000035103, -0.7358643345790458 
3.7700000000035314, -0.7213039820587961 
3.7800000000035525, -0.706822310832944 
3.7900000000035736, -0.6943449097757748 
3.8000000000035947, -0.6849263550255521 
3.810000000003616, -0.6785933913609473 
3.820000000003637, -0.6747531045528662 
3.830000000003658, -0.6726516646049291 
3.840000000003679, -0.6716357091936608 
3.8500000000037002, -0.6712325498194013 
3.8600000000037213, -0.6711361820478297 
3.8700000000037424, -0.6711631039089265 
3.8800000000037635, -0.671208543660973 
3.8900000000037847, -0.6712130032924508 
3.9000000000038058, -0.671139785371358 
3.910000000003827, -0.6709614106444107 
3.920000000003848, -0.6706530144306164 
3.930000000003869, -0.6701918463009143 
3.94000000000389, -0.6695623606064013 
3.9500000000039113, -0.6687648194253598 
3.9600000000039324, -0.667822160932148 
3.9700000000039535, -0.666778654202824 
3.9800000000039746, -0.665688495643808 
3.9900000000039957, -0.6646004012584431 
4.000000000004016, -0.6635472157402533 
4.010000000003993, -0.6625448270992788 
4.02000000000397, -0.6615981151770669 
4.030000000003946, -0.6607089547530031 
4.040000000003923, -0.6598826007300523 
4.0500000000039, -0.6591313579536915 
4.0600000000038765, -0.6584761180013754 
4.070000000003853, -0.6579466528233294 
4.08000000000383, -0.6575811357230581 
4.090000000003807, -0.6574249738869017 
4.100000000003783, -0.6575290059086256 
4.11000000000376, -0.6579473370404078 
4.120000000003737, -0.6587352369267366 
4.130000000003713, -0.6599472815972265 
4.14000000000369, -0.6616350893807043 
4.150000000003667, -0.6638426127063559 
4.1600000000036434, -0.6665954293233974 
4.17000000000362, -0.6698801353509223 
4.180000000003597, -0.6736136998118261 
4.1900000000035735, -0.6776140762433618 
4.20000000000355, -0.6815995715537648 
4.210000000003527, -0.6852450323264971 
4.220000000003504, -0.6882836051861194 
4.23000000000348, -0.6905898070775753 
4.240000000003457, -0.692186424493636 
4.250000000003434, -0.6931866405141002 
4.26000000000341, -0.6937257952463739 
4.270000000003387, -0.6939185624628956 
4.280000000003364, -0.6938432506732679 
4.2900000000033405, -0.6935406055935284 
4.300000000003317, -0.6930161421721053 
4.310000000003294, -0.6922401010867445 
4.320000000003271, -0.6911422277047212 
4.330000000003247, -0.6895994724929777 
4.340000000003224, -0.6874145353767627 
4.350000000003201, -0.6842840391247049 
4.360000000003177, -0.6797637925972483 
4.370000000003154, -0.6732731304842646 
4.380000000003131, -0.6642546004246352 
4.390000000003107, -0.6526207259164797 
4.400000000003084, -0.6392924781754787 
4.410000000003061, -0.6261252881236204 
4.4200000000030375, -0.6149541220555624 
4.430000000003014, -0.6066793236145749 
4.440000000002991, -0.6011991899147631 
4.450000000002968, -0.5978918653847697 
4.460000000002944, -0.5960598473627227 
4.470000000002921, -0.5951383595418287 
4.480000000002898, -0.594735304462426 
4.490000000002874, -0.5946016199187587 
4.500000000002851, -0.5945876531148941 
4.510000000002828, -0.5946061687214685 
4.520000000002804, -0.594606141602375 
4.530000000002781, -0.5945559619547729 
4.540000000002758, -0.5944338030658344 
4.5500000000027345, -0.5942235170712595 
4.560000000002711, -0.5939150337611486 
4.570000000002688, -0.5935079429581338 
4.580000000002665, -0.5930154939280448 
4.590000000002641, -0.5924649187485478 
4.600000000002618, -0.5918912950968027 
4.610000000002595, -0.5913266702815633 
4.620000000002571, -0.5907901832482494 
4.630000000002548, -0.5902844425116658 
4.640000000002525, -0.5897992040322446 
4.6500000000025015, -0.5893193080631771 
4.660000000002478, -0.5888324907328157 
4.670000000002455, -0.5883342299631042 
4.6800000000024315, -0.5878295545733201 
4.690000000002408, -0.5873336462442078 
4.700000000002385, -0.5868733021323476 
4.710000000002362, -0.5864906135968169 
4.720000000002338, -0.586249497662887 
4.730000000002315, -0.5862453129680526 
4.740000000002292, -0.5866174920696554 
4.750000000002268, -0.5875644637373261 
4.760000000002245, -0.5893583352445726 
4.770000000002222, -0.5923523643443529 
4.7800000000021985, -0.5969648781059279 
4.790000000002175, -0.6036082547143677 
4.800000000002152, -0.6125217881019763 
4.810000000002129, -0.6235042488190883 
4.820000000002105, -0.6356829383815084 
4.830000000002082, -0.6476206589999491 
4.840000000002059, -0.65789894658867 
4.850000000002035, -0.6657584408258487 
4.860000000002012, -0.671231155990705 
4.870000000001989, -0.6748008967494266 
4.880000000001965, -0.6770263649438016 
4.890000000001942, -0.6783555984609906 
4.900000000001919, -0.6790935200328563 
4.9100000000018955, -0.6794287092209934 
4.920000000001872, -0.6794667960508345 
