t, s[1].omega / s[0].omega 
0, -0.6599977067989806 
0.009999999999999995, -0.6597640788545751 
0.019999999999999934, -0.6595167780108693 
0.029999999999999874, -0.6592431588357655 
0.04000000000000012, -0.6589294843267586 
0.050000000000000405, -0.6585672379104223 
0.06000000000000069, -0.6581565766497273 
0.07000000000000098, -0.6577069366496421 
0.08000000000000126, -0.6572367781470809 
0.09000000000000155, -0.6567745534971946 
0.10000000000000184, -0.6563620004052895 
0.11000000000000212, -0.6560598633012569 
0.12000000000000241, -0.6559554376265204 
0.130000000000002, -0.6561707198530293 
0.1400000000000009, -0.6568691914230798 
0.1499999999999998, -0.6582581591993634 
0.1599999999999987, -0.6605817288984742 
0.1699999999999976, -0.6640963464083794 
0.1799999999999965, -0.6690169381027997 
0.1899999999999954, -0.6754223883931645 
0.1999999999999943, -0.6831291476139707 
0.2099999999999932, -0.6915961342540324 
0.2199999999999921, -0.699980807103492 
0.229999999999991, -0.7074103045261696 
0.2399999999999899, -0.7133206845654997 
0.2499999999999888, -0.7176015315091422 
0.2599999999999877, -0.7204770002098647 
0.2699999999999866, -0.7222917816423855 
0.2799999999999855, -0.7233625279816369 
0.2899999999999844, -0.7239235712265935 
0.2999999999999833, -0.7241268649540276 
0.3099999999999822, -0.7240583260316332 
0.3199999999999811, -0.723752311957766 
0.32999999999998, -0.7231983411409568 
0.3399999999999789, -0.722338596073655 
0.3499999999999778, -0.7210555444679312 
0.35999999999997667, -0.7191499202625018 
0.36999999999997557, -0.7163147901200131 
0.37999999999997447, -0.7121284596392192 
0.38999999999997337, -0.7061205691706998 
0.39999999999997227, -0.6979806687205025 
0.40999999999997117, -0.6878837570449513 
0.41999999999997006, -0.6766813827332891 
0.42999999999996896, -0.6656608439445217 
0.43999999999996786, -0.6559853799487423 
0.44999999999996676, -0.6482843892917171 
0.45999999999996566, -0.6426306381445447 
0.46999999999996456, -0.638750117497936 
0.47999999999996346, -0.6362418316724647 
0.48999999999996235, -0.6347144855478476 
0.49999999999996125, -0.6338453103055992 
0.5099999999999602, -0.6333923757393597 
0.519999999999959, -0.6331855196389538 
0.529999999999958, -0.6331102615827616 
0.5399999999999568, -0.6330916358821722 
0.5499999999999557, -0.6330808143698253 
0.5599999999999546, -0.6330454343306509 
0.5699999999999535, -0.6329637351149981 
0.5799999999999524, -0.6328222368488062 
0.5899999999999513, -0.6326161607001202 
0.5999999999999502, -0.6323507880515532 
0.6099999999999491, -0.6320410482189676 
0.619999999999948, -0.6317072343584458 
0.6299999999999469, -0.6313674990797249 
0.6399999999999458, -0.6310307864540106 
0.6499999999999447, -0.6306942400218187 
0.6599999999999436, -0.6303463840632969 
0.6699999999999425, -0.6299738364049153 
0.6799999999999414, -0.6295677234336496 
0.6899999999999403, -0.6291272593682051 
0.6999999999999392, -0.6286606231124087 
0.7099999999999381, -0.6281850313641011 
0.719999999999937, -0.6277279599104386 
0.7299999999999359, -0.6273306112270997 
0.7399999999999348, -0.6270539032279436 
0.7499999999999337, -0.6269867081997528 
0.7599999999999326, -0.6272555725408868 
0.7699999999999315, -0.62803434653112 
0.7799999999999304, -0.6295505993873289 
0.7899999999999293, -0.6320826480957934 
0.7999999999999282, -0.635935616651916 
0.8099999999999271, -0.6413780452603747 
0.819999999999926, -0.6485205629189423 
0.8299999999999249, -0.6571480078994223 
0.8399999999999238, -0.6665977445200156 
0.8499999999999227, -0.6758525728987845 
0.8599999999999216, -0.6839108645715968 
0.8699999999999205, -0.690194910673376 
0.8799999999999194, -0.6946664405279879 
0.8899999999999183, -0.6976342441133282 
0.8999999999999172, -0.6994993637106883 
0.9099999999999161, -0.7006057163414224 
0.919999999999915, -0.701198179935002 
0.9299999999999139, -0.7014322308437494 
0.9399999999999128, -0.701395088907113 
0.9499999999999117, -0.7011220932000014 
0.9599999999999106, -0.7006042063907872 
0.9699999999999095, -0.6997863129858397 
0.9799999999999084, -0.6985567913859494 
0.9899999999999073, -0.6967307489683732 
0.9999999999999062, -0.6940366110251027 
1.0099999999999052, -0.690132464630437 
1.019999999999904, -0.6846973073023902 
1.029999999999903, -0.677622122342808 
1.039999999999902, -0.6692154277331477 
1.0499999999999008, -0.6602203556855852 
1.0599999999998997, -0.6515487822721704 
1.0699999999998986, -0.6439281889732664 
1.0799999999998975, -0.6377225905030649 
1.0899999999998964, -0.6329691646928406 
1.0999999999998953, -0.6295082835153167 
1.1099999999998942, -0.6271013565352055 
1.119999999999893, -0.6255034058608836 
1.129999999999892, -0.624497682990232 
1.1399999999998909, -0.6239075346571672 
1.1499999999998898, -0.623596697008551 
1.1599999999998887, -0.6234643635880126 
1.1699999999998876, -0.6234383842509028 
1.1799999999998865, -0.6234684457731681 
1.1899999999998854, -0.6235203305874835 
1.1999999999998843, -0.6235718789629665 
1.2099999999998832, -0.6236108042298762 
1.219999999999882, -0.6236338246581746 
1.229999999999881, -0.6236457252115459 
1.2399999999998799, -0.6236565434182513 
1.2499999999998788, -0.623675981570832 
1.2599999999998777, -0.6237064290754366 
1.2699999999998766, -0.6237380760456128 
1.2799999999998755, -0.6237494706331531 
1.2899999999998744, -0.6237139625997998 
1.2999999999998733, -0.6236086347519268 
1.3099999999998722, -0.6234208207201993 
1.319999999999871, -0.6231496577984 
1.32999999999987, -0.6228039695289951 
1.3399999999998689, -0.6223997126676515 
1.3499999999998678, -0.6219596862873047 
1.3599999999998666, -0.6215169193268004 
1.3699999999998655, -0.6211224748903575 
1.3799999999998644, -0.6208583855026987 
1.3899999999998633, -0.6208564010945739 
1.3999999999998622, -0.6213222339807785 
1.4099999999998611, -0.6225615547945252 
1.41999999999986, -0.624995691061524 
1.429999999999859, -0.629139007048592 
1.4399999999998578, -0.6354890940626057 
1.4499999999998567, -0.6442820239963157 
1.4599999999998556, -0.6551562419952417 
1.4699999999998545, -0.6669800122936497 
1.4799999999998534, -0.6781812853197141 
1.4899999999998523, -0.6874847249600564 
1.4999999999998512, -0.6944137508289996 
1.5099999999998501, -0.6991857364411154 
1.519999999999849, -0.7023092033748514 
1.529999999999848, -0.7042827836897908 
1.5399999999998468, -0.7054842575050275 
1.5499999999998457, -0.706167286975407 
1.5599999999998446, -0.7064900231333545 
1.5699999999998435, -0.7065427341375436 
1.5799999999998424, -0.7063660710854165 
1.5899999999998413, -0.705959840690823 
1.5999999999998402, -0.7052838166514406 
1.6099999999998391, -0.7042526049587579 
1.619999999999838, -0.7027288104773903 
1.629999999999837, -0.7005248948650652 
1.6399999999998358, -0.69743329417714 
1.6499999999998347, -0.6933047876688436 
1.6599999999998336, -0.6881628112774183 
1.6699999999998325, -0.6822791238287768 
1.6799999999998314, -0.6761235252058013 
1.6899999999998303, -0.670201287106736 
1.6999999999998292, -0.6648968984450977 
1.709999999999828, -0.6604137626168397 
1.719999999999827, -0.6567998144404386 
1.729999999999826, -0.6540040528251432 
1.7399999999998248, -0.6519259499954259 
1.7499999999998237, -0.650447313746541 
1.7599999999998226, -0.6494499789696133 
1.7699999999998215, -0.6488250520810184 
1.7799999999998204, -0.6484775949065666 
1.7899999999998193, -0.6483286206704422 
1.7999999999998182, -0.6483152148629726 
1.809999999999817, -0.6483893415637043 
1.819999999999816, -0.6485159821052633 
1.8299999999998149, -0.6486712839347013 
1.8399999999998138, -0.6488411413536691 
1.8499999999998127, -0.6490200169592979 
1.8599999999998116, -0.6492090513279087 
1.8699999999998105, -0.6494122349268225 
1.8799999999998094, -0.6496303819731056 
1.8899999999998083, -0.6498547617478887 
1.8999999999998072, -0.6500639936304625 
1.909999999999806, -0.6502271675576636 
1.919999999999805, -0.6503125644439958 
1.9299999999998039, -0.6502972670641834 
1.9399999999998028, -0.6501723583252328 
1.9499999999998017, -0.6499421563197798 
1.9599999999998006, -0.6496202001402248 
1.9699999999997995, -0.6492259170917117 
1.9799999999997984, -0.6487845740366361 
1.9899999999997973, -0.6483316170538542 
1.9999999999997962, -0.6479219887372811 
2.0099999999998173, -0.6476451311189528 
2.0199999999998384, -0.6476462077395199 
2.0299999999998595, -0.6481524704450434 
2.0399999999998806, -0.6494990397188655 
2.0499999999999017, -0.6521383517722802 
2.059999999999923, -0.6566006045239322 
2.069999999999944, -0.6633555870647048 
2.079999999999965, -0.6725430563080508 
2.089999999999986, -0.6836540061840483 
2.100000000000007, -0.6954452937209599 
2.1100000000000283, -0.7063633455880707 
2.1200000000000494, -0.7152635780436534 
2.1300000000000705, -0.7218007371516116 
2.1400000000000916, -0.7262546004012935 
2.1500000000001127, -0.7291392356454831 
2.160000000000134, -0.7309367352426169 
2.170000000000155, -0.7320061136307209 
2.180000000000176, -0.7325856542882385 
2.190000000000197, -0.732821382327914 
2.2000000000002182, -0.7327931452938559 
2.2100000000002393, -0.7325310241439009 
2.2200000000002604, -0.732021850108383 
2.2300000000002815, -0.7312069000228654 
2.2400000000003026, -0.7299722835025958 
2.2500000000003237, -0.728136338166488 
2.260000000000345, -0.7254467788547041 
2.270000000000366, -0.7216147473945163 
2.280000000000387, -0.716418556183519 
2.290000000000408, -0.7098691557859726 
2.3000000000004293, -0.7023334248815579 
2.3100000000004504, -0.6944744288999494 
2.3200000000004715, -0.6870122489269062 
2.3300000000004926, -0.680484108841118 
2.3400000000005137, -0.6751504688685506 
2.3500000000005348, -0.6710362381419345 
2.360000000000556, -0.6680212088964298 
2.370000000000577, -0.6659195744235431 
2.380000000000598, -0.6645317234947747 
2.390000000000619, -0.6636727297222631 
2.4000000000006403, -0.6631856247658139 
2.4100000000006614, -0.6629453913706953 
2.4200000000006825, -0.6628573902968674 
2.4300000000007036, -0.6628527613607342 
2.4400000000007247, -0.6628827683230231 
2.450000000000746, -0.6629136222987894 
2.460000000000767, -0.6629228254963386 
2.470000000000788, -0.6628974196775851 
2.480000000000809, -0.6628335899647728 
2.49000000000083, -0.6627360329662425 
2.5000000000008513, -0.6626151554666282 
2.5100000000008724, -0.6624814747541943 
2.5200000000008935, -0.6623391570096826 
2.5300000000009146, -0.6621823095840413 
2.5400000000009357, -0.6619965566318731 
2.550000000000957, -0.6617651213131461 
2.560000000000978, -0.6614758033438188 
2.570000000000999, -0.6611253181763421 
2.58000000000102, -0.6607201617259627 
2.5900000000010412, -0.6602758098930145 
2.6000000000010624, -0.6598167370761086 
2.6100000000010835, -0.6593788690728204 
2.6200000000011046, -0.6590149707945328 
2.6300000000011257, -0.6588026874952295 
2.6400000000011468, -0.6588543288611265 
2.650000000001168, -0.659326652526779 
2.660000000001189, -0.660427604751718 
2.67000000000121, -0.6624149027494712 
2.680000000001231, -0.6655779841035991 
2.6900000000012523, -0.6701902421362506 
2.7000000000012734, -0.6764164891624175 
2.7100000000012945, -0.6841748550359015 
2.7200000000013156, -0.6930035575759568 
2.7300000000013367, -0.7020578364459124 
2.740000000001358, -0.7103497721112773 
2.750000000001379, -0.7171372200314857 
2.7600000000014, -0.7221660876222387 
2.770000000001421, -0.7256046268538385 
2.780000000001442, -0.7278118244455793 
2.7900000000014633, -0.7291469170245729 
2.8000000000014844, -0.7298871039045547 
2.8100000000015055, -0.7302178697126815 
2.8200000000015266, -0.730249510594234 
2.8300000000015477, -0.7300349106213662 
2.840000000001569, -0.7295799806691092 
2.85000000000159, -0.7288447892275259 
2.860000000001611, -0.7277348504921188 
2.870000000001632, -0.7260824501848377 
2.8800000000016532, -0.7236212347711721 
2.8900000000016743, -0.7199695916108826 
2.9000000000016954, -0.7146653489073366 
2.9100000000017165, -0.7073205959345101 
2.9200000000017377, -0.6979177482012229 
2.9300000000017588, -0.6870757771281656 
2.94000000000178, -0.6759678688616073 
2.950000000001801, -0.6658372018610514 
2.960000000001822, -0.657503439392107 
2.970000000001843, -0.6512139947945392 
2.9800000000018643, -0.6467954731408719 
2.9900000000018854, -0.6438797815961317 
3.0000000000019065, -0.6420683957297812 
3.0100000000019276, -0.6410146187036665 
3.0200000000019487, -0.6404497406738965 
3.03000000000197, -0.6401803857454883 
3.040000000001991, -0.6400744518614297 
3.050000000002012, -0.6400447527289199 
3.060000000002033, -0.640034514832261 
3.070000000002054, -0.6400063040858962 
3.0800000000020753, -0.6399347803112617 
3.0900000000020964, -0.6398031877865632 
3.1000000000021175, -0.6396030486621127 
3.1100000000021386, -0.6393356449593567 
3.1200000000021597, -0.6390127435038716 
3.130000000002181, -0.6386538979240316 
3.140000000002202, -0.6382797840140952 
3.150000000002223, -0.6379043848307349 
3.160000000002244, -0.6375303993052001 
3.1700000000022652, -0.6371503763922087 
3.1800000000022863, -0.6367524353540367 
3.1900000000023074, -0.636327009143975 
3.2000000000023285, -0.6358714672439365 
3.2100000000023496, -0.6353918890491309 
3.2200000000023707, -0.63490341060831 
3.230000000002392, -0.6344310994264359 
3.240000000002413, -0.6340126277390613 
3.250000000002434, -0.6337031071080779 
3.260000000002455, -0.6335817861599515 
3.2700000000024763, -0.6337598189251923 
3.2800000000024974, -0.6343877298795595 
3.2900000000025185, -0.6356602282018955 
3.3000000000025396, -0.6378141484700278 
3.3100000000025607, -0.6411117697864246 
3.3200000000025818, -0.6457965678616104 
3.330000000002603, -0.6520057702618821 
3.340000000002624, -0.659638255183743 
3.350000000002645, -0.6682285281958713 
3.360000000002666, -0.6769520196607347 
3.3700000000026873, -0.684868020953555 
3.3800000000027084, -0.691294971191117 
3.3900000000027295, -0.6960259716053465 
3.4000000000027506, -0.6992464930607084 
3.4100000000027717, -0.7013077636309676 
3.420000000002793, -0.7025508175740647 
3.430000000002814, -0.7032348496112365 
3.440000000002835, -0.7035315198824137 
3.450000000002856, -0.703541550183229 
3.460000000002877, -0.7033112681650578 
3.4700000000028983, -0.7028417253517005 
3.4800000000029194, -0.7020888096504854 
3.4900000000029405, -0.700954105296759 
3.5000000000029616, -0.6992672899509402 
3.5100000000029827, -0.6967658177814445 
3.520000000003004, -0.6930920832068728 
3.530000000003025, -0.6878529525537329 
3.540000000003046, -0.6807934230923383 
3.550000000003067, -0.6720545158080017 
3.5600000000030882, -0.6623153806807991 
3.5700000000031094, -0.652603743140962 
3.5800000000031305, -0.6438709823114016 
3.5900000000031516, -0.6366764414723711 
3.6000000000031727, -0.6311531387867374 
3.6100000000031938, -0.6271493524352065 
3.620000000003215, -0.6243879433640183 
3.630000000003236, -0.6225726417556501 
3.640000000003257, -0.6214402972954506 
3.650000000003278, -0.6207787658575908 
3.6600000000032993, -0.6204272834201967 
3.6700000000033204, -0.6202693458591754 
3.6800000000033415, -0.6202232973903257 
3.6900000000033626, -0.6202332267283166 
3.7000000000033837, -0.6202614675072801 
3.710000000003405, -0.6202833218305053 
3.720000000003426, -0.6202841551861134 
3.730000000003447, -0.6202584241424457 
3.740000000003468, -0.6202093565743095 
3.750000000003489, -0.6201473092189091 
3.7600000000035103, -0.6200852472457443 
3.7700000000035314, -0.6200318397333506 
3.7800000000035525, -0.6199851776685127 
3.7900000000035736, -0.6199308769451073 
3.8000000000035947, -0.6198462245958236 
3.810000000003616, -0.6197082914315886 
3.820000000003637, -0.6195014787208497 
3.830000000003658, -0.6192209978746656 
3.840000000003679, -0.6188722439321902 
3.8500000000037002, -0.6184686728674911 
3.8600000000037213, -0.6180310337985983 
3.8700000000037424, -0.6175897149564356 
3.8800000000037635, -0.6171910682270079 
3.8900000000037847, -0.6169083222131289 
3.9000000000038058, -0.6168576401764169 
3.910000000003827, -0.6172192449920132 
3.920000000003848, -0.6182611966215986 
3.930000000003869, -0.620357505998495 
3.94000000000389, -0.6239801821117126 
3.9500000000039113, -0.6296262341116056 
3.9600000000039324, -0.6376300410234986 
3.9700000000039535, -0.6478591943478418 
3.9800000000039746, -0.6594577571918393 
3.9900000000039957, -0.6709704946285512 
4.000000000004016, -0.6809647195529093 
4.010000000003993, -0.688674221162145 
4.02000000000397, -0.6941090474631719 
4.030000000003946, -0.6977144066717492 
4.040000000003923, -0.700011454058011 
4.0500000000039, -0.7014236973758619 
4.0600000000038765, -0.7022451503466416 
4.070000000003853, -0.7026630199882669 
4.08000000000383, -0.7027875316834649 
4.090000000003807, -0.7026738005565326 
4.100000000003783, -0.7023337301296588 
4.11000000000376, -0.7017392074084451 
4.120000000003737, -0.7008183965744129 
4.130000000003713, -0.6994483408881094 
4.14000000000369, -0.6974519083633914 
4.150000000003667, -0.6946162245813023 
4.1600000000036434, -0.6907557935503135 
4.17000000000362, -0.6858239148933952 
4.180000000003597, -0.6800161994073756 
4.1900000000035735, -0.6737665528527736 
4.20000000000355, -0.6676052039241956 
4.210000000003527, -0.6619790835378334 
4.220000000003504, -0.6571540347415574 
4.23000000000348, -0.6532198011699186 
4.240000000003457, -0.6501454865856601 
4.250000000003434, -0.6478361645385606 
4.26000000000341, -0.6461718205868945 
4.270000000003387, -0.6450294465964339 
4.280000000003364, -0.6442944118680443 
4.2900000000033405, -0.643866019451501 
4.300000000003317, -0.6436598682361556 
4.310000000003294, -0.643608180800664 
4.320000000003271, -0.643658733499649 
4.330000000003247, -0.643773004190132 
4.340000000003224, -0.6439242016120384 
4.350000000003201, -0.6440956784943124 
4.360000000003177, -0.6442797291592688 
4.370000000003154, -0.6444760246014878 
4.380000000003131, -0.6446884358331592 
4.390000000003107, -0.6449195262100714 
4.400000000003084, -0.6451638473737735 
4.410000000003061, -0.6454032925770574 
4.4200000000030375, -0.645608095343278 
4.430000000003014, -0.645744299178854 
4.440000000002991, -0.6457840496919178 
4.450000000002968, -0.6457128722574241 
4.460000000002944, -0.6455307168595479 
4.470000000002921, -0.6452483421772507 
4.480000000002898, -0.6448830663816203 
4.490000000002874, -0.6444571372015171 
4.500000000002851, -0.6440002522045943 
4.510000000002828, -0.6435569005198675 
4.520000000002804, -0.643199272472177 
4.530000000002781, -0.6430466695690656 
4.540000000002758, -0.6432915454720732 
4.5500000000027345, -0.6442289697726171 
4.560000000002711, -0.646277984771913 
4.570000000002688, -0.6499672262674572 
4.580000000002665, -0.6558355330909047 
4.590000000002641, -0.6641954674895482 
4.600000000002618, -0.6747890634970765 
4.610000000002595, -0.6865713674445131 
4.620000000002571, -0.6979748493835338 
4.630000000002548, -0.7076298918207984 
4.640000000002525, -0.714933222090778 
4.6500000000025015, -0.720018314008035 
4.660000000002478, -0.7233688697554295 
4.670000000002455, -0.7254936679784871 
4.6800000000024315, -0.7267909596872958 
4.690000000002408, -0.7275331410622783 
4.700000000002385, -0.7278921752563419 
4.710000000002362, -0.7279676417806702 
4.720000000002338, -0.7278062283212428 
4.730000000002315, -0.7274114631903086 
4.740000000002292, -0.7267447599952535 
4.750000000002268, -0.7257192314835328 
4.760000000002245, -0.7241894653817176 
4.770000000002222, -0.721946364043771 
4.7800000000021985, -0.7187374842752672 
4.790000000002175, -0.7143414831598458 
4.800000000002152, -0.70870230400146 
4.810000000002129, -0.702055271215071 
4.820000000002105, -0.6949225071949984 
4.830000000002082, -0.6879397169380201 
4.840000000002059, -0.6816375111473587 
4.850000000002035, -0.6763232126425106 
4.860000000002012, -0.6720878183616971 
4.870000000001989, -0.66887424432396 
4.880000000001965, -0.6665474608557981 
4.890000000001942, -0.6649439193541928 
4.900000000001919, -0.6639007656847883 
4.9100000000018955, -0.663271379185814 
4.920000000001872, -0.6629325021078247 
