t, s[1].omega / s[0].omega 
0, -0.5399977479240556 
0.009999999999999995, -0.5398062693695473 
0.019999999999999934, -0.5396692501292929 
0.029999999999999874, -0.539554712959229 
0.04000000000000012, -0.5394230639464899 
0.050000000000000405, -0.5392402897164581 
0.06000000000000069, -0.5389862328032626 
0.07000000000000098, -0.538655927351032 
0.08000000000000126, -0.5382567684584864 
0.09000000000000155, -0.5378059862283107 
0.10000000000000184, -0.5373318397339687 
0.11000000000000212, -0.5368807400156548 
0.12000000000000241, -0.5365327015813008 
0.130000000000002, -0.5364291394862488 
0.1400000000000009, -0.5368193483115964 
0.1499999999999998, -0.5381330193393022 
0.1599999999999987, -0.5410792298899498 
0.1699999999999976, -0.5467383539098561 
0.1799999999999965, -0.556514597290367 
0.1899999999999954, -0.5716481107826195 
0.1999999999999943, -0.5920235571223508 
0.2099999999999932, -0.6149779727956808 
0.2199999999999921, -0.6361372974419374 
0.229999999999991, -0.6523995068326379 
0.2399999999999899, -0.6634794592336959 
0.2499999999999888, -0.6706726046099379 
0.2599999999999877, -0.6753284896883025 
0.2699999999999866, -0.678364426624014 
0.2799999999999855, -0.6803404731433906 
0.2899999999999844, -0.6816010967144766 
0.2999999999999833, -0.6823627756861507 
0.3099999999999822, -0.6827597083472415 
0.3199999999999811, -0.682867884649115 
0.32999999999998, -0.6827174067553424 
0.3399999999999789, -0.6822971568849491 
0.3499999999999778, -0.6815544912603408 
0.35999999999997667, -0.6803943753593483 
0.36999999999997557, -0.678687198947764 
0.37999999999997447, -0.6762997775658547 
0.38999999999997337, -0.6731586913820999 
0.39999999999997227, -0.6693249854788357 
0.40999999999997117, -0.6650215163728775 
0.41999999999997006, -0.6605706855575534 
0.42999999999996896, -0.6562810388362157 
0.43999999999996786, -0.6523654067498839 
0.44999999999996676, -0.6489270031533293 
0.45999999999996566, -0.6459894936754941 
0.46999999999996456, -0.6435346844511944 
0.47999999999996346, -0.6415292037465533 
0.48999999999996235, -0.6399378308534031 
0.49999999999996125, -0.638727608512369 
0.5099999999999602, -0.6378674199294041 
0.519999999999959, -0.6373263685916359 
0.529999999999958, -0.6370728325974209 
0.5399999999999568, -0.6370749139223633 
0.5499999999999557, -0.6373022066672475 
0.5599999999999546, -0.6377283605401223 
0.5699999999999535, -0.6383337597507046 
0.5799999999999524, -0.6391075841246933 
0.5899999999999513, -0.6400482939889802 
0.5999999999999502, -0.6411610760370412 
0.6099999999999491, -0.642450419612097 
0.619999999999948, -0.6439068431619408 
0.6299999999999469, -0.6454901597092025 
0.6399999999999458, -0.6471175860306548 
0.6499999999999447, -0.648669283007703 
0.6599999999999436, -0.6500176031991379 
0.6699999999999425, -0.6510671665845349 
0.6799999999999414, -0.6517795132988513 
0.6899999999999403, -0.6521683382493709 
0.6999999999999392, -0.6522756316583702 
0.7099999999999381, -0.6521476163527107 
0.719999999999937, -0.6518205914428264 
0.7299999999999359, -0.6513168617737082 
0.7399999999999348, -0.6506479352996025 
0.7499999999999337, -0.6498241937654351 
0.7599999999999326, -0.6488740407902036 
0.7699999999999315, -0.6478794397943842 
0.7799999999999304, -0.6470361768513391 
0.7899999999999293, -0.646736989617949 
0.7999999999999282, -0.6476312502192403 
0.8099999999999271, -0.6505124403587769 
0.819999999999926, -0.655808387725936 
0.8299999999999249, -0.6627913531838838 
0.8399999999999238, -0.6695578611616994 
0.8499999999999227, -0.6745534987548555 
0.8599999999999216, -0.6778247576971836 
0.8699999999999205, -0.6802664349934828 
0.8799999999999194, -0.6824424724299033 
0.8899999999999183, -0.6844194772103536 
0.8999999999999172, -0.6860950904956273 
0.9099999999999161, -0.6874042285140017 
0.919999999999915, -0.688350522854021 
0.9299999999999139, -0.6889750353361748 
0.9399999999999128, -0.6893246756621039 
0.9499999999999117, -0.6894336201420883 
0.9599999999999106, -0.6893140338814552 
0.9699999999999095, -0.6889508777935804 
0.9799999999999084, -0.6882984183257125 
0.9899999999999073, -0.6872801581342391 
0.9999999999999062, -0.68579877892685 
1.0099999999999052, -0.6837653813528364 
1.019999999999904, -0.6811493183881463 
1.029999999999903, -0.6780259533070649 
1.039999999999902, -0.6745809072438931 
1.0499999999999008, -0.6710541367444135 
1.0599999999998997, -0.6676614787729047 
1.0699999999998986, -0.6645465167256457 
1.0799999999998975, -0.6617781591330278 
1.0899999999998964, -0.6593741668707496 
1.0999999999998953, -0.6573272778514918 
1.1099999999998942, -0.6556228289574879 
1.119999999999893, -0.6542468582871654 
1.129999999999892, -0.6531876513305088 
1.1399999999998909, -0.6524340638524024 
1.1499999999998898, -0.6519731366030758 
1.1599999999998887, -0.651788571865989 
1.1699999999998876, -0.6518608080767694 
1.1799999999998865, -0.6521687240599279 
1.1899999999998854, -0.6526924766575942 
1.1999999999998843, -0.6534166622229793 
1.2099999999998832, -0.6543327985701072 
1.219999999999882, -0.6554398369481753 
1.229999999999881, -0.6567409658505718 
1.2399999999998799, -0.6582348375867417 
1.2499999999998788, -0.6599007350442812 
1.2599999999998777, -0.6616814618528231 
1.2699999999998766, -0.6634743399136063 
1.2799999999998755, -0.6651436546923463 
1.2899999999998744, -0.6665572958094145 
1.2999999999998733, -0.6676283808318586 
1.3099999999998722, -0.6683338719616827 
1.319999999999871, -0.6687017800179113 
1.32999999999987, -0.6687830977722219 
1.3399999999998689, -0.668627893047553 
1.3499999999998678, -0.6682732165387112 
1.3599999999998666, -0.6677412561495376 
1.3699999999998655, -0.6670447796172716 
1.3799999999998644, -0.6661999943666188 
1.3899999999998633, -0.6652514421329694 
1.3999999999998622, -0.6643180269992287 
1.4099999999998611, -0.663670556984751 
1.41999999999986, -0.6638378881432099 
1.429999999999859, -0.6656842129711182 
1.4399999999998578, -0.6702800235974892 
1.4499999999998567, -0.6783084352506306 
1.4599999999998556, -0.6891360603814273 
1.4699999999998545, -0.700658274341621 
1.4799999999998534, -0.7107426772161822 
1.4899999999998523, -0.718623192610079 
1.4999999999998512, -0.7245878778132502 
1.5099999999998501, -0.7290822602949008 
1.519999999999849, -0.7324074015303159 
1.529999999999848, -0.73478486986267 
1.5399999999998468, -0.7364139692123093 
1.5499999999998457, -0.7374709999167903 
1.5599999999998446, -0.7380955389066688 
1.5699999999998435, -0.7383840714470655 
1.5799999999998424, -0.7383899254879563 
1.5899999999998413, -0.7381239413102136 
1.5999999999998402, -0.7375520571706471 
1.6099999999998391, -0.7365890185268571 
1.619999999999838, -0.735092152927542 
1.629999999999837, -0.7328675957255832 
1.6399999999998358, -0.7297110110020236 
1.6499999999998347, -0.7254990199989841 
1.6599999999998336, -0.7203021928296176 
1.6699999999998325, -0.7144302810737057 
1.6799999999998314, -0.708343847378914 
1.6899999999998303, -0.7024897763233524 
1.6999999999998292, -0.6971828147244061 
1.709999999999828, -0.6925838328569869 
1.719999999999827, -0.6887385469538511 
1.729999999999826, -0.6856258909119688 
1.7399999999998248, -0.6831917557445332 
1.7499999999998237, -0.6813662985836257 
1.7599999999998226, -0.6800712210719835 
1.7699999999998215, -0.6792233442484015 
1.7799999999998204, -0.6787381201659259 
1.7899999999998193, -0.6785340352870234 
1.7999999999998182, -0.6785371785497588 
1.809999999999817, -0.6786848279133746 
1.819999999999816, -0.6789274486151615 
1.8299999999998149, -0.6792293041922994 
1.8399999999998138, -0.679568245999473 
1.8499999999998127, -0.6799347916529618 
1.8599999999998116, -0.6803295756903408 
1.8699999999998105, -0.680757682812819 
1.8799999999998094, -0.6812195265219035 
1.8899999999998083, -0.6817009176984786 
1.8999999999998072, -0.6821678168244596 
1.909999999999806, -0.6825708754940265 
1.919999999999805, -0.6828594961128264 
1.9299999999998039, -0.682997809314277 
1.9399999999998028, -0.6829731354634075 
1.9499999999998017, -0.6827940667376948 
1.9599999999998006, -0.6824832651943845 
1.9699999999997995, -0.6820721292325962 
1.9799999999997984, -0.681601756160765 
1.9899999999997973, -0.6811319375707423 
1.9999999999997962, -0.6807592130502627 
2.0099999999998173, -0.6806452116924394 
2.0199999999998384, -0.681055750282541 
2.0299999999998595, -0.6824076278595178 
2.0399999999998806, -0.6853117923096602 
2.0499999999999017, -0.6905857646478135 
2.059999999999923, -0.6991816757089563 
2.069999999999944, -0.7119445687892496 
2.079999999999965, -0.7291272093557405 
2.089999999999986, -0.7497711523943311 
2.100000000000007, -0.77147371577785 
2.1100000000000283, -0.7911817838836556 
2.1200000000000494, -0.8066986186895118 
2.1300000000000705, -0.8175287041175269 
2.1400000000000916, -0.8244493942391209 
2.1500000000001127, -0.8286185494084597 
2.160000000000134, -0.8310205163004152 
2.170000000000155, -0.8323257429605343 
2.180000000000176, -0.8329405274164013 
2.190000000000197, -0.8330896810655826 
2.2000000000002182, -0.8328777139357987 
2.2100000000002393, -0.8323211161890857 
2.2200000000002604, -0.8313552255756989 
2.2300000000002815, -0.8298173116389547 
2.2400000000003026, -0.8274031328990621 
2.2500000000003237, -0.8235926839604291 
2.260000000000345, -0.817552291618488 
2.270000000000366, -0.8080707252591763 
2.280000000000387, -0.7937152431088365 
2.290000000000408, -0.7735394326221712 
2.3000000000004293, -0.7483860530813525 
2.3100000000004504, -0.7216333937814563 
2.3200000000004715, -0.6977741404666955 
2.3300000000004926, -0.6797765045950898 
2.3400000000005137, -0.6680209563654962 
2.3500000000005348, -0.661226068434358 
2.360000000000556, -0.6577289058094923 
2.370000000000577, -0.6561665279495796 
2.380000000000598, -0.6556250491895019 
2.390000000000619, -0.6555595717447147 
2.4000000000006403, -0.6556701879011905 
2.4100000000006614, -0.6558008136107254 
2.4200000000006825, -0.6558716478846042 
2.4300000000007036, -0.6558384039086774 
2.4400000000007247, -0.6556694277583403 
2.450000000000746, -0.6553345892094489 
2.460000000000767, -0.6548032544152904 
2.470000000000788, -0.6540507468837518 
2.480000000000809, -0.6530715392964137 
2.49000000000083, -0.6518923718142591 
2.5000000000008513, -0.6505742613452433 
2.5100000000008724, -0.6491974136103409 
2.5200000000008935, -0.6478366294341675 
2.5300000000009146, -0.6465425209191425 
2.5400000000009357, -0.6453374010557125 
2.550000000000957, -0.6442233346305251 
2.560000000000978, -0.6431945558640262 
2.570000000000999, -0.6422480049282472 
2.58000000000102, -0.6413896523672504 
2.5900000000010412, -0.6406372197111032 
2.6000000000010624, -0.6400208390638048 
2.6100000000010835, -0.6395827318342967 
2.6200000000011046, -0.6393762511926863 
2.6300000000011257, -0.6394643261749715 
2.6400000000011468, -0.6399175238186876 
2.650000000001168, -0.640812262523207 
2.660000000001189, -0.6422296985344357 
2.67000000000121, -0.6442550692185947 
2.680000000001231, -0.6469755628174217 
2.6900000000012523, -0.6504720635490405 
2.7000000000012734, -0.6547970483096509 
2.7100000000012945, -0.6599304554011004 
2.7200000000013156, -0.6657152591434989 
2.7300000000013367, -0.6718039798659843 
2.740000000001358, -0.6776831180859024 
2.750000000001379, -0.6828215870115696 
2.7600000000014, -0.6868719954212474 
2.770000000001421, -0.6897683683084177 
2.780000000001442, -0.6916611434750841 
2.7900000000014633, -0.6927820644935694 
2.8000000000014844, -0.6933435734819271 
2.8100000000015055, -0.6934981720659817 
2.8200000000015266, -0.6933342549027873 
2.8300000000015477, -0.6928826004623845 
2.840000000001569, -0.6921193013250325 
2.85000000000159, -0.6909584203416406 
2.860000000001611, -0.6892289933797127 
2.870000000001632, -0.6866281151183535 
2.8800000000016532, -0.6826375406345571 
2.8900000000016743, -0.6763966314315495 
2.9000000000016954, -0.6665832467324506 
2.9100000000017165, -0.6515568396095559 
2.9200000000017377, -0.6302798592462401 
2.9300000000017588, -0.6039881369058586 
2.94000000000178, -0.5767026153785645 
2.950000000001801, -0.5529399089466271 
2.960000000001822, -0.5350256762233176 
2.970000000001843, -0.5228342516603812 
2.9800000000018643, -0.515075781300288 
2.9900000000018854, -0.5103555578205263 
3.0000000000019065, -0.507583803090099 
3.0100000000019276, -0.5060148821206925 
3.0200000000019487, -0.5051698330189112 
3.03000000000197, -0.5047506532273905 
3.040000000001991, -0.5045750359107356 
3.050000000002012, -0.5045324975227959 
3.060000000002033, -0.504556604273882 
3.070000000002054, -0.5046082903191942 
3.0800000000020753, -0.5046667633821174 
3.0900000000020964, -0.5047256032493412 
3.1000000000021175, -0.504791894351715 
3.1100000000021386, -0.5048856931344328 
3.1200000000021597, -0.5050366995655191 
3.130000000002181, -0.505276008854159 
3.140000000002202, -0.5056235888241676 
3.150000000002223, -0.5060753352826575 
3.160000000002244, -0.5065957324199768 
3.1700000000022652, -0.5071220539268199 
3.1800000000022863, -0.5075813527766833 
3.1900000000023074, -0.5079125304397715 
3.2000000000023285, -0.508080745328153 
3.2100000000023496, -0.5080775030977729 
3.2200000000023707, -0.5079105425772832 
3.230000000002392, -0.5075918686647923 
3.240000000002413, -0.5071290569702591 
3.250000000002434, -0.506520435567287 
3.260000000002455, -0.5057524346744982 
3.2700000000024763, -0.5047965064294105 
3.2800000000024974, -0.5036009566021729 
3.2900000000025185, -0.5020656393450799 
3.3000000000025396, -0.4999673265945944 
3.3100000000025607, -0.49676603484153564 
3.3200000000025818, -0.49122051466884376 
3.330000000002603, -0.48104103892892824 
3.340000000002624, -0.4636991057343369 
3.350000000002645, -0.43935095688693 
3.360000000002666, -0.4126666792232229 
3.3700000000026873, -0.3894249324533189 
3.3800000000027084, -0.3722929761324019 
3.3900000000027295, -0.3608464727560644 
3.4000000000027506, -0.35355320996099193 
3.4100000000027717, -0.34899004312068554 
3.420000000002793, -0.3461507412053242 
3.430000000002814, -0.34439272993315206 
3.440000000002835, -0.34332150778602827 
3.450000000002856, -0.3426986022350467 
3.460000000002877, -0.3423817977244314 
3.4700000000028983, -0.34228927578813956 
3.4800000000029194, -0.3423791978841907 
3.4900000000029405, -0.3426390352000777 
3.5000000000029616, -0.3430812110485756 
3.5100000000029827, -0.3437428729265789 
3.520000000003004, -0.34468789772212693 
3.530000000003025, -0.3460085335936638 
3.540000000003046, -0.34782206846413094 
3.550000000003067, -0.3502540815792821 
3.5600000000030882, -0.3533956525460661 
3.5700000000031094, -0.35722692649917265 
3.5800000000031305, -0.3615328912927389 
3.5900000000031516, -0.36589355306003235 
3.6000000000031727, -0.3698215418169592 
3.6100000000031938, -0.372974157018622 
3.620000000003215, -0.37525915137423416 
3.630000000003236, -0.3767753218959144 
3.640000000003257, -0.3776916203503534 
3.650000000003278, -0.37816281624573067 
3.6600000000032993, -0.3782973999758233 
3.6700000000033204, -0.37815431682416617 
3.6800000000033415, -0.3777479472430415 
3.6900000000033626, -0.3770526632834661 
3.7000000000033837, -0.37600716856043526 
3.710000000003405, -0.37452550333096535 
3.720000000003426, -0.3725264258045119 
3.730000000003447, -0.36998802930777525 
3.740000000003468, -0.3670077564487072 
3.750000000003489, -0.36381416357725044 
3.7600000000035103, -0.36069486978431375 
3.7700000000035314, -0.35788612655303753 
3.7800000000035525, -0.3555079662359078 
3.7900000000035736, -0.3535713396288441 
3.8000000000035947, -0.35202166806855406 
3.810000000003616, -0.3507805611466714 
3.820000000003637, -0.34977201415030335 
3.830000000003658, -0.3489349509096845 
3.840000000003679, -0.3482274160697928 
3.8500000000037002, -0.3476268369038428 
3.8600000000037213, -0.3471296134471419 
3.8700000000037424, -0.3467525247957056 
3.8800000000037635, -0.3465381264686599 
3.8900000000037847, -0.34656671495417984 
3.9000000000038058, -0.3469788014097717 
3.910000000003827, -0.3480142997037127 
3.920000000003848, -0.3500763113537241 
3.930000000003869, -0.35382117233413357 
3.94000000000389, -0.36023593494634876 
3.9500000000039113, -0.3705230947251056 
3.9600000000039324, -0.3853275951248131 
3.9700000000039535, -0.40292550125978555 
3.9800000000039746, -0.4180714230715236 
3.9900000000039957, -0.4254383322376013 
4.000000000004016, -0.4250263541978271 
4.010000000003993, -0.42103186901278444 
4.02000000000397, -0.41696254999264887 
4.030000000003946, -0.41407239044088956 
4.040000000003923, -0.4123404493610477 
4.0500000000039, -0.41141088291374006 
4.0600000000038765, -0.4109622184848843 
4.070000000003853, -0.4107775672358108 
4.08000000000383, -0.41072575713835124 
4.090000000003807, -0.41073121600822277 
4.100000000003783, -0.41075141633652407 
4.11000000000376, -0.41076314978947864 
4.120000000003737, -0.41075554096163247 
4.130000000003713, -0.4107278436871968 
4.14000000000369, -0.41069033232438523 
4.150000000003667, -0.4106661524823302 
4.1600000000036434, -0.4106912201936125 
4.17000000000362, -0.41080941084342026 
4.180000000003597, -0.4110621781593311 
4.1900000000035735, -0.4114744182386104 
4.20000000000355, -0.4120404607206951 
4.210000000003527, -0.41271594042585635 
4.220000000003504, -0.4134225405279091 
4.23000000000348, -0.4140684160561733 
4.240000000003457, -0.41457568204920914 
4.250000000003434, -0.41489866773693274 
4.26000000000341, -0.4150238825232864 
4.270000000003387, -0.4149566642228343 
4.280000000003364, -0.41470481209349586 
4.2900000000033405, -0.41426485261133666 
4.300000000003317, -0.41361011222790245 
4.310000000003294, -0.4126757031101424 
4.320000000003271, -0.41133264441397754 
4.330000000003247, -0.4093397530232963 
4.340000000003224, -0.40626068483102823 
4.350000000003201, -0.40135524536092787 
4.360000000003177, -0.39355625929459315 
4.370000000003154, -0.3818501550200931 
4.380000000003131, -0.3663012086108413 
4.390000000003107, -0.348869749840816 
4.400000000003084, -0.3324903816530606 
4.410000000003061, -0.3191593298296728 
4.4200000000030375, -0.3092751638646296 
4.430000000003014, -0.30228809138732105 
4.440000000002991, -0.29743066696679366 
4.450000000002968, -0.29405298857464374 
4.460000000002944, -0.29168971795111637 
4.470000000002921, -0.290031442959664 
4.480000000002898, -0.2888811409904807 
4.490000000002874, -0.2881195959406801 
4.500000000002851, -0.28768292654149163 
4.510000000002828, -0.28755038780257147 
4.520000000002804, -0.2877406042342212 
4.530000000002781, -0.2883156822497185 
4.540000000002758, -0.28939427634369985 
4.5500000000027345, -0.2911764347622528 
4.560000000002711, -0.2939843087897832 
4.570000000002688, -0.29832060090015705 
4.580000000002665, -0.3049305494144806 
4.590000000002641, -0.31479662730749525 
4.600000000002618, -0.3288664409089913 
4.610000000002595, -0.34722514244176556 
4.620000000002571, -0.3679517072843291 
4.630000000002548, -0.3872760454432007 
4.640000000002525, -0.40203572998571985 
4.6500000000025015, -0.41165451525924296 
4.660000000002478, -0.4173805469378554 
4.670000000002455, -0.42069470852206187 
4.6800000000024315, -0.4226274172377692 
4.690000000002408, -0.4237685805598397 
4.700000000002385, -0.42443375211390394 
4.710000000002362, -0.42478923465617957 
4.720000000002338, -0.4249214056460178 
4.730000000002315, -0.4248717973534837 
4.740000000002292, -0.4246552403197862 
4.750000000002268, -0.4242712988303993 
4.760000000002245, -0.42371501706223136 
4.770000000002222, -0.4229898491117611 
4.7800000000021985, -0.4221211623519726 
4.790000000002175, -0.4211633464656096 
4.800000000002152, -0.4201927893425362 
4.810000000002129, -0.41928735211568285 
4.820000000002105, -0.4185036718465521 
4.830000000002082, -0.4178643716720535 
4.840000000002059, -0.41735857116378555 
4.850000000002035, -0.4169518190338291 
4.860000000002012, -0.4165999265394448 
4.870000000001989, -0.4162617854454343 
4.880000000001965, -0.4159074452883174 
4.890000000001942, -0.41552031555835145 
4.900000000001919, -0.41509537119898604 
