t, s[1].omega / s[0].omega 
0, -0.9499980388218784 
0.009999999999999995, -0.949738564572561 
0.019999999999999934, -0.9493450225557905 
0.029999999999999874, -0.9488072587944634 
0.04000000000000012, -0.9481430998414434 
0.050000000000000405, -0.9474162540258867 
0.06000000000000069, -0.9467348219101273 
0.07000000000000098, -0.9462276260810467 
0.08000000000000126, -0.9459998577714532 
0.09000000000000155, -0.9460935475086615 
0.10000000000000184, -0.9464788854908637 
0.11000000000000212, -0.9470718258083693 
0.12000000000000241, -0.9477647947107941 
0.130000000000002, -0.9484611715506645 
0.1400000000000009, -0.9490980823604181 
0.1499999999999998, -0.9496453601054674 
0.1599999999999987, -0.9500824041161384 
0.1699999999999976, -0.9503725703014501 
0.1799999999999965, -0.9504646082836561 
0.1899999999999954, -0.9503257627864646 
0.1999999999999943, -0.9499729238300518 
0.2099999999999932, -0.9494791143714467 
0.2199999999999921, -0.9489695977561089 
0.229999999999991, -0.9486115050965515 
0.2399999999999899, -0.9485711992750208 
0.2499999999999888, -0.9489435483500833 
0.2599999999999877, -0.9497145867622134 
0.2699999999999866, -0.9507895787695928 
0.2799999999999855, -0.9520468744797017 
0.2899999999999844, -0.9533781030809494 
0.2999999999999833, -0.9547048108306445 
0.3099999999999822, -0.9559687582532075 
0.3199999999999811, -0.9571024653025133 
0.32999999999998, -0.9580101670788773 
0.3399999999999789, -0.9585944578456633 
0.3499999999999778, -0.9588132740401653 
0.35999999999997667, -0.9587046071218305 
0.36999999999997557, -0.958366533734685 
0.37999999999997447, -0.9579436582418884 
0.38999999999997337, -0.9576388983151666 
0.39999999999997227, -0.9576987518845322 
0.40999999999997117, -0.9583208677547522 
0.41999999999997006, -0.9595473123442303 
0.42999999999996896, -0.9612642069346522 
0.43999999999996786, -0.9632946265615582 
0.44999999999996676, -0.9654784792371452 
0.45999999999996566, -0.9676937931867814 
0.46999999999996456, -0.9698322595295502 
0.47999999999996346, -0.9717588754751914 
0.48999999999996235, -0.9733064093696859 
0.49999999999996125, -0.9743411312820514 
0.5099999999999602, -0.9748419130327954 
0.519999999999959, -0.97489781001009 
0.529999999999958, -0.9746483030360215 
0.5399999999999568, -0.9742600831337355 
0.5499999999999557, -0.9739628258418238 
0.5599999999999546, -0.9740715150116411 
0.5699999999999535, -0.9748909939332597 
0.5799999999999524, -0.9765357490118706 
0.5899999999999513, -0.9788727316555682 
0.5999999999999502, -0.9816478683627313 
0.6099999999999491, -0.9846241285779157 
0.619999999999948, -0.987618970183084 
0.6299999999999469, -0.9904657135133061 
0.6399999999999458, -0.9929654961997114 
0.6499999999999447, -0.9949046471471893 
0.6599999999999436, -0.9961561592730185 
0.6699999999999425, -0.9967537672600963 
0.6799999999999414, -0.9968449236377489 
0.6899999999999403, -0.9966043644964926 
0.6999999999999392, -0.9962188166800714 
0.7099999999999381, -0.9959439127517145 
0.719999999999937, -0.9961364988720455 
0.7299999999999359, -0.9971339806418825 
0.7399999999999348, -0.9990338607167832 
0.7499999999999337, -1.0016445846893365 
0.7599999999999326, -1.0046577392332279 
0.7699999999999315, -1.0078068606715116 
0.7799999999999304, -1.0108949282080715 
0.7899999999999293, -1.013743986718323 
0.7999999999999282, -1.0161522862134116 
0.8099999999999271, -1.0179301558928087 
0.819999999999926, -1.019001254263792 
0.8299999999999249, -1.0194440471454391 
0.8399999999999238, -1.019423202635764 
0.8499999999999227, -1.0191176801637172 
0.8599999999999216, -1.018729515623057 
0.8699999999999205, -1.0185397743071205 
0.8799999999999194, -1.018890442259289 
0.8899999999999183, -1.0200110021108753 
0.8999999999999172, -1.0218573231168842 
0.9099999999999161, -1.024179845752468 
0.919999999999915, -1.0267064694184296 
0.9299999999999139, -1.0292357930386686 
0.9399999999999128, -1.0316265001840523 
0.9499999999999117, -1.033749325040444 
0.9599999999999106, -1.0354599407812777 
0.9699999999999095, -1.0366353588268555 
0.9799999999999084, -1.0372457433309494 
0.9899999999999073, -1.0373709793894499 
0.9999999999999062, -1.0371510360244423 
1.0099999999999052, -1.0367533906264152 
1.019999999999904, -1.0363933962315313 
1.029999999999903, -1.0363397417204303 
1.039999999999902, -1.0368143463892372 
1.0499999999999008, -1.037852339123553 
1.0599999999998997, -1.0393039145989376 
1.0699999999998986, -1.0409607272550705 
1.0799999999998975, -1.042649720055663 
1.0899999999998964, -1.044253598747744 
1.0999999999998953, -1.04569280259506 
1.1099999999998942, -1.0468944073730544 
1.119999999999893, -1.047776492711117 
1.129999999999892, -1.0482733294440465 
1.1399999999998909, -1.0483789863752921 
1.1499999999998898, -1.0481584083551578 
1.1599999999998887, -1.0477291524923582 
1.1699999999998876, -1.0472547285556684 
1.1799999999998865, -1.046937742526314 
1.1899999999998854, -1.0469573836178998 
1.1999999999998843, -1.0473759404145633 
1.2099999999998832, -1.0481232882700595 
1.219999999999882, -1.0490635542389457 
1.229999999999881, -1.0500567112193382 
1.2399999999998799, -1.0509901246703333 
1.2499999999998788, -1.0517911709806695 
1.2599999999998777, -1.0524191898552693 
1.2699999999998766, -1.0528425658189111 
1.2799999999998755, -1.0530245343495972 
1.2899999999998744, -1.052937195965439 
1.2999999999998733, -1.0525900986982486 
1.3099999999998722, -1.0520452293616762 
1.319999999999871, -1.0514164343808348 
1.32999999999987, -1.050856016758546 
1.3399999999998689, -1.0505104039922881 
1.3499999999998678, -1.0504592295057817 
1.3599999999998666, -1.050693476888586 
1.3699999999998655, -1.0511352257408146 
1.3799999999998644, -1.0516652598026783 
1.3899999999998633, -1.052158437037954 
1.3999999999998622, -1.05251966582671 
1.4099999999998611, -1.05269914720521 
1.41999999999986, -1.0526835175763145 
1.429999999999859, -1.0524728629516402 
1.4399999999998578, -1.0520637722489299 
1.4499999999998567, -1.0514564933483443 
1.4599999999998556, -1.050678385115949 
1.4699999999998545, -1.0498013478028165 
1.4799999999998534, -1.0489396133654512 
1.4899999999998523, -1.048222204880399 
1.4999999999998512, -1.0477519109147604 
1.5099999999998501, -1.0475749874686566 
1.519999999999849, -1.0476610676117795 
1.529999999999848, -1.0479000611339924 
1.5399999999998468, -1.0481421770018753 
1.5499999999998457, -1.0482544668011926 
1.5599999999998446, -1.0481505088542666 
1.5699999999998435, -1.0477964004518365 
1.5799999999998424, -1.047202616538211 
1.5899999999998413, -1.046399483582643 
1.5999999999998402, -1.0454142486913074 
1.6099999999998391, -1.0442739338918403 
1.619999999999838, -1.043027777945317 
1.629999999999837, -1.0417638136196394 
1.6399999999998358, -1.0406038796935664 
1.6499999999998347, -1.039679841880177 
1.6599999999998336, -1.0390957972853552 
1.6699999999998325, -1.0388716259741242 
1.6799999999998314, -1.0389056028232988 
1.6899999999998303, -1.0390173197569128 
1.6999999999998292, -1.0390299167727144 
1.709999999999828, -1.0388105139912391 
1.719999999999827, -1.0382765454742884 
1.729999999999826, -1.037405195954456 
1.7399999999998248, -1.03623319180485 
1.7499999999998237, -1.0348255864472318 
1.7599999999998226, -1.0332424093473098 
1.7699999999998215, -1.031539193036962 
1.7799999999998204, -1.029791995943685 
1.7899999999998193, -1.0281171197827779 
1.7999999999998182, -1.026669740891131 
1.809999999999817, -1.0256108041951064 
1.819999999999816, -1.0250269660355436 
1.8299999999998149, -1.024849090777006 
1.8399999999998138, -1.0248759388682058 
1.8499999999998127, -1.0248846660938402 
1.8599999999998116, -1.024698325110449 
1.8699999999998105, -1.0241861910983965 
1.8799999999998094, -1.023265281810317 
1.8899999999998083, -1.0219269682710665 
1.8999999999998072, -1.0202405844381583 
1.909999999999806, -1.0183075929137517 
1.919999999999805, -1.0162180534071055 
1.9299999999998039, -1.0140537739503517 
1.9399999999998028, -1.0119197025860307 
1.9499999999998017, -1.0099675692892496 
1.9599999999998006, -1.0083872553548021 
1.9699999999997995, -1.007339710096509 
1.9799999999997984, -1.006843765189767 
1.9899999999997973, -1.0067330469232552 
1.9999999999997962, -1.0067544685636052 
2.0099999999998173, -1.0066854361643793 
2.0199999999998384, -1.0063607153598924 
2.0299999999998595, -1.0056551023211544 
2.0399999999998806, -1.0044961189525392 
2.0499999999999017, -1.0029004580732153 
2.059999999999923, -1.0009673004791555 
2.069999999999944, -0.9988179418674675 
2.079999999999965, -0.9965529542646857 
2.089999999999986, -0.9942636352958977 
2.100000000000007, -0.9920666828651324 
2.1100000000000283, -0.990123574447467 
2.1200000000000494, -0.9886194017625755 
2.1300000000000705, -0.9876817744751814 
2.1400000000000916, -0.9872788912802879 
2.1500000000001127, -0.9872144224455093 
2.160000000000134, -0.9872399505453455 
2.170000000000155, -0.9871510202699728 
2.180000000000176, -0.986798838170315 
2.190000000000197, -0.9860775836248169 
2.2000000000002182, -0.9849430250288569 
2.2100000000002393, -0.9834379931034993 
2.2200000000002604, -0.9816673679105625 
2.2300000000002815, -0.9797380052134154 
2.2400000000003026, -0.9777315906725317 
2.2500000000003237, -0.975724923339462 
2.260000000000345, -0.9738202967874328 
2.270000000000366, -0.9721553007923478 
2.280000000000387, -0.9708796894060204 
2.290000000000408, -0.9700924685032579 
2.3000000000004293, -0.9697665480484323 
2.3100000000004504, -0.9697412460432161 
2.3200000000004715, -0.9698048392927489 
2.3300000000004926, -0.9697760548714329 
2.3400000000005137, -0.9695259287840704 
2.3500000000005348, -0.9689763686317977 
2.360000000000556, -0.9681119755880835 
2.370000000000577, -0.9669830240551076 
2.380000000000598, -0.9656701599223672 
2.390000000000619, -0.9642408706329122 
2.4000000000006403, -0.9627431236016211 
2.4100000000006614, -0.9612307618374819 
2.4200000000006825, -0.9597862237658384 
2.4300000000007036, -0.9585201394994742 
2.4400000000007247, -0.9575480547522185 
2.450000000000746, -0.9569503240845967 
2.460000000000767, -0.9567253845837687 
2.470000000000788, -0.9567717991443921 
2.480000000000809, -0.9569294583456954 
2.49000000000083, -0.957044690234759 
2.5000000000008513, -0.9570070798327348 
2.5100000000008724, -0.9567592051607817 
2.5200000000008935, -0.9562980111883618 
2.5300000000009146, -0.9556600143235687 
2.5400000000009357, -0.954887212732777 
2.550000000000957, -0.9540038643503557 
2.560000000000978, -0.9530267232269131 
2.570000000000999, -0.9519927284018811 
2.58000000000102, -0.9509761261460158 
2.5900000000010412, -0.9500815320772371 
2.6000000000010624, -0.9494151810725359 
2.6100000000010835, -0.9490494848389366 
2.6200000000011046, -0.9489962639077828 
2.6300000000011257, -0.9491963482130051 
2.6400000000011468, -0.9495366729144651 
2.650000000001168, -0.9498928516614027 
2.660000000001189, -0.9501690517145306 
2.67000000000121, -0.9503154787310041 
2.680000000001231, -0.9503239047998131 
2.6900000000012523, -0.9502043794314592 
2.7000000000012734, -0.9499572349645561 
2.7100000000012945, -0.949567398351408 
2.7200000000013156, -0.9490277112072839 
2.7300000000013367, -0.9483671200180426 
2.740000000001358, -0.9476629172310757 
2.750000000001379, -0.9470339470285957 
2.7600000000014, -0.9466108579295553 
2.770000000001421, -0.946488353838288 
2.780000000001442, -0.9466904989251905 
2.7900000000014633, -0.9471707041646871 
2.8000000000014844, -0.9478353365715735 
2.8100000000015055, -0.9485768551837205 
2.8200000000015266, -0.9493062666821632 
2.8300000000015477, -0.9499698057866292 
2.840000000001569, -0.9505406953832587 
2.85000000000159, -0.9509924095697925 
2.860000000001611, -0.9512784761735986 
2.870000000001632, -0.9513456844961168 
2.8800000000016532, -0.951172005959411 
2.8900000000016743, -0.9507908311625061 
2.9000000000016954, -0.9502911025199094 
2.9100000000017165, -0.9498130137441911 
2.9200000000017377, -0.949533399609315 
2.9300000000017588, -0.9496125044686116 
2.94000000000178, -0.9501219159791168 
2.950000000001801, -0.9510219305740648 
2.960000000001822, -0.9522030101532382 
2.970000000001843, -0.9535411800772263 
2.9800000000018643, -0.9549332942434523 
2.9900000000018854, -0.9563061916398745 
3.0000000000019065, -0.957599214305793 
3.0100000000019276, -0.9587332501378454 
3.0200000000019487, -0.9596028483357305 
3.03000000000197, -0.9601182019118574 
3.040000000001991, -0.9602603711490916 
3.050000000002012, -0.9600893459595855 
3.060000000002033, -0.959718106605953 
3.070000000002054, -0.9593071908113445 
3.0800000000020753, -0.9590785149345589 
3.0900000000020964, -0.9592831792796633 
3.1000000000021175, -0.960090889385912 
3.1100000000021386, -0.9614981113272753 
3.1200000000021597, -0.9633604290295354 
3.130000000002181, -0.9654950381429944 
3.140000000002202, -0.9677483061109904 
3.150000000002223, -0.9700024234481714 
3.160000000002244, -0.9721419089411616 
3.1700000000022652, -0.974016770654683 
3.1800000000022863, -0.9754573023187131 
3.1900000000023074, -0.9763557676703716 
3.2000000000023285, -0.9767289139247205 
3.2100000000023496, -0.9766888274914814 
3.2200000000023707, -0.9763838246272828 
3.230000000002392, -0.9759942299876145 
3.240000000002413, -0.9757761401027376 
3.250000000002434, -0.976060017999136 
3.260000000002455, -0.9771164761868737 
3.2700000000024763, -0.9789861888829804 
3.2800000000024974, -0.9814821190965876 
3.2900000000025185, -0.9843418234770032 
3.3000000000025396, -0.987342424902608 
3.3100000000025607, -0.9903108083941774 
3.3200000000025818, -0.9930747188717073 
3.330000000002603, -0.9954261556444578 
3.340000000002624, -0.9971660821696102 
3.350000000002645, -0.9982126797368245 
3.360000000002666, -0.9986421649481655 
3.3700000000026873, -0.9986166491250971 
3.3800000000027084, -0.9983117318458403 
3.3900000000027295, -0.9979271771254785 
3.4000000000027506, -0.9977492484705117 
3.4100000000027717, -0.9981465354050691 
3.420000000002793, -0.9993997398996545 
3.430000000002814, -1.001507855771335 
3.440000000002835, -1.004222614399173 
3.450000000002856, -1.0072412396819626 
3.460000000002877, -1.010324921536201 
3.4700000000028983, -1.013293736354354 
3.4800000000029194, -1.0159706442683916 
3.4900000000029405, -1.0181558883968664 
3.5000000000029616, -1.019686916039631 
3.5100000000029827, -1.020533843084973 
3.520000000003004, -1.0208065072286623 
3.530000000003025, -1.0206745030616693 
3.540000000003046, -1.020317435759118 
3.550000000003067, -1.0199550512914002 
3.5600000000030882, -1.0198921859699466 
3.5700000000031094, -1.0204505425485233 
3.5800000000031305, -1.021773917391599 
3.5900000000031516, -1.0237355339196255 
3.6000000000031727, -1.0260678653908966 
3.6100000000031938, -1.0285249918587933 
3.620000000003215, -1.0309346945306639 
3.630000000003236, -1.0331705370904942 
3.640000000003257, -1.0351059415488408 
3.650000000003278, -1.036602588375531 
3.6600000000032993, -1.037561574571855 
3.6700000000033204, -1.0379857838421511 
3.6800000000033415, -1.0379742235089373 
3.6900000000033626, -1.0376720699245348 
3.7000000000033837, -1.0372559715141654 
3.710000000003405, -1.0369579946949548 
3.720000000003426, -1.0370409071571463 
3.730000000003447, -1.0376704133719423 
3.740000000003468, -1.0388118406024578 
3.750000000003489, -1.0402875978605748 
3.7600000000035103, -1.0419013150300038 
3.7700000000035314, -1.043502449850905 
3.7800000000035525, -1.0449915899074942 
3.7900000000035736, -1.0462980390543999 
3.8000000000035947, -1.047350664722125 
3.810000000003616, -1.048072070820941 
3.820000000003637, -1.048412032018592 
3.830000000003658, -1.0483849432962944 
3.840000000003679, -1.0480705054975845 
3.8500000000037002, -1.0475976444778097 
3.8600000000037213, -1.047141821770711 
3.8700000000037424, -1.0469035764965933 
3.8800000000037635, -1.047028195144035 
3.8900000000037847, -1.0475309359608709 
3.9000000000038058, -1.048315797203057 
3.910000000003827, -1.049244605006645 
3.920000000003848, -1.050185489898278 
3.930000000003869, -1.0510384679586713 
3.94000000000389, -1.05174347392988 
3.9500000000039113, -1.0522670998837087 
3.9600000000039324, -1.0525793390188622 
3.9700000000039535, -1.0526459038254194 
3.9800000000039746, -1.0524482972556923 
3.9900000000039957, -1.0520104261487515 
4.000000000004016, -1.0514089776119384 
4.010000000003993, -1.0507702171579039 
4.02000000000397, -1.050248392911435 
4.030000000003946, -1.0499722448555069 
4.040000000003923, -1.0499932223604445 
4.0500000000039, -1.0502799531115126 
4.0600000000038765, -1.0507399690827273 
4.070000000003853, -1.051247652512983 
4.08000000000383, -1.0516830346246482 
4.090000000003807, -1.0519638931827506 
4.100000000003783, -1.0520534785409188 
4.11000000000376, -1.051946321640162 
4.120000000003737, -1.0516443696856657 
4.130000000003713, -1.0511453208646262 
4.14000000000369, -1.050455889328956 
4.150000000003667, -1.0496156097033238 
4.1600000000036434, -1.048709778468904 
4.17000000000362, -1.0478600772541902 
4.180000000003597, -1.047191148163871 
4.1900000000035735, -1.046791838831648 
4.20000000000355, -1.0466882207587087 
4.210000000003527, -1.046823934787778 
4.220000000003504, -1.0470688536610926 
4.23000000000348, -1.0472714130322178 
4.240000000003457, -1.0473099919555686 
4.250000000003434, -1.0471131455614833 
4.26000000000341, -1.046661659462682 
4.270000000003387, -1.0459759689260926 
4.280000000003364, -1.045088821491698 
4.2900000000033405, -1.0440275132817616 
4.300000000003317, -1.0428240748188249 
4.310000000003294, -1.0415386838933487 
4.320000000003271, -1.0402710830236384 
4.330000000003247, -1.039149725761649 
4.340000000003224, -1.0383043069064226 
4.350000000003201, -1.0378212318446514 
4.360000000003177, -1.0376840756363146 
4.370000000003154, -1.0377571178343559 
4.380000000003131, -1.0378515444816312 
4.390000000003107, -1.0378009650138367 
4.400000000003084, -1.0374863034834814 
4.410000000003061, -1.0368406530030325 
4.4200000000030375, -1.0358599133244575 
4.430000000003014, -1.0345943293367705 
4.440000000002991, -1.0331113113650336 
4.450000000002968, -1.0314691921327703 
4.460000000002944, -1.0297273990892912 
4.470000000002921, -1.0279729005980254 
4.480000000002898, -1.0263350349260578 
4.490000000002874, -1.024976630131363 
4.500000000002851, -1.0240474546244367 
4.510000000002828, -1.0235936451623675 
4.520000000002804, -1.0234979198306442 
4.530000000002781, -1.023540261461461 
4.540000000002758, -1.0235079140407302 
4.5500000000027345, -1.0232386547238068 
4.560000000002711, -1.0226141023200477 
4.570000000002688, -1.021570023156921 
4.580000000002665, -1.0201227125344763 
4.590000000002641, -1.0183572015029305 
4.600000000002618, -1.0163746105915439 
4.610000000002595, -1.0142602854098623 
4.620000000002571, -1.0120988556648212 
4.630000000002548, -1.0100064592757458 
4.640000000002525, -1.0081472909225944 
4.6500000000025015, -1.0067111532673778 
4.660000000002478, -1.0058289622444092 
4.670000000002455, -1.0054657861579877 
4.6800000000024315, -1.005418573368315 
4.690000000002408, -1.0054359220203999 
4.700000000002385, -1.0053132085793026 
4.710000000002362, -1.004898767862023 
4.720000000002338, -1.0040805868279952 
4.730000000002315, -1.0028099499692624 
4.740000000002292, -1.0011311710128754 
4.750000000002268, -0.9991553779712701 
4.760000000002245, -0.9969978517437716 
4.770000000002222, -0.9947514007376201 
4.7800000000021985, -0.9925089891856486 
4.790000000002175, -0.9903965924377595 
4.800000000002152, -0.9885831587061047 
4.810000000002129, -0.9872450349012794 
4.820000000002105, -0.9864738300642784 
4.830000000002082, -0.98619055527801 
4.840000000002059, -0.9861763906296086 
4.850000000002035, -0.9861922502525992 
4.860000000002012, -0.9860517844021914 
4.870000000001989, -0.9856199658569306 
4.880000000001965, -0.9848071538369954 
4.890000000001942, -0.9835939935142237 
4.900000000001919, -0.982045154583094 
4.9100000000018955, -0.9802687482509644 
4.920000000001872, -0.9783612070798176 
4.930000000001849, -0.9763965205047609 
