t, s[1].omega / s[0].omega 
0, -1.2400595337843023 
0.009999999999999995, -1.2452042695645251 
0.019999999999999934, -1.248812227949205 
0.029999999999999874, -1.2511236895817384 
0.04000000000000012, -1.2524507243514464 
0.050000000000000405, -1.253079365592948 
0.06000000000000069, -1.2532297452723653 
0.07000000000000098, -1.2530575699140596 
0.08000000000000126, -1.2526782469148805 
0.09000000000000155, -1.2522003301291271 
0.10000000000000184, -1.2517545724185528 
0.11000000000000212, -1.2514953237523698 
0.12000000000000241, -1.251555710523951 
0.130000000000002, -1.2519830569962849 
0.1400000000000009, -1.2527177059617527 
0.1499999999999998, -1.2536335132281438 
0.1599999999999987, -1.254594028364761 
0.1699999999999976, -1.255485534754126 
0.1799999999999965, -1.2562260799511302 
0.1899999999999954, -1.2567624943460025 
0.1999999999999943, -1.2570636121405063 
0.2099999999999932, -1.2571139796724558 
0.2199999999999921, -1.2569098833637693 
0.229999999999991, -1.256457816122827 
0.2399999999999899, -1.2557748565894529 
0.2499999999999888, -1.254890707835083 
0.2599999999999877, -1.2538513284238835 
0.2699999999999866, -1.2527228776126909 
0.2799999999999855, -1.251592591443424 
0.2899999999999844, -1.2505626670469103 
0.2999999999999833, -1.2497336730121886 
0.3099999999999822, -1.2491745856225056 
0.3199999999999811, -1.2488881248161108 
0.32999999999998, -1.2488002804376153 
0.3399999999999789, -1.248790804981483 
0.3499999999999778, -1.2487370196275704 
0.35999999999997667, -1.2485333676907413 
0.36999999999997557, -1.2480818794111928 
0.37999999999997447, -1.247271501400591 
0.38999999999997337, -1.2459632819264197 
0.39999999999997227, -1.2439920095353743 
0.40999999999997117, -1.2411901137725105 
0.41999999999997006, -1.2374331199476616 
0.42999999999996896, -1.2327001671299191 
0.43999999999996786, -1.2271442384078768 
0.44999999999996676, -1.2211632218635171 
0.45999999999996566, -1.2154229128380318 
0.46999999999996456, -1.2107182568987662 
0.47999999999996346, -1.2076171138060012 
0.48999999999996235, -1.206125102609976 
0.49999999999996125, -1.2057454142124464 
0.5099999999999602, -1.2058693208076203 
0.519999999999959, -1.2060711683060859 
0.529999999999958, -1.206139282370153 
0.5399999999999568, -1.2059791712585226 
0.5499999999999557, -1.205517437674183 
0.5599999999999546, -1.2046318459244887 
0.5699999999999535, -1.2030865829905628 
0.5799999999999524, -1.20045088209479 
0.5899999999999513, -1.1960058160419298 
0.5999999999999502, -1.1887234988818305 
0.6099999999999491, -1.1775648541268924 
0.619999999999948, -1.1624251247934978 
0.6299999999999469, -1.1454410983317644 
0.6399999999999458, -1.1309169368640162 
0.6499999999999447, -1.1225339136279955 
0.6599999999999436, -1.1205109764869359 
0.6699999999999425, -1.1222608491218455 
0.6799999999999414, -1.125067098787662 
0.6899999999999403, -1.1274853979145563 
0.6999999999999392, -1.1291319318730715 
0.7099999999999381, -1.1300830807633013 
0.719999999999937, -1.1305088131121512 
0.7299999999999359, -1.1305384496270512 
0.7399999999999348, -1.1302306916710338 
0.7499999999999337, -1.129570990018932 
0.7599999999999326, -1.1284691623347598 
0.7699999999999315, -1.1267601785552075 
0.7799999999999304, -1.1242450053811452 
0.7899999999999293, -1.120866903348817 
0.7999999999999282, -1.1171586132944813 
0.8099999999999271, -1.1148751731625393 
0.819999999999926, -1.116967589402473 
0.8299999999999249, -1.1257132422232747 
0.8399999999999238, -1.1400887663874641 
0.8499999999999227, -1.1559656291423754 
0.8599999999999216, -1.1693848055287597 
0.8699999999999205, -1.1788068315752596 
0.8799999999999194, -1.1846559581221392 
0.8899999999999183, -1.1879978234907904 
0.8999999999999172, -1.1897708584618993 
0.9099999999999161, -1.1906002774512205 
0.919999999999915, -1.1908504154676858 
0.9299999999999139, -1.1907155898072281 
0.9399999999999128, -1.1902929758902492 
0.9499999999999117, -1.1896423999022763 
0.9599999999999106, -1.1888585449271734 
0.9699999999999095, -1.188179104445302 
0.9799999999999084, -1.1881000392216503 
0.9899999999999073, -1.1893469990696715 
0.9999999999999062, -1.1925305389613619 
1.0099999999999052, -1.1976640679439885 
1.019999999999904, -1.2040599660804885 
1.029999999999903, -1.2107239039989752 
1.039999999999902, -1.2168111114069713 
1.0499999999999008, -1.221825224197204 
1.0599999999998997, -1.2256008353972363 
1.0699999999998986, -1.2282056169814157 
1.0799999999998975, -1.2298334701990423 
1.0899999999998964, -1.2307147203324014 
1.0999999999998953, -1.2310574345151999 
1.1099999999998942, -1.2310239350769157 
1.119999999999893, -1.23073546445963 
1.129999999999892, -1.2302939250099043 
1.1399999999998909, -1.2298093076991303 
1.1499999999998898, -1.229416050751586 
1.1599999999998887, -1.2292562373684466 
1.1699999999998876, -1.2294272381007592 
1.1799999999998865, -1.22993505080169 
1.1899999999998854, -1.2306985582061343 
1.1999999999998843, -1.231594579741231 
1.2099999999998832, -1.2325013185481737 
1.219999999999882, -1.2333202154067895 
1.229999999999881, -1.2339808905721 
1.2399999999998799, -1.2344378202411501 
1.2499999999998788, -1.2346644626907133 
1.2599999999998777, -1.2346481896928885 
1.2699999999998766, -1.2343873877413676 
1.2799999999998755, -1.2338906789778648 
1.2899999999998744, -1.2331777591532522 
1.2999999999998733, -1.2322816311637297 
1.3099999999998722, -1.2312520051219453 
1.319999999999871, -1.2301581799224526 
1.32999999999987, -1.2290878096612896 
1.3399999999998689, -1.2281381803038875 
1.3499999999998678, -1.2273980675867961 
1.3599999999998666, -1.2269200074988829 
1.3699999999998655, -1.2266931087705184 
1.3799999999998644, -1.226640018054355 
1.3899999999998633, -1.2266468718452366 
1.3999999999998622, -1.2266002886774094 
1.4099999999998611, -1.2264023718380719 
1.41999999999986, -1.2259624115315297 
1.429999999999859, -1.225181368513222 
1.4399999999998578, -1.2239436820779246 
1.4499999999998567, -1.2221241849341253 
1.4599999999998556, -1.2196111450256855 
1.4699999999998545, -1.2163396795611505 
1.4799999999998534, -1.2123279389193133 
1.4899999999998523, -1.2077145288012154 
1.4999999999998512, -1.2027972431109983 
1.5099999999998501, -1.1980491421727932 
1.519999999999849, -1.1940439387646884 
1.529999999999848, -1.1912381566199297 
1.5399999999998468, -1.1897217173514343 
1.5499999999998457, -1.189188103499906 
1.5599999999998446, -1.1891706958286328 
1.5699999999998435, -1.1892900925233267 
1.5799999999998424, -1.18932721259077 
1.5899999999998413, -1.1891699267929483 
1.5999999999998402, -1.1887347121152287 
1.6099999999998391, -1.1879013079209038 
1.619999999999838, -1.1864525020327747 
1.629999999999837, -1.1840039250096646 
1.6399999999998358, -1.179928645179126 
1.6499999999998347, -1.1733384837605407 
1.6599999999998336, -1.1632866826276396 
1.6699999999998325, -1.1494047471840187 
1.6799999999998314, -1.1328616420933777 
1.6899999999998303, -1.1167066149665779 
1.6999999999998292, -1.1044774245638422 
1.709999999999828, -1.097864355869486 
1.719999999999827, -1.0959353278821138 
1.729999999999826, -1.0965329747881687 
1.7399999999998248, -1.0978875261982268 
1.7499999999998237, -1.0991123090486694 
1.7599999999998226, -1.099938505790898 
1.7699999999998215, -1.1003612220728334 
1.7799999999998204, -1.1004353945314034 
1.7899999999998193, -1.100192023826271 
1.7999999999998182, -1.0996057275914635 
1.809999999999817, -1.0985714142804515 
1.819999999999816, -1.096871547780704 
1.8299999999998149, -1.094134280833011 
1.8399999999998138, -1.0898179874964284 
1.8499999999998127, -1.0833350320054218 
1.8599999999998116, -1.0745126715822235 
1.8699999999998105, -1.0644208577924315 
1.8799999999998094, -1.0558123277067482 
1.8899999999998083, -1.0518449995633556 
1.8999999999998072, -1.0535572353056322 
1.909999999999806, -1.0590547712740601 
1.919999999999805, -1.0654163914711818 
1.9299999999998039, -1.070727642495485 
1.9399999999998028, -1.074442025226195 
1.9499999999998017, -1.0767638596224258 
1.9599999999998006, -1.078083051732507 
1.9699999999997995, -1.0787270762949914 
1.9799999999997984, -1.0789080190859472 
1.9899999999997973, -1.0787358703010974 
1.9999999999997962, -1.0782391514982035 
2.0099999999998173, -1.0773768591835324 
2.0199999999998384, -1.0760458677043807 
2.0299999999998595, -1.0741065519503366 
2.0399999999998806, -1.0714826309684526 
2.0499999999999017, -1.0684292155853377 
2.059999999999923, -1.066000748687124 
2.069999999999944, -1.06636690647241 
2.079999999999965, -1.0720741549166608 
2.089999999999986, -1.083947705606391 
2.100000000000007, -1.0996288983218276 
2.1100000000000283, -1.115033855562014 
2.1200000000000494, -1.127220068351844 
2.1300000000000705, -1.1354891363738688 
2.1400000000000916, -1.1405489326218643 
2.1500000000001127, -1.1434261486504633 
2.160000000000134, -1.1449448325643918 
2.170000000000155, -1.1456376870305975 
2.180000000000176, -1.145811241752089 
2.190000000000197, -1.1456258966467252 
2.2000000000002182, -1.1451566734847407 
2.2100000000002393, -1.1444433734715624 
2.2200000000002604, -1.1435557595392258 
2.2300000000002815, -1.1427043468750024 
2.2400000000003026, -1.1423928095974432 
2.2500000000003237, -1.1434840664621708 
2.260000000000345, -1.146927534239812 
2.270000000000366, -1.1531258842740633 
2.280000000000387, -1.1614871244262832 
2.290000000000408, -1.1706811959244314 
2.3000000000004293, -1.1793283769361564 
2.3100000000004504, -1.186509435969573 
2.3200000000004715, -1.1918839223140858 
2.3300000000004926, -1.195552632017134 
2.3400000000005137, -1.1978425469718945 
2.3500000000005348, -1.1991258991552112 
2.360000000000556, -1.1997178893149658 
2.370000000000577, -1.1998462811975215 
2.380000000000598, -1.199663951095433 
2.390000000000619, -1.19928035161064 
2.4000000000006403, -1.1988004015172375 
2.4100000000006614, -1.1983619505775271 
2.4200000000006825, -1.1981498309584633 
2.4300000000007036, -1.1983552631243644 
2.4400000000007247, -1.1990869327949814 
2.450000000000746, -1.2003077577430066 
2.460000000000767, -1.2018600461309243 
2.470000000000788, -1.2035462865980302 
2.480000000000809, -1.2051940081444126 
2.49000000000083, -1.206678970249574 
2.5000000000008513, -1.207921707107011 
2.5100000000008724, -1.208876436416622 
2.5200000000008935, -1.2095220327946037 
2.5300000000009146, -1.209857269608064 
2.5400000000009357, -1.2098984391227767 
2.550000000000957, -1.209676749187039 
2.560000000000978, -1.2092352470278536 
2.570000000000999, -1.2086275122509993 
2.58000000000102, -1.20791935746372 
2.5900000000010412, -1.2071901038162394 
2.6000000000010624, -1.2065265499397693 
2.6100000000010835, -1.2060069872158163 
2.6200000000011046, -1.2056822061075514 
2.6300000000011257, -1.205562703024751 
2.6400000000011468, -1.2056153041954247 
2.650000000001168, -1.2057706382291802 
2.660000000001189, -1.2059412668813791 
2.67000000000121, -1.2060414878884862 
2.680000000001231, -1.2059976987688592 
2.6900000000012523, -1.2057484786110662 
2.7000000000012734, -1.2052418497297888 
2.7100000000012945, -1.2044358058043956 
2.7200000000013156, -1.2033024382641904 
2.7300000000013367, -1.201832542421356 
2.740000000001358, -1.2000388599972285 
2.750000000001379, -1.1979597365004846 
2.7600000000014, -1.1956664624089157 
2.770000000001421, -1.193274670053626 
2.780000000001442, -1.190952894878359 
2.7900000000014633, -1.1889107192625978 
2.8000000000014844, -1.1873451046569863 
2.8100000000015055, -1.1863526718159076 
2.8200000000015266, -1.1858726925365515 
2.8300000000015477, -1.1857234527724838 
2.840000000001569, -1.1856987316422842 
2.85000000000159, -1.1856355326532737 
2.860000000001611, -1.1854186994692744 
2.870000000001632, -1.1849483038236572 
2.8800000000016532, -1.184099373365244 
2.8900000000016743, -1.1826862130645857 
2.9000000000016954, -1.1804387677493604 
2.9100000000017165, -1.1770084672823233 
2.9200000000017377, -1.1720324326076892 
2.9300000000017588, -1.1652765279642971 
2.94000000000178, -1.156836457939386 
2.950000000001801, -1.1473164070523798 
2.960000000001822, -1.137849764643343 
2.970000000001843, -1.129811388652714 
2.9800000000018643, -1.124226071435913 
2.9900000000018854, -1.1212524627541987 
3.0000000000019065, -1.1202353956562567 
3.0100000000019276, -1.1202550685103474 
3.0200000000019487, -1.120607112543311 
3.03000000000197, -1.1209184141906399 
3.040000000001991, -1.1210404655763617 
3.050000000002012, -1.12091843042776 
3.060000000002033, -1.1205044057273832 
3.070000000002054, -1.1197031578860077 
3.0800000000020753, -1.118323261801693 
3.0900000000020964, -1.1160143591903362 
3.1000000000021175, -1.1121903062751362 
3.1100000000021386, -1.1059866424086358 
3.1200000000021597, -1.0964019358541257 
3.130000000002181, -1.082858270990888 
3.140000000002202, -1.0661739534986188 
3.150000000002223, -1.049118749899733 
3.160000000002244, -1.0353254961584335 
3.1700000000022652, -1.0270029773918505 
3.1800000000022863, -1.0237948185406534 
3.1900000000023074, -1.0237699345119684 
3.2000000000023285, -1.0250194328455138 
3.2100000000023496, -1.0264046502939776 
3.2200000000023707, -1.0274743503954182 
3.230000000002392, -1.0281412109607382 
3.240000000002413, -1.028443807786433 
3.250000000002434, -1.0284311659613905 
3.260000000002455, -1.0281169284951448 
3.2700000000024763, -1.0274571853420114 
3.2800000000024974, -1.0263262925364558 
3.2900000000025185, -1.0244774060496942 
3.3000000000025396, -1.0214844509441765 
3.3100000000025607, -1.016686060744668 
3.3200000000025818, -1.0092128414734485 
3.330000000002603, -0.9982725555134289 
3.340000000002624, -0.9838450556685606 
3.350000000002645, -0.9674822372988838 
3.360000000002666, -0.9522040904905756 
3.3700000000026873, -0.940924443301502 
3.3800000000027084, -0.9347162641973913 
3.3900000000027295, -0.9326480117622944 
3.4000000000027506, -0.9329607942931032 
3.4100000000027717, -0.9341726735315163 
3.420000000002793, -0.9354418189876121 
3.430000000002814, -0.9364319204459631 
3.440000000002835, -0.9370724292125046 
3.450000000002856, -0.9373896990670673 
3.460000000002877, -0.9374214767044767 
3.4700000000028983, -0.937179798401061 
3.4800000000029194, -0.9366318660242925 
3.4900000000029405, -0.9356808086722914 
3.5000000000029616, -0.9341366543592988 
3.5100000000029827, -0.9316753819895018 
3.520000000003004, -0.9278001309176387 
3.530000000003025, -0.9218548959009063 
3.540000000003046, -0.913187599348791 
3.550000000003067, -0.9015348010449268 
3.5600000000030882, -0.8874819260224964 
3.5700000000031094, -0.8725685280839638 
3.5800000000031305, -0.8587538649011324 
3.5900000000031516, -0.8475818064031113 
3.6000000000031727, -0.8396742452886736 
3.6100000000031938, -0.8347860216220712 
3.620000000003215, -0.8321896450451842 
3.630000000003236, -0.8310694810152672 
3.640000000003257, -0.8307579131833258 
3.650000000003278, -0.8308051844391114 
3.6600000000032993, -0.8309491802143677 
3.6700000000033204, -0.8310525173734596 
3.6800000000033415, -0.8310450186525827 
3.6900000000033626, -0.8308830363855272 
3.7000000000033837, -0.830523861263844 
3.710000000003405, -0.8299108301646514 
3.720000000003426, -0.8289675396649363 
3.730000000003447, -0.8276039862924554 
3.740000000003468, -0.8257392808294911 
3.750000000003489, -0.8233389262646715 
3.7600000000035103, -0.8204490154090038 
3.7700000000035314, -0.8172011295440041 
3.7800000000035525, -0.8137794120355271 
3.7900000000035736, -0.8103718238781055 
3.8000000000035947, -0.8071353150756467 
3.810000000003616, -0.8041852696963347 
3.820000000003637, -0.8016002902538604 
3.830000000003658, -0.7994296193969798 
3.840000000003679, -0.7976965268642775 
3.8500000000037002, -0.7963977061136481 
3.8600000000037213, -0.7955023618624163 
3.8700000000037424, -0.794954877529611 
3.8800000000037635, -0.7946825204342126 
3.8900000000037847, -0.794606328652754 
3.9000000000038058, -0.7946514280863919 
3.910000000003827, -0.7947537447063109 
3.920000000003848, -0.7948624849444463 
3.930000000003869, -0.7949398935787506 
3.94000000000389, -0.7949603741228867 
3.9500000000039113, -0.7949100105496479 
3.9600000000039324, -0.7947857438544587 
3.9700000000039535, -0.7945925029466292 
3.9800000000039746, -0.7943378180368529 
3.9900000000039957, -0.7940261461066781 
4.000000000004016, -0.7936564433725122 
4.010000000003993, -0.7932245996364232 
4.02000000000397, -0.7927289164978223 
4.030000000003946, -0.7921752382560983 
4.040000000003923, -0.7915797989423528 
4.0500000000039, -0.7909702576518792 
4.0600000000038765, -0.7903862505872726 
4.070000000003853, -0.789879779091286 
4.08000000000383, -0.7895142835344972 
4.090000000003807, -0.7893607395865935 
4.100000000003783, -0.7894901469287257 
4.11000000000376, -0.7899638725952199 
4.120000000003737, -0.7908249737521091 
4.130000000003713, -0.7920933602999862 
4.14000000000369, -0.7937653668870458 
4.150000000003667, -0.7958154704885197 
4.1600000000036434, -0.7981963199339828 
4.17000000000362, -0.8008340765310604 
4.180000000003597, -0.8036198959336938 
4.1900000000035735, -0.8064048855975031 
4.20000000000355, -0.8090111399720159 
4.210000000003527, -0.8112664923456772 
4.220000000003504, -0.813051098897156 
4.23000000000348, -0.8143267244781534 
4.240000000003457, -0.8151296104051393 
4.250000000003434, -0.8155371818876243 
4.26000000000341, -0.8156335256702191 
4.270000000003387, -0.8154891200440453 
4.280000000003364, -0.8151559356907642 
4.2900000000033405, -0.8146735347238947 
4.300000000003317, -0.8140838963948267 
4.310000000003294, -0.8134569781875045 
4.320000000003271, -0.8129318224582891 
4.330000000003247, -0.8127758803062234 
4.340000000003224, -0.8134528752338948 
4.350000000003201, -0.8156626587047 
4.360000000003177, -0.820281920074873 
4.370000000003154, -0.8281231550481445 
4.380000000003131, -0.8394965923172558 
4.390000000003107, -0.8537484858296418 
4.400000000003084, -0.869169917739344 
4.410000000003061, -0.8835871501555799 
4.4200000000030375, -0.8953397979550616 
4.430000000003014, -0.9038612407947377 
4.440000000002991, -0.9095015172620068 
4.450000000002968, -0.9129899730675728 
4.460000000002944, -0.9150271679879294 
4.470000000002921, -0.9161303447265668 
4.480000000002898, -0.9166317835609321 
4.490000000002874, -0.9167243459096148 
4.500000000002851, -0.9165046131677759 
4.510000000002828, -0.9160009752774665 
4.520000000002804, -0.9151883781802201 
4.530000000002781, -0.9139964758650899 
4.540000000002758, -0.9123232825835306 
4.5500000000027345, -0.9100771953527078 
4.560000000002711, -0.9072840944410577 
4.570000000002688, -0.9042884028026796 
4.580000000002665, -0.9019858112275724 
4.590000000002641, -0.9018194355051298 
4.600000000002618, -0.9051795462272354 
4.610000000002595, -0.9123511368410085 
4.620000000002571, -0.9220001099583858 
4.630000000002548, -0.9319315403394727 
4.640000000002525, -0.9403875135566757 
4.6500000000025015, -0.9466699370583669 
4.660000000002478, -0.9509112215320629 
4.670000000002455, -0.953582751344503 
4.6800000000024315, -0.9551633182681624 
4.690000000002408, -0.9560151654732838 
4.700000000002385, -0.9563731774569018 
4.710000000002362, -0.9563690764327701 
4.720000000002338, -0.9560546230701821 
4.730000000002315, -0.9554122794016964 
4.740000000002292, -0.9543506524577561 
4.750000000002268, -0.9526845658591849 
4.760000000002245, -0.9501036361591388 
4.770000000002222, -0.9461476033348966 
4.7800000000021985, -0.9402415733331795 
4.790000000002175, -0.9318928202307291 
4.800000000002152, -0.9211337772543734 
4.810000000002129, -0.9090474083649301 
4.820000000002105, -0.8977814394810869 
4.830000000002082, -0.8895666056934906 
4.840000000002059, -0.8853833169546714 
4.850000000002035, -0.8845978174393035 
4.860000000002012, -0.8857656219442829 
4.870000000001989, -0.8875883571106467 
4.880000000001965, -0.8893085375986975 
4.890000000001942, -0.8906330718579719 
4.900000000001919, -0.8915230731851539 
4.9100000000018955, -0.8920333433578064 
4.920000000001872, -0.8922286182817519 
4.930000000001849, -0.8921485952191585 
