t, s[1].omega / s[0].omega 
0, -1.3399973398747247 
0.009999999999999995, -1.339579548035243 
0.019999999999999934, -1.3388655739527762 
0.029999999999999874, -1.3378697685079284 
0.04000000000000012, -1.3366211438552817 
0.050000000000000405, -1.335171638232113 
0.06000000000000069, -1.333606849422463 
0.07000000000000098, -1.3320558756933925 
0.08000000000000126, -1.3306888154966938 
0.09000000000000155, -1.3296751338294976 
0.10000000000000184, -1.3290945009384358 
0.11000000000000212, -1.3288725000386798 
0.12000000000000241, -1.328824757779112 
0.130000000000002, -1.328758470310678 
0.1400000000000009, -1.328520945634486 
0.1499999999999998, -1.3279748986029911 
0.1599999999999987, -1.326939950344892 
0.1699999999999976, -1.325125416577303 
0.1799999999999965, -1.3220641220354319 
0.1899999999999954, -1.3170757811060283 
0.1999999999999943, -1.3093398336451292 
0.2099999999999932, -1.2982152071135995 
0.2199999999999921, -1.2839148968505187 
0.229999999999991, -1.2682983103468 
0.2399999999999899, -1.2547749912477257 
0.2499999999999888, -1.2463273019147807 
0.2599999999999877, -1.2432111497657556 
0.2699999999999866, -1.2433376806041276 
0.2799999999999855, -1.2445147003930948 
0.2899999999999844, -1.2455983378570783 
0.2999999999999833, -1.2462595643757752 
0.3099999999999822, -1.2464924266524027 
0.3199999999999811, -1.2463413359613376 
0.32999999999998, -1.245799250769689 
0.3399999999999789, -1.2447674723278543 
0.3499999999999778, -1.2430289994311352 
0.35999999999997667, -1.240258067984016 
0.36999999999997557, -1.2362100589560931 
0.37999999999997447, -1.2314140403134186 
0.38999999999997337, -1.2284585787245086 
0.39999999999997227, -1.2322310567195875 
0.40999999999997117, -1.2461425619708406 
0.41999999999997006, -1.267184377664282 
0.42999999999996896, -1.2880484233962992 
0.43999999999996786, -1.3037547570373074 
0.44999999999996676, -1.3136653013845065 
0.45999999999996566, -1.3192748943298678 
0.46999999999996456, -1.3222196799028594 
0.47999999999996346, -1.323632426429112 
0.48999999999996235, -1.3241708617130663 
0.49999999999996125, -1.324186734525249 
0.5099999999999602, -1.3238674976656415 
0.519999999999959, -1.3233421561949776 
0.529999999999958, -1.3227769844790163 
0.5399999999999568, -1.3224541714735867 
0.5499999999999557, -1.3227472696854168 
0.5599999999999546, -1.3239167408982386 
0.5699999999999535, -1.3258923326119019 
0.5799999999999524, -1.328319404730829 
0.5899999999999513, -1.3307991015449845 
0.5999999999999502, -1.3330499407439322 
0.6099999999999491, -1.3349236483342528 
0.619999999999948, -1.3363617792652063 
0.6299999999999469, -1.33735598444331 
0.6399999999999458, -1.3379253491413408 
0.6499999999999447, -1.3381055289560482 
0.6599999999999436, -1.337942957955548 
0.6699999999999425, -1.3374913563478352 
0.6799999999999414, -1.3368117366869137 
0.6899999999999403, -1.3359766858000026 
0.6999999999999392, -1.3350743045800446 
0.7099999999999381, -1.334204012761633 
0.719999999999937, -1.3334632784720892 
0.7299999999999359, -1.3329301907515514 
0.7399999999999348, -1.3326391387232595 
0.7499999999999337, -1.3325546654345761 
0.7599999999999326, -1.332574081867438 
0.7699999999999315, -1.3325667509093084 
0.7799999999999304, -1.3324093515726387 
0.7899999999999293, -1.3319869206966541 
0.7999999999999282, -1.3311702406406514 
0.8099999999999271, -1.3297926808013263 
0.819999999999926, -1.3276425290728397 
0.8299999999999249, -1.3244804377932697 
0.8399999999999238, -1.320087497801148 
0.8499999999999227, -1.3143497211226072 
0.8599999999999216, -1.3073929973305507 
0.8699999999999205, -1.299767013375859 
0.8799999999999194, -1.2925509534412887 
0.8899999999999183, -1.287053560343727 
0.8999999999999172, -1.2840100977229754 
0.9099999999999161, -1.2830563390110301 
0.919999999999915, -1.2832011135771073 
0.9299999999999139, -1.2836157347160264 
0.9399999999999128, -1.2838922098459364 
0.9499999999999117, -1.2838915671004496 
0.9599999999999106, -1.2835543490025336 
0.9699999999999095, -1.2827831926449296 
0.9799999999999084, -1.281360602282346 
0.9899999999999073, -1.2788568398378934 
0.9999999999999062, -1.2745325994568222 
1.0099999999999052, -1.2673953296739553 
1.019999999999904, -1.2569189754707024 
1.029999999999903, -1.2450039522561283 
1.039999999999902, -1.2375588864903893 
1.0499999999999008, -1.2407690737433474 
1.0599999999998997, -1.2537272587631665 
1.0699999999998986, -1.2691851104038026 
1.0799999999998975, -1.281405048699645 
1.0899999999998964, -1.289150896763396 
1.0999999999998953, -1.29349089472485 
1.1099999999998942, -1.295726401477836 
1.119999999999893, -1.2967499655071353 
1.129999999999892, -1.2970654067830736 
1.1399999999998909, -1.2969294070091557 
1.1499999999998898, -1.296466823862003 
1.1599999999998887, -1.2957646660212432 
1.1699999999998876, -1.2949869040834745 
1.1799999999998865, -1.2945240998565684 
1.1899999999998854, -1.2950516895200241 
1.1999999999998843, -1.297234225455693 
1.2099999999998832, -1.3011616270718451 
1.219999999999882, -1.3061904390177028 
1.229999999999881, -1.3114121955878173 
1.2399999999998799, -1.3161377655365762 
1.2499999999998788, -1.3200202317400558 
1.2599999999998777, -1.3229645042543832 
1.2699999999998766, -1.3250183229040537 
1.2799999999998755, -1.3263008587237126 
1.2899999999998744, -1.3269583821606823 
1.2999999999998733, -1.327134612321406 
1.3099999999998722, -1.3269549527858573 
1.319999999999871, -1.326526832231615 
1.32999999999987, -1.3259529256353648 
1.3399999999998689, -1.3253448281156994 
1.3499999999998678, -1.3248185940674502 
1.3599999999998666, -1.3244664386996738 
1.3699999999998655, -1.3243285203365076 
1.3799999999998644, -1.3243892428060937 
1.3899999999998633, -1.3245892235396763 
1.3999999999998622, -1.3248391117380902 
1.4099999999998611, -1.3250379774755188 
1.41999999999986, -1.3250915265228722 
1.429999999999859, -1.3249181945260298 
1.4399999999998578, -1.3244443301828546 
1.4499999999998567, -1.3235992659538431 
1.4599999999998556, -1.3223168150855038 
1.4699999999998545, -1.3205422895856516 
1.4799999999998534, -1.3182422172538213 
1.4899999999998523, -1.3154185729524561 
1.4999999999998512, -1.3121356936387607 
1.5099999999998501, -1.3085672944150235 
1.519999999999849, -1.3050475454032568 
1.529999999999848, -1.3020511925005613 
1.5399999999998468, -1.3000028390696081 
1.5499999999998457, -1.2989957307895215 
1.5599999999998446, -1.2987356062808086 
1.5699999999998435, -1.2987927749897463 
1.5799999999998424, -1.2988442704723142 
1.5899999999998413, -1.2987101516453545 
1.5999999999998402, -1.2982713958275094 
1.6099999999998391, -1.2973733053009864 
1.619999999999838, -1.2957285963803948 
1.629999999999837, -1.292792984160213 
1.6399999999998358, -1.2876036816074103 
1.6499999999998347, -1.2786814128977864 
1.6599999999998336, -1.264387497040467 
1.6699999999998325, -1.2444167852314767 
1.6799999999998314, -1.2221396810298022 
1.6899999999998303, -1.2044177999275028 
1.6999999999998292, -1.196246155938147 
1.709999999999828, -1.1963861167549763 
1.719999999999827, -1.2001424272443588 
1.729999999999826, -1.2040132480012564 
1.7399999999998248, -1.2067723263569576 
1.7499999999998237, -1.2084121087604554 
1.7599999999998226, -1.2092323395353302 
1.7699999999998215, -1.2094891478568601 
1.7799999999998204, -1.209326565812918 
1.7899999999998193, -1.208786654716441 
1.7999999999998182, -1.2078302269205283 
1.809999999999817, -1.2063737797700107 
1.819999999999816, -1.204407720871087 
1.8299999999998149, -1.202326809629624 
1.8399999999998138, -1.2015240903527384 
1.8499999999998127, -1.2046754366480863 
1.8599999999998116, -1.2143662327633151 
1.8699999999998105, -1.230315675665263 
1.8799999999998094, -1.248746453600827 
1.8899999999998083, -1.2652734631833051 
1.8999999999998072, -1.2776074414471008 
1.909999999999806, -1.2856861169780018 
1.919999999999805, -1.2905008009954204 
1.9299999999998039, -1.293151278551622 
1.9399999999998028, -1.2944691120790073 
1.9499999999998017, -1.2949838876737532 
1.9599999999998006, -1.2950044463257566 
1.9699999999997995, -1.2947108950718262 
1.9799999999997984, -1.2942350021035531 
1.9899999999997973, -1.2937322865869116 
1.9999999999997962, -1.2934292664912537 
2.0099999999998173, -1.2935896650989385 
2.0199999999998384, -1.294377222058583 
2.0299999999998595, -1.2957372601121873 
2.0399999999998806, -1.2974390075492854 
2.0499999999999017, -1.299218298222104 
2.059999999999923, -1.3008737151833754 
2.069999999999944, -1.3022826470272995 
2.079999999999965, -1.3033814946742814 
2.089999999999986, -1.3041436170789162 
2.100000000000007, -1.30456472935838 
2.1100000000000283, -1.3046554608293157 
2.1200000000000494, -1.3044382388409765 
2.1300000000000705, -1.3039461072620067 
2.1400000000000916, -1.3032232135558843 
2.1500000000001127, -1.30232779147524 
2.160000000000134, -1.301335939091827 
2.170000000000155, -1.300340909314481 
2.180000000000176, -1.2994444530564442 
2.190000000000197, -1.298740989831926 
2.2000000000002182, -1.29829200710109 
2.2100000000002393, -1.2980932260007816 
2.2200000000002604, -1.2980629845089866 
2.2300000000002815, -1.298073601213455 
2.2400000000003026, -1.2979958705164156 
2.2500000000003237, -1.2977150348025683 
2.260000000000345, -1.297115684026677 
2.270000000000366, -1.2960574931593745 
2.280000000000387, -1.2943607871194494 
2.290000000000408, -1.2918133551952553 
2.3000000000004293, -1.288204145776438 
2.3100000000004504, -1.2833837532826682 
2.3200000000004715, -1.2773523371966586 
2.3300000000004926, -1.2703811405216232 
2.3400000000005137, -1.2631416153381145 
2.3500000000005348, -1.256691689902752 
2.360000000000556, -1.2520803863972516 
2.370000000000577, -1.249687741851404 
2.380000000000598, -1.2490067002374026 
2.390000000000619, -1.249163835322949 
2.4000000000006403, -1.2494972307961967 
2.4100000000006614, -1.2496863962111084 
2.4200000000006825, -1.249611798556715 
2.4300000000007036, -1.2492039600999987 
2.4400000000007247, -1.2483442305596348 
2.450000000000746, -1.2467828089407342 
2.460000000000767, -1.2440339065007324 
2.470000000000788, -1.2392430849789662 
2.480000000000809, -1.2311432807792588 
2.49000000000083, -1.2185208435501198 
2.5000000000008513, -1.2018388084158467 
2.5100000000008724, -1.1853442203085778 
2.5200000000008935, -1.1758035242486995 
2.5300000000009146, -1.176396333474759 
2.5400000000009357, -1.183681772552196 
2.550000000000957, -1.1921127462914844 
2.560000000000978, -1.1986253104629778 
2.570000000000999, -1.2027669949968387 
2.58000000000102, -1.2051140539183236 
2.5900000000010412, -1.2063044888401553 
2.6000000000010624, -1.2067732604488615 
2.6100000000010835, -1.206761758609193 
2.6200000000011046, -1.2063763999868011 
2.6300000000011257, -1.2056390991154402 
2.6400000000011468, -1.204542792340952 
2.650000000001168, -1.2031655858947752 
2.660000000001189, -1.2019215516170776 
2.67000000000121, -1.201920323314042 
2.680000000001231, -1.2049886428298988 
2.6900000000012523, -1.2126458081985505 
2.7000000000012734, -1.2245377614955042 
2.7100000000012945, -1.2382995658760894 
2.7200000000013156, -1.2511745767587517 
2.7300000000013367, -1.2614664284201966 
2.740000000001358, -1.2687684354187578 
2.750000000001379, -1.273477897625786 
2.7600000000014, -1.2762657184707014 
2.770000000001421, -1.2777571333141906 
2.780000000001442, -1.2784154072047236 
2.7900000000014633, -1.278543308136547 
2.8000000000014844, -1.278330265612842 
2.8100000000015055, -1.2779099903602744 
2.8200000000015266, -1.2774173715533155 
2.8300000000015477, -1.2770298326856087 
2.840000000001569, -1.276956112959695 
2.85000000000159, -1.2773501485150847 
2.860000000001611, -1.2782171633909454 
2.870000000001632, -1.279416947028587 
2.8800000000016532, -1.2807536470333505 
2.8900000000016743, -1.2820553287102117 
2.9000000000016954, -1.2832012081592856 
2.9100000000017165, -1.2841169118810813 
2.9200000000017377, -1.2847615277605478 
2.9300000000017588, -1.2851161450360995 
2.94000000000178, -1.2851764479410863 
2.950000000001801, -1.2849492728877103 
2.960000000001822, -1.2844518913272607 
2.970000000001843, -1.2837130423899303 
2.9800000000018643, -1.2827757398642834 
2.9900000000018854, -1.2817014904166952 
3.0000000000019065, -1.2805730319408961 
3.0100000000019276, -1.279491480646588 
3.0200000000019487, -1.2785654955907875 
3.03000000000197, -1.277888413937933 
3.040000000001991, -1.2775004524541544 
3.050000000002012, -1.2773574916836399 
3.060000000002033, -1.2773434976665312 
3.070000000002054, -1.277319759061136 
3.0800000000020753, -1.27716130818252 
3.0900000000020964, -1.2767555419098535 
3.1000000000021175, -1.275978155178822 
3.1100000000021386, -1.2746693533230984 
3.1200000000021597, -1.2726257942275745 
3.130000000002181, -1.2696184366706607 
3.140000000002202, -1.2654407654621838 
3.150000000002223, -1.2599848248387029 
3.160000000002244, -1.2533428937770146 
3.1700000000022652, -1.2459315784210343 
3.1800000000022863, -1.2385812118609427 
3.1900000000023074, -1.232407767490435 
3.2000000000023285, -1.2283057013238756 
3.2100000000023496, -1.2263746154993578 
3.2200000000023707, -1.225944246573981 
3.230000000002392, -1.22616913043549 
3.240000000002413, -1.2264813127912348 
3.250000000002434, -1.2266225962034196 
3.260000000002455, -1.2264944210497035 
3.2700000000024763, -1.2260251168951164 
3.2800000000024974, -1.2250820367154793 
3.2900000000025185, -1.2233913165940469 
3.3000000000025396, -1.2204295020604794 
3.3100000000025607, -1.2152860421199292 
3.3200000000025818, -1.2066136243548407 
3.330000000002603, -1.1930660178375114 
3.340000000002624, -1.174812972804963 
3.350000000002645, -1.1555553120496764 
3.360000000002666, -1.1417233369794042 
3.3700000000026873, -1.137277820164556 
3.3800000000027084, -1.140325337060331 
3.3900000000027295, -1.14614258984373 
3.4000000000027506, -1.1514068928281942 
3.4100000000027717, -1.1550691085181897 
3.420000000002793, -1.1572774402487769 
3.430000000002814, -1.1584580466997711 
3.440000000002835, -1.1589594851940963 
3.450000000002856, -1.1589912465316088 
3.460000000002877, -1.1586450293929593 
3.4700000000028983, -1.1579214050915507 
3.4800000000029194, -1.1567526801435117 
3.4900000000029405, -1.1550520078300024 
3.5000000000029616, -1.1528696945026984 
3.5100000000029827, -1.150783865900215 
3.520000000003004, -1.1504972954328683 
3.530000000003025, -1.1549273405883094 
3.540000000003046, -1.1665387052458456 
3.550000000003067, -1.1845769087882188 
3.5600000000030882, -1.2047561605758768 
3.5700000000031094, -1.222416558033009 
3.5800000000031305, -1.2353025983374712 
3.5900000000031516, -1.2435650474225513 
3.6000000000031727, -1.2484014868089133 
3.6100000000031938, -1.2510300728839676 
3.620000000003215, -1.2523276272189128 
3.630000000003236, -1.2528324359890108 
3.640000000003257, -1.2528484293219897 
3.650000000003278, -1.2525455461609734 
3.6600000000032993, -1.2520420962486165 
3.6700000000033204, -1.2514830070771668 
3.6800000000033415, -1.25111124639817 
3.6900000000033626, -1.2512738534508445 
3.7000000000033837, -1.252283180022472 
3.710000000003405, -1.2542014425631094 
3.720000000003426, -1.256781671421114 
3.730000000003447, -1.2596312650060177 
3.740000000003468, -1.2624028199461483 
3.750000000003489, -1.2648693931327306 
3.7600000000035103, -1.2669107227372645 
3.7700000000035314, -1.268477658478814 
3.7800000000035525, -1.26956616489294 
3.7900000000035736, -1.2702032923333841 
3.8000000000035947, -1.2704382345410645 
3.810000000003616, -1.270333673353869 
3.820000000003637, -1.269958620104087 
3.830000000003658, -1.269386902054852 
3.840000000003679, -1.2687017211939526 
3.8500000000037002, -1.267998827090795 
3.8600000000037213, -1.2673774857450064 
3.8700000000037424, -1.266918919553376 
3.8800000000037635, -1.2666665979559313 
3.8900000000037847, -1.266618025925578 
3.9000000000038058, -1.2667246776342176 
3.910000000003827, -1.2669013746683315 
3.920000000003848, -1.267047692260086 
3.930000000003869, -1.2670688944582449 
3.94000000000389, -1.2668828487339003 
3.9500000000039113, -1.2664157664688214 
3.9600000000039324, -1.2655981755267796 
3.9700000000039535, -1.2643676554188752 
3.9800000000039746, -1.2626769615392592 
3.9900000000039957, -1.2605031281148036 
4.000000000004016, -1.257856771247843 
4.010000000003993, -1.2547968648433936 
4.02000000000397, -1.2514573689602633 
4.030000000003946, -1.2480808263027505 
4.040000000003923, -1.2450236153332908 
4.0500000000039, -1.2426672418929923 
4.0600000000038765, -1.2412256658226293 
4.070000000003853, -1.2406044485463934 
4.08000000000383, -1.240482862380661 
4.090000000003807, -1.2405248427145503 
4.100000000003783, -1.2405002782191004 
4.11000000000376, -1.2402706862309345 
4.120000000003737, -1.23971869299876 
4.130000000003713, -1.2386730988910193 
4.14000000000369, -1.2368306173889339 
4.150000000003667, -1.233663435078305 
4.1600000000036434, -1.2283316063676029 
4.17000000000362, -1.2197035092827244 
4.180000000003597, -1.2067142496294285 
4.1900000000035735, -1.189281811568476 
4.20000000000355, -1.1694444764311016 
4.210000000003527, -1.1513379375313555 
4.220000000003504, -1.1389031776396457 
4.23000000000348, -1.1331478050568657 
4.240000000003457, -1.1321240466099645 
4.250000000003434, -1.1331829803586475 
4.26000000000341, -1.1346035117103566 
4.270000000003387, -1.1357003660190206 
4.280000000003364, -1.1363406288492814 
4.2900000000033405, -1.1365681673499313 
4.300000000003317, -1.136432989163469 
4.310000000003294, -1.1359292242747938 
4.320000000003271, -1.1349638359552858 
4.330000000003247, -1.1333192026048597 
4.340000000003224, -1.1306018350896647 
4.350000000003201, -1.126214011160235 
4.360000000003177, -1.1194924031557936 
4.370000000003154, -1.1103126034221216 
4.380000000003131, -1.10028549848213 
4.390000000003107, -1.093430880867992 
4.400000000003084, -1.0940479677611963 
4.410000000003061, -1.1025942501143562 
4.4200000000030375, -1.1149713948330284 
4.430000000003014, -1.1264525579443636 
4.440000000002991, -1.1348130286676565 
4.450000000002968, -1.1400843832873393 
4.460000000002944, -1.1431199841972597 
4.470000000002921, -1.1447347202033415 
4.480000000002898, -1.1454788230775157 
4.490000000002874, -1.1456683586264467 
4.500000000002851, -1.1454591716743558 
4.510000000002828, -1.1449035995206294 
4.520000000002804, -1.1439922983847557 
4.530000000002781, -1.1427117306076848 
4.540000000002758, -1.1411775904351906 
4.5500000000027345, -1.1399186346469767 
4.560000000002711, -1.1402541537118294 
4.570000000002688, -1.1442781136217632 
4.580000000002665, -1.1537327521906238 
4.590000000002641, -1.1682553705241792 
4.600000000002618, -1.185057181968603 
4.610000000002595, -1.200706112012053 
4.620000000002571, -1.2130328951755653 
4.630000000002548, -1.2215758875945566 
4.640000000002525, -1.2269430710362716 
4.6500000000025015, -1.2300523787745423 
4.660000000002478, -1.231701291194633 
4.670000000002455, -1.232444749794567 
4.6800000000024315, -1.232625087059359 
4.690000000002408, -1.2324428546323942 
4.700000000002385, -1.232026922649185 
4.710000000002362, -1.2315010725320314 
4.720000000002338, -1.2310473574246485 
4.730000000002315, -1.2309350664272865 
4.740000000002292, -1.2314528921864367 
4.750000000002268, -1.232747557324227 
4.760000000002245, -1.23471679480092 
4.770000000002222, -1.2370771400550389 
4.7800000000021985, -1.239519241607 
4.790000000002175, -1.2418071229478884 
4.800000000002152, -1.2437944739041258 
4.810000000002129, -1.2454033015650747 
4.820000000002105, -1.2466007664827563 
4.830000000002082, -1.2473851958086135 
4.840000000002059, -1.2477791582794608 
4.850000000002035, -1.247824195190538 
4.860000000002012, -1.2475747067571192 
4.870000000001989, -1.2470933408865184 
4.880000000001965, -1.2464513584994579 
4.890000000001942, -1.245732552346483 
4.900000000001919, -1.2450323751789603 
4.9100000000018955, -1.2444443746207858 
4.920000000001872, -1.2440384767668973 
4.930000000001849, -1.2438447011744436 
4.940000000001826, -1.243847130661133 
