t, s[1].omega / s[0].omega 
0, -1.1200293977655102 
0.009999999999999995, -1.1226325975635416 
0.019999999999999934, -1.1245554526361279 
0.029999999999999874, -1.1258357911589674 
0.04000000000000012, -1.126566004522848 
0.050000000000000405, -1.126859660439696 
0.06000000000000069, -1.126825243573739 
0.07000000000000098, -1.1265559612722673 
0.08000000000000126, -1.1261355779658075 
0.09000000000000155, -1.1256544099168118 
0.10000000000000184, -1.1252248686091582 
0.11000000000000212, -1.124980485964112 
0.12000000000000241, -1.125045967331825 
0.130000000000002, -1.125489783067568 
0.1400000000000009, -1.126295383865292 
0.1499999999999998, -1.1273740155066774 
0.1599999999999987, -1.1286036461850069 
0.1699999999999976, -1.1298645412862474 
0.1799999999999965, -1.1310579209578848 
0.1899999999999954, -1.1321101897441708 
0.1999999999999943, -1.132969768184417 
0.2099999999999932, -1.1336024033561838 
0.2199999999999921, -1.1339884641165308 
0.229999999999991, -1.1341228864929238 
0.2399999999999899, -1.134015951208526 
0.2499999999999888, -1.1336927618744033 
0.2599999999999877, -1.1331915284597955 
0.2699999999999866, -1.132562780973649 
0.2799999999999855, -1.1318703449922614 
0.2899999999999844, -1.1311908083028563 
0.2999999999999833, -1.1306058462420001 
0.3099999999999822, -1.130185956414896 
0.3199999999999811, -1.1299724779620848 
0.32999999999998, -1.1299672455132461 
0.3399999999999789, -1.1301333867600158 
0.3499999999999778, -1.130405579381454 
0.35999999999997667, -1.1307060647061844 
0.36999999999997557, -1.1309602188415737 
0.37999999999997447, -1.1311058233393148 
0.38999999999997337, -1.1310954702758116 
0.39999999999997227, -1.1308958159190914 
0.40999999999997117, -1.130486743576245 
0.41999999999997006, -1.1298607502763625 
0.42999999999996896, -1.129021919788937 
0.43999999999996786, -1.127984992389231 
0.44999999999996676, -1.126775938615229 
0.45999999999996566, -1.1254346788471496 
0.46999999999996456, -1.1240188645201559 
0.47999999999996346, -1.1226060238002957 
0.48999999999996235, -1.1212903952275277 
0.49999999999996125, -1.120170726606422 
0.5099999999999602, -1.119327180220175 
0.519999999999959, -1.118792477606077 
0.529999999999958, -1.1185338370686293 
0.5399999999999568, -1.1184625962481336 
0.5499999999999557, -1.1184666879470586 
0.5599999999999546, -1.1184410469059896 
0.5699999999999535, -1.1182983126298893 
0.5799999999999524, -1.117962772761575 
0.5899999999999513, -1.1173603446482354 
0.5999999999999502, -1.116415150117001 
0.6099999999999491, -1.1150571524465285 
0.619999999999948, -1.1132384614849609 
0.6299999999999469, -1.1109500492920203 
0.6399999999999458, -1.1082308064032103 
0.6499999999999447, -1.1051684997638838 
0.6599999999999436, -1.1018990149027332 
0.6699999999999425, -1.0986074754225998 
0.6799999999999414, -1.0955234670894074 
0.6899999999999403, -1.0928921319689544 
0.6999999999999392, -1.0909089053289531 
0.7099999999999381, -1.089640533774371 
0.719999999999937, -1.0889925442080435 
0.7299999999999359, -1.088760172729478 
0.7399999999999348, -1.088721944302828 
0.7499999999999337, -1.0887037293370385 
0.7599999999999326, -1.0885874247244194 
0.7699999999999315, -1.088285734431683 
0.7799999999999304, -1.0877096243614575 
0.7899999999999293, -1.0867413201559444 
0.7999999999999282, -1.0852186742045964 
0.8099999999999271, -1.0829395742329802 
0.819999999999926, -1.0796983619942646 
0.8299999999999249, -1.0753568152308648 
0.8399999999999238, -1.069927631979453 
0.8499999999999227, -1.0636309925513499 
0.8599999999999216, -1.056897526922052 
0.8699999999999205, -1.0503146566887986 
0.8799999999999194, -1.044515405969767 
0.8899999999999183, -1.0400108305579758 
0.8999999999999172, -1.037017194154207 
0.9099999999999161, -1.0353910487922113 
0.919999999999915, -1.0347393646717546 
0.9299999999999139, -1.0346220158262387 
0.9399999999999128, -1.0346987203159492 
0.9499999999999117, -1.0347623251335052 
0.9599999999999106, -1.0347003704580044 
0.9699999999999095, -1.0344411857438613 
0.9799999999999084, -1.0339095176788693 
0.9899999999999073, -1.0329929728019178 
0.9999999999999062, -1.031515787857322 
1.0099999999999052, -1.0292244950494278 
1.019999999999904, -1.0258045344434477 
1.029999999999903, -1.0209553406336596 
1.039999999999902, -1.0145298263206806 
1.0499999999999008, -1.006685004929552 
1.0599999999998997, -0.9979465824285955 
1.0699999999998986, -0.9891271297897088 
1.0799999999998975, -0.9811223881201159 
1.0899999999998964, -0.9746612304072297 
1.0999999999998953, -0.9701000464647528 
1.1099999999998942, -0.9673551699415303 
1.119999999999893, -0.9660145104637428 
1.129999999999892, -0.965554850526798 
1.1399999999998909, -0.9655269764060016 
1.1499999999998898, -0.9656299789228907 
1.1599999999998887, -0.9656940817281392 
1.1699999999998876, -0.9656287413282719 
1.1799999999998865, -0.9653736941363338 
1.1899999999998854, -0.9648633047440978 
1.1999999999998843, -0.9640018538335033 
1.2099999999998832, -0.9626479044938634 
1.219999999999882, -0.9606134835282314 
1.229999999999881, -0.9576920280129162 
1.2399999999998799, -0.9537258058003285 
1.2499999999998788, -0.9486965579125488 
1.2599999999998777, -0.9427877970468032 
1.2699999999998766, -0.9363713207880295 
1.2799999999998755, -0.9299248519818712 
1.2899999999998744, -0.9239296336247197 
1.2999999999998733, -0.9187844366416466 
1.3099999999998722, -0.914742807276488 
1.319999999999871, -0.9118760294729407 
1.32999999999987, -0.9100760688545982 
1.3399999999998689, -0.9091076991801446 
1.3499999999998678, -0.908690863643937 
1.3599999999998666, -0.9085738373845242 
1.3699999999998655, -0.9085692503057899 
1.3799999999998644, -0.9085533507264854 
1.3899999999998633, -0.9084457782425688 
1.3999999999998622, -0.90818614125899 
1.4099999999998611, -0.9077160060520825 
1.41999999999986, -0.9069699141822355 
1.429999999999859, -0.9058779848050909 
1.4399999999998578, -0.9043815464706281 
1.4499999999998567, -0.9024574776591725 
1.4599999999998556, -0.9001379483234929 
1.4699999999998545, -0.897510855358769 
1.4799999999998534, -0.8946995899612915 
1.4899999999998523, -0.8918365085513136 
1.4999999999998512, -0.8890452063929949 
1.5099999999998501, -0.8864348205864031 
1.519999999999849, -0.8840998245969202 
1.529999999999848, -0.8821176549198386 
1.5399999999998468, -0.8805409822779392 
1.5499999999998457, -0.8793871578496928 
1.5599999999998446, -0.8786313820973104 
1.5699999999998435, -0.8782098591381668 
1.5799999999998424, -0.8780337744271189 
1.5899999999998413, -0.8780080672756396 
1.5999999999998402, -0.8780466134510698 
1.6099999999998391, -0.8780792120872951 
1.619999999999838, -0.8780515189963662 
1.629999999999837, -0.8779222739739121 
1.6399999999998358, -0.8776618371379061 
1.6499999999998347, -0.8772534381807233 
1.6599999999998336, -0.8766953070870352 
1.6699999999998325, -0.8760001651427972 
1.6799999999998314, -0.8751903545377434 
1.6899999999998303, -0.8742909565938313 
1.6999999999998292, -0.8733252841136384 
1.709999999999828, -0.8723150214049833 
1.719999999999827, -0.871283724223245 
1.729999999999826, -0.8702607922619275 
1.7399999999998248, -0.8692836568799118 
1.7499999999998237, -0.8683970462557111 
1.7599999999998226, -0.8676489011032187 
1.7699999999998215, -0.867083310308236 
1.7799999999998204, -0.866732116792804 
1.7899999999998193, -0.8666079496835399 
1.7999999999998182, -0.8667013449981334 
1.809999999999817, -0.8669831069580904 
1.819999999999816, -0.8674109302965934 
1.8299999999998149, -0.8679377208632347 
1.8399999999998138, -0.8685188205671459 
1.8499999999998127, -0.8691163299960083 
1.8599999999998116, -0.869699998453117 
1.8699999999998105, -0.870245046480788 
1.8799999999998094, -0.8707281093892718 
1.8899999999998083, -0.8711236787007228 
1.8999999999998072, -0.8714040710723268 
1.909999999999806, -0.8715442949709666 
1.919999999999805, -0.8715294289253768 
1.9299999999998039, -0.871359807042529 
1.9399999999998028, -0.8710513944033714 
1.9499999999998017, -0.8706331313379104 
1.9599999999998006, -0.8701451282036803 
1.9699999999997995, -0.8696400161807087 
1.9799999999997984, -0.8691865048581855 
1.9899999999997973, -0.8688713592836649 
1.9999999999997962, -0.8687949886842203 
2.0099999999998173, -0.8690580507178675 
2.0199999999998384, -0.8697419418475982 
2.0299999999998595, -0.8708911660285649 
2.0399999999998806, -0.8725052800374845 
2.0499999999999017, -0.8745419103506155 
2.059999999999923, -0.8769256116384166 
2.069999999999944, -0.8795554004570965 
2.079999999999965, -0.8823073709256402 
2.089999999999986, -0.8850354128190391 
2.100000000000007, -0.887578876393657 
2.1100000000000283, -0.8897852239291151 
2.1200000000000494, -0.8915438580393884 
2.1300000000000705, -0.8928121961741826 
2.1400000000000916, -0.8936156438040408 
2.1500000000001127, -0.8940230392727999 
2.160000000000134, -0.8941160321499533 
2.170000000000155, -0.8939687305746269 
2.180000000000176, -0.8936423238417565 
2.190000000000197, -0.8931923733141071 
2.2000000000002182, -0.8926862060693876 
2.2100000000002393, -0.8922291389961389 
2.2200000000002604, -0.8919957975384367 
2.2300000000002815, -0.8922540368679744 
2.2400000000003026, -0.8933580299179757 
2.2500000000003237, -0.8956878626509581 
2.260000000000345, -0.899538198871309 
2.270000000000366, -0.9049957575834948 
2.280000000000387, -0.9118595561544043 
2.290000000000408, -0.9196373688224739 
2.3000000000004293, -0.9276258033045558 
2.3100000000004504, -0.9350677969915185 
2.3200000000004715, -0.9413530872434345 
2.3300000000004926, -0.9461752485105681 
2.3400000000005137, -0.9495544835386489 
2.3500000000005348, -0.9517273316597018 
2.360000000000556, -0.9529975770875199 
2.370000000000577, -0.9536339572267257 
2.380000000000598, -0.953832399218091 
2.390000000000619, -0.9537188580207413 
2.4000000000006403, -0.9533679388843828 
2.4100000000006614, -0.9528266481430465 
2.4200000000006825, -0.9521451493502964 
2.4300000000007036, -0.9514238630072196 
2.4400000000007247, -0.9508857378610938 
2.450000000000746, -0.9509637802981432 
2.460000000000767, -0.9523472381376703 
2.470000000000788, -0.9558809197780176 
2.480000000000809, -0.9622470059557718 
2.49000000000083, -0.9715332459959756 
2.5000000000008513, -0.9829743066937627 
2.5100000000008724, -0.995113282982706 
2.5200000000008935, -1.0063466511368448 
2.5300000000009146, -1.0155257506937163 
2.5400000000009357, -1.0222483437779775 
2.550000000000957, -1.026736308940806 
2.560000000000978, -1.0295042073721956 
2.570000000000999, -1.0310783393892053 
2.58000000000102, -1.0318663216724917 
2.5900000000010412, -1.032138993448627 
2.6000000000010624, -1.0320588510308242 
2.6100000000010835, -1.0317167863042251 
2.6200000000011046, -1.0311674389755323 
2.6300000000011257, -1.0304699939064943 
2.6400000000011468, -1.0297483541866215 
2.650000000001168, -1.029277839540993 
2.660000000001189, -1.029568166520765 
2.67000000000121, -1.0313448475822322 
2.680000000001231, -1.0353161067989889 
2.6900000000012523, -1.041773142160103 
2.7000000000012734, -1.0503062508028642 
2.7100000000012945, -1.0598902867665252 
2.7200000000013156, -1.0692798327834274 
2.7300000000013367, -1.0774439740176465 
2.740000000001358, -1.083824999806588 
2.750000000001379, -1.0883568843608882 
2.7600000000014, -1.0913055580112878 
2.770000000001421, -1.093060265251522 
2.780000000001442, -1.0939833267397545 
2.7900000000014633, -1.0943475450195408 
2.8000000000014844, -1.0943344509441695 
2.8100000000015055, -1.0940592566398568 
2.8200000000015266, -1.0936048999828711 
2.8300000000015477, -1.0930628278760954 
2.840000000001569, -1.092581223537092 
2.85000000000159, -1.0924059468808547 
2.860000000001611, -1.0928704419985595 
2.870000000001632, -1.0942912394105444 
2.8800000000016532, -1.0968060987352675 
2.8900000000016743, -1.1002825480378124 
2.9000000000016954, -1.1043744166597027 
2.9100000000017165, -1.1086609870174093 
2.9200000000017377, -1.1127615350837528 
2.9300000000017588, -1.1163885957592492 
2.94000000000178, -1.1193623356637707 
2.950000000001801, -1.1216102222751783 
2.960000000001822, -1.123155305791977 
2.970000000001843, -1.1240887123580465 
2.9800000000018643, -1.1245321142049343 
2.9900000000018854, -1.1246053886100673 
3.0000000000019065, -1.124410897684901 
3.0100000000019276, -1.1240357725006995 
3.0200000000019487, -1.123567035182997 
3.03000000000197, -1.1231105647870625 
3.040000000001991, -1.122799198850693 
3.050000000002012, -1.1227730550324626 
3.060000000002033, -1.1231321310857507 
3.070000000002054, -1.1238927788818658 
3.0800000000020753, -1.1249842207205643 
3.0900000000020964, -1.1262838951277951 
3.1000000000021175, -1.1276601890831408 
3.1100000000021386, -1.128999306736144 
3.1200000000021597, -1.1302140801319198 
3.130000000002181, -1.131242184908841 
3.140000000002202, -1.1320411950383196 
3.150000000002223, -1.132585177065485 
3.160000000002244, -1.132864226960897 
3.1700000000022652, -1.1328852644760188 
3.1800000000022863, -1.1326714352404328 
3.1900000000023074, -1.1322596336404271 
3.2000000000023285, -1.1316984792671065 
3.2100000000023496, -1.131048800238084 
3.2200000000023707, -1.1303846884360091 
3.230000000002392, -1.1297891811267822 
3.240000000002413, -1.129340266542269 
3.250000000002434, -1.1290914551037239 
3.260000000002455, -1.1290576405236288 
3.2700000000024763, -1.1292129218651419 
3.2800000000024974, -1.1294991420727336 
3.2900000000025185, -1.1298408820712096 
3.3000000000025396, -1.1301616163213741 
3.3100000000025607, -1.1303952194916325 
3.3200000000025818, -1.1304904575873793 
3.330000000002603, -1.1304108814486002 
3.340000000002624, -1.1301335474143523 
3.350000000002645, -1.1296478444198614 
3.360000000002666, -1.1289542173809601 
3.3700000000026873, -1.1280630941117042 
3.3800000000027084, -1.1269951358853136 
3.3900000000027295, -1.1257834823611845 
3.4000000000027506, -1.1244772834394203 
3.4100000000027717, -1.1231443723072039 
3.420000000002793, -1.1218699142266528 
3.430000000002814, -1.1207477535120283 
3.440000000002835, -1.119862367128675 
3.450000000002856, -1.119263330272349 
3.460000000002877, -1.1189431065336153 
3.4700000000028983, -1.1188351922945163 
3.4800000000029194, -1.1188377180876494 
3.4900000000029405, -1.118845121674382 
3.5000000000029616, -1.1187663063075277 
3.5100000000029827, -1.1185245923017724 
3.520000000003004, -1.118049317271067 
3.530000000003025, -1.117270548872256 
3.540000000003046, -1.1161230682623624 
3.550000000003067, -1.1145589733111518 
3.5600000000030882, -1.11256225244311 
3.5700000000031094, -1.1101575857579447 
3.5800000000031305, -1.1074116073343694 
3.5900000000031516, -1.104431884408334 
3.6000000000031727, -1.1013685220053004 
3.6100000000031938, -1.0984147556975299 
3.620000000003215, -1.0957923850084372 
3.630000000003236, -1.0937060411727288 
3.640000000003257, -1.0922711845620006 
3.650000000003278, -1.0914597223174693 
3.6600000000032993, -1.091114634682432 
3.6700000000033204, -1.0910269848338694 
3.6800000000033415, -1.0910117635501806 
3.6900000000033626, -1.0909362752586187 
3.7000000000033837, -1.0907064006834912 
3.710000000003405, -1.0902369896057955 
3.720000000003426, -1.089424097856257 
3.730000000003447, -1.0881269036118053 
3.740000000003468, -1.0861666097247533 
3.750000000003489, -1.0833524631386666 
3.7600000000035103, -1.0795391694898453 
3.7700000000035314, -1.0747002571744138 
3.7800000000035525, -1.0689844617146995 
3.7900000000035736, -1.062729830972072 
3.8000000000035947, -1.056432403986665 
3.810000000003616, -1.05066968230806 
3.820000000003637, -1.0459700480814957 
3.830000000003658, -1.042647234587622 
3.840000000003679, -1.0406880692648006 
3.8500000000037002, -1.039791742552659 
3.8600000000037213, -1.0395410343034956 
3.8700000000037424, -1.0395717566732732 
3.8800000000037635, -1.0396429636063897 
3.8900000000037847, -1.0396190126045382 
3.9000000000038058, -1.039419428384746 
3.910000000003827, -1.0389720355642367 
3.920000000003848, -1.0381769456075207 
3.930000000003869, -1.0368786536307824 
3.94000000000389, -1.0348481356501285 
3.9500000000039113, -1.0317897628562642 
3.9600000000039324, -1.027398801342002 
3.9700000000039535, -1.0214829764347746 
3.9800000000039746, -1.0141117206471757 
3.9900000000039957, -1.0057059851971364 
4.000000000004016, -0.9969973699559584 
4.010000000003993, -0.9888600307529287 
4.02000000000397, -0.982074823682931 
4.030000000003946, -0.9771058405551496 
4.040000000003923, -0.9739847675456718 
4.0500000000039, -0.9723720917615888 
4.0600000000038765, -0.9717573280134708 
4.070000000003853, -0.9716645548834384 
4.08000000000383, -0.9717572727263049 
4.090000000003807, -0.9718392420299621 
4.100000000003783, -0.971806246450412 
4.11000000000376, -0.9715942921378554 
4.120000000003737, -0.9711404070390957 
4.130000000003713, -0.9703552135838283 
4.14000000000369, -0.9691043659938862 
4.150000000003667, -0.9672026150677878 
4.1600000000036434, -0.9644336364443428 
4.17000000000362, -0.9606101096656866 
4.180000000003597, -0.955666908239086 
4.1900000000035735, -0.9497411355099485 
4.20000000000355, -0.9431815931852915 
4.210000000003527, -0.936477130801243 
4.220000000003504, -0.9301477263512515 
4.23000000000348, -0.9246437271768799 
4.240000000003457, -0.920268736481059 
4.250000000003434, -0.9171311653424592 
4.26000000000341, -0.9151399197279302 
4.270000000003387, -0.9140560775809112 
4.280000000003364, -0.9135821991644063 
4.2900000000033405, -0.913445561103603 
4.300000000003317, -0.9134416589098301 
4.310000000003294, -0.913436071028306 
4.320000000003271, -0.9133433310028698 
4.330000000003247, -0.9131012983647094 
4.340000000003224, -0.9126507711649682 
4.350000000003201, -0.9119240494631169 
4.360000000003177, -0.9108450027595433 
4.370000000003154, -0.9093430806370394 
4.380000000003131, -0.9073791243729137 
4.390000000003107, -0.9049708627695369 
4.400000000003084, -0.9022005396657752 
4.410000000003061, -0.8991978744690166 
4.4200000000030375, -0.8961106447512339 
4.430000000003014, -0.8930812181943708 
4.440000000002991, -0.8902363616201642 
4.450000000002968, -0.887685048495111 
4.460000000002944, -0.8855155472716035 
4.470000000002921, -0.883787290977979 
4.480000000002898, -0.8825196900335358 
4.490000000002874, -0.881685047331343 
4.500000000002851, -0.8812126447341105 
4.510000000002828, -0.8810048592969061 
4.520000000002804, -0.8809583066280092 
4.530000000002781, -0.8809804919672525 
4.540000000002758, -0.8809969558346904 
4.5500000000027345, -0.8809504186344512 
4.560000000002711, -0.8807969088283099 
4.570000000002688, -0.880503493570296 
4.580000000002665, -0.8800495527664548 
4.590000000002641, -0.8794300285979402 
4.600000000002618, -0.8786566298092604 
4.610000000002595, -0.877754007497207 
4.620000000002571, -0.8767522972556867 
4.630000000002548, -0.8756807873090242 
4.640000000002525, -0.8745662626704019 
4.6500000000025015, -0.8734356553612473 
4.660000000002478, -0.8723200975781851 
4.670000000002455, -0.8712575711813677 
4.6800000000024315, -0.8702925583689533 
4.690000000002408, -0.8694721525361102 
4.700000000002385, -0.8688390939272426 
4.710000000002362, -0.8684234652976321 
4.720000000002338, -0.868235809768603 
4.730000000002315, -0.8682643439764594 
4.740000000002292, -0.8684774811451392 
4.750000000002268, -0.8688307085475504 
4.760000000002245, -0.8692751748884705 
4.770000000002222, -0.8697651123009328 
4.7800000000021985, -0.8702623513404687 
4.790000000002175, -0.8707375641489575 
4.800000000002152, -0.8711686112669165 
4.810000000002129, -0.871536810586149 
4.820000000002105, -0.871822890087326 
4.830000000002082, -0.8720053785397601 
4.840000000002059, -0.8720634345820757 
4.850000000002035, -0.8719830229602217 
4.860000000002012, -0.8717625419016863 
4.870000000001989, -0.8714147687544717 
4.880000000001965, -0.870965642916342 
4.890000000001942, -0.8704529311564204 
4.900000000001919, -0.8699270171855881 
4.9100000000018955, -0.8694531995669506 
4.920000000001872, -0.8691122065013097 
4.930000000001849, -0.8689948645139939 
