t, s[1].omega / s[0].omega 
0, -1.039985297473112 
0.009999999999999995, -1.0384001821225612 
0.019999999999999934, -1.0366213255715508 
0.029999999999999874, -1.034708297447645 
0.04000000000000012, -1.0327330222191542 
0.050000000000000405, -1.0307814980596999 
0.06000000000000069, -1.0289532260752805 
0.07000000000000098, -1.027353062360231 
0.08000000000000126, -1.0260723988304448 
0.09000000000000155, -1.0251628934992842 
0.10000000000000184, -1.0246153406211604 
0.11000000000000212, -1.024359464871729 
0.12000000000000241, -1.024287810402614 
0.130000000000002, -1.0242879589066138 
0.1400000000000009, -1.0242635144915317 
0.1499999999999998, -1.0241376464789702 
0.1599999999999987, -1.0238461774437906 
0.1699999999999976, -1.0233304242945436 
0.1799999999999965, -1.0225366888173775 
0.1899999999999954, -1.0214240458272632 
0.1999999999999943, -1.0199762447675016 
0.2099999999999932, -1.0182097291921741 
0.2199999999999921, -1.0161723507419977 
0.229999999999991, -1.01393517014437 
0.2399999999999899, -1.0115846026837367 
0.2499999999999888, -1.00921931749822 
0.2599999999999877, -1.0069498387764018 
0.2699999999999866, -1.004894555931057 
0.2799999999999855, -1.003165953532287 
0.2899999999999844, -1.001845885466516 
0.2999999999999833, -1.0009585156919873 
0.3099999999999822, -1.0004579777990457 
0.3199999999999811, -1.0002427199996968 
0.32999999999998, -1.000189031562591 
0.3399999999999789, -1.00018223939431 
0.3499999999999778, -1.0001304365574337 
0.35999999999997667, -0.9999616598629031 
0.36999999999997557, -0.9996144133208688 
0.37999999999997447, -0.9990309852858156 
0.38999999999997337, -0.9981588908761985 
0.39999999999997227, -0.9969607516887484 
0.40999999999997117, -0.9954271789463827 
0.41999999999997006, -0.9935838766437988 
0.42999999999996896, -0.9914880030858633 
0.43999999999996786, -0.9892175934948055 
0.44999999999996676, -0.9868622702758513 
0.45999999999996566, -0.9845195385785226 
0.46999999999996456, -0.9822941486707719 
0.47999999999996346, -0.9802943514137222 
0.48999999999996235, -0.9786197531748009 
0.49999999999996125, -0.9773403759516583 
0.5099999999999602, -0.97647449864148 
0.519999999999959, -0.9759789665249439 
0.529999999999958, -0.9757613154791155 
0.5399999999999568, -0.9757079819102401 
0.5499999999999557, -0.9757115757470147 
0.5599999999999546, -0.9756843265051153 
0.5699999999999535, -0.9755574391545073 
0.5799999999999524, -0.9752741836282057 
0.5899999999999513, -0.9747848819461531 
0.5999999999999502, -0.9740483651667246 
0.6099999999999491, -0.9730396039831302 
0.619999999999948, -0.9717583139169536 
0.6299999999999469, -0.9702316323296272 
0.6399999999999458, -0.9685083950532928 
0.6499999999999447, -0.9666495497545832 
0.6599999999999436, -0.9647213955235363 
0.6699999999999425, -0.9627941886639066 
0.6799999999999414, -0.9609434701129004 
0.6899999999999403, -0.9592493852050119 
0.6999999999999392, -0.9577902748199987 
0.7099999999999381, -0.9566296738329736 
0.719999999999937, -0.9558000113823905 
0.7299999999999359, -0.9552905350783953 
0.7399999999999348, -0.9550475416726674 
0.7499999999999337, -0.9549886559758649 
0.7599999999999326, -0.9550235505296761 
0.7699999999999315, -0.9550702426922031 
0.7799999999999304, -0.9550616473933955 
0.7899999999999293, -0.9549447461882746 
0.7999999999999282, -0.9546781090328998 
0.8099999999999271, -0.9542320167702945 
0.819999999999926, -0.9535915233750014 
0.8299999999999249, -0.9527592058593543 
0.8399999999999238, -0.9517538991585482 
0.8499999999999227, -0.9506052205520937 
0.8599999999999216, -0.9493476311336879 
0.8699999999999205, -0.9480178792026315 
0.8799999999999194, -0.9466563729149001 
0.8899999999999183, -0.9453100613475195 
0.8999999999999172, -0.944033684286182 
0.9099999999999161, -0.9428870950998842 
0.919999999999915, -0.941927866852368 
0.9299999999999139, -0.9412003523712947 
0.9399999999999128, -0.9407244763979383 
0.9499999999999117, -0.9404888856897987 
0.9599999999999106, -0.9404522947287222 
0.9699999999999095, -0.9405531806093015 
0.9799999999999084, -0.9407233609687158 
0.9899999999999073, -0.9408994413188235 
0.9999999999999062, -0.9410289785233296 
1.0099999999999052, -0.9410722932963023 
1.019999999999904, -0.9410025239613189 
1.029999999999903, -0.940805262530013 
1.039999999999902, -0.9404771788349502 
1.0499999999999008, -0.9400228816812211 
1.0599999999998997, -0.9394510867914407 
1.0699999999998986, -0.9387725113375268 
1.0799999999998975, -0.9380008349833409 
1.0899999999998964, -0.9371557810135268 
1.0999999999998953, -0.9362663193078141 
1.1099999999998942, -0.9353724736359293 
1.119999999999893, -0.9345247196116834 
1.129999999999892, -0.9337799242001126 
1.1399999999998909, -0.9331933122463882 
1.1499999999998898, -0.932807836202163 
1.1599999999998887, -0.932644425742456 
1.1699999999998876, -0.9326969655293185 
1.1799999999998865, -0.9329340313350375 
1.1899999999998854, -0.9333065917042835 
1.1999999999998843, -0.9337585378726384 
1.2099999999998832, -0.9342362283856085 
1.219999999999882, -0.934694536906939 
1.229999999999881, -0.935098960339294 
1.2399999999998799, -0.9354246060703908 
1.2499999999998788, -0.9356532178219638 
1.2599999999998777, -0.9357698183082025 
1.2699999999998766, -0.935761105596924 
1.2799999999998755, -0.9356170821660005 
1.2899999999998744, -0.9353350816353118 
1.2999999999998733, -0.934923512367245 
1.3099999999998722, -0.9344034670316935 
1.319999999999871, -0.9338087752619998 
1.32999999999987, -0.9331860298529258 
1.3399999999998689, -0.9325944967080663 
1.3499999999998678, -0.9321034451949739 
1.3599999999998666, -0.931784059688157 
1.3699999999998655, -0.9316961220147396 
1.3799999999998644, -0.9318742545467309 
1.3899999999998633, -0.9323202886249116 
1.3999999999998622, -0.933005078993094 
1.4099999999998611, -0.9338778078022874 
1.41999999999986, -0.9348778243058005 
1.429999999999859, -0.9359443883389407 
1.4399999999998578, -0.9370217787741556 
1.4499999999998567, -0.9380596162586541 
1.4599999999998556, -0.9390103629077892 
1.4699999999998545, -0.9398275023629623 
1.4799999999998534, -0.9404678848875969 
1.4899999999998523, -0.9408988668643481 
1.4999999999998512, -0.9411063215972784 
1.5099999999998501, -0.9410978901853019 
1.519999999999849, -0.9408997083880596 
1.529999999999848, -0.9405504139794084 
1.5399999999998468, -0.940097843116875 
1.5499999999998457, -0.9396009098163459 
1.5599999999998446, -0.9391347402430477 
1.5699999999998435, -0.9387934125019985 
1.5799999999998424, -0.9386833825337397 
1.5899999999998413, -0.9389045474658936 
1.5999999999998402, -0.9395249567879439 
1.6099999999998391, -0.9405622864025283 
1.619999999999838, -0.941981873371442 
1.629999999999837, -0.9437096922125618 
1.6399999999998358, -0.945650326667805 
1.6499999999998347, -0.9477006099762614 
1.6599999999998336, -0.9497556544949429 
1.6699999999998325, -0.9517102016990211 
1.6799999999998314, -0.9534618226554443 
1.6899999999998303, -0.9549214100912037 
1.6999999999998292, -0.956029475462512 
1.709999999999828, -0.9567685526748985 
1.719999999999827, -0.9571620616502688 
1.729999999999826, -0.9572602532434423 
1.7399999999998248, -0.9571233192032984 
1.7499999999998237, -0.9568115373120314 
1.7599999999998226, -0.9563861385677577 
1.7699999999998215, -0.9559193524992372 
1.7799999999998204, -0.9555087425513615 
1.7899999999998193, -0.9552870551955547 
1.7999999999998182, -0.9554154976733923 
1.809999999999817, -0.9560527362870139 
1.819999999999816, -0.9573083378218648 
1.8299999999998149, -0.9592057465896723 
1.8399999999998138, -0.9616757955344435 
1.8499999999998127, -0.9645786153319961 
1.8599999999998116, -0.9677345851847164 
1.8699999999998105, -0.970948211595565 
1.8799999999998094, -0.9740233323057239 
1.8899999999998083, -0.9767786343217191 
1.8999999999998072, -0.9790709256718193 
1.909999999999806, -0.9808208362007544 
1.919999999999805, -0.9820243233025844 
1.9299999999998039, -0.9827391709937062 
1.9399999999998028, -0.9830545925250004 
1.9499999999998017, -0.9830625099397672 
1.9599999999998006, -0.9828429154324727 
1.9699999999997995, -0.9824649312606905 
1.9799999999997984, -0.9820000650693782 
1.9899999999997973, -0.9815431880926327 
1.9999999999997962, -0.9812337423072242 
2.0099999999998173, -0.9812624600009506 
2.0199999999998384, -0.9818454775658297 
2.0299999999998595, -0.983162930101059 
2.0399999999998806, -0.9852907586343542 
2.0499999999999017, -0.9881685894497101 
2.059999999999923, -0.9916193172708383 
2.069999999999944, -0.9953973231824047 
2.079999999999965, -0.999234069642094 
2.089999999999986, -1.002870023990453 
2.100000000000007, -1.0060810148392991 
2.1100000000000283, -1.0087072025155306 
2.1200000000000494, -1.0106776427540998 
2.1300000000000705, -1.012012991228878 
2.1400000000000916, -1.0127997956991408 
2.1500000000001127, -1.0131510532946 
2.160000000000134, -1.0131744538688399 
2.170000000000155, -1.012959037848024 
2.180000000000176, -1.0125791903554848 
2.190000000000197, -1.0121109950836298 
2.2000000000002182, -1.0116557669659025 
2.2100000000002393, -1.0113617586111583 
2.2200000000002604, -1.0114265395648714 
2.2300000000002815, -1.0120611279046325 
2.2400000000003026, -1.0134195632743004 
2.2500000000003237, -1.0155339146803182 
2.260000000000345, -1.018299543210897 
2.270000000000366, -1.0215138709780942 
2.280000000000387, -1.0249332389170207 
2.290000000000408, -1.02831586052065 
2.3000000000004293, -1.0314456025923822 
2.3100000000004504, -1.0341483105908398 
2.3200000000004715, -1.0363095226654384 
2.3300000000004926, -1.0378885586958198 
2.3400000000005137, -1.0389161870670915 
2.3500000000005348, -1.0394720751401327 
2.360000000000556, -1.0396538891599165 
2.370000000000577, -1.0395541595854043 
2.380000000000598, -1.039252788022267 
2.390000000000619, -1.038824202368789 
2.4000000000006403, -1.038354183988305 
2.4100000000006614, -1.0379583201359217 
2.4200000000006825, -1.037788256724572 
2.4300000000007036, -1.0380097151182808 
2.4400000000007247, -1.038751406967029 
2.450000000000746, -1.0400532314700317 
2.460000000000767, -1.0418511102272223 
2.470000000000788, -1.0440056505389208 
2.480000000000809, -1.0463479074598845 
2.49000000000083, -1.0487140680612659 
2.5000000000008513, -1.0509609387655132 
2.5100000000008724, -1.052969693288667 
2.5200000000008935, -1.0546484791806638 
2.5300000000009146, -1.055938979271061 
2.5400000000009357, -1.0568234178354037 
2.550000000000957, -1.0573240934371873 
2.560000000000978, -1.0574923298059593 
2.570000000000999, -1.057392760506214 
2.58000000000102, -1.057092288033791 
2.5900000000010412, -1.0566589713086636 
2.6000000000010624, -1.0561697029051982 
2.6100000000010835, -1.0557198989489325 
2.6200000000011046, -1.055424010072721 
2.6300000000011257, -1.0553969196132242 
2.6400000000011468, -1.0557195573135392 
2.650000000001168, -1.0564096899674593 
2.660000000001189, -1.057418666732682 
2.67000000000121, -1.0586534317566783 
2.680000000001231, -1.0600059789387524 
2.6900000000012523, -1.0613749760242652 
2.7000000000012734, -1.0626754441061783 
2.7100000000012945, -1.0638396450176273 
2.7200000000013156, -1.0648144579612224 
2.7300000000013367, -1.0655599276763867 
2.740000000001358, -1.0660511383295428 
2.750000000001379, -1.0662818008378883 
2.7600000000014, -1.0662656609875791 
2.770000000001421, -1.0660337150647066 
2.780000000001442, -1.0656295428823501 
2.7900000000014633, -1.0651069653075482 
2.8000000000014844, -1.064531555927786 
2.8100000000015055, -1.0639824231001753 
2.8200000000015266, -1.0635472149716814 
2.8300000000015477, -1.0633060494253304 
2.840000000001569, -1.0633097149752355 
2.85000000000159, -1.0635650774496452 
2.860000000001611, -1.0640361390964168 
2.870000000001632, -1.0646577279478209 
2.8800000000016532, -1.0653531257642643 
2.8900000000016743, -1.06604884283073 
2.9000000000016954, -1.066683455815316 
2.9100000000017165, -1.0672104067895651 
2.9200000000017377, -1.0675966550506444 
2.9300000000017588, -1.067819725616497 
2.94000000000178, -1.0678653720197584 
2.950000000001801, -1.067727210479935 
2.960000000001822, -1.06740824116983 
2.970000000001843, -1.0669228779267117 
2.9800000000018643, -1.0662983106011414 
2.9900000000018854, -1.0655753157911874 
3.0000000000019065, -1.0648087377534037 
3.0100000000019276, -1.0640659235956818 
3.0200000000019487, -1.0634198843476441 
3.03000000000197, -1.0629361546863663 
3.040000000001991, -1.0626574320801905 
3.050000000002012, -1.0625927144645921 
3.060000000002033, -1.062715282171688 
3.070000000002054, -1.062969939415614 
3.0800000000020753, -1.0632866978630906 
3.0900000000020964, -1.0635953645354888 
3.1000000000021175, -1.0638356048799822 
3.1100000000021386, -1.0639609718400735 
3.1200000000021597, -1.0639391148838069 
3.130000000002181, -1.0637506576866682 
3.140000000002202, -1.0633875353495386 
3.150000000002223, -1.0628508806239845 
3.160000000002244, -1.0621493076531525 
3.1700000000022652, -1.0612988286811051 
3.1800000000022863, -1.060324698090926 
3.1900000000023074, -1.0592642300002628 
3.2000000000023285, -1.0581689241183747 
3.2100000000023496, -1.057103766863606 
3.2200000000023707, -1.0561415483928973 
3.230000000002392, -1.0553514303156888 
3.240000000002413, -1.0547836364158998 
3.250000000002434, -1.0544548025383402 
3.260000000002455, -1.054340520979029 
3.2700000000024763, -1.0543806303621972 
3.2800000000024974, -1.054495859744762 
3.2900000000025185, -1.0546063714712983 
3.3000000000025396, -1.054643000697898 
3.3100000000025607, -1.0545498981796992 
3.3200000000025818, -1.0542835331504876 
3.330000000002603, -1.0538128843720964 
3.340000000002624, -1.0531216362258384 
3.350000000002645, -1.0522098232513457 
3.360000000002666, -1.0510926139721135 
3.3700000000026873, -1.0497970771836407 
3.3800000000027084, -1.0483599683752036 
3.3900000000027295, -1.0468284411036008 
3.4000000000027506, -1.0452627019198855 
3.4100000000027717, -1.0437375098522024 
3.420000000002793, -1.0423388681854973 
3.430000000002814, -1.041153091924909 
3.440000000002835, -1.040248012092009 
3.450000000002856, -1.0396513583233933 
3.460000000002877, -1.0393376262258847 
3.4700000000028983, -1.039234076522265 
3.4800000000029194, -1.0392438810678133 
3.4900000000029405, -1.039271253070186 
3.5000000000029616, -1.0392348807852583 
3.5100000000029827, -1.0390683641010754 
3.520000000003004, -1.0387152750169943 
3.530000000003025, -1.038126853291675 
3.540000000003046, -1.0372658416034763 
3.550000000003067, -1.03611431428497 
3.5600000000030882, -1.0346796083537169 
3.5700000000031094, -1.0329938545764141 
3.5800000000031305, -1.0311083905100942 
3.5900000000031516, -1.0290884293635583 
3.6000000000031727, -1.0270116504484659 
3.6100000000031938, -1.0249694618070218 
3.620000000003215, -1.0230660184031106 
3.630000000003236, -1.0214093328830574 
3.640000000003257, -1.020091378991606 
3.650000000003278, -1.0191611235675093 
3.6600000000032993, -1.0186041008594695 
3.6700000000033204, -1.0183443216767414 
3.6800000000033415, -1.018270210979878 
3.6900000000033626, -1.0182674383652959 
3.7000000000033837, -1.0182392349465246 
3.710000000003405, -1.0181089846846354 
3.720000000003426, -1.0178126853947878 
3.730000000003447, -1.017291520374711 
3.740000000003468, -1.0164913173269094 
3.750000000003489, -1.0153705223384986 
3.7600000000035103, -1.0139125007861263 
3.7700000000035314, -1.0121339729966463 
3.7800000000035525, -1.010083803660173 
3.7900000000035736, -1.0078343759352681 
3.8000000000035947, -1.0054730457572358 
3.810000000003616, -1.0030984797648008 
3.820000000003637, -1.0008200795966715 
3.830000000003658, -0.9987543119607851 
3.840000000003679, -0.9970118109775324 
3.8500000000037002, -0.9956739065584204 
3.8600000000037213, -0.9947664853375441 
3.8700000000037424, -0.9942472743279227 
3.8800000000037635, -0.9940184918099815 
3.8900000000037847, -0.9939587291620737 
3.9000000000038058, -0.9939538415961545 
3.910000000003827, -0.9939115718101711 
3.920000000003848, -0.9937598441289582 
3.930000000003869, -0.9934379531848843 
3.94000000000389, -0.9928899544799842 
3.9500000000039113, -0.9920656535833354 
3.9600000000039324, -0.9909296399434299 
3.9700000000039535, -0.9894732325860538 
3.9800000000039746, -0.9877209698121184 
3.9900000000039957, -0.9857268798382762 
4.000000000004016, -0.9835641408022772 
4.010000000003993, -0.9813160517830648 
4.02000000000397, -0.9790725701706368 
4.030000000003946, -0.9769301957185398 
4.040000000003923, -0.9749894945307978 
4.0500000000039, -0.9733452315229479 
4.0600000000038765, -0.972068132392329 
4.070000000003853, -0.971184021652984 
4.08000000000383, -0.9706621121101506 
4.090000000003807, -0.9704223139699886 
4.100000000003783, -0.9703591830728706 
4.11000000000376, -0.9703682913400815 
4.120000000003737, -0.9703617014193044 
4.130000000003713, -0.9702699883650071 
4.14000000000369, -0.9700370079241111 
4.150000000003667, -0.9696152197669969 
4.1600000000036434, -0.9689663643377411 
4.17000000000362, -0.9680676003721969 
4.180000000003597, -0.9669185653703691 
4.1900000000035735, -0.965543248460112 
4.20000000000355, -0.9639845395390646 
4.210000000003527, -0.9622955657306859 
4.220000000003504, -0.9605338177869156 
4.23000000000348, -0.9587603278417924 
4.240000000003457, -0.9570415071961447 
4.250000000003434, -0.955449395047524 
4.26000000000341, -0.9540569322203535 
4.270000000003387, -0.9529272042149632 
4.280000000003364, -0.9520988600932858 
4.2900000000033405, -0.9515734912958795 
4.300000000003317, -0.9513122523737703 
4.310000000003294, -0.9512452323480411 
4.320000000003271, -0.9512891841963518 
4.330000000003247, -0.95136423254038 
4.340000000003224, -0.9514029141225973 
4.350000000003201, -0.9513517091652158 
4.360000000003177, -0.9511695764129987 
4.370000000003154, -0.950827678399027 
4.380000000003131, -0.9503112173164896 
4.390000000003107, -0.949620985688556 
4.400000000003084, -0.9487716751410901 
4.410000000003061, -0.9477869049707579 
4.4200000000030375, -0.9466942325516904 
4.430000000003014, -0.9455233859584737 
4.440000000002991, -0.9443080403296884 
4.450000000002968, -0.9430889234506677 
4.460000000002944, -0.9419154946191736 
4.470000000002921, -0.9408441322109043 
4.480000000002898, -0.9399319088937272 
4.490000000002874, -0.9392266759426278 
4.500000000002851, -0.9387561248720292 
4.510000000002828, -0.9385198444103171 
4.520000000002804, -0.9384881017418369 
4.530000000002781, -0.9386085316297361 
4.540000000002758, -0.9388179802502187 
4.5500000000027345, -0.9390543031504958 
4.560000000002711, -0.9392641567375645 
4.570000000002688, -0.9394062782543303 
4.580000000002665, -0.9394520300434186 
4.590000000002641, -0.9393846763533402 
4.600000000002618, -0.939197459367041 
4.610000000002595, -0.9388903299202518 
4.620000000002571, -0.9384665586252068 
4.630000000002548, -0.937931364548976 
4.640000000002525, -0.9372934804882023 
4.6500000000025015, -0.9365684403160017 
4.660000000002478, -0.9357816545594029 
4.670000000002455, -0.9349701713371827 
4.6800000000024315, -0.9341825959689635 
4.690000000002408, -0.9334761832164983 
4.700000000002385, -0.9329099455803818 
4.710000000002362, -0.932534201953714 
4.720000000002338, -0.9323796487119159 
4.730000000002315, -0.9324503115712176 
4.740000000002292, -0.9327232513972561 
4.750000000002268, -0.9331548396763537 
4.760000000002245, -0.9336908167621202 
4.770000000002222, -0.934276352409419 
4.7800000000021985, -0.9348631376380622 
4.790000000002175, -0.935412379145349 
4.800000000002152, -0.935894159308844 
4.810000000002129, -0.9362844980397289 
4.820000000002105, -0.9365621272521369 
4.830000000002082, -0.9367074162809533 
4.840000000002059, -0.9367048738562256 
4.850000000002035, -0.93654796454656 
4.860000000002012, -0.9362430134043018 
4.870000000001989, -0.9358101703797239 
4.880000000001965, -0.9352824786392564 
4.890000000001942, -0.9347054398830525 
4.900000000001919, -0.9341377168640139 
4.9100000000018955, -0.9336505569552562 
4.920000000001872, -0.9333220064643101 
4.930000000001849, -0.9332241474070729 
