t, s[1].omega / s[0].omega 
0, -1.429996828522847 
0.009999999999999995, -1.4294496474768044 
0.019999999999999934, -1.4284465266868467 
0.029999999999999874, -1.426986890375352 
0.04000000000000012, -1.4250726179483748 
0.050000000000000405, -1.4227121936990197 
0.06000000000000069, -1.4199267070555952 
0.07000000000000098, -1.4167617832177597 
0.08000000000000126, -1.4133161416070594 
0.09000000000000155, -1.4097928554149701 
0.10000000000000184, -1.406538509997407 
0.11000000000000212, -1.4039777735570338 
0.12000000000000241, -1.4023976999040082 
0.130000000000002, -1.4017449580358519 
0.1400000000000009, -1.4016679876235554 
0.1499999999999998, -1.401745646402928 
0.1599999999999987, -1.4016460244005846 
0.1699999999999976, -1.4011210981150775 
0.1799999999999965, -1.3999066084492013 
0.1899999999999954, -1.397581369662393 
0.1999999999999943, -1.3933676329677598 
0.2099999999999932, -1.3858035323488949 
0.2199999999999921, -1.372200676560125 
0.229999999999991, -1.3478789111817118 
0.2399999999999899, -1.3055807588595991 
0.2499999999999888, -1.2365660648156895 
0.2599999999999877, -1.1359572488948777 
0.2699999999999866, -1.0114452669782512 
0.2799999999999855, -0.8845854188899235 
0.2899999999999844, -0.7773318136441028 
0.2999999999999833, -0.6990295876612294 
0.3099999999999822, -0.6472586550870364 
0.3199999999999811, -0.6150908666534162 
0.32999999999998, -0.5958972835016871 
0.3399999999999789, -0.5848055548441882 
0.3499999999999778, -0.5786070988746457 
0.35999999999997667, -0.5752946326285545 
0.36999999999997557, -0.5736444216931688 
0.37999999999997447, -0.5729212086838753 
0.38999999999997337, -0.5726872017597503 
0.39999999999997227, -0.5726827902517477 
0.40999999999997117, -0.5727532865449476 
0.41999999999997006, -0.5728045087726056 
0.42999999999996896, -0.572776523098177 
0.43999999999996786, -0.5726292538542128 
0.44999999999996676, -0.5723364081877315 
0.45999999999996566, -0.5718854822670395 
0.46999999999996456, -0.5712815465476561 
0.47999999999996346, -0.5705513945834118 
0.48999999999996235, -0.5697437794700531 
0.49999999999996125, -0.5689227071570938 
0.5099999999999602, -0.5681544858680815 
0.519999999999959, -0.5674929743220642 
0.529999999999958, -0.5669682082781176 
0.5399999999999568, -0.5665813578605606 
0.5499999999999557, -0.5663064088288372 
0.5599999999999546, -0.5660976238329534 
0.5699999999999535, -0.5659009623147175 
0.5799999999999524, -0.5656664255680222 
0.5899999999999513, -0.5653576978572649 
0.5999999999999502, -0.5649568048028741 
0.6099999999999491, -0.5644642725414827 
0.619999999999948, -0.5638974610862035 
0.6299999999999469, -0.5632902327186348 
0.6399999999999458, -0.5626964748612732 
0.6499999999999447, -0.562199396809645 
0.6599999999999436, -0.5619286510850076 
0.6699999999999425, -0.5620883201686145 
0.6799999999999414, -0.5630006004225043 
0.6899999999999403, -0.5651725779118145 
0.6999999999999392, -0.5693966092847675 
0.7099999999999381, -0.576897058463584 
0.719999999999937, -0.5895317606200471 
0.7299999999999359, -0.6100277534229847 
0.7399999999999348, -0.6421331636306692 
0.7499999999999337, -0.690327219129641 
0.7599999999999326, -0.7583659866731637 
0.7699999999999315, -0.8460394701408481 
0.7799999999999304, -0.9455477923336718 
0.7899999999999293, -1.0422569611133465 
0.7999999999999282, -1.122215764406554 
0.8099999999999271, -1.1795302641164045 
0.819999999999926, -1.216396883783062 
0.8299999999999249, -1.2384600631989193 
0.8399999999999238, -1.25109645557139 
0.8499999999999227, -1.258127865117427 
0.8599999999999216, -1.2619145461924006 
0.8699999999999205, -1.263811316034615 
0.8799999999999194, -1.2645667558351357 
0.8899999999999183, -1.2645893710991767 
0.8999999999999172, -1.264115995788483 
0.9099999999999161, -1.2633341673610197 
0.919999999999915, -1.2624968299460708 
0.9299999999999139, -1.2620280844668972 
0.9399999999999128, -1.2625426249659222 
0.9499999999999117, -1.2646589505162174 
0.9599999999999106, -1.2686435265650453 
0.9699999999999095, -1.2741995136362998 
0.9799999999999084, -1.2806380732045028 
0.9899999999999073, -1.2872436207981577 
0.9999999999999062, -1.2935088208018257 
1.0099999999999052, -1.2991615229434645 
1.019999999999904, -1.3040908996205194 
1.029999999999903, -1.3082701055467894 
1.039999999999902, -1.3117076572811546 
1.0499999999999008, -1.3144249096386884 
1.0599999999998997, -1.3164500991002905 
1.0699999999998986, -1.3178207213624213 
1.0799999999998975, -1.3185874152800836 
1.0899999999998964, -1.3188147616982469 
1.0999999999998953, -1.3185785849944425 
1.1099999999998942, -1.317963133817987 
1.119999999999893, -1.3170613878733364 
1.129999999999892, -1.315977027472441 
1.1399999999998909, -1.3148213779620084 
1.1499999999998898, -1.3137006081661031 
1.1599999999998887, -1.3127004363703485 
1.1699999999998876, -1.311883090328664 
1.1799999999998865, -1.3112963460939298 
1.1899999999998854, -1.31097290972568 
1.1999999999998843, -1.3109071913091397 
1.2099999999998832, -1.3110310710240103 
1.219999999999882, -1.311219426718428 
1.229999999999881, -1.3113221594421292 
1.2399999999998799, -1.311191758257835 
1.2499999999998788, -1.3106879062123489 
1.2599999999998777, -1.3096659630652137 
1.2699999999998766, -1.307965378614209 
1.2799999999998755, -1.305409239065692 
1.2899999999998744, -1.3018172595709845 
1.2999999999998733, -1.2970258987315626 
1.3099999999998722, -1.290904848540596 
1.319999999999871, -1.283363949312661 
1.32999999999987, -1.2743576409774777 
1.3399999999998689, -1.2639071921005134 
1.3499999999998678, -1.2521659094953543 
1.3599999999998666, -1.2395398182482738 
1.3699999999998655, -1.2268243342818819 
1.3799999999998644, -1.2152152287042475 
1.3899999999998633, -1.2059991407119717 
1.3999999999998622, -1.199954030458774 
1.4099999999998611, -1.196925326340778 
1.41999999999986, -1.196018201023817 
1.429999999999859, -1.196185201333675 
1.4399999999998578, -1.1966513728384185 
1.4499999999998567, -1.1969825104848117 
1.4599999999998556, -1.196961058670819 
1.4699999999998545, -1.196440685694677 
1.4799999999998534, -1.19523034272125 
1.4899999999998523, -1.1929864075089334 
1.4999999999998512, -1.1890685760109398 
1.5099999999998501, -1.1823080753421171 
1.519999999999849, -1.1706448849098776 
1.529999999999848, -1.150669355513987 
1.5399999999998468, -1.1173858178430933 
1.5499999999998457, -1.0650954219759554 
1.5599999999998446, -0.990588833883003 
1.5699999999998435, -0.8978904214021606 
1.5799999999998424, -0.7994954631206329 
1.5899999999998413, -0.7101330610956871 
1.5999999999998402, -0.638754344502401 
1.6099999999998391, -0.5866545071738156 
1.619999999999838, -0.5506815286723163 
1.629999999999837, -0.5266107349602861 
1.6399999999998358, -0.5107842355860647 
1.6499999999998347, -0.5004972679600843 
1.6599999999998336, -0.493883038079888 
1.6699999999998325, -0.4896908880024885 
1.6799999999998314, -0.48709226487584356 
1.6899999999998303, -0.48553970985018263 
1.6999999999998292, -0.4846712364572794 
1.709999999999828, -0.4842472017278537 
1.719999999999827, -0.48410903776482367 
1.729999999999826, -0.4841524716319484 
1.7399999999998248, -0.4843104672933811 
1.7499999999998237, -0.48454288335541146 
1.7599999999998226, -0.48483087104971745 
1.7699999999998215, -0.48517445943403126 
1.7799999999998204, -0.4855917330349809 
1.7899999999998193, -0.4861177876629988 
1.7999999999998182, -0.48680168042456873 
1.809999999999817, -0.48770013660452083 
1.819999999999816, -0.4888675912963978 
1.8299999999998149, -0.49034273922263905 
1.8399999999998138, -0.4921323892662216 
1.8499999999998127, -0.4941954019900311 
1.8599999999998116, -0.4964334661878188 
1.8699999999998105, -0.4986983202142049 
1.8799999999998094, -0.5008202725676585 
1.8899999999998083, -0.5026490861111086 
1.8999999999998072, -0.5040868520880429 
1.909999999999806, -0.5050970098288696 
1.919999999999805, -0.5056903929376132 
1.9299999999998039, -0.5059011314169315 
1.9399999999998028, -0.5057644488821794 
1.9499999999998017, -0.5053010152630455 
1.9599999999998006, -0.5045064149900239 
1.9699999999997995, -0.503341540761521 
1.9799999999997984, -0.5017184308965736 
1.9899999999997973, -0.49947341236169357 
1.9999999999997962, -0.4963117696888801 
2.0099999999998173, -0.49168850572598455 
2.0199999999998384, -0.4845430246007139 
2.0299999999998595, -0.47270898755905444 
2.0399999999998806, -0.4517043849361747 
2.0499999999999017, -0.4129256739076167 
2.059999999999923, -0.3439103106568328 
2.069999999999944, -0.239207500713092 
2.079999999999965, -0.11999733628011516 
2.089999999999986, -0.022284408729296355 
2.100000000000007, 0.04007564097041791 
2.1100000000000283, 0.07557461790280132 
2.1200000000000494, 0.09540179815475508 
2.1300000000000705, 0.10669864607393095 
2.1400000000000916, 0.11333347620783991 
2.1500000000001127, 0.11733296256199897 
2.160000000000134, 0.11977911119680112 
2.170000000000155, 0.12127103098545512 
2.180000000000176, 0.122153652434571 
2.190000000000197, 0.12263236940830025 
2.2000000000002182, 0.12283251078969462 
2.2100000000002393, 0.1228320763871066 
2.2200000000002604, 0.12268223292471239 
2.2300000000002815, 0.12242481054262287 
2.2400000000003026, 0.12211678319432884 
2.2500000000003237, 0.12187992240194793 
2.260000000000345, 0.12201543245768406 
2.270000000000366, 0.12326517346090958 
2.280000000000387, 0.12733181120576018 
2.290000000000408, 0.13754845379346922 
2.3000000000004293, 0.15844973432627388 
2.3100000000004504, 0.19163093968026718 
2.3200000000004715, 0.23037738012024628 
2.3300000000004926, 0.2639161166386811 
2.3400000000005137, 0.28720772563693314 
2.3500000000005348, 0.30154046162275666 
2.360000000000556, 0.3099295662352612 
2.370000000000577, 0.3147441850890736 
2.380000000000598, 0.3174386749680602 
2.390000000000619, 0.31884151897148344 
2.4000000000006403, 0.3194235833174496 
2.4100000000006614, 0.3194652420251091 
2.4200000000006825, 0.31915007366678355 
2.4300000000007036, 0.3186145515071378 
2.4400000000007247, 0.31797173464452466 
2.450000000000746, 0.31731996077371694 
2.460000000000767, 0.3167444127949842 
2.470000000000788, 0.31631712652211996 
2.480000000000809, 0.3160980310796768 
2.49000000000083, 0.31613649468377925 
2.5000000000008513, 0.31647076395983464 
2.5100000000008724, 0.31712237625264345 
2.5200000000008935, 0.31808455733492363 
2.5300000000009146, 0.31930803440536576 
2.5400000000009357, 0.32069297611038844 
2.550000000000957, 0.32209675394744575 
2.560000000000978, 0.32335887487415094 
2.570000000000999, 0.32433077110701547 
2.58000000000102, 0.324892170398125 
2.5900000000010412, 0.3249437377055413 
2.6000000000010624, 0.324378047146181 
2.6100000000010835, 0.32303586858075445 
2.6200000000011046, 0.32065247687426945 
2.6300000000011257, 0.3168005065104262 
2.6400000000011468, 0.3108601358181638 
2.650000000001168, 0.3021155679399401 
2.660000000001189, 0.2901585730248338 
2.67000000000121, 0.275627885191542 
2.680000000001231, 0.26060996159012056 
2.6900000000012523, 0.2476899120490324 
2.7000000000012734, 0.238304419895835 
2.7100000000012945, 0.23229193088849573 
2.7200000000013156, 0.22870340552136004 
2.7300000000013367, 0.226596856802814 
2.740000000001358, 0.2253154984959427 
2.750000000001379, 0.22446358363250796 
2.7600000000014, 0.22381260895234756 
2.770000000001421, 0.22322425648957245 
2.780000000001442, 0.22260046082399654 
2.7900000000014633, 0.22185122727531262 
2.8000000000014844, 0.22086962495930595 
2.8100000000015055, 0.21950431911489865 
2.8200000000015266, 0.21751785135397528 
2.8300000000015477, 0.2145103354573999 
2.840000000001569, 0.2097667890852457 
2.85000000000159, 0.2019370658469449 
2.860000000001611, 0.18835486335326632 
2.870000000001632, 0.16366557455823275 
2.8800000000016532, 0.11777790168875506 
2.8900000000016743, 0.03673078422080127 
2.9000000000016954, -0.0808050995414453 
2.9100000000017165, -0.2009626448241293 
2.9200000000017377, -0.28404985030390856 
2.9300000000017588, -0.32730863608252264 
2.94000000000178, -0.34713439168218846 
2.950000000001801, -0.3562311876374858 
2.960000000001822, -0.3607810355015301 
2.970000000001843, -0.36335161748530287 
2.9800000000018643, -0.3649723982727373 
2.9900000000018854, -0.3660689333824176 
3.0000000000019065, -0.36682996993735056 
3.0100000000019276, -0.36734674956394603 
3.0200000000019487, -0.36766651771284914 
3.03000000000197, -0.3678141554789319 
3.040000000001991, -0.3678021371208958 
3.050000000002012, -0.3676367042084633 
3.060000000002033, -0.36732358223659467 
3.070000000002054, -0.36687449213647316 
3.0800000000020753, -0.3663140950177838 
3.0900000000020964, -0.36568538293901476 
3.1000000000021175, -0.36505062137612604 
3.1100000000021386, -0.3644859656130906 
3.1200000000021597, -0.36407077650588665 
3.130000000002181, -0.36387521886058966 
3.140000000002202, -0.3639495379650786 
3.150000000002223, -0.3643159561082691 
3.160000000002244, -0.36496245441599307 
3.1700000000022652, -0.36583895179505604 
3.1800000000022863, -0.3668593115618489 
3.1900000000023074, -0.3679131944899852 
3.2000000000023285, -0.36888709330514885 
3.2100000000023496, -0.3696867043995537 
3.2200000000023707, -0.3702504107427456 
3.230000000002392, -0.370549138665067 
3.240000000002413, -0.37057569594290335 
3.250000000002434, -0.37033003206652293 
3.260000000002455, -0.3698048458743519 
3.2700000000024763, -0.36897196860797277 
3.2800000000024974, -0.367766394086962 
3.2900000000025185, -0.3660614590288892 
3.3000000000025396, -0.36362342836428124 
3.3100000000025607, -0.3600235593520788 
3.3200000000025818, -0.35446816018709526 
3.330000000002603, -0.34549100882197986 
3.340000000002624, -0.33050418623399097 
3.350000000002645, -0.3055595366624527 
3.360000000002666, -0.26663679303860094 
3.3700000000026873, -0.21401865513447407 
3.3800000000027084, -0.1562988329023426 
3.3900000000027295, -0.10558301420137607 
3.4000000000027506, -0.06815151977706486 
3.4100000000027717, -0.04317026319991047 
3.420000000002793, -0.02712707664194315 
3.430000000002814, -0.016828438240140093 
3.440000000002835, -0.010096414231905756 
3.450000000002856, -0.005582819231675274 
3.460000000002877, -0.002473161672887203 
3.4700000000028983, -0.000271985292510314 
3.4800000000029194, 0.0008643887071877062 
3.4900000000029405, 0.0015109548312417563 
3.5000000000029616, 0.0018720782587741127 
3.5100000000029827, 0.0020241827482835144 
3.520000000003004, 0.0020122296747527987 
3.530000000003025, 0.0018590709172454666 
3.540000000003046, 0.0015729275500852421 
3.550000000003067, 0.0011578092011246411 
3.5600000000030882, 0.0006377728445398136 
3.5700000000031094, 0.00012391665628600163 
3.5800000000031305, 0.000050033961541187635 
3.5900000000031516, 0.0014688552877042693 
3.6000000000031727, 0.00747069658884618 
3.6100000000031938, 0.024664275223342726 
3.620000000003215, 0.062339523135145194 
3.630000000003236, 0.12191964069342512 
3.640000000003257, 0.18607289629895146 
3.650000000003278, 0.23504400320577845 
3.6600000000032993, 0.26519974312580646 
3.6700000000033204, 0.2822049551983715 
3.6800000000033415, 0.29164586177408297 
3.6900000000033626, 0.2969324520233551 
3.7000000000033837, 0.2999002279584141 
3.710000000003405, 0.3015226521533487 
3.720000000003426, 0.3023332403945768 
3.730000000003447, 0.30264312435052837 
3.740000000003468, 0.3026499420669835 
3.750000000003489, 0.3024922763782507 
3.7600000000035103, 0.3022771888191471 
3.7700000000035314, 0.30209509781187316 
3.7800000000035525, 0.30202952172328795 
3.7900000000035736, 0.3021651064560855 
3.8000000000035947, 0.3025941237981322 
3.810000000003616, 0.3034184319890046 
3.820000000003637, 0.30474062668500984 
3.830000000003658, 0.3066367789641083 
3.840000000003679, 0.3091095014634482 
3.8500000000037002, 0.3120394502367248 
3.8600000000037213, 0.3151750236955737 
3.8700000000037424, 0.3181902077595493 
3.8800000000037635, 0.3207860462470227 
3.8900000000037847, 0.3227675473382018 
3.9000000000038058, 0.3240523754086981 
3.910000000003827, 0.3246258759445099 
3.920000000003848, 0.3244816918475019 
3.930000000003869, 0.3235732870634571 
3.94000000000389, 0.32178350232045017 
3.9500000000039113, 0.3189173498584154 
3.9600000000039324, 0.3147376768864933 
3.9700000000039535, 0.30907914899794225 
3.9800000000039746, 0.30205002664292935 
3.9900000000039957, 0.2942110125231098 
4.000000000004016, 0.2864966950927088 
4.010000000003993, 0.27981017511631107 
4.02000000000397, 0.27462059884405265 
4.030000000003946, 0.27090613042076517 
4.040000000003923, 0.2683696843219445 
4.0500000000039, 0.2666626283024382 
4.0600000000038765, 0.2654952232947702 
4.070000000003853, 0.26465726107075654 
4.08000000000383, 0.2640007775097463 
4.090000000003807, 0.2634151454647799 
4.100000000003783, 0.2628046710782093 
4.11000000000376, 0.26206903701715284 
4.120000000003737, 0.26108281466225397 
4.130000000003713, 0.25966705288525815 
4.14000000000369, 0.257540206336267 
4.150000000003667, 0.25422307045518594 
4.1600000000036434, 0.24884437432985287 
4.17000000000362, 0.23973446269073195 
4.180000000003597, 0.22359813307119078 
4.1900000000035735, 0.1940994238881996 
4.20000000000355, 0.1410708108873501 
4.210000000003527, 0.05714231730319105 
4.220000000003504, -0.04210934501201537 
4.23000000000348, -0.12063822547388273 
4.240000000003457, -0.16362400546980588 
4.250000000003434, -0.1819122656823428 
4.26000000000341, -0.18864965135801987 
4.270000000003387, -0.190934785676117 
4.280000000003364, -0.19167106303752152 
4.2900000000033405, -0.19190860343147895 
4.300000000003317, -0.19200087243152753 
4.310000000003294, -0.192057850732346 
4.320000000003271, -0.1921091128464049 
4.330000000003247, -0.19216054797826315 
4.340000000003224, -0.19221398759154523 
4.350000000003201, -0.19227453491002358 
4.360000000003177, -0.1923543614804751 
4.370000000003154, -0.1924760038244128 
4.380000000003131, -0.19267603085356672 
4.390000000003107, -0.19300905976498564 
4.400000000003084, -0.19355182568036297 
4.410000000003061, -0.19440721691498367 
4.4200000000030375, -0.19570855695679706 
4.430000000003014, -0.19762404929300578 
4.440000000002991, -0.20035880348405427 
4.450000000002968, -0.20414598612704102 
4.460000000002944, -0.20921004773504356 
4.470000000002921, -0.21568094231270749 
4.480000000002898, -0.22345890665881754 
4.490000000002874, -0.23209472989647653 
4.500000000002851, -0.2408183201409516 
4.510000000002828, -0.24878551200541102 
4.520000000002804, -0.25539829366614 
4.530000000002781, -0.2604562648862034 
4.540000000002758, -0.26407780909545775 
4.5500000000027345, -0.2665263878574669 
4.560000000002711, -0.268074504506226 
4.570000000002688, -0.26893969329904904 
4.580000000002665, -0.2692695512301943 
4.590000000002641, -0.26914759314655906 
4.600000000002618, -0.2686040202903314 
4.610000000002595, -0.2676263404201957 
4.620000000002571, -0.2661712294609749 
4.630000000002548, -0.26418250742193605 
4.640000000002525, -0.2616204285466195 
4.6500000000025015, -0.2585017169318403 
4.660000000002478, -0.2549362508142026 
4.670000000002455, -0.25113388234457695 
4.6800000000024315, -0.2473634218849011 
4.690000000002408, -0.24387976367683 
4.700000000002385, -0.2408617836439546 
4.710000000002362, -0.23839124082662536 
4.720000000002338, -0.2364684579383953 
4.730000000002315, -0.2350416788551707 
4.740000000002292, -0.23403202962415737 
4.750000000002268, -0.23334893241211316 
4.760000000002245, -0.23289893535893788 
4.770000000002222, -0.23259226502846655 
4.7800000000021985, -0.2323489522804238 
4.790000000002175, -0.2321036035912456 
4.800000000002152, -0.2318070072463692 
4.810000000002129, -0.23142382640324102 
4.820000000002105, -0.23092706464346724 
4.830000000002082, -0.23029036450991508 
4.840000000002059, -0.22947821466888588 
4.850000000002035, -0.2284320392799227 
4.860000000002012, -0.22704659396304644 
4.870000000001989, -0.22512435788216517 
4.880000000001965, -0.22228197852671966 
4.890000000001942, -0.21775782289683968 
4.900000000001919, -0.21004211689926972 
4.9100000000018955, -0.19631176322964375 
