t, s[1].omega / s[0].omega 
0, -0.3600031552368249 
0.009999999999999995, -0.36038883682243666 
0.019999999999999934, -0.3608871506953863 
0.029999999999999874, -0.3614370605247471 
0.04000000000000012, -0.3619619413368848 
0.050000000000000405, -0.3623914681199279 
0.06000000000000069, -0.36267874615784507 
0.07000000000000098, -0.3628038258879915 
0.08000000000000126, -0.36276514942889704 
0.09000000000000155, -0.36256648979412814 
0.10000000000000184, -0.3622049092614216 
0.11000000000000212, -0.3616603855663878 
0.12000000000000241, -0.3608843928808644 
0.130000000000002, -0.35978332588339657 
0.1400000000000009, -0.3581930363652552 
0.1499999999999998, -0.35584621433962466 
0.1599999999999987, -0.3523550959053468 
0.1699999999999976, -0.3472775860457723 
0.1799999999999965, -0.3403615438616525 
0.1899999999999954, -0.33191165682422824 
0.1999999999999943, -0.3228924819470023 
0.2099999999999932, -0.3144721114995611 
0.2199999999999921, -0.3074195141798101 
0.229999999999991, -0.30192788814704163 
0.2399999999999899, -0.2978193572155853 
0.2499999999999888, -0.294794168249755 
0.2599999999999877, -0.2925698975939915 
0.2699999999999866, -0.29092710375715736 
0.2799999999999855, -0.2897110638352663 
0.2899999999999844, -0.28882038618533146 
0.2999999999999833, -0.2881952994994772 
0.3099999999999822, -0.28780968249562744 
0.3199999999999811, -0.2876678552548352 
0.32999999999998, -0.28780662770216736 
0.3399999999999789, -0.2883036352302412 
0.3499999999999778, -0.28929403359693473 
0.35999999999997667, -0.2909987124980172 
0.36999999999997557, -0.29376679262234606 
0.37999999999997447, -0.2981278958803684 
0.38999999999997337, -0.3048202630307847 
0.39999999999997227, -0.31468171710307047 
0.40999999999997117, -0.3281766879392474 
0.41999999999997006, -0.34446610184154486 
0.42999999999996896, -0.36084989182088567 
0.43999999999996786, -0.37410362439787115 
0.44999999999996676, -0.38282945913593275 
0.45999999999996566, -0.387799157918319 
0.46999999999996456, -0.3904694610974372 
0.47999999999996346, -0.39193383254897396 
0.48999999999996235, -0.39278855422756803 
0.49999999999996125, -0.39331748005382783 
0.5099999999999602, -0.39365134035214655 
0.519999999999959, -0.39385198924488307 
0.529999999999958, -0.39394996666399756 
0.5399999999999568, -0.39396044005750375 
0.5499999999999557, -0.39389050226983746 
0.5599999999999546, -0.3937437394019575 
0.5699999999999535, -0.39352471766524194 
0.5799999999999524, -0.3932441649635906 
0.5899999999999513, -0.39292378261796157 
0.5999999999999502, -0.3925979394746988 
0.6099999999999491, -0.39230951121205865 
0.619999999999948, -0.39209986347326675 
0.6299999999999469, -0.39199657322162945 
0.6399999999999458, -0.3920038137762002 
0.6499999999999447, -0.39209915004941553 
0.6599999999999436, -0.39223858284211505 
0.6699999999999425, -0.3923688895128493 
0.6799999999999414, -0.3924422271164091 
0.6899999999999403, -0.3924259315134877 
0.6999999999999392, -0.3923037114796939 
0.7099999999999381, -0.39207004582246013 
0.719999999999937, -0.3917221006933446 
0.7299999999999359, -0.39125195931384876 
0.7399999999999348, -0.390639082757626 
0.7499999999999337, -0.3898404684131964 
0.7599999999999326, -0.388773531511882 
0.7699999999999315, -0.3872830974095681 
0.7799999999999304, -0.38507981677017594 
0.7899999999999293, -0.3816438435830195 
0.7999999999999282, -0.3761450244471224 
0.8099999999999271, -0.36759410770754575 
0.819999999999926, -0.3555406119326868 
0.8299999999999249, -0.34101456778031086 
0.8399999999999238, -0.32637702500200744 
0.8499999999999227, -0.3137923258291425 
0.8599999999999216, -0.3041305191739885 
0.8699999999999205, -0.29718432975131326 
0.8799999999999194, -0.29233751398146357 
0.8899999999999183, -0.2889834590210827 
0.8999999999999172, -0.28665907162710413 
0.9099999999999161, -0.2850460751472646 
0.919999999999915, -0.28393713389718217 
0.9299999999999139, -0.28320302305199163 
0.9399999999999128, -0.2827692660112325 
0.9499999999999117, -0.2826020204542033 
0.9599999999999106, -0.282701487669665 
0.9699999999999095, -0.28310167857290913 
0.9799999999999084, -0.2838763387772361 
0.9899999999999073, -0.28515166238706063 
0.9999999999999062, -0.28712648309833244 
1.0099999999999052, -0.29009806489637635 
1.019999999999904, -0.2944813608581953 
1.029999999999903, -0.30078183045405493 
1.039999999999902, -0.30943306170061524 
1.0499999999999008, -0.3204026260099996 
1.0599999999998997, -0.3327071456864328 
1.0699999999998986, -0.3444733734542245 
1.0799999999998975, -0.3539612714026822 
1.0899999999998964, -0.36057421595364725 
1.0999999999998953, -0.3647582211537701 
1.1099999999998942, -0.36728488810015614 
1.119999999999893, -0.36878982538006794 
1.129999999999892, -0.36968044361378516 
1.1399999999998909, -0.370191826615485 
1.1499999999998898, -0.3704540482442157 
1.1599999999998887, -0.3705371480711379 
1.1699999999998876, -0.3704767434922224 
1.1799999999998865, -0.3702885540425968 
1.1899999999998854, -0.3699781036218864 
1.1999999999998843, -0.36954945276441475 
1.2099999999998832, -0.36901439363904176 
1.219999999999882, -0.36840046163875245 
1.229999999999881, -0.36775337763701665 
1.2399999999998799, -0.3671302342871728 
1.2499999999998788, -0.3665851044439965 
1.2599999999998777, -0.3661540983175172 
1.2699999999998766, -0.3658466280939127 
1.2799999999998755, -0.3656451884747009 
1.2899999999998744, -0.3655124501091768 
1.2999999999998733, -0.3654028475371018 
1.3099999999998722, -0.36527444397809394 
1.319999999999871, -0.36509653549242355 
1.32999999999987, -0.36485088258244713 
1.3399999999998689, -0.36452797620265964 
1.3499999999998678, -0.3641212661017052 
1.3599999999998666, -0.36362124557994185 
1.3699999999998655, -0.3630092189856866 
1.3799999999998644, -0.3622484106846492 
1.3899999999998633, -0.3612671785855511 
1.3999999999998622, -0.3599238987668919 
1.4099999999998611, -0.35793543282695195 
1.41999999999986, -0.35475259689205174 
1.429999999999859, -0.34942958755455134 
1.4399999999998578, -0.34075313931483514 
1.4499999999998567, -0.32808514957839524 
1.4599999999998556, -0.31258544953945305 
1.4699999999998545, -0.29703016811367444 
1.4799999999998534, -0.28387437564021356 
1.4899999999998523, -0.27398409341519897 
1.4999999999998512, -0.2670171668062554 
1.5099999999998501, -0.26224038234112984 
1.519999999999849, -0.2589816808587173 
1.529999999999848, -0.2567493204154859 
1.5399999999998468, -0.25521553620563325 
1.5499999999998457, -0.2541721151111671 
1.5599999999998446, -0.2534925964944109 
1.5699999999998435, -0.2531070263458676 
1.5799999999998424, -0.25298756986993765 
1.5899999999998413, -0.2531426492909586 
1.5999999999998402, -0.2536183839258152 
1.6099999999998391, -0.25450747177030425 
1.619999999999838, -0.2559668008160889 
1.629999999999837, -0.2582451908393609 
1.6399999999998358, -0.2617188336160379 
1.6499999999998347, -0.2669158756464518 
1.6599999999998336, -0.2744669647133917 
1.6699999999998325, -0.2848442405662146 
1.6799999999998314, -0.2977738078933637 
1.6899999999998303, -0.31166661036886223 
1.6999999999998292, -0.32407438050141274 
1.709999999999828, -0.3332801887274764 
1.719999999999827, -0.3391902636774746 
1.729999999999826, -0.3426856478061195 
1.7399999999998248, -0.3447017452131261 
1.7499999999998237, -0.34587393355873963 
1.7599999999998226, -0.3465633409243818 
1.7699999999998215, -0.3469621241720538 
1.7799999999998204, -0.34717118583850654 
1.7899999999998193, -0.3472435142809066 
1.7999999999998182, -0.34720653069127533 
1.809999999999817, -0.3470741849358869 
1.819999999999816, -0.34685498718433305 
1.8299999999998149, -0.3465590489497169 
1.8399999999998138, -0.3462047694670794 
1.8499999999998127, -0.34582345245619994 
1.8599999999998116, -0.3454587961516008 
1.8699999999998105, -0.345159583354562 
1.8799999999998094, -0.344967628565923 
1.8899999999998083, -0.3449057219405519 
1.8999999999998072, -0.34496983137353104 
1.909999999999806, -0.3451281378314518 
1.919999999999805, -0.3453282406935763 
1.9299999999998039, -0.34551122971516596 
1.9399999999998028, -0.34562684083150985 
1.9499999999998017, -0.345642274748107 
1.9599999999998006, -0.3455415668272908 
1.9699999999997995, -0.34531826719718894 
1.9799999999997984, -0.34496597493704095 
1.9899999999997973, -0.34446898887036126 
1.9999999999997962, -0.3437921313946109 
2.0099999999998173, -0.34286628826303434 
2.0199999999998384, -0.34156424292070225 
2.0299999999998595, -0.33966088114518894 
2.0399999999998806, -0.3367799664783332 
2.0499999999999017, -0.33236700436979955 
2.059999999999923, -0.32581167901041785 
2.069999999999944, -0.3168710304226689 
2.079999999999965, -0.3062064267489948 
2.089999999999986, -0.2953225066721842 
2.100000000000007, -0.2856972441618268 
2.1100000000000283, -0.27804556595471874 
2.1200000000000494, -0.2723438086679455 
2.1300000000000705, -0.26822321834988483 
2.1400000000000916, -0.26526988037122307 
2.1500000000001127, -0.2631458643967832 
2.160000000000134, -0.26160885430156994 
2.170000000000155, -0.2604969947188444 
2.180000000000176, -0.2597089560035507 
2.190000000000197, -0.25918860371151276 
2.2000000000002182, -0.2589160396141561 
2.2100000000002393, -0.2589049543533487 
2.2200000000002604, -0.2592065225221526 
2.2300000000002815, -0.2599211659044628 
2.2400000000003026, -0.2612209575939652 
2.2500000000003237, -0.2633865019881906 
2.260000000000345, -0.2668597958255948 
2.270000000000366, -0.2722985595955134 
2.280000000000387, -0.28056172230400456 
2.290000000000408, -0.2924311899134967 
2.3000000000004293, -0.3078029155180494 
2.3100000000004504, -0.32464870377275556 
2.3200000000004715, -0.3394048400649627 
2.3300000000004926, -0.34954358992701684 
2.3400000000005137, -0.35520935596699604 
2.3500000000005348, -0.3580021859706179 
2.360000000000556, -0.3593476862105437 
2.370000000000577, -0.3600438525908717 
2.380000000000598, -0.36044852411009376 
2.390000000000619, -0.3607062244559332 
2.4000000000006403, -0.36087369257493856 
2.4100000000006614, -0.36097391426558445 
2.4200000000006825, -0.36101692502798743 
2.4300000000007036, -0.3610077202664601 
2.4400000000007247, -0.36094999240963455 
2.450000000000746, -0.3608491901811412 
2.460000000000767, -0.3607160651903279 
2.470000000000788, -0.36057032959842744 
2.480000000000809, -0.36044267768065563 
2.49000000000083, -0.3603728472257123 
2.5000000000008513, -0.36040252028078335 
2.5100000000008724, -0.36056422645230524 
2.5200000000008935, -0.36086929753473906 
2.5300000000009146, -0.36129883879809843 
2.5400000000009357, -0.3618024728411821 
2.550000000000957, -0.36230871174935486 
2.560000000000978, -0.36274487658822674 
2.570000000000999, -0.36305645812583137 
2.58000000000102, -0.36321524780071024 
2.5900000000010412, -0.36321434569676636 
2.6000000000010624, -0.36305624498133765 
2.6100000000010835, -0.3627405184052515 
2.6200000000011046, -0.36225323391096687 
2.6300000000011257, -0.36155627463925805 
2.6400000000011468, -0.36057271480428743 
2.650000000001168, -0.35916388613672207 
2.660000000001189, -0.35709645996393835 
2.67000000000121, -0.3540117633568219 
2.680000000001231, -0.3494486025034863 
2.6900000000012523, -0.34302155311101395 
2.7000000000012734, -0.33479132095536845 
2.7100000000012945, -0.32554045909012347 
2.7200000000013156, -0.31649885571319725 
2.7300000000013367, -0.3086719943792425 
2.740000000001358, -0.30246086533928784 
2.750000000001379, -0.2977785078156144 
2.7600000000014, -0.29433048131920325 
2.770000000001421, -0.2918054512320746 
2.780000000001442, -0.28995022161765494 
2.7900000000014633, -0.28858175874968406 
2.8000000000014844, -0.2875772030631042 
2.8100000000015055, -0.28686064361907976 
2.8200000000015266, -0.2863930336321545 
2.8300000000015477, -0.2861668616859381 
2.840000000001569, -0.28620600276750735 
2.85000000000159, -0.2865714400050787 
2.860000000001611, -0.28737446039053893 
2.870000000001632, -0.2888000801203132 
2.8800000000016532, -0.29114390606749135 
2.8900000000016743, -0.2948619184872703 
2.9000000000016954, -0.300614032822205 
2.9100000000017165, -0.30922484978107334 
2.9200000000017377, -0.32137392037202495 
2.9300000000017588, -0.33681206965492916 
2.94000000000178, -0.3535011961489156 
2.950000000001801, -0.36815781368527545 
2.960000000001822, -0.37854699081597193 
2.970000000001843, -0.38476381629969897 
2.9800000000018643, -0.3881659218544759 
2.9900000000018854, -0.3900159344951336 
3.0000000000019065, -0.3910722076663543 
3.0100000000019276, -0.3917127102477455 
3.0200000000019487, -0.39211428636772494 
3.03000000000197, -0.3923604557430015 
3.040000000001991, -0.3924922592313918 
3.050000000002012, -0.39253029184812943 
3.060000000002033, -0.3924844859075788 
3.070000000002054, -0.3923594798463808 
3.0800000000020753, -0.3921591511582226 
3.0900000000020964, -0.3918917238543437 
3.1000000000021175, -0.3915750353660292 
3.1100000000021386, -0.3912396629011302 
3.1200000000021597, -0.3909268560712276 
3.130000000002181, -0.39068013889042885 
3.140000000002202, -0.3905331724084101 
3.150000000002223, -0.39049875660176026 
3.160000000002244, -0.3905632482230805 
3.1700000000022652, -0.3906888435541808 
3.1800000000022863, -0.3908238394940873 
3.1900000000023074, -0.3909172187455819 
3.2000000000023285, -0.39093069072621994 
3.2100000000023496, -0.39084279744582734 
3.2200000000023707, -0.39064514636506703 
3.230000000002392, -0.3903347433783718 
3.240000000002413, -0.38990599964430583 
3.250000000002434, -0.38934326603861 
3.260000000002455, -0.3886121129344001 
3.2700000000024763, -0.38764525033051356 
3.2800000000024974, -0.38631582957340493 
3.2900000000025185, -0.3843865441464929 
3.3000000000025396, -0.38142365238999953 
3.3100000000025607, -0.37669944036028175 
3.3200000000025818, -0.36923450976989447 
3.330000000002603, -0.3583017291419663 
3.340000000002624, -0.3443961752045621 
3.350000000002645, -0.3295724339367728 
3.360000000002666, -0.31622566935118057 
3.3700000000026873, -0.3056603248080715 
3.3800000000027084, -0.297937945815827 
3.3900000000027295, -0.29251247701723215 
3.4000000000027506, -0.28875223313121146 
3.4100000000027717, -0.2861471632999901 
3.420000000002793, -0.28433779657871333 
3.430000000002814, -0.2830866037800159 
3.440000000002835, -0.28224333254644907 
3.450000000002856, -0.28171862410184423 
3.460000000002877, -0.2814672659466198 
3.4700000000028983, -0.28147948925829996 
3.4800000000029194, -0.281778907585465 
3.4900000000029405, -0.2824266230289802 
3.5000000000029616, -0.2835319589370262 
3.5100000000029827, -0.28527071400779025 
3.520000000003004, -0.2879104432765939 
3.530000000003025, -0.2918351752431237 
3.540000000003046, -0.2975404281369014 
3.550000000003067, -0.3055241558195359 
3.5600000000030882, -0.3159616031775657 
3.5700000000031094, -0.3281894362540998 
3.5800000000031305, -0.3405050721376441 
3.5900000000031516, -0.35094621132689946 
3.6000000000031727, -0.35850361878539794 
3.6100000000031938, -0.3633860587231652 
3.620000000003215, -0.36635497345189794 
3.630000000003236, -0.36812387916432115 
3.640000000003257, -0.3691733271856468 
3.650000000003278, -0.36978559990272253 
3.6600000000032993, -0.37011776226748916 
3.6700000000033204, -0.37025503375515956 
3.6800000000033415, -0.37024185696972856 
3.6900000000033626, -0.37009915422343564 
3.7000000000033837, -0.36983498017520294 
3.710000000003405, -0.3694531764378627 
3.720000000003426, -0.368962277775161 
3.730000000003447, -0.36838409972980646 
3.740000000003468, -0.36775838961052965 
3.750000000003489, -0.3671391881473347 
3.7600000000035103, -0.36658251680737364 
3.7700000000035314, -0.36613096812449164 
3.7800000000035525, -0.36580255402060835 
3.7900000000035736, -0.3655876508867242 
3.8000000000035947, -0.3654538388871438 
3.810000000003616, -0.36535640018980964 
3.820000000003637, -0.3652507206732506 
3.830000000003658, -0.36510179125136805 
3.840000000003679, -0.3648875259624985 
3.8500000000037002, -0.3645962412209939 
3.8600000000037213, -0.3642211029166295 
3.8700000000037424, -0.3637540103906623 
3.8800000000037635, -0.3631794322168511 
3.8900000000037847, -0.3624665284452448 
3.9000000000038058, -0.3615553674596982 
3.910000000003827, -0.36032881931830024 
3.920000000003848, -0.35855482186421883 
3.930000000003869, -0.3557803223287758 
3.94000000000389, -0.35119414646218494 
3.9500000000039113, -0.3436390349666022 
3.9600000000039324, -0.3322028950286155 
3.9700000000039535, -0.31743380485326 
3.9800000000039746, -0.3017413980519532 
3.9900000000039957, -0.28783621818254834 
4.000000000004016, -0.2770566992282297 
4.010000000003993, -0.269336575881429 
4.02000000000397, -0.26400590682588754 
4.030000000003946, -0.26036223211004644 
4.040000000003923, -0.25786530798999424 
4.0500000000039, -0.25614660393149286 
4.0600000000038765, -0.25496867139650886 
4.070000000003853, -0.25418486603988344 
4.08000000000383, -0.25371086102249196 
4.090000000003807, -0.253507541803275 
4.100000000003783, -0.25357293338000775 
4.11000000000376, -0.2539416120597399 
4.120000000003737, -0.25469138730545643 
4.130000000003713, -0.255958301371103 
4.14000000000369, -0.2579616047531299 
4.150000000003667, -0.2610382959848141 
4.1600000000036434, -0.2656757458785698 
4.17000000000362, -0.272496429763187 
4.180000000003597, -0.2820781133610756 
4.1900000000035735, -0.2944552867432501 
4.20000000000355, -0.3084446243344121 
4.210000000003527, -0.32168383923470506 
4.220000000003504, -0.3320337722534439 
4.23000000000348, -0.33891744486282044 
4.240000000003457, -0.34305151514781246 
4.250000000003434, -0.3454369139018926 
4.26000000000341, -0.34681618393121344 
4.270000000003387, -0.3476258210255943 
4.280000000003364, -0.34809995954305445 
4.2900000000033405, -0.34836125189571165 
4.300000000003317, -0.3484740114059771 
4.310000000003294, -0.3484717319351508 
4.320000000003271, -0.34837145932623537 
4.330000000003247, -0.34818254888822053 
4.340000000003224, -0.3479137448867895 
4.350000000003201, -0.3475799841807414 
4.360000000003177, -0.3472079498215802 
4.370000000003154, -0.346837547317232 
4.380000000003131, -0.3465168304188861 
4.390000000003107, -0.3462911020959772 
4.400000000003084, -0.3461903393087161 
4.410000000003061, -0.34621963063383043 
4.4200000000030375, -0.34635574080584525 
4.430000000003014, -0.3465516046447539 
4.440000000002991, -0.3467486072605578 
4.450000000002968, -0.34689228015637685 
4.460000000002944, -0.3469438415766536 
4.470000000002921, -0.3468825503067226 
4.480000000002898, -0.3467000091847478 
4.490000000002874, -0.34639097260840485 
4.500000000002851, -0.34594392132101176 
4.510000000002828, -0.3453314517608638 
4.520000000002804, -0.34449775699533786 
4.530000000002781, -0.3433383539023932 
4.540000000002758, -0.34166585137679967 
4.5500000000027345, -0.33915923727497266 
4.560000000002711, -0.3353185915451403 
4.570000000002688, -0.32951742938828865 
4.580000000002665, -0.3213195768876402 
4.590000000002641, -0.311043349152545 
4.600000000002618, -0.2999857208408856 
4.610000000002595, -0.2897577641645702 
4.620000000002571, -0.2813717972525175 
4.630000000002548, -0.2750148085699361 
4.640000000002525, -0.270388883827665 
4.6500000000025015, -0.26707132120791294 
4.660000000002478, -0.26469092416212964 
4.670000000002455, -0.26297251758259116 
4.6800000000024315, -0.2617284450032954 
4.690000000002408, -0.2608383498679141 
4.700000000002385, -0.26023175733831055 
4.710000000002362, -0.2598768529872098 
4.720000000002338, -0.2597756424240025 
4.730000000002315, -0.2599654754005997 
4.740000000002292, -0.2605278049213178 
4.750000000002268, -0.26160640864878093 
4.760000000002245, -0.2634386320270138 
4.770000000002222, -0.26640266105269605 
4.7800000000021985, -0.2710745442150029 
4.790000000002175, -0.27825111026093546 
4.800000000002152, -0.28879562308913054 
4.810000000002129, -0.3030374560635418 
4.820000000002105, -0.31970872028134056 
4.830000000002082, -0.3356075354996646 
4.840000000002059, -0.34754399628911326 
4.850000000002035, -0.35472705960684686 
4.860000000002012, -0.35843743947634266 
