t, s[1].omega / s[0].omega 
0, -1.3299919274206415 
0.009999999999999995, -1.3289896876356666 
0.019999999999999934, -1.327601949614566 
0.029999999999999874, -1.3258299709503265 
0.04000000000000012, -1.3236755312979431 
0.050000000000000405, -1.3211410221044722 
0.06000000000000069, -1.3182295670843063 
0.07000000000000098, -1.3149451697200065 
0.08000000000000126, -1.311292883250064 
0.09000000000000155, -1.3072789978579835 
0.10000000000000184, -1.3029112390528115 
0.11000000000000212, -1.2981989705376917 
0.12000000000000241, -1.293153394316495 
0.130000000000002, -1.2877877406381613 
0.1400000000000009, -1.2821174409788039 
0.1499999999999998, -1.2761602789789734 
0.1599999999999987, -1.2699365173059485 
0.1699999999999976, -1.2634690026739597 
0.1799999999999965, -1.2567832560879622 
0.1899999999999954, -1.2499075595499818 
0.1999999999999943, -1.242873052270706 
0.2099999999999932, -1.235713846998697 
0.2199999999999921, -1.228467168922605 
0.229999999999991, -1.2211735052123833 
0.2399999999999899, -1.213876733659892 
0.2499999999999888, -1.2066241768598116 
0.2599999999999877, -1.1994665083732312 
0.2699999999999866, -1.1924574247811537 
0.2799999999999855, -1.1856529978766783 
0.2899999999999844, -1.1791106385608745 
0.2999999999999833, -1.1728876397878205 
0.3099999999999822, -1.1670393180224699 
0.3199999999999811, -1.161616834980265 
0.32999999999998, -1.1566648441986183 
0.3399999999999789, -1.1522191584449677 
0.3499999999999778, -1.1483046625498556 
0.35999999999997667, -1.1449336934579621 
0.36999999999997557, -1.1421050721156325 
0.37999999999997447, -1.139803904132469 
0.38999999999997337, -1.138002178382772 
0.39999999999997227, -1.1366600997086809 
0.40999999999997117, -1.135728009590261 
0.41999999999997006, -1.135148690419061 
0.42999999999996896, -1.1348598227478741 
0.43999999999996786, -1.1347963717107252 
0.44999999999996676, -1.1348927135605875 
0.45999999999996566, -1.1350843665095038 
0.46999999999996456, -1.1353092507301867 
0.47999999999996346, -1.135508460416708 
0.48999999999996235, -1.1356265789020308 
0.49999999999996125, -1.1356116022038405 
0.5099999999999602, -1.1354145565209486 
0.519999999999959, -1.134988903062621 
0.529999999999958, -1.1342898224150268 
0.5399999999999568, -1.1332734639775328 
0.5499999999999557, -1.1318962369144654 
0.5599999999999546, -1.1301142097364933 
0.5699999999999535, -1.1278826771560821 
0.5799999999999524, -1.1251559453377695 
0.5899999999999513, -1.1218873793189819 
0.5999999999999502, -1.1180297478441112 
0.6099999999999491, -1.1135358894825147 
0.619999999999948, -1.1083597081351977 
0.6299999999999469, -1.1024574848550106 
0.6399999999999458, -1.0957894662905434 
0.6499999999999447, -1.0883216593995113 
0.6599999999999436, -1.0800277303732473 
0.6699999999999425, -1.0708908774823032 
0.6799999999999414, -1.0609055282304594 
0.6899999999999403, -1.050078706106223 
0.6999999999999392, -1.0384309251987132 
0.7099999999999381, -1.0259965030837153 
0.719999999999937, -1.0128232311800687 
0.7299999999999359, -0.9989714011610741 
0.7399999999999348, -0.9845122473771752 
0.7499999999999337, -0.9695259192723417 
0.7599999999999326, -0.9540991364797093 
0.7699999999999315, -0.93832269776697 
0.7799999999999304, -0.9222890123189341 
0.7899999999999293, -0.9060898007986595 
0.7999999999999282, -0.8898140797067403 
0.8099999999999271, -0.8735465024054655 
0.819999999999926, -0.8573660901035808 
0.8299999999999249, -0.8413453510098381 
0.8399999999999238, -0.8255497587389947 
0.8499999999999227, -0.810037542970734 
0.8599999999999216, -0.7948597358787365 
0.8699999999999205, -0.7800604155447094 
0.8799999999999194, -0.7656770905845193 
0.8899999999999183, -0.7517411766464612 
0.8999999999999172, -0.7382785236409011 
0.9099999999999161, -0.7253099612411043 
0.919999999999915, -0.7128518384647683 
0.9299999999999139, -0.7009165404642919 
0.9399999999999128, -0.6895129717606192 
0.9499999999999117, -0.6786469999917887 
0.9599999999999106, -0.6683218578852362 
0.9699999999999095, -0.6585385037489252 
0.9799999999999084, -0.6492959424896491 
0.9899999999999073, -0.6405915101909619 
0.9999999999999062, -0.6324211257890247 
1.0099999999999052, -0.6247795135208223 
1.019999999999904, -0.6176603997085254 
1.029999999999903, -0.6110566871829604 
1.039999999999902, -0.604960610310973 
1.0499999999999008, -0.5993638732278739 
1.0599999999998997, -0.5942577735219655 
1.0699999999998986, -0.5896333132946341 
1.0799999999998975, -0.5854812992377327 
1.0899999999998964, -0.581792433133747 
1.0999999999998953, -0.5785573939923494 
1.1099999999998942, -0.575766912885097 
1.119999999999893, -0.5734118414222493 
1.129999999999892, -0.5714832147252177 
1.1399999999998909, -0.569972309678115 
1.1499999999998898, -0.5688706991856282 
1.1599999999998887, -0.5681703031156051 
1.1699999999998876, -0.5678634365573516 
1.1799999999998865, -0.5679428559747918 
1.1899999999998854, -0.5684018037714259 
1.1999999999998843, -0.5692340517052616 
1.2099999999998832, -0.5704339434898391 
1.219999999999882, -0.5719964367846497 
1.229999999999881, -0.5739171446063904 
1.2399999999998799, -0.5761923759723694 
1.2499999999998788, -0.5788191753091536 
1.2599999999998777, -0.5817953598130248 
1.2699999999998766, -0.585119553524131 
1.2799999999998755, -0.5887912163648543 
1.2899999999998744, -0.5928106657888986 
1.2999999999998733, -0.597179087989306 
1.3099999999998722, -0.6018985348255016 
1.319999999999871, -0.6069719017647044 
1.32999999999987, -0.6124028812154708 
1.3399999999998689, -0.6181958846983799 
1.3499999999998678, -0.6243559264046555 
1.3599999999998666, -0.6308884599109064 
1.3699999999998655, -0.6377991592425802 
1.3799999999998644, -0.6450936352317282 
1.3899999999998633, -0.6527770783478749 
1.3999999999998622, -0.6608538200798297 
1.4099999999998611, -0.6693268067332184 
1.41999999999986, -0.6781969824399418 
1.429999999999859, -0.6874625825323539 
1.4399999999998578, -0.6971183444952224 
1.4499999999998567, -0.7071546517001308 
1.4599999999998556, -0.7175566351469146 
1.4699999999998545, -0.728303270337952 
1.4799999999998534, -0.7393665196604733 
1.4899999999998523, -0.7507105841802896 
1.4999999999998512, -0.762291340835853 
1.5099999999998501, -0.7740560492711233 
1.519999999999849, -0.7859434140502177 
1.529999999999848, -0.7978840797314267 
1.5399999999998468, -0.8098016157721424 
1.5499999999998457, -0.821614014447083 
1.5599999999998446, -0.8332356791652404 
1.5699999999998435, -0.8445798269615925 
1.5799999999998424, -0.8555611746001864 
1.5899999999998413, -0.8660987317093528 
1.5999999999998402, -0.8761184959139591 
1.6099999999998391, -0.8855558411604558 
1.619999999999838, -0.8943574142471299 
1.629999999999837, -0.902482403461903 
1.6399999999998358, -0.909903109540373 
1.6499999999998347, -0.9166048218349907 
1.6599999999998336, -0.9225850698555683 
1.6699999999998325, -0.9278523724360057 
1.6799999999998314, -0.9324246378959077 
1.6899999999998303, -0.9363273775281418 
1.6999999999998292, -0.939591884434532 
1.709999999999828, -0.9422535056520676 
1.719999999999827, -0.9443501040874537 
1.729999999999826, -0.9459207739106591 
1.7399999999998248, -0.9470048432074357 
1.7499999999998237, -0.9476411735327172 
1.7599999999998226, -0.9478677485521175 
1.7699999999998215, -0.9477215329343092 
1.7799999999998204, -0.9472385769709544 
1.7899999999998193, -0.9464543405641153 
1.7999999999998182, -0.9454042106646057 
1.809999999999817, -0.9441241875207069 
1.819999999999816, -0.9426517159842355 
1.8299999999998149, -0.9410266376696118 
1.8399999999998138, -0.9392922373026521 
1.8499999999998127, -0.9374963517461352 
1.8599999999998116, -0.9356925028601354 
1.8699999999998105, -0.9339410057685196 
1.8799999999998094, -0.9323099928080104 
1.8899999999998083, -0.9308762813158965 
1.8999999999998072, -0.9297260016668958 
1.909999999999806, -0.9289548920698053 
1.919999999999805, -0.9286681602470804 
1.9299999999998039, -0.9289798110192176 
1.9399999999998028, -0.9300113447981981 
1.9499999999998017, -0.9318897468210586 
1.9599999999998006, -0.9347447123064342 
1.9699999999997995, -0.9387050901233213 
1.9799999999997984, -0.9438945782111398 
1.9899999999997973, -0.9504267682999864 
1.9999999999997962, -0.9583997143199459 
2.0099999999998173, -0.9678902844712355 
2.0199999999998384, -0.9789486435786895 
2.0299999999998595, -0.9915932876681736 
2.0399999999998806, -1.0058070998280224 
2.0499999999999017, -1.0215348962596564 
2.059999999999923, -1.0386828671206854 
2.069999999999944, -1.0571201799214616 
2.079999999999965, -1.0766828100818022 
2.089999999999986, -1.0971794180289622 
2.100000000000007, -1.1183988451333187 
2.1100000000000283, -1.140118599592786 
2.1200000000000494, -1.1621135904473852 
2.1300000000000705, -1.1841643672186573 
2.1400000000000916, -1.206064232108928 
2.1500000000001127, -1.2276247838926675 
2.160000000000134, -1.2486796840011534 
2.170000000000155, -1.2690866593735546 
2.180000000000176, -1.2887279364051836 
2.190000000000197, -1.3075094154699243 
2.2000000000002182, -1.3253589433500568 
2.2100000000002393, -1.3422240322925203 
2.2200000000002604, -1.3580693272218172 
2.2300000000002815, -1.3728740557370402 
2.2400000000003026, -1.3866296245301197 
2.2500000000003237, -1.3993374613066374 
2.260000000000345, -1.4110071486203102 
2.270000000000366, -1.4216548567724951 
2.280000000000387, -1.4313020561756906 
2.290000000000408, -1.4399744733303035 
2.3000000000004293, -1.4477012466171046 
2.3100000000004504, -1.4545142365276125 
2.3200000000004715, -1.4604474481808851 
2.3300000000004926, -1.4655365307355936 
2.3400000000005137, -1.4698183274649679 
2.3500000000005348, -1.4733304606995616 
2.360000000000556, -1.4761109464111806 
2.370000000000577, -1.4781978427705946 
2.380000000000598, -1.4796289445139303 
2.390000000000619, -1.480441539536804 
2.4000000000006403, -1.480672245198251 
2.4100000000006614, -1.4803569390473355 
2.4200000000006825, -1.4795307920782967 
2.4300000000007036, -1.4782284025018606 
2.4400000000007247, -1.4764840151307828 
2.450000000000746, -1.4743317971238241 
2.460000000000767, -1.4718061270773257 
2.470000000000788, -1.4689418442329905 
2.480000000000809, -1.4657744015496528 
2.49000000000083, -1.4623398743507514 
2.5000000000008513, -1.4586747979206687 
2.5100000000008724, -1.454815842777739 
2.5200000000008935, -1.4507993810893167 
2.5300000000009146, -1.4466610425035187 
2.5400000000009357, -1.442435389307852 
2.550000000000957, -1.4381558452994097 
2.560000000000978, -1.4338549800350184 
2.570000000000999, -1.429565178746837 
2.58000000000102, -1.4253196277607862 
2.5900000000010412, -1.4211534355873436 
2.6000000000010624, -1.417104616997162 
2.6100000000010835, -1.4132146176744 
2.6200000000011046, -1.4095280710695954 
2.6300000000011257, -1.4060915666590816 
2.6400000000011468, -1.4029513650615988 
2.650000000001168, -1.4001501983513829 
2.660000000001189, -1.3977235047034244 
2.67000000000121, -1.3956956151396316 
2.680000000001231, -1.3940764869715812 
2.6900000000012523, -1.3928595306818634 
2.7000000000012734, -1.3920209033481181 
2.7100000000012945, -1.391520378726013 
2.7200000000013156, -1.3913036170864574 
2.7300000000013367, -1.3913054197224477 
2.740000000001358, -1.3914534190455143 
2.750000000001379, -1.3916716457352412 
2.7600000000014, -1.3918835123219866 
2.770000000001421, -1.392013914917879 
2.780000000001442, -1.391990331507441 
2.7900000000014633, -1.3917429457742294 
2.8000000000014844, -1.3912039277872006 
2.8100000000015055, -1.390306053549118 
2.8200000000015266, -1.3889808541488977 
2.8300000000015477, -1.3871564678243102 
2.840000000001569, -1.3847553405635642 
2.85000000000159, -1.3816918956776378 
2.860000000001611, -1.377870278488532 
2.870000000001632, -1.3731822833730825 
2.8800000000016532, -1.3675055882375922 
2.8900000000016743, -1.3607024550282691 
2.9000000000016954, -1.3526191008811317 
2.9100000000017165, -1.343085997267201 
2.9200000000017377, -1.331919405063563 
2.9300000000017588, -1.3189244888900025 
2.94000000000178, -1.3039003567713316 
2.950000000001801, -1.2866473197288888 
2.960000000001822, -1.2669765372831705 
2.970000000001843, -1.2447219897700965 
2.9800000000018643, -1.2197543895460645 
2.9900000000018854, -1.1919962259730272 
3.0000000000019065, -1.1614366819750666 
3.0100000000019276, -1.128144749461511 
3.0200000000019487, -1.0922786247047251 
3.03000000000197, -1.0540895074468934 
3.040000000001991, -1.0139183494266995 
3.050000000002012, -0.9721849076663527 
3.060000000002033, -0.9293695486857035 
3.070000000002054, -0.8859894044802672 
3.0800000000020753, -0.8425714246152879 
3.0900000000020964, -0.7996253574984172 
3.1000000000021175, -0.7576196039209588 
3.1100000000021386, -0.7169622588408057 
3.1200000000021597, -0.6779886802684818 
3.130000000002181, -0.6409558557137421 
3.140000000002202, -0.6060429163752555 
3.150000000002223, -0.5733565299283163 
3.160000000002244, -0.5429396282497456 
3.1700000000022652, -0.5147819505802446 
3.1800000000022863, -0.48883110985802375 
3.1900000000023074, -0.4650032158816408 
3.2000000000023285, -0.44319242802240716 
3.2100000000023496, -0.42327910713254513 
3.2200000000023707, -0.4051364651126306 
3.230000000002392, -0.3886357672026296 
3.240000000002413, -0.37365023530848146 
3.250000000002434, -0.3600578449691753 
3.260000000002455, -0.3477432188738429 
3.2700000000024763, -0.3365988090373518 
3.2800000000024974, -0.3265255376655638 
3.2900000000025185, -0.317433040194675 
3.3000000000025396, -0.3092396272608692 
3.3100000000025607, -0.3018720578538051 
3.3200000000025818, -0.29526519474925056 
3.330000000002603, -0.28936159580948656 
3.340000000002624, -0.28411108072627633 
3.350000000002645, -0.27947030186973004 
3.360000000002666, -0.2754023396214177 
3.3700000000026873, -0.27187633643521314 
3.3800000000027084, -0.26886717945134536 
3.3900000000027295, -0.26635523841602776 
3.4000000000027506, -0.26432616362309935 
3.4100000000027717, -0.2627707473469919 
3.420000000002793, -0.2616848515800769 
3.430000000002814, -0.2610694046643043 
3.440000000002835, -0.2609304694887044 
3.450000000002856, -0.261279386201514 
3.460000000002877, -0.26213299275728347 
3.4700000000028983, -0.26351392698139875 
3.4800000000029194, -0.2654510140677159 
3.4900000000029405, -0.2679797433804178 
3.5000000000029616, -0.27114283791237526 
3.5100000000029827, -0.2749909184939001 
3.520000000003004, -0.2795832624868593 
3.530000000003025, -0.2849886527509234 
3.540000000003046, -0.29128630647782283 
3.550000000003067, -0.2985668641986225 
3.5600000000030882, -0.30693340578310835 
3.5700000000031094, -0.3165024412209776 
3.5800000000031305, -0.32740479782858983 
3.5900000000031516, -0.3397862905800306 
3.6000000000031727, -0.3538080169936347 
3.6100000000031938, -0.3696460615684975 
3.620000000003215, -0.38749032788330634 
3.630000000003236, -0.4075421428372232 
3.640000000003257, -0.43001020579421323 
3.650000000003278, -0.45510440173410505 
3.6600000000032993, -0.48302698810420036 
3.6700000000033204, -0.5139607375942481 
3.6800000000033415, -0.5480538209354127 
3.6900000000033626, -0.585401594010988 
3.7000000000033837, -0.6260260446416411 
3.710000000003405, -0.6698544435393654 
3.720000000003426, -0.7166996374383076 
3.730000000003447, -0.766245219021381 
3.740000000003468, -0.8180392069266975 
3.750000000003489, -0.8714995388499722 
3.7600000000035103, -0.9259333985257352 
3.7700000000035314, -0.9805702129822134 
3.7800000000035525, -1.0346054922873071 
3.7900000000035736, -1.0872502699825766 
3.8000000000035947, -1.1377795205877625 
3.810000000003616, -1.1855730724432088 
3.820000000003637, -1.2301441625638703 
3.830000000003658, -1.2711533449313615 
3.840000000003679, -1.308408161826948 
3.8500000000037002, -1.3418511077993427 
3.8600000000037213, -1.3715395764638372 
3.8700000000037424, -1.3976216743173664 
3.8800000000037635, -1.4203112656416215 
3.8900000000037847, -1.4398647221563965 
3.9000000000038058, -1.4565608918702735 
3.910000000003827, -1.4706849695725603 
3.920000000003848, -1.482516334360406 
3.930000000003869, -1.4923200259962903 
3.94000000000389, -1.5003413265593601 
3.9500000000039113, -1.506802846145353 
3.9600000000039324, -1.5119035322800158 
3.9700000000039535, -1.515819092576123 
3.9800000000039746, -1.5187034103439876 
3.9900000000039957, -1.5206906244011096 
4.000000000004016, -1.5218976255676309 
4.010000000003993, -1.5224267866231096 
4.02000000000397, -1.5223687864315016 
4.030000000003946, -1.521805411402722 
4.040000000003923, -1.5208122195097493 
4.0500000000039, -1.519460937584231 
4.0600000000038765, -1.517821439321679 
4.070000000003853, -1.5159631318286728 
4.08000000000383, -1.513955579408924 
4.090000000003807, -1.5118682326578783 
4.100000000003783, -1.5097692219164853 
4.11000000000376, -1.5077233164137283 
4.120000000003737, -1.5057893229669117 
4.130000000003713, -1.5040173581678926 
4.14000000000369, -1.5024465207790554 
4.150000000003667, -1.5011034695721202 
4.1600000000036434, -1.5000022593018938 
4.17000000000362, -1.4991455307471773 
4.180000000003597, -1.498526855231674 
4.1900000000035735, -1.4981337810777902 
4.20000000000355, -1.4979509865966434 
4.210000000003527, -1.4979629433076918 
4.220000000003504, -1.4981556247536945 
4.23000000000348, -1.4985170196250868 
4.240000000003457, -1.499036466798122 
4.250000000003434, -1.4997030676396719 
4.26000000000341, -1.5005036001037235 
4.270000000003387, -1.501420428012768 
4.280000000003364, -1.502429856875402 
4.2900000000033405, -1.5035012489567068 
4.300000000003317, -1.5045970130729336 
4.310000000003294, -1.5056733811444518 
4.320000000003271, -1.506681724956077 
4.330000000003247, -1.5075700863261587 
4.340000000003224, -1.5082845987904407 
4.350000000003201, -1.508770550926714 
4.360000000003177, -1.5089729483874983 
4.370000000003154, -1.508836540669678 
4.380000000003131, -1.5083053661310948 
4.390000000003107, -1.50732192447298 
4.400000000003084, -1.505826110968619 
4.410000000003061, -1.5037540489953662 
4.4200000000030375, -1.5010369467028009 
4.430000000003014, -1.497600088282092 
4.440000000002991, -1.4933620557060039 
4.450000000002968, -1.4882342653565146 
4.460000000002944, -1.4821208956509755 
4.470000000002921, -1.4749192751786169 
4.480000000002898, -1.4665207939436207 
4.490000000002874, -1.4568123911265738 
4.500000000002851, -1.445678659847044 
4.510000000002828, -1.433004591888174 
4.520000000002804, -1.4186789629143228 
4.530000000002781, -1.4025983312923502 
4.540000000002758, -1.3846715909604794 
4.5500000000027345, -1.3648249801105772 
4.560000000002711, -1.3430074014577662 
4.570000000002688, -1.319195855248123 
4.580000000002665, -1.2934007227782085 
4.590000000002641, -1.2656705689469716 
4.600000000002618, -1.2360960650676522 
4.610000000002595, -1.204812581914072 
4.620000000002571, -1.1720009876011723 
4.630000000002548, -1.1378862277545922 
4.640000000002525, -1.1027333850546734 
4.6500000000025015, -1.0668411180397273 
4.660000000002478, -1.0305326515578355 
4.670000000002455, -0.994144796853763 
4.6800000000024315, -0.9580157626083573 
4.690000000002408, -0.9224727179887331 
4.700000000002385, -0.8878201355302632 
4.710000000002362, -0.8543298544479675 
4.720000000002338, -0.8222335791341044 
4.730000000002315, -0.7917182106887638 
4.740000000002292, -0.7629240663376847 
4.750000000002268, -0.7359457358503261 
4.760000000002245, -0.7108351012356529 
4.770000000002222, -0.6876059261231927 
4.7800000000021985, -0.6662393998759486 
4.790000000002175, -0.6466900770675122 
4.800000000002152, -0.6288917564491062 
4.810000000002129, -0.6127629667542476 
4.820000000002105, -0.5982118475342124 
4.830000000002082, -0.5851403175757226 
4.840000000002059, -0.5734475046863844 
4.850000000002035, -0.5630324677719203 
4.860000000002012, -0.5537962777393763 
4.870000000001989, -0.54564354210012 
4.880000000001965, -0.5384834638404891 
4.890000000001942, -0.5322305223784168 
4.900000000001919, -0.5268048566444271 
4.9100000000018955, -0.5221324200577002 
4.920000000001872, -0.5181449661628651 
