t, s[1].omega / s[0].omega 
0, -0.5399866632026309 
0.009999999999999995, -0.5387050398786775 
0.019999999999999934, -0.5375433399018121 
0.029999999999999874, -0.5365058835713047 
0.04000000000000012, -0.5355794423333714 
0.050000000000000405, -0.5347457121584643 
0.06000000000000069, -0.5339904019105306 
0.07000000000000098, -0.5333082370352942 
0.08000000000000126, -0.5327052781029248 
0.09000000000000155, -0.5322004912363992 
0.10000000000000184, -0.5318280851201441 
0.11000000000000212, -0.5316415062326303 
0.12000000000000241, -0.531719590943069 
0.130000000000002, -0.5321752276013205 
0.1400000000000009, -0.5331667212968254 
0.1499999999999998, -0.5349113247964414 
0.1599999999999987, -0.5376979540055702 
0.1699999999999976, -0.5418897353475007 
0.1799999999999965, -0.5478937877544526 
0.1899999999999954, -0.5560567967708779 
0.1999999999999943, -0.5664434439456526 
0.2099999999999932, -0.5785366844528435 
0.2199999999999921, -0.591104447561293 
0.229999999999991, -0.602566794524848 
0.2399999999999899, -0.6117489813046907 
0.2499999999999888, -0.6183410552440025 
0.2599999999999877, -0.6227134304968149 
0.2699999999999866, -0.6254666064693789 
0.2799999999999855, -0.6271330833493707 
0.2899999999999844, -0.6280897519121169 
0.2999999999999833, -0.6285742090926205 
0.3099999999999822, -0.6287235269063872 
0.3199999999999811, -0.6286049756093102 
0.32999999999998, -0.6282333351809999 
0.3399999999999789, -0.6275766411859582 
0.3499999999999778, -0.626553609187843 
0.35999999999997667, -0.625028136485597 
0.36999999999997557, -0.6228127487286328 
0.37999999999997447, -0.6197029359863795 
0.38999999999997337, -0.6155639903440757 
0.39999999999997227, -0.6104525456710478 
0.40999999999997117, -0.6046832363567223 
0.41999999999997006, -0.5987485396793566 
0.42999999999996896, -0.5931312261021413 
0.43999999999996786, -0.5881551500677442 
0.44999999999996676, -0.583955097223029 
0.45999999999996566, -0.5805288318554543 
0.46999999999996456, -0.5778040701118823 
0.47999999999996346, -0.5756859360300466 
0.48999999999996235, -0.5740814512361465 
0.49999999999996125, -0.5729088024936234 
0.5099999999999602, -0.572099072222741 
0.519999999999959, -0.5715952257516602 
0.529999999999958, -0.5713506958132468 
0.5399999999999568, -0.571328436671605 
0.5499999999999557, -0.5715006023242849 
0.5599999999999546, -0.5718487182269743 
0.5699999999999535, -0.5723640940214921 
0.5799999999999524, -0.573048031616517 
0.5899999999999513, -0.5739109457651239 
0.5999999999999502, -0.5749688540911466 
0.6099999999999491, -0.5762352414819856 
0.619999999999948, -0.5777070558608336 
0.6299999999999469, -0.5793469156236805 
0.6399999999999458, -0.5810698908546901 
0.6499999999999447, -0.5827483818153595 
0.6599999999999436, -0.584242743316745 
0.6699999999999425, -0.5854449060166553 
0.6799999999999414, -0.5863067917704881 
0.6899999999999403, -0.586837252784582 
0.6999999999999392, -0.5870773922427617 
0.7099999999999381, -0.5870741814281493 
0.719999999999937, -0.5868632625367523 
0.7299999999999359, -0.5864606427554901 
0.7399999999999348, -0.5858584941084737 
0.7499999999999337, -0.585020333446862 
0.7599999999999326, -0.583871460599297 
0.7699999999999315, -0.5822795747412053 
0.7799999999999304, -0.5800174227990113 
0.7899999999999293, -0.5766967702129286 
0.7999999999999282, -0.5716767138070986 
0.8099999999999271, -0.5640263791503586 
0.819999999999926, -0.5527947382336498 
0.8299999999999249, -0.5378386764813748 
0.8399999999999238, -0.5206719162279431 
0.8499999999999227, -0.5040066341958165 
0.8599999999999216, -0.4900985421699812 
0.8699999999999205, -0.4797511907155158 
0.8799999999999194, -0.47262523196817324 
0.8899999999999183, -0.4679521360070552 
0.8999999999999172, -0.4649846516995587 
0.9099999999999161, -0.46314792197128407 
0.919999999999915, -0.46204276873750505 
0.9299999999999139, -0.4614054722196935 
0.9399999999999128, -0.4610662771945904 
0.9499999999999117, -0.46091773553566934 
0.9599999999999106, -0.460893133858103 
0.9699999999999095, -0.46095272400796966 
0.9799999999999084, -0.4610755401135164 
0.9899999999999073, -0.4612551028139106 
0.9999999999999062, -0.4614975514722538 
1.0099999999999052, -0.46182052992759254 
1.019999999999904, -0.4622507050048725 
1.029999999999903, -0.4628177215752783 
1.039999999999902, -0.46354334433885513 
1.0499999999999008, -0.46442686001463607 
1.0599999999998997, -0.465431601265162 
1.0699999999998986, -0.46648147179134697 
1.0799999999998975, -0.4674755467996777 
1.0899999999998964, -0.46831785353921684 
1.0999999999998953, -0.4689452707328222 
1.1099999999998942, -0.46933657656485045 
1.119999999999893, -0.46950167299000467 
1.129999999999892, -0.46946280387552075 
1.1399999999998909, -0.46923832291193684 
1.1499999999998898, -0.46883175571197766 
1.1599999999998887, -0.46822343542787304 
1.1699999999998876, -0.4673600693693011 
1.1799999999998865, -0.46613682598198114 
1.1899999999998854, -0.46436567314044924 
1.1999999999998843, -0.46172556607932613 
1.2099999999998832, -0.45770705713606896 
1.219999999999882, -0.4516218056085325 
1.229999999999881, -0.44284075156928904 
1.2399999999998799, -0.4313601687941076 
1.2499999999998788, -0.41828397243747223 
1.2599999999998777, -0.4054537663516461 
1.2699999999998766, -0.39440120278593527 
1.2799999999998755, -0.3857359346117093 
1.2899999999998744, -0.3793228532896647 
1.2999999999998733, -0.3747164578458532 
1.3099999999998722, -0.3714505381833747 
1.319999999999871, -0.36914807098843294 
1.32999999999987, -0.3675356978006108 
1.3399999999998689, -0.36642601630822735 
1.3499999999998678, -0.36569556002451714 
1.3599999999998666, -0.36526715802357296 
1.3699999999998655, -0.3650980354383791 
1.3799999999998644, -0.36517296354882395 
1.3899999999998633, -0.3655015663880852 
1.3999999999998622, -0.36611915156220365 
1.4099999999998611, -0.3670905859142924 
1.41999999999986, -0.36851635655819776 
1.429999999999859, -0.3705383467842619 
1.4399999999998578, -0.3733387273892631 
1.4499999999998567, -0.3771172660094694 
1.4599999999998556, -0.38202268372181647 
1.4699999999998545, -0.3880204441461232 
1.4799999999998534, -0.3947419325472133 
1.4899999999998523, -0.4014720168559167 
1.4999999999998512, -0.4074122939943174 
1.5099999999998501, -0.41205986483024326 
1.519999999999849, -0.41535354941498703 
1.529999999999848, -0.41752366941461583 
1.5399999999998468, -0.41887455683947505 
1.5499999999998457, -0.41966148333673303 
1.5599999999998446, -0.4200603029551708 
1.5699999999998435, -0.4201778126836312 
1.5799999999998424, -0.42006947963510094 
1.5899999999998413, -0.4197532246924263 
1.5999999999998402, -0.41921861797421583 
1.6099999999998391, -0.41843493665475534 
1.619999999999838, -0.4173633778193067 
1.629999999999837, -0.41597820889679155 
1.6399999999998358, -0.4142951830228542 
1.6499999999998347, -0.4123925597421062 
1.6599999999998336, -0.410403451371322 
1.6699999999998325, -0.40847559130449096 
1.6799999999998314, -0.4067239456933103 
1.6899999999998303, -0.4052061404060926 
1.6999999999998292, -0.40392683877953967 
1.709999999999828, -0.4028573083764978 
1.719999999999827, -0.4019557382675136 
1.729999999999826, -0.4011817138409236 
1.7399999999998248, -0.40050414641384535 
1.7499999999998237, -0.3999044416663475 
1.7599999999998226, -0.39937736868699014 
1.7699999999998215, -0.398931945227395 
1.7799999999998204, -0.39859422256440613 
1.7899999999998193, -0.3984136202651427 
1.7999999999998182, -0.3984747226676436 
1.809999999999817, -0.3989171695608826 
1.819999999999816, -0.39996684827681916 
1.8299999999998149, -0.40197978352769903 
1.8399999999998138, -0.4054889812033415 
1.8499999999998127, -0.41120717550830055 
1.8599999999998116, -0.4198540508066883 
1.8699999999998105, -0.43160046014641296 
1.8799999999998094, -0.44519737625157607 
1.8899999999998083, -0.4578290786573973 
1.8999999999998072, -0.46685537523859005 
1.909999999999806, -0.4718129430517948 
1.919999999999805, -0.47403458756599637 
1.9299999999998039, -0.47498574707003893 
1.9399999999998028, -0.4754940441278702 
1.9499999999998017, -0.47587118396927214 
1.9599999999998006, -0.4761932458282735 
1.9699999999997995, -0.4764625834937587 
1.9799999999997984, -0.47666859604454626 
1.9899999999997973, -0.4768030899805707 
1.9999999999997962, -0.47686095191969785 
2.0099999999998173, -0.47683787380120063 
2.0199999999998384, -0.47672884351241196 
2.0299999999998595, -0.4765285955593289 
2.0399999999998806, -0.47623452335185046 
2.0499999999999017, -0.4758517802692551 
2.059999999999923, -0.47539861996431176 
2.069999999999944, -0.47490817599025287 
2.079999999999965, -0.47442325902564847 
2.089999999999986, -0.47398474117764045 
2.100000000000007, -0.47361881473126266 
2.1100000000000283, -0.47332935225272166 
2.1200000000000494, -0.47309847758549645 
2.1300000000000705, -0.4728944326201228 
2.1400000000000916, -0.4726828338020333 
2.1500000000001127, -0.47243625692151864 
2.160000000000134, -0.4721387114745149 
2.170000000000155, -0.47178509874567964 
2.180000000000176, -0.4713783618207302 
2.190000000000197, -0.4709272574482828 
2.2000000000002182, -0.4704465801127551 
2.2100000000002393, -0.46996081229592435 
2.2200000000002604, -0.46951205564404364 
2.2300000000002815, -0.46917314542503225 
2.2400000000003026, -0.46906537737470166 
2.2500000000003237, -0.46937304257931656 
2.260000000000345, -0.4703247931025783 
2.270000000000366, -0.4720658252576643 
2.280000000000387, -0.4743154048878525 
2.290000000000408, -0.4759042473321659 
2.3000000000004293, -0.4749258364577618 
2.3100000000004504, -0.47026390274827323 
2.3200000000004715, -0.4630328102844561 
2.3300000000004926, -0.4556170534948608 
2.3400000000005137, -0.449683285372911 
2.3500000000005348, -0.4456183367361392 
2.360000000000556, -0.4430946467373616 
2.370000000000577, -0.44163080461303705 
2.380000000000598, -0.440829576861253 
2.390000000000619, -0.44041932244681287 
2.4000000000006403, -0.4402294238618521 
2.4100000000006614, -0.4401571483014459 
2.4200000000006825, -0.44014199314954394 
2.4300000000007036, -0.4401489648803595 
2.4400000000007247, -0.44015882861568867 
2.450000000000746, -0.44016332519034507 
2.460000000000767, -0.440163805217214 
2.470000000000788, -0.4401717419859709 
2.480000000000809, -0.4402090757900322 
2.49000000000083, -0.44030594682924373 
2.5000000000008513, -0.44049407776846283 
2.5100000000008724, -0.44079612935697926 
2.5200000000008935, -0.4412138618758016 
2.5300000000009146, -0.4417199547327762 
2.5400000000009357, -0.4422590828117869 
2.550000000000957, -0.44276106473603755 
2.560000000000978, -0.44316131696508654 
2.570000000000999, -0.4434172728806275 
2.58000000000102, -0.44351219269527586 
2.5900000000010412, -0.443447502432275 
2.6000000000010624, -0.4432308193661939 
2.6100000000010835, -0.4428652468336856 
2.6200000000011046, -0.44234097929738114 
2.6300000000011257, -0.44162694896690685 
2.6400000000011468, -0.44065835134838915 
2.650000000001168, -0.4393138228365224 
2.660000000001189, -0.4373731394384639 
2.67000000000121, -0.4344467903057338 
2.680000000001231, -0.4298925989150059 
2.6900000000012523, -0.42282676001645597 
2.7000000000012734, -0.4124849563066258 
2.7100000000012945, -0.3990420819553038 
2.7200000000013156, -0.38414569786894975 
2.7300000000013367, -0.37012965985858703 
2.740000000001358, -0.3585966842525837 
2.750000000001379, -0.34992652238786776 
2.7600000000014, -0.34373023425352534 
2.770000000001421, -0.3394024203934357 
2.780000000001442, -0.336402348903121 
2.7900000000014633, -0.3343273067943272 
2.8000000000014844, -0.33290070791569415 
2.8100000000015055, -0.33194075854131116 
2.8200000000015266, -0.33133256952888385 
2.8300000000015477, -0.3310085104237642 
2.840000000001569, -0.3309361308082094 
2.85000000000159, -0.3311120905217345 
2.860000000001611, -0.33156093961606214 
2.870000000001632, -0.3323381301636452 
2.8800000000016532, -0.3335368507778934 
2.8900000000016743, -0.3352975954902338 
2.9000000000016954, -0.3378165863165387 
2.9100000000017165, -0.34134186165916086 
2.9200000000017377, -0.3461317405248038 
2.9300000000017588, -0.3523367983943428 
2.94000000000178, -0.3597935381032983 
2.950000000001801, -0.36784891858216845 
2.960000000001822, -0.3754823534483985 
2.970000000001843, -0.3817930190574145 
2.9800000000018643, -0.3864244168532269 
2.9900000000018854, -0.3895382291172149 
3.0000000000019065, -0.39151440560727113 
3.0100000000019276, -0.39271541139844 
3.0200000000019487, -0.39340383916689303 
3.03000000000197, -0.3937460234422446 
3.040000000001991, -0.3938380533545271 
3.050000000002012, -0.3937286717451897 
3.060000000002033, -0.393434719019525 
3.070000000002054, -0.39295177727882163 
3.0800000000020753, -0.39226428213561093 
3.0900000000020964, -0.3913590029073629 
3.1000000000021175, -0.390242748328003 
3.1100000000021386, -0.3889584001513014 
3.1200000000021597, -0.38758730941418873 
3.130000000002181, -0.386230715359354 
3.140000000002202, -0.3849789674852719 
3.150000000002223, -0.38388755724484 
3.160000000002244, -0.3829710825285958 
3.1700000000022652, -0.38221197545829316 
3.1800000000022863, -0.38157502810971 
3.1900000000023074, -0.381020972654878 
3.2000000000023285, -0.38051593689723384 
3.2100000000023496, -0.38003606760576836 
3.2200000000023707, -0.3795683808627268 
3.230000000002392, -0.3791099061729003 
3.240000000002413, -0.3786672085320676 
3.250000000002434, -0.3782578354122938 
3.260000000002455, -0.3779147884066868 
3.2700000000024763, -0.37769490043815657 
3.2800000000024974, -0.37769124140559773 
3.2900000000025185, -0.37804581097249085 
3.3000000000025396, -0.37894499022197714 
3.3100000000025607, -0.38054326106898184 
3.3200000000025818, -0.3826992263091291 
3.330000000002603, -0.38444137935927764 
3.340000000002624, -0.3836037463269444 
3.350000000002645, -0.3779466798231503 
3.360000000002666, -0.3676991650372316 
3.3700000000026873, -0.3559139870270221 
3.3800000000027084, -0.34564566905113525 
3.3900000000027295, -0.3380815015914587 
3.4000000000027506, -0.3330011648427017 
3.4100000000027717, -0.32974264568016365 
3.420000000002793, -0.32769781463965647 
3.430000000002814, -0.3264318913817112 
3.440000000002835, -0.3256630732304937 
3.450000000002856, -0.3252167667390179 
3.460000000002877, -0.3249880447251834 
3.4700000000028983, -0.3249167693658045 
3.4800000000029194, -0.3249727377013873 
3.4900000000029405, -0.3251477438761842 
3.5000000000029616, -0.325452271026044 
3.5100000000029827, -0.3259151317390299 
3.520000000003004, -0.3265844247234465 
3.530000000003025, -0.3275275989416994 
3.540000000003046, -0.32882713547780484 
3.550000000003067, -0.33056636791004257 
3.5600000000030882, -0.3327986739393117 
3.5700000000031094, -0.33549853789211415 
3.5800000000031305, -0.33851377481113315 
3.5900000000031516, -0.34156650240030223 
3.6000000000031727, -0.3443385951960597 
3.6100000000031938, -0.34659764990714914 
3.620000000003215, -0.34826459727731646 
3.630000000003236, -0.3493861639320989 
3.640000000003257, -0.35006420816703543 
3.650000000003278, -0.35039976667693995 
3.6600000000032993, -0.35046723972480354 
3.6700000000033204, -0.3503082889918896 
3.6800000000033415, -0.34993319853655663 
3.6900000000033626, -0.3493236716616741 
3.7000000000033837, -0.3484369053563305 
3.710000000003405, -0.3472153533811144 
3.720000000003426, -0.3456091122558099 
3.730000000003447, -0.34361330030835546 
3.740000000003468, -0.34130554355120235 
3.750000000003489, -0.33885032557180467 
3.7600000000035103, -0.33645073729102903 
3.7700000000035314, -0.33427622753154623 
3.7800000000035525, -0.3324176555895674 
3.7900000000035736, -0.3308883101251803 
3.8000000000035947, -0.3296512755201894 
3.810000000003616, -0.3286486042973803 
3.820000000003637, -0.3278214608080256 
3.830000000003658, -0.32712081814193594 
3.840000000003679, -0.3265115562881949 
3.8500000000037002, -0.3259729359441801 
3.8600000000037213, -0.32549794155411726 
3.8700000000037424, -0.32509344590138045 
3.8800000000037635, -0.32478270130920867 
3.8900000000037847, -0.3246114982934177 
3.9000000000038058, -0.32465938374235453 
3.910000000003827, -0.3250567692420973 
3.920000000003848, -0.3260046624222792 
3.930000000003869, -0.32777760967700653 
3.94000000000389, -0.33064380903024243 
3.9500000000039113, -0.33455051662931856 
3.9600000000039324, -0.33844218633226864 
3.9700000000039535, -0.3397401715884294 
3.9800000000039746, -0.33568519339237046 
3.9900000000039957, -0.32643295420566754 
4.000000000004016, -0.31534787703940836 
4.010000000003993, -0.30566494040695913 
4.02000000000397, -0.2985637187850841 
4.030000000003946, -0.29380333797164704 
4.040000000003923, -0.29074046801956666 
4.0500000000039, -0.2888028110993197 
4.0600000000038765, -0.28758898641594344 
4.070000000003853, -0.2868422761091378 
4.08000000000383, -0.2864056457601215 
4.090000000003807, -0.2861867042412135 
4.100000000003783, -0.2861352640318591 
4.11000000000376, -0.28623053255774 
4.120000000003737, -0.28647496156380303 
4.130000000003713, -0.28689269239450055 
4.14000000000369, -0.2875311210848376 
4.150000000003667, -0.2884640339139891 
4.1600000000036434, -0.2897937189309144 
4.17000000000362, -0.2916467844161286 
4.180000000003597, -0.29415354581816844 
4.1900000000035735, -0.29739661103175596 
4.20000000000355, -0.3013241638408328 
4.210000000003527, -0.30566819425490843 
4.220000000003504, -0.3099651246242885 
4.23000000000348, -0.31373264756026586 
4.240000000003457, -0.3166815206646113 
4.250000000003434, -0.3187797853000004 
4.26000000000341, -0.3201607567885923 
4.270000000003387, -0.32100151565439883 
4.280000000003364, -0.32145275054009537 
4.2900000000033405, -0.32161867179222237 
4.300000000003317, -0.32156045075269846 
4.310000000003294, -0.32130542860562217 
4.320000000003271, -0.3208559896606236 
4.330000000003247, -0.320198522827527 
4.340000000003224, -0.31931554426601866 
4.350000000003201, -0.31820333856218846 
4.360000000003177, -0.31689202518632065 
4.370000000003154, -0.3154564659923441 
4.380000000003131, -0.3140050226443625 
4.390000000003107, -0.3126477472953954 
4.400000000003084, -0.3114636553583951 
4.410000000003061, -0.31048579617249084 
4.4200000000030375, -0.3097058433603941 
4.430000000003014, -0.3090884663683336 
4.440000000002991, -0.3085866554455927 
4.450000000002968, -0.30815391213416066 
4.460000000002944, -0.3077518595683014 
4.470000000002921, -0.3073530497490625 
4.480000000002898, -0.3069399701615109 
4.490000000002874, -0.3065020463141622 
4.500000000002851, -0.3060321556914527 
4.510000000002828, -0.30552305285529724 
4.520000000002804, -0.3049624969883796 
4.530000000002781, -0.30432319148001824 
4.540000000002758, -0.30353784446758764 
4.5500000000027345, -0.3024374790657327 
4.560000000002711, -0.3006145107517724 
4.570000000002688, -0.2971918450869985 
4.580000000002665, -0.29068524276074803 
4.590000000002641, -0.2796196626845901 
4.600000000002618, -0.26426750028489676 
4.610000000002595, -0.24750820788284872 
4.620000000002571, -0.2327419305975084 
4.630000000002548, -0.2215519231328887 
4.640000000002525, -0.21375405577084958 
4.6500000000025015, -0.2085042952319077 
4.660000000002478, -0.20498986420468457 
4.670000000002455, -0.20262003603685827 
4.6800000000024315, -0.20100905496616756 
4.690000000002408, -0.19991735855368586 
4.700000000002385, -0.1992024878088924 
4.710000000002362, -0.19878726988667503 
4.720000000002338, -0.19864228512920565 
4.730000000002315, -0.19877922663629286 
4.740000000002292, -0.19925363431874127 
4.750000000002268, -0.20017769014092757 
4.760000000002245, -0.2017459081086297 
4.770000000002222, -0.20427768730968432 
4.7800000000021985, -0.20827621995357207 
4.790000000002175, -0.2144774444339732 
4.800000000002152, -0.22377926210508997 
4.810000000002129, -0.23678561651152927 
4.820000000002105, -0.252755705722554 
4.830000000002082, -0.26880717210697413 
4.840000000002059, -0.28136836148011224 
4.850000000002035, -0.2890231647072579 
4.860000000002012, -0.2928516935841474 
4.870000000001989, -0.2945581889948957 
