t, s[1].omega / s[0].omega 
0, -1.5599651889551192 
0.009999999999999995, -1.5557711185405427 
0.019999999999999934, -1.5500606193067736 
0.029999999999999874, -1.5430902252080352 
0.04000000000000012, -1.5360920738231159 
0.050000000000000405, -1.5310883316719555 
0.06000000000000069, -1.529160487706498 
0.07000000000000098, -1.529356470204293 
0.08000000000000126, -1.5301377463214487 
0.09000000000000155, -1.5307024298644683 
0.10000000000000184, -1.5308687657865208 
0.11000000000000212, -1.5306439694415424 
0.12000000000000241, -1.5300171297744565 
0.130000000000002, -1.5289167451425807 
0.1400000000000009, -1.5273056207594584 
0.1499999999999998, -1.5255663911843194 
0.1599999999999987, -1.5251821010188977 
0.1699999999999976, -1.5284328472168633 
0.1799999999999965, -1.535805054435926 
0.1899999999999954, -1.5448319162924322 
0.1999999999999943, -1.552792417463995 
0.2099999999999932, -1.5586014648771578 
0.2199999999999921, -1.5623674810433845 
0.229999999999991, -1.564578034570016 
0.2399999999999899, -1.5657080861964934 
0.2499999999999888, -1.566114154810801 
0.2599999999999877, -1.5660371292502668 
0.2699999999999866, -1.5656386976985706 
0.2799999999999855, -1.5650451325694417 
0.2899999999999844, -1.5643796066076405 
0.2999999999999833, -1.5637620253656612 
0.3099999999999822, -1.5632833252329683 
0.3199999999999811, -1.5629912222248485 
0.32999999999998, -1.5628828073161236 
0.3399999999999789, -1.5628861544490922 
0.3499999999999778, -1.5628727320493712 
0.35999999999997667, -1.5627017145743414 
0.36999999999997557, -1.5622323875380286 
0.37999999999997447, -1.56128535297056 
0.38999999999997337, -1.5595766694198672 
0.39999999999997227, -1.5566454058807855 
0.40999999999997117, -1.5518074769212302 
0.41999999999997006, -1.5442508181456742 
0.42999999999996896, -1.533568219976045 
0.43999999999996786, -1.5210251191754345 
0.44999999999996676, -1.510444792014289 
0.45999999999996566, -1.5055222629276643 
0.46999999999996456, -1.5056426605927853 
0.47999999999996346, -1.507547310814617 
0.48999999999996235, -1.509186889532907 
0.49999999999996125, -1.5101032981020992 
0.5099999999999602, -1.5104130399035673 
0.519999999999959, -1.510271897390104 
0.529999999999958, -1.509756711634152 
0.5399999999999568, -1.5088982345489554 
0.5499999999999557, -1.5078197043311083 
0.5599999999999546, -1.5070217285783412 
0.5699999999999535, -1.5075617990231298 
0.5799999999999524, -1.5103824615696053 
0.5899999999999513, -1.5151344592086853 
0.5999999999999502, -1.5204161476461808 
0.6099999999999491, -1.5250523267173342 
0.619999999999948, -1.5285835475052425 
0.6299999999999469, -1.5310142776998519 
0.6399999999999458, -1.532518821310507 
0.6499999999999447, -1.5332967713015333 
0.6599999999999436, -1.5335223060539414 
0.6699999999999425, -1.533332729744236 
0.6799999999999414, -1.5328351802465199 
0.6899999999999403, -1.5321239195546543 
0.6999999999999392, -1.5312980223791761 
0.7099999999999381, -1.5304657844360334 
0.719999999999937, -1.529735843586978 
0.7299999999999359, -1.5292036874354005 
0.7399999999999348, -1.5289162072768943 
0.7499999999999337, -1.5288219271913897 
0.7599999999999326, -1.5287810097105807 
0.7699999999999315, -1.5286334410840625 
0.7799999999999304, -1.5282308851225088 
0.7899999999999293, -1.5273994320429327 
0.7999999999999282, -1.5258621290913588 
0.8099999999999271, -1.523140523158619 
0.819999999999926, -1.5184575082125005 
0.8299999999999249, -1.510753531953599 
0.8399999999999238, -1.4991629032108005 
0.8499999999999227, -1.4844612705500164 
0.8599999999999216, -1.4707066334981638 
0.8699999999999205, -1.4631551206686275 
0.8799999999999194, -1.4625075696863958 
0.8899999999999183, -1.4649830739238974 
0.8999999999999172, -1.4674609652990154 
0.9099999999999161, -1.4690219072574213 
0.919999999999915, -1.4697611412586917 
0.9299999999999139, -1.469925397733977 
0.9399999999999128, -1.4696741870594723 
0.9499999999999117, -1.469077014108872 
0.9599999999999106, -1.4681881730699042 
0.9699999999999095, -1.4672138503131913 
0.9799999999999084, -1.4667657044009867 
0.9899999999999073, -1.4678433535043207 
0.9999999999999062, -1.4710390400907305 
1.0099999999999052, -1.4757535759999965 
1.019999999999904, -1.480729004119875 
1.029999999999903, -1.4850362188479547 
1.039999999999902, -1.4883281715130576 
1.0499999999999008, -1.4906149181857873 
1.0599999999998997, -1.4920431757651802 
1.0699999999998986, -1.4927863380666653 
1.0799999999998975, -1.4930017283288615 
1.0899999999998964, -1.4928179869683982 
1.0999999999998953, -1.4923388369626442 
1.1099999999998942, -1.4916576876682064 
1.119999999999893, -1.4908733700075407 
1.129999999999892, -1.4900926946473034 
1.1399999999998909, -1.4894177825578443 
1.1499999999998898, -1.488930611320661 
1.1599999999998887, -1.4886685564915099 
1.1699999999998876, -1.4885890146302556 
1.1799999999998865, -1.4885720031373664 
1.1899999999998854, -1.4884722101705086 
1.1999999999998843, -1.4881531786346918 
1.2099999999998832, -1.4874671924840004 
1.219999999999882, -1.4862016528477393 
1.229999999999881, -1.484015826129079 
1.2399999999998799, -1.4803874255383178 
1.2499999999998788, -1.474620797132098 
1.2599999999998777, -1.4660551994813635 
1.2699999999998766, -1.4547129138002726 
1.2799999999998755, -1.4423628657242553 
1.2899999999998744, -1.4326196956210222 
1.2999999999998733, -1.4281754093230214 
1.3099999999998722, -1.4280936457277653 
1.319999999999871, -1.4296324606924635 
1.32999999999987, -1.4310553998799045 
1.3399999999998689, -1.4318957322752133 
1.3499999999998678, -1.4321993162173554 
1.3599999999998666, -1.432078025863444 
1.3699999999998655, -1.4315823867908297 
1.3799999999998644, -1.4307001518522084 
1.3899999999998633, -1.4294351477290879 
1.3999999999998622, -1.4280461058495058 
1.4099999999998611, -1.4274710875299361 
1.41999999999986, -1.4293626270191875 
1.429999999999859, -1.4347589123360305 
1.4399999999998578, -1.4426238593514547 
1.4499999999998567, -1.4507340561426363 
1.4599999999998556, -1.4574978025904994 
1.4699999999998545, -1.4624237018970332 
1.4799999999998534, -1.4656713347515173 
1.4899999999998523, -1.4676127695364825 
1.4999999999998512, -1.4686165698027265 
1.5099999999998501, -1.4689741828053382 
1.519999999999849, -1.4688931134389365 
1.529999999999848, -1.4685199541738119 
1.5399999999998468, -1.4679747629595883 
1.5499999999998457, -1.4673790833070943 
1.5599999999998446, -1.4668550338623072 
1.5699999999998435, -1.466492992495146 
1.5799999999998424, -1.4663255972978964 
1.5899999999998413, -1.4663308564782254 
1.5999999999998402, -1.466441245045392 
1.6099999999998391, -1.4665545808465903 
1.619999999999838, -1.4665579387438081 
1.629999999999837, -1.466344485534207 
1.6399999999998358, -1.465805322476137 
1.6499999999998347, -1.4648073827819306 
1.6599999999998336, -1.4631756295112963 
1.6699999999998325, -1.4606910935988433 
1.6799999999998314, -1.4571152349820955 
1.6899999999998303, -1.4522638597472919 
1.6999999999998292, -1.4461793449453817 
1.709999999999828, -1.4394281105805673 
1.719999999999827, -1.4332960598062017 
1.729999999999826, -1.4292526693706051 
1.7399999999998248, -1.4277220029970499 
1.7499999999998237, -1.4278021127826772 
1.7599999999998226, -1.428357444234704 
1.7699999999998215, -1.4287764276084398 
1.7799999999998204, -1.4288795445846822 
1.7899999999998193, -1.4286347394627068 
1.7999999999998182, -1.4279947231411396 
1.809999999999817, -1.426830038093104 
1.819999999999816, -1.4249262056737988 
1.8299999999998149, -1.4221533196751608 
1.8399999999998138, -1.419118944006912 
1.8499999999998127, -1.4182825357304556 
1.8599999999998116, -1.4234322848008572 
1.8699999999998105, -1.4354360907096502 
1.8799999999998094, -1.4501164271499456 
1.8899999999998083, -1.4627122643750883 
1.8999999999998072, -1.4714322186844375 
1.909999999999806, -1.4767219141107655 
1.919999999999805, -1.479640059397085 
1.9299999999998039, -1.4810858857534592 
1.9399999999998028, -1.4816509195792062 
1.9499999999998017, -1.4816846329508382 
1.9599999999998006, -1.481393066035708 
1.9699999999997995, -1.4809247919556687 
1.9799999999997984, -1.480433059101014 
1.9899999999997973, -1.4800861686828803 
1.9999999999997962, -1.480005718568665 
2.0099999999998173, -1.480199029979771 
2.0199999999998384, -1.4805759944840198 
2.0299999999998595, -1.4810148233726528 
2.0399999999998806, -1.4814003381505974 
2.0499999999999017, -1.4816343765921562 
2.059999999999923, -1.4816366790405382 
2.069999999999944, -1.4813374816096219 
2.079999999999965, -1.4806664126151976 
2.089999999999986, -1.479545811767205 
2.100000000000007, -1.4778918476576406 
2.1100000000000283, -1.475624916054545 
2.1200000000000494, -1.4726974619667434 
2.1300000000000705, -1.4691600269489942 
2.1400000000000916, -1.4652833510911445 
2.1500000000001127, -1.4616657570412472 
2.160000000000134, -1.4590658288100462 
2.170000000000155, -1.4578449951669117 
2.180000000000176, -1.4576535900199963 
2.190000000000197, -1.4578513732850742 
2.2000000000002182, -1.4579972552221914 
2.2100000000002393, -1.4579009170229096 
2.2200000000002604, -1.457468172913161 
2.2300000000002815, -1.4565666522590768 
2.2400000000003026, -1.4549309174812781 
2.2500000000003237, -1.4521018335152838 
2.260000000000345, -1.447561680009616 
2.270000000000366, -1.4416193641524266 
2.280000000000387, -1.4374074015561242 
2.290000000000408, -1.4408553014359564 
2.3000000000004293, -1.4539349996796487 
2.3100000000004504, -1.4705825797353345 
2.3200000000004715, -1.4841500025579109 
2.3300000000004926, -1.4927980169323742 
2.3400000000005137, -1.4976036998333906 
2.3500000000005348, -1.500035221303915 
2.360000000000556, -1.5011185810216854 
2.370000000000577, -1.5014405436963918 
2.380000000000598, -1.5013148395207054 
2.390000000000619, -1.5009241276918788 
2.4000000000006403, -1.5004253091283593 
2.4100000000006614, -1.5000131347080283 
2.4200000000006825, -1.4998931059759435 
2.4300000000007036, -1.5001605052406546 
2.4400000000007247, -1.5007344679476762 
2.450000000000746, -1.501440071387378 
2.460000000000767, -1.502114006010155 
2.470000000000788, -1.5026382380754904 
2.480000000000809, -1.5029325181034905 
2.49000000000083, -1.5029403536198584 
2.5000000000008513, -1.5026155906372218 
2.5100000000008724, -1.5019128554023404 
2.5200000000008935, -1.5007841047940589 
2.5300000000009146, -1.4991816263111644 
2.5400000000009357, -1.497070598155799 
2.550000000000957, -1.494462069668737 
2.560000000000978, -1.4914837578099143 
2.570000000000999, -1.4884798095552303 
2.58000000000102, -1.4860119969767336 
2.5900000000010412, -1.4845548667862714 
2.6000000000010624, -1.4840799520829113 
2.6100000000010835, -1.4841254569252949 
2.6200000000011046, -1.4842359845158235 
2.6300000000011257, -1.484163270675492 
2.6400000000011468, -1.4837821595354848 
2.650000000001168, -1.4829536668164183 
2.660000000001189, -1.4814103783020989 
2.67000000000121, -1.4786544971173567 
2.680000000001231, -1.4739709943967019 
2.6900000000012523, -1.4670700947020925 
2.7000000000012734, -1.4601864684350416 
2.7100000000012945, -1.4596222357559752 
2.7200000000013156, -1.4698708900735697 
2.7300000000013367, -1.486087260889228 
2.740000000001358, -1.5003169824134295 
2.750000000001379, -1.5095739805042971 
2.7600000000014, -1.5147101767046913 
2.770000000001421, -1.5172904999512506 
2.780000000001442, -1.518437028389138 
2.7900000000014633, -1.5187859307859302 
2.8000000000014844, -1.5186710141669302 
2.8100000000015055, -1.5182817164829294 
2.8200000000015266, -1.517778666548397 
2.8300000000015477, -1.5173652533358792 
2.840000000001569, -1.517261150882246 
2.85000000000159, -1.5175681342459588 
2.860000000001611, -1.5181945860135309 
2.870000000001632, -1.5189486899540363 
2.8800000000016532, -1.51965737248288 
2.8900000000016743, -1.520200933275695 
2.9000000000016954, -1.520501185716196 
2.9100000000017165, -1.5205042097608297 
2.9200000000017377, -1.5201655040276707 
2.9300000000017588, -1.5194399417901443 
2.94000000000178, -1.5182782101666992 
2.950000000001801, -1.5166301313379185 
2.960000000001822, -1.5144588877331486 
2.970000000001843, -1.5117791642539715 
2.9800000000018643, -1.5087389060475678 
2.9900000000018854, -1.505727750496185 
3.0000000000019065, -1.503350377316721 
3.0100000000019276, -1.5020522505382021 
3.0200000000019487, -1.5017102633769437 
3.03000000000197, -1.5018092723645 
3.040000000001991, -1.501909625581354 
3.050000000002012, -1.50179152338011 
3.060000000002033, -1.5013380554680602 
3.070000000002054, -1.5003955601022634 
3.0800000000020753, -1.498662338500731 
3.0900000000020964, -1.4956089684495752 
3.1000000000021175, -1.490624663978342 
3.1100000000021386, -1.4840809505898025 
3.1200000000021597, -1.4797079550489243 
3.130000000002181, -1.4840626893701157 
3.140000000002202, -1.498141454482643 
3.150000000002223, -1.5145495351567984 
3.160000000002244, -1.5270019368237218 
3.1700000000022652, -1.5345284209592032 
3.1800000000022863, -1.5385432912169092 
3.1900000000023074, -1.540487829534317 
3.2000000000023285, -1.5412805139262409 
3.2100000000023496, -1.5414233667415198 
3.2200000000023707, -1.5411834884325815 
3.230000000002392, -1.5407317474846334 
3.240000000002413, -1.54023959509299 
3.250000000002434, -1.5399106853062772 
3.260000000002455, -1.5399041965768583 
3.2700000000024763, -1.5402263311348725 
3.2800000000024974, -1.540747366041793 
3.2900000000025185, -1.5413079450726397 
3.3000000000025396, -1.5417776078165615 
3.3100000000025607, -1.5420583704634319 
3.3200000000025818, -1.5420751665922798 
3.330000000002603, -1.5417626234274253 
3.340000000002624, -1.5410512082324168 
3.350000000002645, -1.5398588873077996 
3.360000000002666, -1.5380912205783277 
3.3700000000026873, -1.5356537494594757 
3.3800000000027084, -1.5324924586742168 
3.3900000000027295, -1.5286969854084038 
3.4000000000027506, -1.524680545840469 
3.4100000000027717, -1.5212611300424546 
3.420000000002793, -1.5192346745137697 
3.430000000002814, -1.518637617314021 
3.440000000002835, -1.5187947905702819 
3.450000000002856, -1.5190519211556084 
3.460000000002877, -1.5190973480425944 
3.4700000000028983, -1.518820871087729 
3.4800000000029194, -1.5181288079956923 
3.4900000000029405, -1.516834526033419 
3.5000000000029616, -1.51461894848981 
3.5100000000029827, -1.5112110505743437 
3.520000000003004, -1.507290352121053 
3.530000000003025, -1.5061437211726223 
3.540000000003046, -1.5125264254888067 
3.550000000003067, -1.5261922602967606 
3.5600000000030882, -1.5410273306944826 
3.5700000000031094, -1.5523351154738996 
3.5800000000031305, -1.5594139302079204 
3.5900000000031516, -1.5633585469361226 
3.6000000000031727, -1.5653512824759206 
3.6100000000031938, -1.5662013919685756 
3.620000000003215, -1.5663831375012267 
3.630000000003236, -1.566163729887465 
3.640000000003257, -1.565714713728608 
3.650000000003278, -1.5651912493415172 
3.6600000000032993, -1.5647567000613072 
3.6700000000033204, -1.5645326006720128 
3.6800000000033415, -1.5645391027803837 
3.6900000000033626, -1.5647120381670547 
3.7000000000033837, -1.5649533045425188 
3.710000000003405, -1.5651528151432346 
3.720000000003426, -1.5652001783021003 
3.730000000003447, -1.5649916727671902 
3.740000000003468, -1.5644175114065748 
3.750000000003489, -1.5633364819335478 
3.7600000000035103, -1.5615542783817304 
3.7700000000035314, -1.5588170877871996 
3.7800000000035525, -1.5548394176273725 
3.7900000000035736, -1.549422070776178 
3.8000000000035947, -1.5427679690870806 
3.810000000003616, -1.535968063014327 
3.820000000003637, -1.5309234303417543 
3.830000000003658, -1.52880760338927 
3.840000000003679, -1.5288571564970954 
3.8500000000037002, -1.5295835544244945 
3.8600000000037213, -1.5301433699747597 
3.8700000000037424, -1.5303209967881561 
3.8800000000037635, -1.5301114423497268 
3.8900000000037847, -1.5295006394232686 
3.9000000000038058, -1.5284114539282725 
3.910000000003827, -1.5267821815153997 
3.920000000003848, -1.5249292336075013 
3.930000000003869, -1.5242661161705515 
3.94000000000389, -1.5272019328045148 
3.9500000000039113, -1.5345604597031568 
3.9600000000039324, -1.543943810432771 
3.9700000000039535, -1.5523771173140113 
3.9800000000039746, -1.558574873149786 
3.9900000000039957, -1.562600588874002 
4.000000000004016, -1.564968861688264 
4.010000000003993, -1.5661919120555603 
4.02000000000397, -1.5666542396243908 
4.030000000003946, -1.5666137992613247 
4.040000000003923, -1.566241147280958 
4.0500000000039, -1.5656663189248659 
4.0600000000038765, -1.565014409475076 
4.070000000003853, -1.5644078080788384 
4.08000000000383, -1.5639391769347721 
4.090000000003807, -1.563655110406602 
4.100000000003783, -1.5635522839740281 
4.11000000000376, -1.5635623797490772 
4.120000000003737, -1.56356098117146 
4.130000000003713, -1.5634092183752046 
4.14000000000369, -1.5629688778490163 
4.150000000003667, -1.5620676813040408 
4.1600000000036434, -1.560437264021236 
4.17000000000362, -1.557645028153901 
4.180000000003597, -1.553049534601683 
4.1900000000035735, -1.5458791792742497 
4.20000000000355, -1.5356968095619967 
4.210000000003527, -1.5235527628409078 
4.220000000003504, -1.5129501127270195 
4.23000000000348, -1.507626627286509 
4.240000000003457, -1.5073822078144234 
4.250000000003434, -1.5091341156838802 
4.26000000000341, -1.5107451237099196 
4.270000000003387, -1.5116702725545363 
4.280000000003364, -1.5119941256887113 
4.2900000000033405, -1.5118654877527589 
4.300000000003317, -1.5113596122800304 
4.310000000003294, -1.5105022589398611 
4.320000000003271, -1.5094014941238547 
4.330000000003247, -1.5085349388569822 
4.340000000003224, -1.5089694228499302 
4.350000000003201, -1.511735209818772 
4.360000000003177, -1.5165648821697422 
4.370000000003154, -1.522022838979675 
4.380000000003131, -1.526848399571418 
4.390000000003107, -1.5305328071093212 
4.400000000003084, -1.5330716646503915 
4.410000000003061, -1.5346477175871673 
4.4200000000030375, -1.5354721011788173 
4.430000000003014, -1.5357286147315912 
4.440000000002991, -1.5355612169379254 
4.450000000002968, -1.5350810094900624 
4.460000000002944, -1.5343842460805892 
4.470000000002921, -1.5335709146798462 
4.480000000002898, -1.532749628763524 
4.490000000002874, -1.5320282694299319 
4.500000000002851, -1.5315007487214407 
4.510000000002828, -1.5312141478708954 
4.520000000002804, -1.5311199683752779 
4.530000000002781, -1.5310811880013593 
4.540000000002758, -1.5309386080959686 
4.5500000000027345, -1.530544121251868 
4.560000000002711, -1.5297253113847076 
4.570000000002688, -1.5282092495454136 
4.580000000002665, -1.5255253857290485 
4.590000000002641, -1.520909365466643 
4.600000000002618, -1.5133155619166796 
4.610000000002595, -1.5018746530372764 
4.620000000002571, -1.4873055509469322 
4.630000000002548, -1.4735685554051479 
4.640000000002525, -1.4659125920638898 
4.6500000000025015, -1.4651525646846748 
4.660000000002478, -1.4675709413044178 
4.670000000002455, -1.4700292542763653 
4.6800000000024315, -1.4715841602275166 
4.690000000002408, -1.4723210582456097 
4.700000000002385, -1.4724838305651642 
4.710000000002362, -1.472231088847305 
4.720000000002338, -1.4716318769759138 
4.730000000002315, -1.4707405585694964 
4.740000000002292, -1.4697653142254583 
4.750000000002268, -1.4693231571937726 
4.760000000002245, -1.4704174304977065 
4.770000000002222, -1.4736311321421727 
4.7800000000021985, -1.4783486220553077 
4.790000000002175, -1.4833077943568775 
4.800000000002152, -1.4875877507536113 
4.810000000002129, -1.4908504792760355 
4.820000000002105, -1.4931110387690136 
4.830000000002082, -1.494517800485712 
4.840000000002059, -1.4952440048786086 
4.850000000002035, -1.4954460524040485 
4.860000000002012, -1.4952515261948283 
4.870000000001989, -1.494763377306807 
4.880000000001965, -1.494074730601214 
4.890000000001942, -1.493284472309379 
4.900000000001919, -1.4924994827779006 
4.9100000000018955, -1.4918221067711452 
4.920000000001872, -1.4913348343311001 
4.930000000001849, -1.4910745012370952 
