t, s[1].omega / s[0].omega 
0, -0.669997704589086 
0.009999999999999995, -0.6697758811720667 
0.019999999999999934, -0.6695592644655414 
0.029999999999999874, -0.6693227432460349 
0.04000000000000012, -0.6690380618940288 
0.050000000000000405, -0.6686858460069038 
0.06000000000000069, -0.6682623677228456 
0.07000000000000098, -0.667780766863234 
0.08000000000000126, -0.6672705373935759 
0.09000000000000155, -0.6667793800757497 
0.10000000000000184, -0.66637944853487 
0.11000000000000212, -0.6661778631771579 
0.12000000000000241, -0.6663298547130976 
0.130000000000002, -0.6670518086726369 
0.1400000000000009, -0.6686307467034671 
0.1499999999999998, -0.6714263875145747 
0.1599999999999987, -0.6758608948924321 
0.1699999999999976, -0.6823870557162965 
0.1799999999999965, -0.6914150980146043 
0.1899999999999954, -0.7031656189755802 
0.1999999999999943, -0.717427614994457 
0.2099999999999932, -0.7332946674764057 
0.2199999999999921, -0.7491391244841787 
0.229999999999991, -0.7631121344116722 
0.2399999999999899, -0.7739722008854384 
0.2499999999999888, -0.7815225924656096 
0.2599999999999877, -0.7863352182526493 
0.2699999999999866, -0.7892057838256283 
0.2799999999999855, -0.7908068893361303 
0.2899999999999844, -0.7915956764774671 
0.2999999999999833, -0.7918437140176218 
0.3099999999999822, -0.791688831772713 
0.3199999999999811, -0.7911713647229002 
0.32999999999998, -0.790247552236798 
0.3399999999999789, -0.7887796287705817 
0.3499999999999778, -0.7864997033036695 
0.35999999999997667, -0.7829396244807387 
0.36999999999997557, -0.7773159928013201 
0.37999999999997447, -0.7683711741467463 
0.38999999999997337, -0.7542483292002186 
0.39999999999997227, -0.7327448838181532 
0.40999999999997117, -0.7026782841916612 
0.41999999999997006, -0.6663413217856408 
0.42999999999996896, -0.6300467095283628 
0.43999999999996786, -0.6002271587532659 
0.44999999999996676, -0.579422328963515 
0.45999999999996566, -0.5665407613493352 
0.46999999999996456, -0.5592118158882974 
0.47999999999996346, -0.555314286607459 
0.48999999999996235, -0.5533822781190244 
0.49999999999996125, -0.5525152888161199 
0.5099999999999602, -0.5521930552012996 
0.519999999999959, -0.5521252037139106 
0.529999999999958, -0.5521524389138125 
0.5399999999999568, -0.5521870119868824 
0.5499999999999557, -0.5521786556575318 
0.5599999999999546, -0.5520964541388935 
0.5699999999999535, -0.5519211845514707 
0.5799999999999524, -0.5516450353542057 
0.5899999999999513, -0.5512757197015271 
0.5999999999999502, -0.5508402139838253 
0.6099999999999491, -0.5503822510290205 
0.619999999999948, -0.5499508584974941 
0.6299999999999469, -0.5495839596263663 
0.6399999999999458, -0.5492952461359597 
0.6499999999999447, -0.5490705903470168 
0.6599999999999436, -0.5488751070277835 
0.6699999999999425, -0.5486671291556288 
0.6799999999999414, -0.5484123245996624 
0.6899999999999403, -0.548091949133281 
0.6999999999999392, -0.5477040251811343 
0.7099999999999381, -0.547261044208193 
0.719999999999937, -0.5467891200870042 
0.7299999999999359, -0.5463323264647436 
0.7399999999999348, -0.5459650282660532 
0.7499999999999337, -0.5458157824568888 
0.7599999999999326, -0.5461087990842022 
0.7699999999999315, -0.5472323466493323 
0.7799999999999304, -0.549845709855696 
0.7899999999999293, -0.5550292124697811 
0.7999999999999282, -0.5644394931513574 
0.8099999999999271, -0.5802956707874344 
0.819999999999926, -0.6047500246110518 
0.8299999999999249, -0.638121747805033 
0.8399999999999238, -0.6767532949589605 
0.8499999999999227, -0.7136249947109763 
0.8599999999999216, -0.7428357132579979 
0.8699999999999205, -0.7628690096564441 
0.8799999999999194, -0.7754360339656976 
0.8899999999999183, -0.7829753039045191 
0.8999999999999172, -0.7874087421145382 
0.9099999999999161, -0.7899764839241354 
0.919999999999915, -0.7914147246758563 
0.9299999999999139, -0.7921418099144379 
0.9399999999999128, -0.792382277074005 
0.9499999999999117, -0.7922360688847809 
0.9599999999999106, -0.7917087772843111 
0.9699999999999095, -0.7907121198366226 
0.9799999999999084, -0.7890365786314872 
0.9899999999999073, -0.7862956629865943 
0.9999999999999062, -0.7818542242527555 
1.0099999999999052, -0.774804120699773 
1.019999999999904, -0.7641457643382825 
1.029999999999903, -0.7493452679256176 
1.039999999999902, -0.7310658126852304 
1.0499999999999008, -0.7113008978612632 
1.0599999999998997, -0.6924888163630467 
1.0699999999998986, -0.6764008679713446 
1.0799999999998975, -0.6637352331872348 
1.0899999999998964, -0.6543754323988467 
1.0999999999998953, -0.6478077386557736 
1.1099999999998942, -0.6434149917253988 
1.119999999999893, -0.6406223934150355 
1.129999999999892, -0.6389517012392045 
1.1399999999998909, -0.6380311458782846 
1.1499999999998898, -0.6375862124142873 
1.1599999999998887, -0.6374228329103023 
1.1699999999998876, -0.637408651825978 
1.1799999999998865, -0.6374556800937543 
1.1899999999998854, -0.6375064335387802 
1.1999999999998843, -0.6375247351348012 
1.2099999999998832, -0.6374914042264976 
1.219999999999882, -0.6374036238718264 
1.229999999999881, -0.6372748328830243 
1.2399999999998799, -0.6371309153442147 
1.2499999999998788, -0.6370004475200468 
1.2599999999998777, -0.6369015947174115 
1.2699999999998766, -0.6368320644958978 
1.2799999999998755, -0.636767934060598 
1.2899999999998744, -0.6366725419636722 
1.2999999999998733, -0.636510761683297 
1.3099999999998722, -0.6362609311214664 
1.319999999999871, -0.6359195375588523 
1.32999999999987, -0.6354999868107035 
1.3399999999998689, -0.6350306217338244 
1.3499999999998678, -0.6345567000981958 
1.3599999999998666, -0.634148922965316 
1.3699999999998655, -0.6339197321936628 
1.3799999999998644, -0.6340481234429818 
1.3899999999998633, -0.6348131697928261 
1.3999999999998622, -0.636634750339896 
1.4099999999998611, -0.6401156866060145 
1.41999999999986, -0.6460692541768949 
1.429999999999859, -0.6554927193731033 
1.4399999999998578, -0.6694039569127872 
1.4499999999998567, -0.688416246842923 
1.4599999999998556, -0.712012153632281 
1.4699999999998545, -0.7379113558171213 
1.4799999999998534, -0.7624733237525534 
1.4899999999998523, -0.7824627471443827 
1.4999999999998512, -0.7966564694538036 
1.5099999999998501, -0.805750579026794 
1.519999999999849, -0.8111981146700937 
1.529999999999848, -0.8143187522262949 
1.5399999999998468, -0.8160231699035856 
1.5499999999998457, -0.816860719082726 
1.5599999999998446, -0.8171343584602381 
1.5699999999998435, -0.8169889062131087 
1.5799999999998424, -0.8164589274219314 
1.5899999999998413, -0.815481763262142 
1.5999999999998402, -0.8138783047537277 
1.6099999999998391, -0.8112955937389076 
1.619999999999838, -0.8070970395112982 
1.629999999999837, -0.800188962531678 
1.6399999999998358, -0.7888269503619766 
1.6499999999998347, -0.7706506578404813 
1.6599999999998336, -0.7435778022848847 
1.6699999999998325, -0.7080232503091339 
1.6799999999998314, -0.6687354394006173 
1.6899999999998303, -0.6328163574896777 
1.6999999999998292, -0.605111267237933 
1.709999999999828, -0.5863462983951389 
1.719999999999827, -0.5747416063735941 
1.729999999999826, -0.5680166391392321 
1.7399999999998248, -0.5643257568497771 
1.7499999999998237, -0.5624156061091435 
1.7599999999998226, -0.5615046641314313 
1.7699999999998215, -0.5611278577746825 
1.7799999999998204, -0.5610159539856773 
1.7899999999998193, -0.5610152462247922 
1.7999999999998182, -0.5610376814023249 
1.809999999999817, -0.5610314210607057 
1.819999999999816, -0.5609648973844854 
1.8299999999998149, -0.5608201949398568 
1.8399999999998138, -0.560592937874586 
1.8499999999998127, -0.5602953282381493 
1.8599999999998116, -0.5599573559936413 
1.8699999999998105, -0.5596212798980525 
1.8799999999998094, -0.5593286485288922 
1.8899999999998083, -0.5591050551049283 
1.8999999999998072, -0.5589501549421081 
1.909999999999806, -0.5588377976964907 
1.919999999999805, -0.5587262092351744 
1.9299999999998039, -0.5585732636113176 
1.9399999999998028, -0.5583493061004029 
1.9499999999998017, -0.5580424503727381 
1.9599999999998006, -0.5576572121050429 
1.9699999999997995, -0.5572114088591578 
1.9799999999997984, -0.5567362510878698 
1.9899999999997973, -0.5562829281737915 
1.9999999999997962, -0.5559385249214351 
2.0099999999998173, -0.555855568187401 
2.0199999999998384, -0.5563024872219228 
2.0299999999998595, -0.5577457186038897 
2.0399999999998806, -0.560974510003971 
2.0499999999999017, -0.5672638663872205 
2.059999999999923, -0.5785029054704933 
2.069999999999944, -0.5970285629324018 
2.079999999999965, -0.6246274757488322 
2.089999999999986, -0.6604215443995984 
2.100000000000007, -0.6992863758315003 
2.1100000000000283, -0.7340201216551602 
2.1200000000000494, -0.760098856751352 
2.1300000000000705, -0.7773729704148138 
2.1400000000000916, -0.7880116311214259 
2.1500000000001127, -0.7943367694267673 
2.160000000000134, -0.7980319828526101 
2.170000000000155, -0.8001487858109895 
2.180000000000176, -0.8013018664502569 
2.190000000000197, -0.801835068811736 
2.2000000000002182, -0.8019254015797852 
2.2100000000002393, -0.8016377578938163 
2.2200000000002604, -0.8009440636939045 
2.2300000000002815, -0.7997129379421284 
2.2400000000003026, -0.7976691394062072 
2.2500000000003237, -0.7943221069324695 
2.260000000000345, -0.788885246835297 
2.270000000000366, -0.7802808783399343 
2.280000000000387, -0.7674390084756288 
2.290000000000408, -0.7500387284294987 
2.3000000000004293, -0.7292769258999778 
2.3100000000004504, -0.7077040792949181 
2.3200000000004715, -0.6879809550371561 
2.3300000000004926, -0.6717414565155867 
2.3400000000005137, -0.6594013379011173 
2.3500000000005348, -0.6505887960894234 
2.360000000000556, -0.6446161432538524 
2.370000000000577, -0.6407664060319693 
2.380000000000598, -0.6384181439694261 
2.390000000000619, -0.6370809530147855 
2.4000000000006403, -0.6363909975971823 
2.4100000000006614, -0.6360910957789079 
2.4200000000006825, -0.6360065525832093 
2.4300000000007036, -0.636022147361741 
2.4400000000007247, -0.6360630752476827 
2.450000000000746, -0.6360812247596178 
2.460000000000767, -0.6360472491103615 
2.470000000000788, -0.6359479168673348 
2.480000000000809, -0.6357866266443486 
2.49000000000083, -0.6355830360741855 
2.5000000000008513, -0.6353675128895039 
2.5100000000008724, -0.6351695325865246 
2.5200000000008935, -0.635004471911455 
2.5300000000009146, -0.6348657781547374 
2.5400000000009357, -0.6347270551312745 
2.550000000000957, -0.6345531059088871 
2.560000000000978, -0.6343138541039446 
2.570000000000999, -0.6339940546207987 
2.58000000000102, -0.6335960071119293 
2.5900000000010412, -0.633138113313656 
2.6000000000010624, -0.6326543396029172 
2.6100000000010835, -0.6321983869778063 
2.6200000000011046, -0.631854414578258 
2.6300000000011257, -0.6317550739225511 
2.6400000000011468, -0.6321070825592352 
2.650000000001168, -0.633223693082976 
2.660000000001189, -0.6355612886418136 
2.67000000000121, -0.639752363783525 
2.680000000001231, -0.6466153411679676 
2.6900000000012523, -0.6570956919097761 
2.7000000000012734, -0.6720500410958689 
2.7100000000012945, -0.6917656961711215 
2.7200000000013156, -0.7152636423231549 
2.7300000000013367, -0.7399175105228524 
2.740000000001358, -0.7622404454722558 
2.750000000001379, -0.7796700474069304 
2.7600000000014, -0.7916637690627273 
2.770000000001421, -0.7991953983318768 
2.780000000001442, -0.8036527958015135 
2.7900000000014633, -0.8061782039003385 
2.8000000000014844, -0.8075260743337124 
2.8100000000015055, -0.8081403253317598 
2.8200000000015266, -0.808258308518143 
2.8300000000015477, -0.8079822454460766 
2.840000000001569, -0.8073134067313348 
2.85000000000159, -0.8061538314747286 
2.860000000001611, -0.8042750613327627 
2.870000000001632, -0.8012444036765027 
2.8800000000016532, -0.7962924849075345 
2.8900000000016743, -0.7881195153179864 
2.9000000000016954, -0.7747331825603638 
2.9100000000017165, -0.7536994123127617 
2.9200000000017377, -0.7235272868353398 
2.9300000000017588, -0.6861137373871802 
2.94000000000178, -0.6474754105492947 
2.950000000001801, -0.6142948821776825 
2.960000000001822, -0.5898614444352791 
2.970000000001843, -0.5737636014024114 
2.9800000000018643, -0.5639326842090708 
2.9900000000018854, -0.5582500656577335 
3.0000000000019065, -0.5551204317138655 
3.0100000000019276, -0.5534897323473589 
3.0200000000019487, -0.5527056057016424 
3.03000000000197, -0.5523786369052657 
3.040000000001991, -0.5522811939044984 
3.050000000002012, -0.5522814083660749 
3.060000000002033, -0.5523024416556195 
3.070000000002054, -0.5522986392355963 
3.0800000000020753, -0.5522430398415126 
3.0900000000020964, -0.5521228290649003 
3.1000000000021175, -0.5519399515906119 
3.1100000000021386, -0.5517131382677083 
3.1200000000021597, -0.5514764578299645 
3.130000000002181, -0.5512708959162773 
3.140000000002202, -0.5511302468769161 
3.150000000002223, -0.5510672957117576 
3.160000000002244, -0.5510669967156229 
3.1700000000022652, -0.5510903495662863 
3.1800000000022863, -0.5510877846444109 
3.1900000000023074, -0.5510156301350504 
3.2000000000023285, -0.5508473733093564 
3.2100000000023496, -0.5505758276101783 
3.2200000000023707, -0.5502091060591157 
3.230000000002392, -0.5497663364300933 
3.240000000002413, -0.5492778271939579 
3.250000000002434, -0.5487925826930059 
3.260000000002455, -0.5483962253405298 
3.2700000000024763, -0.5482448352673404 
3.2800000000024974, -0.5486244194842003 
3.2900000000025185, -0.5500501700663715 
3.3000000000025396, -0.5534179578546603 
3.3100000000025607, -0.5601894870722892 
3.3200000000025818, -0.5724712994829524 
3.330000000002603, -0.592562847553857 
3.340000000002624, -0.6213424429106482 
3.350000000002645, -0.6559412357233468 
3.360000000002666, -0.6898461789583819 
3.3700000000026873, -0.7172201396314871 
3.3800000000027084, -0.736404888307183 
3.3900000000027295, -0.7488472529219046 
3.4000000000027506, -0.7566566049141839 
3.4100000000027717, -0.7614920159154688 
3.420000000002793, -0.7644522885499381 
3.430000000002814, -0.7662253903489783 
3.440000000002835, -0.7672301939324827 
3.450000000002856, -0.7677121785389563 
3.460000000002877, -0.7678014751220243 
3.4700000000028983, -0.7675434732261999 
3.4800000000029194, -0.7669082474149291 
3.4900000000029405, -0.7657817432086056 
3.5000000000029616, -0.7639414648789566 
3.5100000000029827, -0.7610277717980909 
3.520000000003004, -0.75654736462395 
3.530000000003025, -0.7499828754482967 
3.540000000003046, -0.7410674884756825 
3.550000000003067, -0.7301125921884932 
3.5600000000030882, -0.7180664773583922 
3.5700000000031094, -0.7061455148712542 
3.5800000000031305, -0.6953437956507822 
3.5900000000031516, -0.6862009326913133 
3.6000000000031727, -0.6788559661959704 
3.6100000000031938, -0.6732046325696841 
3.620000000003215, -0.6690303261076935 
3.630000000003236, -0.6660802879530663 
3.640000000003257, -0.664103108507734 
3.650000000003278, -0.6628669377260014 
3.6600000000032993, -0.662169299987912 
3.6700000000033204, -0.6618422438044476 
3.6800000000033415, -0.6617534215050915 
3.6900000000033626, -0.6618035071571843 
3.7000000000033837, -0.6619212631861526 
3.710000000003405, -0.6620582045019783 
3.720000000003426, -0.6621846229260842 
3.730000000003447, -0.6622876211539571 
3.740000000003468, -0.6623699464940532 
3.750000000003489, -0.6624467464734711 
3.7600000000035103, -0.6625377048119122 
3.7700000000035314, -0.6626552750818713 
3.7800000000035525, -0.662793881502918 
3.7900000000035736, -0.6629264347192401 
3.8000000000035947, -0.6630114783512489 
3.810000000003616, -0.6630078883385274 
3.820000000003637, -0.6628888067624888 
3.830000000003658, -0.6626477763663738 
3.840000000003679, -0.6622970515937381 
3.8500000000037002, -0.6618636916841885 
3.8600000000037213, -0.661389301118466 
3.8700000000037424, -0.6609367066326519 
3.8800000000037635, -0.6606048742570787 
3.8900000000037847, -0.6605525633939828 
3.9000000000038058, -0.6610303938347094 
3.910000000003827, -0.6624189167875986 
3.920000000003848, -0.6652659820164979 
3.930000000003869, -0.6703085568693261 
3.94000000000389, -0.6784481575874455 
3.9500000000039113, -0.6906200115614488 
3.9600000000039324, -0.7074645369668129 
3.9700000000039535, -0.7287512679412362 
3.9800000000039746, -0.7527825605729702 
3.9900000000039957, -0.7764710647375516 
4.000000000004016, -0.7966174631480911 
4.010000000003993, -0.811522300904161 
4.02000000000397, -0.8213774778788607 
4.030000000003946, -0.8274015509407189 
4.040000000003923, -0.8308940537916261 
4.0500000000039, -0.832821643813945 
4.0600000000038765, -0.8337919835155481 
4.070000000003853, -0.834150200398051 
4.08000000000383, -0.8340698987612282 
4.090000000003807, -0.8336084987911017 
4.100000000003783, -0.8327287356968351 
4.11000000000376, -0.8312908327057231 
4.120000000003737, -0.8290145830508221 
4.130000000003713, -0.8254052766966776 
4.14000000000369, -0.81963819058567 
4.150000000003667, -0.8104190451601083 
4.1600000000036434, -0.7959260757063287 
4.17000000000362, -0.7741667416996616 
4.180000000003597, -0.744320895489299 
4.1900000000035735, -0.7088743281628074 
4.20000000000355, -0.6739179083309652 
4.210000000003527, -0.6455393474771272 
4.220000000003504, -0.626110324585688 
4.23000000000348, -0.6144794432314191 
4.240000000003457, -0.6082261243827154 
4.250000000003434, -0.6051934026760211 
4.26000000000341, -0.6039110113696504 
4.270000000003387, -0.6035008360943502 
4.280000000003364, -0.6034775075539718 
4.2900000000033405, -0.6035859887841516 
4.300000000003317, -0.6036959761290965 
4.310000000003294, -0.6037396907642809 
4.320000000003271, -0.6036773522214469 
4.330000000003247, -0.6034795767526477 
4.340000000003224, -0.6031210429077905 
4.350000000003201, -0.6025830656388053 
4.360000000003177, -0.6018629697595793 
4.370000000003154, -0.6009847674995339 
4.380000000003131, -0.6000017748521644 
4.390000000003107, -0.5989845816038462 
4.400000000003084, -0.5979988717372229 
4.410000000003061, -0.5970862511284029 
4.4200000000030375, -0.5962579875002578 
4.430000000003014, -0.5955017395885865 
4.440000000002991, -0.5947949071914378 
4.450000000002968, -0.5941176062957767 
4.460000000002944, -0.5934611697805047 
4.470000000002921, -0.5928319917863875 
4.480000000002898, -0.59225319212211 
4.490000000002874, -0.5917669238324713 
4.500000000002851, -0.5914390258222813 
4.510000000002828, -0.5913665066152806 
4.520000000002804, -0.5916876686911956 
4.530000000002781, -0.5925944822709629 
4.540000000002758, -0.5943467332524157 
4.5500000000027345, -0.5972867742147703 
4.560000000002711, -0.6018507259977861 
4.570000000002688, -0.6085633542085247 
4.580000000002665, -0.6179849919828556 
4.590000000002641, -0.6305511607059475 
4.600000000002618, -0.6462429741088761 
4.610000000002595, -0.6641523341958461 
4.620000000002571, -0.6823279311629373 
4.630000000002548, -0.6984129838851996 
4.640000000002525, -0.7108238152650822 
4.6500000000025015, -0.7193501210921991 
4.660000000002478, -0.7247340074703644 
4.670000000002455, -0.7279428476569787 
4.6800000000024315, -0.7297592921682481 
4.690000000002408, -0.7306996433562143 
4.700000000002385, -0.731066221072728 
4.710000000002362, -0.7310136812143188 
4.720000000002338, -0.7305918632008365 
4.730000000002315, -0.7297603835989714 
4.740000000002292, -0.7283746346401007 
4.750000000002268, -0.7261376316807986 
4.760000000002245, -0.7225068606407061 
4.770000000002222, -0.716555844341388 
4.7800000000021985, -0.7068621807932122 
4.790000000002175, -0.6916943201338629 
4.800000000002152, -0.6699572215563905 
4.810000000002129, -0.6427609027632493 
4.820000000002105, -0.6138743245986679 
4.830000000002082, -0.5877092691999043 
4.840000000002059, -0.5668677149257633 
4.850000000002035, -0.5516921238138635 
4.860000000002012, -0.5412624593006448 
4.870000000001989, -0.5343591331530122 
4.880000000001965, -0.5299173653579825 
4.890000000001942, -0.5271370681282088 
4.900000000001919, -0.5254560236966251 
4.9100000000018955, -0.524491846775705 
4.920000000001872, -0.5239891306316289 
