t, s[1].omega / s[0].omega 
0, -0.9699978514703614 
0.009999999999999995, -0.9697129590006889 
0.019999999999999934, -0.9692832426237294 
0.029999999999999874, -0.9687002604164735 
0.04000000000000012, -0.9679737675436634 
0.050000000000000405, -0.9671472172820751 
0.06000000000000069, -0.9663014968710827 
0.07000000000000098, -0.9655453522147113 
0.08000000000000126, -0.9649903762666406 
0.09000000000000155, -0.9647179449215274 
0.10000000000000184, -0.9647566573793631 
0.11000000000000212, -0.9650791821098232 
0.12000000000000241, -0.9656125380483552 
0.130000000000002, -0.966257833666916 
0.1400000000000009, -0.9669166943581827 
0.1499999999999998, -0.9675140009960879 
0.1599999999999987, -0.9680071197310921 
0.1699999999999976, -0.9683794583136031 
0.1799999999999965, -0.9686224173468291 
0.1899999999999954, -0.9687176797437976 
0.1999999999999943, -0.9686357084290553 
0.2099999999999932, -0.9683539204323829 
0.2199999999999921, -0.9678790958374016 
0.229999999999991, -0.9672585987204594 
0.2399999999999899, -0.9665809634668537 
0.2499999999999888, -0.9659690866910187 
0.2599999999999877, -0.9655579398914105 
0.2699999999999866, -0.9654541051829246 
0.2799999999999855, -0.9656999135850489 
0.2899999999999844, -0.9662678865091662 
0.2999999999999833, -0.9670811259323778 
0.3099999999999822, -0.9680402933467066 
0.3199999999999811, -0.9690484565227555 
0.32999999999998, -0.9700299723128045 
0.3399999999999789, -0.9709368718559713 
0.3499999999999778, -0.9717394026943245 
0.35999999999997667, -0.9724065069195571 
0.36999999999997557, -0.9728921795902964 
0.37999999999997447, -0.9731439068384997 
0.38999999999997337, -0.9731299448134803 
0.39999999999997227, -0.9728616245225532 
0.40999999999997117, -0.9723966076758308 
0.41999999999997006, -0.9718342443434249 
0.42999999999996896, -0.9713129902766696 
0.43999999999996786, -0.9709959381022077 
0.44999999999996676, -0.97102671929112 
0.45999999999996566, -0.9714746487943089 
0.46999999999996456, -0.9723152696701978 
0.47999999999996346, -0.9734578540555247 
0.48999999999996235, -0.9747876799929905 
0.49999999999996125, -0.9761973865123951 
0.5099999999999602, -0.9776034848174974 
0.519999999999959, -0.9789477816086005 
0.529999999999958, -0.9801834598222358 
0.5399999999999568, -0.9812543835128997 
0.5499999999999557, -0.9820872747159283 
0.5599999999999546, -0.9826120227778729 
0.5699999999999535, -0.9827971912635295 
0.5799999999999524, -0.9826680840044627 
0.5899999999999513, -0.982298761353804 
0.5999999999999502, -0.9818017704418498 
0.6099999999999491, -0.9813302958109751 
0.619999999999948, -0.9810724929196238 
0.6299999999999469, -0.9812063402658416 
0.6399999999999458, -0.9818272847133648 
0.6499999999999447, -0.9829122760714697 
0.6599999999999436, -0.9843515622019309 
0.6699999999999425, -0.9860076759389153 
0.6799999999999414, -0.9877567996166314 
0.6899999999999403, -0.9895045117777107 
0.6999999999999392, -0.9911817610109506 
0.7099999999999381, -0.992726174293978 
0.719999999999937, -0.9940613082271709 
0.7299999999999359, -0.9950961774223505 
0.7399999999999348, -0.9957562630805549 
0.7499999999999337, -0.9960219383962968 
0.7599999999999326, -0.9959378024910477 
0.7699999999999315, -0.995594821292124 
0.7799999999999304, -0.9951184043846004 
0.7899999999999293, -0.9946751346547968 
0.7999999999999282, -0.9944697358222536 
0.8099999999999271, -0.9946937626567022 
0.819999999999926, -0.9954423504942721 
0.8299999999999249, -0.9966766658342456 
0.8399999999999238, -0.9982663599301209 
0.8499999999999227, -1.0000589283458465 
0.8599999999999216, -1.0019233505511145 
0.8699999999999205, -1.0037625491020499 
0.8799999999999194, -1.0055049070592195 
0.8899999999999183, -1.0070830926652223 
0.8999999999999172, -1.0084154439081527 
0.9099999999999161, -1.0094119886405604 
0.919999999999915, -1.0100097321053132 
0.9299999999999139, -1.0102064746576052 
0.9399999999999128, -1.0100616492984786 
0.9499999999999117, -1.009676439206253 
0.9599999999999106, -1.0091861689580046 
0.9699999999999095, -1.0087678785281966 
0.9799999999999084, -1.0086268381897 
0.9899999999999073, -1.0089315498564737 
0.9999999999999062, -1.0097361386541919 
1.0099999999999052, -1.01096833516228 
1.019999999999904, -1.012487314481452 
1.029999999999903, -1.0141468461666223 
1.039999999999902, -1.0158276664198873 
1.0499999999999008, -1.017444312842411 
1.0599999999998997, -1.018935177421665 
1.0699999999998986, -1.0202422976846717 
1.0799999999998975, -1.0212961277853203 
1.0899999999998964, -1.0220243598771732 
1.0999999999998953, -1.0223838834966017 
1.1099999999998942, -1.0223865091812936 
1.119999999999893, -1.022097169218106 
1.129999999999892, -1.02162054013237 
1.1399999999998909, -1.0210987721740188 
1.1499999999998898, -1.0207098068199627 
1.1599999999998887, -1.0206318261889529 
1.1699999999998876, -1.0209731569609362 
1.1799999999998865, -1.0217281931701627 
1.1899999999998854, -1.0228013066847779 
1.1999999999998843, -1.0240623642305082 
1.2099999999998832, -1.0253872741697907 
1.219999999999882, -1.0266776808408455 
1.229999999999881, -1.0278663376133268 
1.2399999999998799, -1.0289085892325036 
1.2499999999998788, -1.029764314096164 
1.2599999999998777, -1.03038507854708 
1.2699999999998766, -1.0307220604840317 
1.2799999999998755, -1.030751387316757 
1.2899999999998744, -1.030493715472539 
1.2999999999998733, -1.030015474695531 
1.3099999999998722, -1.0294236997689814 
1.319999999999871, -1.0288619255572504 
1.32999999999987, -1.0284894522297263 
1.3399999999998689, -1.0284309118074209 
1.3499999999998678, -1.028728243984906 
1.3599999999998666, -1.029338326526731 
1.3699999999998655, -1.030166263921437 
1.3799999999998644, -1.031098853750405 
1.3899999999998633, -1.0320292366844026 
1.3999999999998622, -1.0328752745898293 
1.4099999999998611, -1.0335864515540125 
1.41999999999986, -1.0341357864862255 
1.429999999999859, -1.034502588798832 
1.4399999999998578, -1.0346601847593098 
1.4499999999998567, -1.034581430432549 
1.4599999999998556, -1.0342585326481768 
1.4699999999998545, -1.0337200311694021 
1.4799999999998534, -1.0330361673001318 
1.4899999999998523, -1.032316231138944 
1.4999999999998512, -1.031694307256024 
1.5099999999998501, -1.0312943579985754 
1.519999999999849, -1.0311889020456342 
1.529999999999848, -1.0313822439297295 
1.5399999999998468, -1.0318207813846534 
1.5499999999998457, -1.0324109770621035 
1.5599999999998446, -1.0330416311299362 
1.5699999999998435, -1.033611200660967 
1.5799999999998424, -1.0340483458088303 
1.5899999999998413, -1.0343168997099277 
1.5999999999998402, -1.0344063621451958 
1.6099999999998391, -1.0343143638668406 
1.619999999999838, -1.034033680791653 
1.629999999999837, -1.0335555293782968 
1.6399999999998358, -1.0328864067226582 
1.6499999999998347, -1.0320645034898979 
1.6599999999998336, -1.0311663538967009 
1.6699999999998325, -1.0303004111924767 
1.6799999999998314, -1.0295840958206692 
1.6899999999998303, -1.0291109048469553 
1.6999999999998292, -1.0289266306269877 
1.709999999999828, -1.0290207594216978 
1.719999999999827, -1.0293259641752606 
1.729999999999826, -1.0297319680595003 
1.7399999999998248, -1.0301179062167447 
1.7499999999998237, -1.030384460875651 
1.7599999999998226, -1.0304696947916439 
1.7699999999998215, -1.0303501391156704 
1.7799999999998204, -1.0300306432975717 
1.7899999999998193, -1.0295259173707234 
1.7999999999998182, -1.0288458639482128 
1.809999999999817, -1.0279974403701078 
1.819999999999816, -1.0270005554867057 
1.8299999999998149, -1.0259041594526577 
1.8399999999998138, -1.0247913338084418 
1.8499999999998127, -1.0237686567703541 
1.8599999999998116, -1.022942616568937 
1.8699999999998105, -1.0223941692384417 
1.8799999999998094, -1.0221573755244044 
1.8899999999998083, -1.0222009326051995 
1.8999999999998072, -1.02242679415795 
1.909999999999806, -1.0227008269433153 
1.919999999999805, -1.0228957447620597 
1.9299999999998039, -1.0229172840513763 
1.9399999999998028, -1.0227123599447652 
1.9499999999998017, -1.0222690745259166 
1.9599999999998006, -1.0216068679584787 
1.9699999999997995, -1.0207559191157802 
1.9799999999997984, -1.0197403780763616 
1.9899999999997973, -1.0185800032711583 
1.9999999999997962, -1.0173064332541535 
2.0099999999998173, -1.0159787521971857 
2.0199999999998384, -1.0146865498262199 
2.0299999999998595, -1.0135377793557294 
2.0399999999998806, -1.012637068900204 
2.0499999999999017, -1.0120600495326646 
2.059999999999923, -1.0118233133257066 
2.069999999999944, -1.0118629096386595 
2.079999999999965, -1.0120492379193324 
2.089999999999986, -1.0122344900653482 
2.100000000000007, -1.0122934819525065 
2.1100000000000283, -1.012139450825012 
2.1200000000000494, -1.0117282735273845 
2.1300000000000705, -1.0110594794015286 
2.1400000000000916, -1.0101653292910877 
2.1500000000001127, -1.0090871363783034 
2.160000000000134, -1.0078576775924981 
2.170000000000155, -1.006504471030731 
2.180000000000176, -1.0050672097045215 
2.190000000000197, -1.003612556473704 
2.2000000000002182, -1.002235311852197 
2.2100000000002393, -1.0010452209598397 
2.2200000000002604, -1.0001446553989313 
2.2300000000002815, -0.999598936001328 
2.2400000000003026, -0.9994025270545394 
2.2500000000003237, -0.9994653682702126 
2.260000000000345, -0.9996427310378773 
2.270000000000366, -0.9997868358821577 
2.280000000000387, -0.9997802653724265 
2.290000000000408, -0.9995457184776851 
2.3000000000004293, -0.9990495316830386 
2.3100000000004504, -0.9983018847281683 
2.3200000000004715, -0.9973424490586618 
2.3300000000004926, -0.996214837199797 
2.3400000000005137, -0.9949514475741958 
2.3500000000005348, -0.9935803584913313 
2.360000000000556, -0.9921439355577102 
2.370000000000577, -0.9907121087989543 
2.380000000000598, -0.9893809642134491 
2.390000000000619, -0.9882573799439389 
2.4000000000006403, -0.9874355171116086 
2.4100000000006614, -0.9869677279296342 
2.4200000000006825, -0.9868352905789363 
2.4300000000007036, -0.9869418988215265 
2.4400000000007247, -0.9871461536127814 
2.450000000000746, -0.9873091901234331 
2.460000000000767, -0.9873239147407862 
2.470000000000788, -0.9871239768811895 
2.480000000000809, -0.9866864320723077 
2.49000000000083, -0.9860278467641809 
2.5000000000008513, -0.9851859470612869 
2.5100000000008724, -0.9841955676394543 
2.5200000000008935, -0.9830793968672893 
2.5300000000009146, -0.981859484793463 
2.5400000000009357, -0.9805763427667753 
2.550000000000957, -0.9792999582506613 
2.560000000000978, -0.9781253695642664 
2.570000000000999, -0.9771543777753025 
2.58000000000102, -0.9764712379262056 
2.5900000000010412, -0.9761184038716402 
2.6000000000010624, -0.976075853991521 
2.6100000000010835, -0.9762574880562579 
2.6200000000011046, -0.9765371673021125 
2.6300000000011257, -0.9767893659526691 
2.6400000000011468, -0.976917744467273 
2.650000000001168, -0.9768658861221957 
2.660000000001189, -0.9766179458946287 
2.67000000000121, -0.9761893235792686 
2.680000000001231, -0.9756060516611289 
2.6900000000012523, -0.9748855080225213 
2.7000000000012734, -0.9740348398209562 
2.7100000000012945, -0.9730669246548683 
2.7200000000013156, -0.9720191212047684 
2.7300000000013367, -0.9709619139887747 
2.740000000001358, -0.9699923513274752 
2.750000000001379, -0.9692128649938229 
2.7600000000014, -0.9687040213563428 
2.770000000001421, -0.9685031367467657 
2.780000000001442, -0.9685927627573955 
2.7900000000014633, -0.968901006101815 
2.8000000000014844, -0.9693202018473239 
2.8100000000015055, -0.9697391946985564 
2.8200000000015266, -0.9700710027598841 
2.8300000000015477, -0.9702653284389527 
2.840000000001569, -0.9703070608910296 
2.85000000000159, -0.9702025816628668 
2.860000000001611, -0.9699591534442037 
2.870000000001632, -0.9695720787212874 
2.8800000000016532, -0.9690312265206544 
2.8900000000016743, -0.9683409100495988 
2.9000000000016954, -0.9675371982699073 
2.9100000000017165, -0.9666940122177383 
2.9200000000017377, -0.9659164495939883 
2.9300000000017588, -0.9653187924400434 
2.94000000000178, -0.9649914746935675 
2.950000000001801, -0.9649747707119115 
2.960000000001822, -0.965252017771948 
2.970000000001843, -0.965758085875519 
2.9800000000018643, -0.9663974119477692 
2.9900000000018854, -0.9670695684114928 
3.0000000000019065, -0.9676936102509226 
3.0100000000019276, -0.9682203715041386 
3.0200000000019487, -0.9686289604346757 
3.03000000000197, -0.9689103034459472 
3.040000000001991, -0.9690481114083375 
3.050000000002012, -0.9690134599278204 
3.060000000002033, -0.9687800645434785 
3.070000000002054, -0.9683475306432044 
3.0800000000020753, -0.9677550926830377 
3.0900000000020964, -0.9670836474075427 
3.1000000000021175, -0.9664507816451714 
3.1100000000021386, -0.9659925264319766 
3.1200000000021597, -0.9658253922267848 
3.130000000002181, -0.9660065717950923 
3.140000000002202, -0.9665213818868519 
3.150000000002223, -0.9673002999875298 
3.160000000002244, -0.9682460770523118 
3.1700000000022652, -0.9692593563685911 
3.1800000000022863, -0.9702591476137975 
3.1900000000023074, -0.971192082657849 
3.2000000000023285, -0.9720259032185481 
3.2100000000023496, -0.9727309124082577 
3.2200000000023707, -0.9732637048243571 
3.230000000002392, -0.9735708369989243 
3.240000000002413, -0.9736141011089187 
3.250000000002434, -0.97339571966864 
3.260000000002455, -0.9729649113733463 
3.2700000000024763, -0.9724133175279637 
3.2800000000024974, -0.9718723910062153 
3.2900000000025185, -0.9715032844588065 
3.3000000000025396, -0.9714585984096314 
3.3100000000025607, -0.9718257913102684 
3.3200000000025818, -0.9725977874172577 
3.330000000002603, -0.9736931491043413 
3.340000000002624, -0.9749985515755213 
3.350000000002645, -0.9764031810441404 
3.360000000002666, -0.9778180890369241 
3.3700000000026873, -0.9791806540910349 
3.3800000000027084, -0.9804433475992335 
3.3900000000027295, -0.9815530789865644 
3.4000000000027506, -0.9824391967651194 
3.4100000000027717, -0.9830282823751508 
3.420000000002793, -0.9832791839318994 
3.430000000002814, -0.9832063854087246 
3.440000000002835, -0.9828757463939672 
3.450000000002856, -0.9823926066143518 
3.460000000002877, -0.9819020428124142 
3.4700000000028983, -0.9815874786088344 
3.4800000000029194, -0.9816341765046485 
3.4900000000029405, -0.9821579728252273 
3.5000000000029616, -0.9831576768216036 
3.5100000000029827, -0.9845355044174727 
3.520000000003004, -0.9861553051634591 
3.530000000003025, -0.9878888152474731 
3.540000000003046, -0.9896358415888982 
3.550000000003067, -0.9913237193687469 
3.5600000000030882, -0.9928909282491494 
3.5700000000031094, -0.994265216783603 
3.5800000000031305, -0.9953574842667174 
3.5900000000031516, -0.996087195680711 
3.6000000000031727, -0.99642241054293 
3.6100000000031938, -0.9963961979018454 
3.620000000003215, -0.9960919276558357 
3.630000000003236, -0.9956281638231345 
3.640000000003257, -0.9951627882391898 
3.650000000003278, -0.9948949472939694 
3.6600000000032993, -0.9950239017829872 
3.6700000000033204, -0.99566709552057 
3.6800000000033415, -0.9968091775598169 
3.6900000000033626, -0.9983318621658124 
3.7000000000033837, -1.0000831535242252 
3.710000000003405, -1.0019269248235054 
3.720000000003426, -1.0037603454524464 
3.730000000003447, -1.0055089125454244 
3.740000000003468, -1.0071070806895395 
3.750000000003489, -1.008477521383164 
3.7600000000035103, -1.0095308644238365 
3.7700000000035314, -1.0101963367555657 
3.7800000000035525, -1.0104588619013821 
3.7900000000035736, -1.0103669756658318 
3.8000000000035947, -1.010014652650356 
3.810000000003616, -1.0095299746065494 
3.820000000003637, -1.009081435334227 
3.830000000003658, -1.0088713347590876 
3.840000000003679, -1.0090799495190526 
3.8500000000037002, -1.009784854601208 
3.8600000000037213, -1.0109340670893396 
3.8700000000037424, -1.012394997952596 
3.8800000000037635, -1.0140201739324108 
3.8900000000037847, -1.0156850430544204 
3.9000000000038058, -1.0172987476203301 
3.910000000003827, -1.018797231308745 
3.920000000003848, -1.020124378158797 
3.930000000003869, -1.0212142325331794 
3.94000000000389, -1.0219940254551771 
3.9500000000039113, -1.0224129041100973 
3.9600000000039324, -1.0224712827986135 
3.9700000000039535, -1.0222244600191135 
3.9800000000039746, -1.0217696405945478 
3.9900000000039957, -1.0212411819867293 
4.000000000004016, -1.0208108584060889 
4.010000000003993, -1.0206602130459486 
4.02000000000397, -1.0209140841356898 
4.030000000003946, -1.021587457259135 
4.040000000003923, -1.0225978896623173 
4.0500000000039, -1.0238189489674177 
4.0600000000038765, -1.0251242761700767 
4.070000000003853, -1.0264103784113665 
4.08000000000383, -1.0276047693714434 
4.090000000003807, -1.0286602801130469 
4.100000000003783, -1.029538096509119 
4.11000000000376, -1.0301924206080357 
4.120000000003737, -1.030573590436242 
4.130000000003713, -1.030651243909461 
4.14000000000369, -1.0304367324633956 
4.150000000003667, -1.0299877769955288 
4.1600000000036434, -1.029403541483321 
4.17000000000362, -1.0288208957892475 
4.180000000003597, -1.028398369379877 
4.1900000000035735, -1.0282704203614599 
4.20000000000355, -1.028495549264603 
4.210000000003527, -1.0290447251833497 
4.220000000003504, -1.029830571082832 
4.23000000000348, -1.0307417709366493 
4.240000000003457, -1.0316688591673473 
4.250000000003434, -1.0325241512701517 
4.26000000000341, -1.0332514859898838 
4.270000000003387, -1.0338209469966724 
4.280000000003364, -1.0342125034779748 
4.2900000000033405, -1.0344014446950396 
4.300000000003317, -1.0343599051664856 
4.310000000003294, -1.0340749428281033 
4.320000000003271, -1.0335672970046523 
4.330000000003247, -1.0328990188490756 
4.340000000003224, -1.0321722421666157 
4.350000000003201, -1.0315179142045543 
4.360000000003177, -1.0310647208411157 
4.370000000003154, -1.0308968120783752 
4.380000000003131, -1.0310311976760094 
4.390000000003107, -1.031424220737703 
4.400000000003084, -1.0319885905041828 
4.410000000003061, -1.0326143551145335 
4.4200000000030375, -1.0331960567708924 
4.430000000003014, -1.033655682534392 
4.440000000002991, -1.0339507667905208 
4.450000000002968, -1.0340673477590137 
4.460000000002944, -1.0340031967751961 
4.470000000002921, -1.033752724993528 
4.480000000002898, -1.0333066751397686 
4.490000000002874, -1.032667243969608 
4.500000000002851, -1.0318656296103252 
4.510000000002828, -1.030970928861896 
4.520000000002804, -1.0300865308838902 
4.530000000002781, -1.0293303745434088 
4.540000000002758, -1.0288027291145119 
4.5500000000027345, -1.0285595678053607 
4.560000000002711, -1.0286015299197535 
4.570000000002688, -1.0288717209464149 
4.580000000002665, -1.0292658721362316 
4.590000000002641, -1.02966217866586 
4.600000000002618, -1.0299553445468728 
4.610000000002595, -1.0300757845328345 
4.620000000002571, -1.0299931173372743 
4.630000000002548, -1.0297081311816771 
4.640000000002525, -1.029235299311422 
4.6500000000025015, -1.0285860685052648 
4.660000000002478, -1.0277670961145031 
4.670000000002455, -1.026794362076087 
4.6800000000024315, -1.0257103265284806 
4.690000000002408, -1.0245917220271947 
4.700000000002385, -1.0235420639614077 
4.710000000002362, -1.022669894783504 
4.720000000002338, -1.0220628442129327 
4.730000000002315, -1.021765618055002 
4.740000000002292, -1.0217605348836345 
4.750000000002268, -1.0219610470808904 
4.760000000002245, -1.02223657580128 
4.770000000002222, -1.0224558076098356 
4.7800000000021985, -1.0225171291097452 
4.790000000002175, -1.0223593444077075 
4.800000000002152, -1.0219629999227298 
4.810000000002129, -1.0213428695242945 
4.820000000002105, -1.0205287238627934 
4.830000000002082, -1.0195463079302212 
4.840000000002059, -1.0184150989777385 
4.850000000002035, -1.0171628473542669 
4.860000000002012, -1.0158424629479201 
4.870000000001989, -1.0145380151303591 
4.880000000001965, -1.0133552956346452 
4.890000000001942, -1.0124013168447665 
4.900000000001919, -1.0117594041540094 
4.9100000000018955, -1.0114599840967224 
4.920000000001872, -1.01145536757283 
4.930000000001849, -1.0116260640928125 
