t, s[1].omega / s[0].omega 
0, -0.5299977512236429 
0.009999999999999995, -0.5298118498640896 
0.019999999999999934, -0.5296897901954314 
0.029999999999999874, -0.5295968367700457 
0.04000000000000012, -0.5294896281617587 
0.050000000000000405, -0.5293304189236526 
0.06000000000000069, -0.5290962011923875 
0.07000000000000098, -0.5287802617848094 
0.08000000000000126, -0.52838898977783 
0.09000000000000155, -0.5279387611300781 
0.10000000000000184, -0.5274566332077893 
0.11000000000000212, -0.5269872461188847 
0.12000000000000241, -0.526608558434184 
0.130000000000002, -0.5264609853315478 
0.1400000000000009, -0.5267974970262921 
0.1499999999999998, -0.5280642046796495 
0.1599999999999987, -0.5310142225279956 
0.1699999999999976, -0.536818236032166 
0.1799999999999965, -0.5470125626558786 
0.1899999999999954, -0.5629068945031136 
0.1999999999999943, -0.5841337813711994 
0.2099999999999932, -0.6073407609211999 
0.2199999999999921, -0.6276204714866769 
0.229999999999991, -0.6422118272588574 
0.2399999999999899, -0.6516392160731097 
0.2499999999999888, -0.6576659247675638 
0.2599999999999877, -0.66165729580229 
0.2699999999999866, -0.6643715108306713 
0.2799999999999855, -0.6662185083222046 
0.2899999999999844, -0.6674467096729579 
0.2999999999999833, -0.6682207879256874 
0.3099999999999822, -0.668650022727578 
0.3199999999999811, -0.6688001856334727 
0.32999999999998, -0.6686992955766974 
0.3399999999999789, -0.6683396181048721 
0.3499999999999778, -0.6676772896024245 
0.35999999999997667, -0.6666331716970603 
0.36999999999997557, -0.6651029130885832 
0.37999999999997447, -0.6629874696795557 
0.38999999999997337, -0.6602477748445225 
0.39999999999997227, -0.6569605491351227 
0.40999999999997117, -0.6533274111942148 
0.41999999999997006, -0.6496137023175048 
0.42999999999996896, -0.6460579119606698 
0.43999999999996786, -0.6428149705766486 
0.44999999999996676, -0.6399534377393004 
0.45999999999996566, -0.6374834810200645 
0.46999999999996456, -0.6353878269147317 
0.47999999999996346, -0.6336426951870893 
0.48999999999996235, -0.6322276989823432 
0.49999999999996125, -0.6311281808772808 
0.5099999999999602, -0.6303337005032557 
0.519999999999959, -0.6298353626807893 
0.529999999999958, -0.6296236414342924 
0.5399999999999568, -0.6296875669984898 
0.5499999999999557, -0.6300155306197126 
0.5599999999999546, -0.6305974670571486 
0.5699999999999535, -0.631427781669143 
0.5799999999999524, -0.6325080249102487 
0.5899999999999513, -0.6338478143131512 
0.5999999999999502, -0.6354617733433062 
0.6099999999999491, -0.6373596842081108 
0.619999999999948, -0.6395279481821332 
0.6299999999999469, -0.6419050729323674 
0.6399999999999458, -0.6443634978963052 
0.6499999999999447, -0.6467186066096715 
0.6599999999999436, -0.6487765051433801 
0.6699999999999425, -0.6503987785950816 
0.6799999999999414, -0.6515391735817462 
0.6899999999999403, -0.6522308514418712 
0.6999999999999392, -0.652545315340087 
0.7099999999999381, -0.6525547866091863 
0.719999999999937, -0.6523115318345454 
0.7299999999999359, -0.6518410233426278 
0.7399999999999348, -0.6511417545914397 
0.7499999999999337, -0.6501871864196118 
0.7599999999999326, -0.6489287632102794 
0.7699999999999315, -0.6473009432312085 
0.7799999999999304, -0.6452273553624521 
0.7899999999999293, -0.6426137684736304 
0.7999999999999282, -0.6392738562664916 
0.8099999999999271, -0.634681415291128 
0.819999999999926, -0.6275666470301171 
0.8299999999999249, -0.6160536265014727 
0.8399999999999238, -0.5994711413587241 
0.8499999999999227, -0.5804066135791148 
0.8599999999999216, -0.5632531852199665 
0.8699999999999205, -0.5507116385888164 
0.8799999999999194, -0.5428528676428565 
0.8899999999999183, -0.5384563078092917 
0.8999999999999172, -0.5362243025996547 
0.9099999999999161, -0.5352135742860348 
0.919999999999915, -0.5348388526482523 
0.9299999999999139, -0.5347652224793481 
0.9399999999999128, -0.5348093785425879 
0.9499999999999117, -0.5348728600243431 
0.9599999999999106, -0.5349018753804333 
0.9699999999999095, -0.5348647841317375 
0.9799999999999084, -0.534740848950228 
0.9899999999999073, -0.5345167140511393 
0.9999999999999062, -0.5341885561000663 
1.0099999999999052, -0.533767339135779 
1.019999999999904, -0.5332825713939183 
1.029999999999903, -0.5327791531380879 
1.039999999999902, -0.5323055215358854 
1.0499999999999008, -0.5318978361492386 
1.0599999999998997, -0.5315682520748793 
1.0699999999998986, -0.5313026854732306 
1.0799999999998975, -0.5310683173633931 
1.0899999999998964, -0.5308267795005158 
1.0999999999998953, -0.5305467537896661 
1.1099999999998942, -0.530210978074816 
1.119999999999893, -0.5298170334845836 
1.129999999999892, -0.5293752388584881 
1.1399999999998909, -0.5289078855375857 
1.1499999999998898, -0.5284529711978042 
1.1599999999998887, -0.5280748630929788 
1.1699999999998876, -0.5278850525351251 
1.1799999999998865, -0.5280782731172077 
1.1899999999998854, -0.5289919925975437 
1.1999999999998843, -0.5311980954260325 
1.2099999999998832, -0.5356253462166114 
1.219999999999882, -0.5436635610600344 
1.229999999999881, -0.5570650322202291 
1.2399999999998799, -0.5772437009808351 
1.2499999999998788, -0.6037031334736999 
1.2599999999998777, -0.6327214884952292 
1.2699999999998766, -0.6588391410284251 
1.2799999999998755, -0.6785764070034349 
1.2899999999998744, -0.6918499048838258 
1.2999999999998733, -0.7003018731093107 
1.3099999999998722, -0.7056000202934707 
1.319999999999871, -0.7089113165307401 
1.32999999999987, -0.710965054163842 
1.3399999999998689, -0.7122049338879594 
1.3499999999998678, -0.712897818841934 
1.3599999999998666, -0.7131981183631777 
1.3699999999998655, -0.7131833808944703 
1.3799999999998644, -0.7128713678112238 
1.3899999999998633, -0.7122241172315892 
1.3999999999998622, -0.7111429509178783 
1.4099999999998611, -0.7094612025323123 
1.41999999999986, -0.7069506415349389 
1.429999999999859, -0.7033700068772752 
1.4399999999998578, -0.6985779201956841 
1.4499999999998567, -0.6926736219848489 
1.4599999999998556, -0.6860481705067007 
1.4699999999998545, -0.6792621318026729 
1.4799999999998534, -0.6728339341194791 
1.4899999999998523, -0.6671010562050603 
1.4999999999998512, -0.6622091188500475 
1.5099999999998501, -0.6581714838635438 
1.519999999999849, -0.6549332626710399 
1.529999999999848, -0.6524128578582102 
1.5399999999998468, -0.6505218479252259 
1.5499999999998457, -0.649172117174768 
1.5599999999998446, -0.6482778897523209 
1.5699999999998435, -0.6477570000926143 
1.5799999999998424, -0.6475329288468651 
1.5899999999998413, -0.6475374407896609 
1.5999999999998402, -0.6477130589985032 
1.6099999999998391, -0.6480148009445957 
1.619999999999838, -0.6484110812478833 
1.629999999999837, -0.6488838944399101 
1.6399999999998358, -0.649427973695372 
1.6499999999998347, -0.6500477431459395 
1.6599999999998336, -0.6507504342228576 
1.6699999999998325, -0.6515349345571797 
1.6799999999998314, -0.6523791761836846 
1.6899999999998303, -0.6532327144565602 
1.6999999999998292, -0.6540220498918766 
1.709999999999828, -0.6546701518827243 
1.719999999999827, -0.655120356826682 
1.729999999999826, -0.6553497488809789 
1.7399999999998248, -0.6553659486176208 
1.7499999999998237, -0.6551942013926267 
1.7599999999998226, -0.6548655009896072 
1.7699999999998215, -0.6544119897104953 
1.7799999999998204, -0.6538713791967615 
1.7899999999998193, -0.6533015816538015 
1.7999999999998182, -0.6528092191234177 
1.809999999999817, -0.652599242898763 
1.819999999999816, -0.6530553355235991 
1.8299999999998149, -0.6548571271045681 
1.8399999999998138, -0.6591176559711748 
1.8499999999998127, -0.667455972276646 
1.8599999999998116, -0.6817778256489844 
1.8699999999998105, -0.7034077354121883 
1.8799999999998094, -0.7315521523691848 
1.8899999999998083, -0.7623565218445567 
1.8999999999998072, -0.7904684416160197 
1.909999999999806, -0.8122394673895176 
1.919999999999805, -0.8271159903187504 
1.9299999999998039, -0.836487532738907 
1.9399999999998028, -0.8421199683348656 
1.9499999999998017, -0.8454078818441693 
1.9599999999998006, -0.8472667374723931 
1.9699999999997995, -0.8482454491352757 
1.9799999999997984, -0.8486530406853801 
1.9899999999997973, -0.8486458667371183 
1.9999999999997962, -0.8482747677605692 
2.0099999999998173, -0.8474999966849367 
2.0199999999998384, -0.8461771418690406 
2.0299999999998595, -0.8440103221868034 
2.0399999999998806, -0.8404651754911784 
2.0499999999999017, -0.8346471333362112 
2.059999999999923, -0.8252160518179347 
2.069999999999944, -0.8105685796976608 
2.079999999999965, -0.7896527580394063 
2.089999999999986, -0.7633306484076703 
2.100000000000007, -0.7349686953768739 
2.1100000000000283, -0.7089348434651028 
2.1200000000000494, -0.688230628505095 
2.1300000000000705, -0.6735808817037742 
2.1400000000000916, -0.6641370625641423 
2.1500000000001127, -0.6585121965531479 
2.160000000000134, -0.6554111558307801 
2.170000000000155, -0.6538506689565591 
2.180000000000176, -0.653164094422118 
2.190000000000197, -0.6529319228460678 
2.2000000000002182, -0.6529038954110634 
2.2100000000002393, -0.6529355982878245 
2.2200000000002604, -0.6529435644657078 
2.2300000000002815, -0.652876349628057 
2.2400000000003026, -0.6526979776708547 
2.2500000000003237, -0.65238115163527 
2.260000000000345, -0.6519085433284895 
2.270000000000366, -0.6512795689023695 
2.280000000000387, -0.650517014778402 
2.290000000000408, -0.6496659486268828 
2.3000000000004293, -0.6487815072485293 
2.3100000000004504, -0.6479111607733606 
2.3200000000004715, -0.6470818813253075 
2.3300000000004926, -0.6462984226964057 
2.3400000000005137, -0.645551147343127 
2.3500000000005348, -0.6448274316222871 
2.360000000000556, -0.644121161301789 
2.370000000000577, -0.64343812881406 
2.380000000000598, -0.6427983477346392 
2.390000000000619, -0.6422374689738105 
2.4000000000006403, -0.641808743171264 
2.4100000000006614, -0.6415856536261655 
2.4200000000006825, -0.6416644661397626 
2.4300000000007036, -0.642165791194258 
2.4400000000007247, -0.6432346553207855 
2.450000000000746, -0.6450390435312033 
2.460000000000767, -0.6477665693420499 
2.470000000000788, -0.6516167772267653 
2.480000000000809, -0.6567817124452401 
2.49000000000083, -0.6634004805562982 
2.5000000000008513, -0.6714706910608786 
2.5100000000008724, -0.6807190630147713 
2.5200000000008935, -0.6904983989652014 
2.5300000000009146, -0.6998565032978357 
2.5400000000009357, -0.7078601707400403 
2.550000000000957, -0.7139831644423894 
2.560000000000978, -0.7182295505402058 
2.570000000000999, -0.720944560009231 
2.58000000000102, -0.7225530167495352 
2.5900000000010412, -0.7234061902659727 
2.6000000000010624, -0.7237417684705265 
2.6100000000010835, -0.7236961154502385 
2.6200000000011046, -0.7233249605807857 
2.6300000000011257, -0.7226143669189802 
2.6400000000011468, -0.7214756684506447 
2.650000000001168, -0.7197192691619618 
2.660000000001189, -0.7169981420083942 
2.67000000000121, -0.7127074297384781 
2.680000000001231, -0.7058365981352562 
2.6900000000012523, -0.69484607739033 
2.7000000000012734, -0.6778725862122152 
2.7100000000012945, -0.6538236215530373 
2.7200000000013156, -0.6242307539370275 
2.7300000000013367, -0.5936817418654494 
2.740000000001358, -0.5671756953884164 
2.750000000001379, -0.5472107497645571 
2.7600000000014, -0.5335956609920574 
2.770000000001421, -0.5248924627123015 
2.780000000001442, -0.5195645203885764 
2.7900000000014633, -0.5164123314221145 
2.8000000000014844, -0.5146123398950243 
2.8100000000015055, -0.5136324311463771 
2.8200000000015266, -0.5131392050609627 
2.8300000000015477, -0.5129272081079839 
2.840000000001569, -0.5128710512109784 
2.85000000000159, -0.5128948036786759 
2.860000000001611, -0.5129533513359461 
2.870000000001632, -0.5130219894899775 
2.8800000000016532, -0.5130917162188353 
2.8900000000016743, -0.5131679859093564 
2.9000000000016954, -0.513270130562088 
2.9100000000017165, -0.5134281308694091 
2.9200000000017377, -0.5136743438777629 
2.9300000000017588, -0.5140306246105759 
2.94000000000178, -0.514494665581709 
2.950000000001801, -0.5150317417570176 
2.960000000001822, -0.5155781938124753 
2.970000000001843, -0.5160584789805636 
2.9800000000018643, -0.5164082918085603 
2.9900000000018854, -0.5165903461223685 
3.0000000000019065, -0.516595203140311 
3.0100000000019276, -0.516431038008221 
3.0200000000019487, -0.5161112263937522 
3.03000000000197, -0.5156454759374448 
3.040000000001991, -0.5150354731290823 
3.050000000002012, -0.514273681942198 
3.060000000002033, -0.5133434053445899 
3.070000000002054, -0.5122169166044117 
3.0800000000020753, -0.5108419893890781 
3.0900000000020964, -0.5090860610124646 
3.1000000000021175, -0.506557385545924 
3.1100000000021386, -0.5021704479872608 
3.1200000000021597, -0.4935349230325258 
3.130000000002181, -0.47730285041380294 
3.140000000002202, -0.45232104680876734 
3.150000000002223, -0.42302114015347225 
3.160000000002244, -0.3965137770399621 
3.1700000000022652, -0.37674203059288824 
3.1800000000022863, -0.36360401134132864 
3.1900000000023074, -0.3553544585435325 
3.2000000000023285, -0.35028768196333954 
3.2100000000023496, -0.3471962905517343 
3.2200000000023707, -0.34531853742910634 
3.230000000002392, -0.34419399175381843 
3.240000000002413, -0.34354841357951205 
3.250000000002434, -0.34321997167435275 
3.260000000002455, -0.34311557899105305 
3.2700000000024763, -0.34318621279280054 
3.2800000000024974, -0.3434138821895002 
3.2900000000025185, -0.3438059080186081 
3.3000000000025396, -0.3443938596421012 
3.3100000000025607, -0.34523503598768424 
3.3200000000025818, -0.34641393777905966 
3.330000000002603, -0.3480396290119971 
3.340000000002624, -0.35023177728180366 
3.350000000002645, -0.3530842785541982 
3.360000000002666, -0.35659801835399246 
3.3700000000026873, -0.3606006035215669 
3.3800000000027084, -0.3647222862850004 
3.3900000000027295, -0.3685037968445832 
3.4000000000027506, -0.3715924605026204 
3.4100000000027717, -0.3738633415974793 
3.420000000002793, -0.37538461850421967 
3.430000000002814, -0.3763072954259231 
3.440000000002835, -0.37677845882878735 
3.450000000002856, -0.37690365924780866 
3.460000000002877, -0.3767396275611295 
3.4700000000028983, -0.376296788663781 
3.4800000000029194, -0.3755418511837819 
3.4900000000029405, -0.37440010180496286 
3.5000000000029616, -0.3727649989372433 
3.5100000000029827, -0.3705297863368392 
3.520000000003004, -0.36765265905931027 
3.530000000003025, -0.3642351829999399 
3.540000000003046, -0.36054561168016575 
3.550000000003067, -0.35693347827113125 
3.5600000000030882, -0.3536886300938639 
3.5700000000031094, -0.3509568657264267 
3.5800000000031305, -0.3487495102732434 
3.5900000000031516, -0.34699939133248525 
3.6000000000031727, -0.3456126587185226 
3.6100000000031938, -0.3444997571726007 
3.620000000003215, -0.34358925822676745 
3.630000000003236, -0.3428319263145046 
3.640000000003257, -0.34220052161451253 
3.650000000003278, -0.34168899713020184 
3.6600000000032993, -0.34131372055904946 
3.6700000000033204, -0.3411190100600523 
3.6800000000033415, -0.34118976978933796 
3.6900000000033626, -0.34167564637405967 
3.7000000000033837, -0.34283406688807616 
3.710000000003405, -0.3451028606245232 
3.720000000003426, -0.3492107822875451 
3.730000000003447, -0.35630062096772597 
3.740000000003468, -0.3678990212935169 
3.750000000003489, -0.3852194374645091 
3.7600000000035103, -0.40712747393320814 
3.7700000000035314, -0.4281054251709377 
3.7800000000035525, -0.44116098457852393 
3.7900000000035736, -0.44472504863115236 
3.8000000000035947, -0.44293143190758544 
3.810000000003616, -0.44001291032343276 
3.820000000003637, -0.43778535767666 
3.830000000003658, -0.4364855713936137 
3.840000000003679, -0.4358572319901143 
3.8500000000037002, -0.4356207884808853 
3.8600000000037213, -0.4355820092808182 
3.8700000000037424, -0.4356245390056469 
3.8800000000037635, -0.4356828699398057 
3.8900000000037847, -0.4357207263215078 
3.9000000000038058, -0.4357178002701584 
3.910000000003827, -0.43566320715256934 
3.920000000003848, -0.4355539594980719 
3.930000000003869, -0.43539699111891855 
3.94000000000389, -0.43521256996609664 
3.9500000000039113, -0.4350356573449564 
3.9600000000039324, -0.4349116693610843 
3.9700000000039535, -0.43488569527396176 
3.9800000000039746, -0.43498815099231003 
3.9900000000039957, -0.43522200034596387 
4.000000000004016, -0.43555661996037126 
4.010000000003993, -0.4359324553287064 
4.02000000000397, -0.436277191364959 
4.030000000003946, -0.4365268876031105 
4.040000000003923, -0.4366406436507363 
4.0500000000039, -0.4366020531262406 
4.0600000000038765, -0.4364103588374702 
4.070000000003853, -0.43606859785517915 
4.08000000000383, -0.4355733535185399 
4.090000000003807, -0.4349061305021752 
4.100000000003783, -0.43402295261258156 
4.11000000000376, -0.43283541282967486 
4.120000000003737, -0.4311695479821901 
4.130000000003713, -0.42867410542336365 
4.14000000000369, -0.4246293593339476 
4.150000000003667, -0.41763478399389686 
4.1600000000036434, -0.4054412629476616 
4.17000000000362, -0.3859167529004827 
4.180000000003597, -0.3598042752471649 
4.1900000000035735, -0.3320929651147893 
4.20000000000355, -0.3083873780254983 
4.210000000003527, -0.29097729920556326 
4.220000000003504, -0.27920699881253347 
4.23000000000348, -0.2714990916990421 
4.240000000003457, -0.26646773431406656 
4.250000000003434, -0.2631547753826306 
4.26000000000341, -0.26095378727529905 
4.270000000003387, -0.25949403865207044 
4.280000000003364, -0.25855375256213425 
4.2900000000033405, -0.2580058715147882 
4.300000000003317, -0.2577871841365773 
4.310000000003294, -0.25788308040084995 
4.320000000003271, -0.25832357563340635 
4.330000000003247, -0.25918918804112834 
4.340000000003224, -0.26062770074513425 
4.350000000003201, -0.2628848232906224 
4.360000000003177, -0.2663519923856136 
4.370000000003154, -0.27162708910155764 
4.380000000003131, -0.2795505665209354 
4.390000000003107, -0.2910859010302797 
4.400000000003084, -0.30677601181602626 
4.410000000003061, -0.3256764442260952 
4.4200000000030375, -0.34477132702401614 
4.430000000003014, -0.3605353046061759 
4.440000000002991, -0.3714145975539703 
4.450000000002968, -0.37808294831844536 
4.460000000002944, -0.38196072367490036 
4.470000000002921, -0.3841986371100323 
4.480000000002898, -0.38549928339177325 
4.490000000002874, -0.3862475677719287 
4.500000000002851, -0.38664710771932265 
4.510000000002828, -0.38680367151801176 
4.520000000002804, -0.38676922024419025 
4.530000000002781, -0.38656500601512833 
4.540000000002758, -0.3861957551905085 
4.5500000000027345, -0.3856619460634024 
4.560000000002711, -0.3849732659667673 
4.570000000002688, -0.3841614435253325 
4.580000000002665, -0.38328563801491955 
4.590000000002641, -0.382423771920931 
4.600000000002618, -0.3816518383618014 
4.610000000002595, -0.38102249539954136 
4.620000000002571, -0.38055345769236437 
4.630000000002548, -0.38022791430000813 
4.640000000002525, -0.38000369897133607 
4.6500000000025015, -0.3798272119001568 
4.660000000002478, -0.3796477297438843 
4.670000000002455, -0.37942722956338165 
4.6800000000024315, -0.37914297761301896 
4.690000000002408, -0.3787841720598518 
4.700000000002385, -0.378346186386847 
4.710000000002362, -0.37782516709849917 
4.720000000002338, -0.3772135539476299 
4.730000000002315, -0.37649478175753287 
4.740000000002292, -0.37563197395875936 
4.750000000002268, -0.37453686078274206 
4.760000000002245, -0.37298295355100597 
4.770000000002222, -0.37038196262318557 
4.7800000000021985, -0.3653174018530607 
4.790000000002175, -0.3550277598440466 
4.800000000002152, -0.33621107608254086 
4.810000000002129, -0.30882653728446463 
4.820000000002105, -0.27882003228591346 
4.830000000002082, -0.2533488058280069 
4.840000000002059, -0.23515549647166822 
4.850000000002035, -0.22324662897228 
4.860000000002012, -0.215670156314313 
4.870000000001989, -0.21083749110371622 
4.880000000001965, -0.20771043947608464 
4.890000000001942, -0.2056603681262537 
4.900000000001919, -0.20431700787718876 
