t, s[1].omega / s[0].omega 
0, -1.179962703252181 
0.009999999999999995, -1.1758466813888038 
0.019999999999999934, -1.171077193962001 
0.029999999999999874, -1.1659388681516263 
0.04000000000000012, -1.1608775082896892 
0.050000000000000405, -1.1564447364682116 
0.06000000000000069, -1.1531279623122725 
0.07000000000000098, -1.1511207917866852 
0.08000000000000126, -1.1502297172350766 
0.09000000000000155, -1.1500290224360565 
0.10000000000000184, -1.1501064227470503 
0.11000000000000212, -1.1501902733069085 
0.12000000000000241, -1.1501358113264135 
0.130000000000002, -1.1498574893189204 
0.1400000000000009, -1.149264959279168 
0.1499999999999998, -1.1482100693567996 
0.1599999999999987, -1.1464338108251524 
0.1699999999999976, -1.1435094175974565 
0.1799999999999965, -1.138807198217957 
0.1899999999999954, -1.1315614503386544 
0.1999999999999943, -1.121166571120953 
0.2099999999999932, -1.1077444995600096 
0.2199999999999921, -1.0926856421159603 
0.229999999999991, -1.0785079572700544 
0.2399999999999899, -1.0677015172262452 
0.2499999999999888, -1.061344372585202 
0.2599999999999877, -1.0587753485432665 
0.2699999999999866, -1.0584741871109462 
0.2799999999999855, -1.0590872912786868 
0.2899999999999844, -1.0598297382166675 
0.2999999999999833, -1.0603805593234878 
0.3099999999999822, -1.0606565413984934 
0.3199999999999811, -1.060652713498571 
0.32999999999998, -1.0603609903553086 
0.3399999999999789, -1.0597287278007186 
0.3499999999999778, -1.05862489842299 
0.35999999999997667, -1.056794460332606 
0.36999999999997557, -1.0537939327741963 
0.37999999999997447, -1.0489277138566007 
0.38999999999997337, -1.0412706431773093 
0.39999999999997227, -1.029963391716274 
0.40999999999997117, -1.0149439300183292 
0.41999999999997006, -0.9977951001894972 
0.42999999999996896, -0.9816521893022159 
0.43999999999996786, -0.9695778881882736 
0.44999999999996676, -0.9627492744313939 
0.45999999999996566, -0.9602526978865475 
0.46999999999996456, -0.9602852805550013 
0.47999999999996346, -0.9613101139047217 
0.48999999999996235, -0.962447186452305 
0.49999999999996125, -0.9633390921313078 
0.5099999999999602, -0.9639031226928566 
0.519999999999959, -0.9641565826846119 
0.529999999999958, -0.9641284118897945 
0.5399999999999568, -0.9638201424964616 
0.5499999999999557, -0.9631842342647055 
0.5599999999999546, -0.9621007300607811 
0.5699999999999535, -0.960341977982535 
0.5799999999999524, -0.9575240816303421 
0.5899999999999513, -0.9530646134109405 
0.5999999999999502, -0.9462123573813142 
0.6099999999999491, -0.9362696829013666 
0.619999999999948, -0.9230800917933475 
0.6299999999999469, -0.9075549730881717 
0.6399999999999458, -0.8916788473300887 
0.6499999999999447, -0.8777164259989206 
0.6599999999999436, -0.8671822159406247 
0.6699999999999425, -0.8603807196062728 
0.6799999999999414, -0.8566762206068004 
0.6899999999999403, -0.8550656816875384 
0.6999999999999392, -0.8546300452476803 
0.7099999999999381, -0.8547236983875599 
0.719999999999937, -0.8549702530221021 
0.7299999999999359, -0.8551806624669671 
0.7399999999999348, -0.8552692651272172 
0.7499999999999337, -0.8551938962260136 
0.7599999999999326, -0.854919057902132 
0.7699999999999315, -0.8543937106738989 
0.7799999999999304, -0.8535374812887128 
0.7899999999999293, -0.8522350343842723 
0.7999999999999282, -0.8503454505597027 
0.8099999999999271, -0.8477369232828533 
0.819999999999926, -0.8443469351880235 
0.8299999999999249, -0.8402410505968521 
0.8399999999999238, -0.8356255871011268 
0.8499999999999227, -0.8307966399084661 
0.8599999999999216, -0.8260599925618323 
0.8699999999999205, -0.8216708727021743 
0.8799999999999194, -0.8178109787808673 
0.8899999999999183, -0.8145894932194917 
0.8999999999999172, -0.8120502456605971 
0.9099999999999161, -0.8101777912686334 
0.919999999999915, -0.8089047854565239 
0.9299999999999139, -0.8081251715452116 
0.9399999999999128, -0.807713532352731 
0.9499999999999117, -0.8075456035228756 
0.9599999999999106, -0.8075134113020281 
0.9699999999999095, -0.8075316448723464 
0.9799999999999084, -0.8075364783267173 
0.9899999999999073, -0.8074807962491828 
0.9999999999999062, -0.807329902707678 
1.0099999999999052, -0.8070602169033118 
1.019999999999904, -0.8066609703150508 
1.029999999999903, -0.8061362396928254 
1.039999999999902, -0.8055035567769664 
1.0499999999999008, -0.8047876840868818 
1.0599999999998997, -0.804012541289074 
1.0699999999998986, -0.8031962273193145 
1.0799999999998975, -0.8023515706676967 
1.0899999999998964, -0.8014906320015752 
1.0999999999998953, -0.8006298542252994 
1.1099999999998942, -0.7997935731918417 
1.119999999999893, -0.7990152662944153 
1.129999999999892, -0.7983365792806024 
1.1399999999998909, -0.7978040351404201 
1.1499999999998898, -0.7974634693300429 
1.1599999999998887, -0.7973531271336225 
1.1699999999998876, -0.7974974054215889 
1.1799999999998865, -0.7979034137819306 
1.1899999999998854, -0.7985614748791734 
1.1999999999998843, -0.7994489691116435 
1.2099999999998832, -0.8005355261125338 
1.219999999999882, -0.8017870481426227 
1.229999999999881, -0.8031664418799019 
1.2399999999998799, -0.8046301690109734 
1.2499999999998788, -0.8061220053521936 
1.2599999999998777, -0.8075685881525793 
1.2699999999998766, -0.8088833799665632 
1.2799999999998755, -0.8099825212749054 
1.2899999999998744, -0.8108066524827706 
1.2999999999998733, -0.8113352563669161 
1.3099999999998722, -0.8115846396942945 
1.319999999999871, -0.811593610628722 
1.32999999999987, -0.8114081264263391 
1.3399999999998689, -0.8110731579428695 
1.3499999999998678, -0.810634057617339 
1.3599999999998666, -0.8101468536562744 
1.3699999999998655, -0.8096967416193911 
1.3799999999998644, -0.8094234385823779 
1.3899999999998633, -0.8095483726628837 
1.3999999999998622, -0.8103915563407366 
1.4099999999998611, -0.8123591742691669 
1.41999999999986, -0.8158837320109645 
1.429999999999859, -0.8213118309696295 
1.4399999999998578, -0.8287565040525738 
1.4499999999998567, -0.8379556306410378 
1.4599999999998556, -0.8482065549188962 
1.4699999999998545, -0.858466584630334 
1.4799999999998534, -0.8676558713670086 
1.4899999999998523, -0.8750330982743726 
1.4999999999998512, -0.8803922839319018 
1.5099999999998501, -0.8839662842592151 
1.519999999999849, -0.8861785039328609 
1.529999999999848, -0.887440470952811 
1.5399999999998468, -0.8880640456550044 
1.5499999999998457, -0.8882531588645353 
1.5599999999998446, -0.8881252642384148 
1.5699999999998435, -0.8877351581298051 
1.5799999999998424, -0.8870935322774101 
1.5899999999998413, -0.8861832522692094 
1.5999999999998402, -0.8849834376421516 
1.6099999999998391, -0.8835196046864049 
1.619999999999838, -0.8819654335871393 
1.629999999999837, -0.880810513633468 
1.6399999999998358, -0.8810383288724368 
1.6499999999998347, -0.8841049061377332 
1.6599999999998336, -0.8914026375610161 
1.6699999999998325, -0.9032094131805627 
1.6799999999998314, -0.9179458360639818 
1.6899999999998303, -0.932791413276731 
1.6999999999998292, -0.9453124020031174 
1.709999999999828, -0.9545111849189436 
1.719999999999827, -0.9606304798506938 
1.729999999999826, -0.9644300580094349 
1.7399999999998248, -0.9666648566655199 
1.7499999999998237, -0.9678951413105308 
1.7599999999998226, -0.9684810310344535 
1.7699999999998215, -0.968631207598803 
1.7799999999998204, -0.9684487782237852 
1.7899999999998193, -0.9679596945113035 
1.7999999999998182, -0.9671243239826632 
1.809999999999817, -0.965837285685413 
1.819999999999816, -0.963925726709577 
1.8299999999998149, -0.9611697334939022 
1.8399999999998138, -0.9573938276531578 
1.8499999999998127, -0.9526942250635237 
1.8599999999998116, -0.9477886625088872 
1.8699999999998105, -0.9442050536205079 
1.8799999999998094, -0.9437801758971306 
1.8899999999998083, -0.9474255786235413 
1.8999999999998072, -0.954262201845337 
1.909999999999806, -0.962199264994499 
1.919999999999805, -0.9693375583819689 
1.9299999999998039, -0.9747776929824882 
1.9399999999998028, -0.9784869247389851 
1.9499999999998017, -0.9808222830088107 
1.9599999999998006, -0.9821873997280643 
1.9699999999997995, -0.9828957208802154 
1.9799999999997984, -0.9831499414982365 
1.9899999999997973, -0.983058996384574 
1.9999999999997962, -0.9826557202922755 
2.0099999999998173, -0.9819029195457855 
2.0199999999998384, -0.980685016579789 
2.0299999999998595, -0.9787867765634303 
2.0399999999998806, -0.9758695320777301 
2.0499999999999017, -0.9714795278425109 
2.059999999999923, -0.9651671539751663 
2.069999999999944, -0.9568190448371132 
2.079999999999965, -0.9471659025491362 
2.089999999999986, -0.9380266292895888 
2.100000000000007, -0.9316417530521255 
2.1100000000000283, -0.9292753750767695 
2.1200000000000494, -0.9304304259876405 
2.1300000000000705, -0.9334837963655426 
2.1400000000000916, -0.9368778308452752 
2.1500000000001127, -0.9397393610361238 
2.160000000000134, -0.9418132954873337 
2.170000000000155, -0.9431642418521731 
2.180000000000176, -0.9439489961532832 
2.190000000000197, -0.94430903806725 
2.2000000000002182, -0.944336145181061 
2.2100000000002393, -0.9440657637632835 
2.2200000000002604, -0.9434731483297709 
2.2300000000002815, -0.9424602411062489 
2.2400000000003026, -0.9408265198085133 
2.2500000000003237, -0.9382209308242491 
2.260000000000345, -0.934084927866016 
2.270000000000366, -0.9276352872544281 
2.280000000000387, -0.9180079369107579 
2.290000000000408, -0.9047192252945797 
2.3000000000004293, -0.8883771518125665 
2.3100000000004504, -0.8710305109499783 
2.3200000000004715, -0.855445856528803 
2.3300000000004926, -0.8436832849188851 
2.3400000000005137, -0.8362547611802451 
2.3500000000005348, -0.8324039660307054 
2.360000000000556, -0.830902252135379 
2.370000000000577, -0.8306571302147449 
2.380000000000598, -0.8309348949823068 
2.390000000000619, -0.8313304148544679 
2.4000000000006403, -0.831654566131415 
2.4100000000006614, -0.831831889841107 
2.4200000000006825, -0.8318329649121956 
2.4300000000007036, -0.8316355032993934 
2.4400000000007247, -0.8312021237472497 
2.450000000000746, -0.8304661815512224 
2.460000000000767, -0.8293231157040324 
2.470000000000788, -0.8276321071550254 
2.480000000000809, -0.8252395400340014 
2.49000000000083, -0.8220335554917483 
2.5000000000008513, -0.8180165298931078 
2.5100000000008724, -0.8133497928203521 
2.5200000000008935, -0.8083271859628874 
2.5300000000009146, -0.8032895022959318 
2.5400000000009357, -0.7985384914322478 
2.550000000000957, -0.7942928765460883 
2.560000000000978, -0.7906842324886574 
2.570000000000999, -0.7877698555747541 
2.58000000000102, -0.7855462996424408 
2.5900000000010412, -0.7839601869490409 
2.6000000000010624, -0.7829197154223448 
2.6100000000010835, -0.7823097491262676 
2.6200000000011046, -0.7820092372524157 
2.6300000000011257, -0.7819065667360005 
2.6400000000011468, -0.7819088603255924 
2.650000000001168, -0.781944296565755 
2.660000000001189, -0.7819595728964666 
2.67000000000121, -0.7819159056321169 
2.680000000001231, -0.7817864166846938 
2.6900000000012523, -0.7815560133285292 
2.7000000000012734, -0.7812225302809812 
2.7100000000012945, -0.7807961604918126 
2.7200000000013156, -0.7802949047180661 
2.7300000000013367, -0.7797371901959139 
2.740000000001358, -0.7791358748339479 
2.750000000001379, -0.7784972101425238 
2.7600000000014, -0.7778246773776917 
2.770000000001421, -0.7771246660105495 
2.780000000001442, -0.776411021906936 
2.7900000000014633, -0.7757074841425744 
2.8000000000014844, -0.7750485112814277 
2.8100000000015055, -0.7744789164706689 
2.8200000000015266, -0.7740518985942806 
2.8300000000015477, -0.7738247573678743 
2.840000000001569, -0.7738523664028157 
2.85000000000159, -0.7741798684969354 
2.860000000001611, -0.7748369262327898 
2.870000000001632, -0.7758353403987054 
2.8800000000016532, -0.7771700964947355 
2.8900000000016743, -0.7788219326412962 
2.9000000000016954, -0.7807583751559997 
2.9100000000017165, -0.7829304801876174 
2.9200000000017377, -0.785264771862282 
2.9300000000017588, -0.78765451483041 
2.94000000000178, -0.7899600676873549 
2.950000000001801, -0.7920286294405756 
2.960000000001822, -0.7937319183232805 
2.970000000001843, -0.7950016517923041 
2.9800000000018643, -0.7958391244967948 
2.9900000000018854, -0.7962956411531612 
3.0000000000019065, -0.7964417315289575 
3.0100000000019276, -0.7963436557722396 
3.0200000000019487, -0.7960536138647327 
3.03000000000197, -0.7956116065887746 
3.040000000001991, -0.795056239257241 
3.050000000002012, -0.794445011873479 
3.060000000002033, -0.7938878549591364 
3.070000000002054, -0.7935978274752942 
3.0800000000020753, -0.7939558522189624 
3.0900000000020964, -0.7955670317845926 
3.1000000000021175, -0.7992541119337236 
3.1100000000021386, -0.8059050231956245 
3.1200000000021597, -0.8161103715574682 
3.130000000002181, -0.8296596294208234 
3.140000000002202, -0.8452175518947722 
3.150000000002223, -0.8606266115641323 
3.160000000002244, -0.8738523212024513 
3.1700000000022652, -0.8838527908722261 
3.1800000000022863, -0.8906870570788528 
3.1900000000023074, -0.8950220255737525 
3.2000000000023285, -0.8976199106217907 
3.2100000000023496, -0.89908728643856 
3.2200000000023707, -0.89983122180004 
3.230000000002392, -0.9000974809565279 
3.240000000002413, -0.9000185473669102 
3.250000000002434, -0.8996478164526034 
3.260000000002455, -0.8989775703497855 
3.2700000000024763, -0.897944511214931 
3.2800000000024974, -0.8964290938699095 
3.2900000000025185, -0.8942602510162505 
3.3000000000025396, -0.8912488761066207 
3.3100000000025607, -0.8872874650881284 
3.3200000000025818, -0.8825421407735078 
3.330000000002603, -0.877671351948185 
3.340000000002624, -0.8738370897100266 
3.350000000002645, -0.8722632452484879 
3.360000000002666, -0.8735077424978066 
3.3700000000026873, -0.8770721335299363 
3.3800000000027084, -0.8817403791898949 
3.3900000000027295, -0.8863070128178435 
3.4000000000027506, -0.8900614319457805 
3.4100000000027717, -0.8928094111737461 
3.420000000002793, -0.8946563592864039 
3.430000000002814, -0.8958028927647339 
3.440000000002835, -0.8964347418438464 
3.450000000002856, -0.8966846933471416 
3.460000000002877, -0.8966272935558688 
3.4700000000028983, -0.8962808373911237 
3.4800000000029194, -0.8956040703149762 
3.4900000000029405, -0.8944811505965202 
3.5000000000029616, -0.8926908639396374 
3.5100000000029827, -0.8898608469504194 
3.520000000003004, -0.8854249823822127 
3.530000000003025, -0.8786452851644505 
3.540000000003046, -0.868816202326372 
3.550000000003067, -0.8557333033199477 
3.5600000000030882, -0.8402190987816167 
3.5700000000031094, -0.8241492139592278 
3.5800000000031305, -0.8096974602109572 
3.5900000000031516, -0.7983626948088243 
3.6000000000031727, -0.7905487611107551 
3.6100000000031938, -0.7857998472184509 
3.620000000003215, -0.783283533198537 
3.630000000003236, -0.7821737114296214 
3.640000000003257, -0.7818332357811918 
3.650000000003278, -0.7818437301348151 
3.6600000000032993, -0.7819614287216818 
3.6700000000033204, -0.7820559921270717 
3.6800000000033415, -0.7820589957166584 
3.6900000000033626, -0.7819283992754541 
3.7000000000033837, -0.781626581272 
3.710000000003405, -0.7811083735705295 
3.720000000003426, -0.7803178948981334 
3.730000000003447, -0.7791958019687033 
3.740000000003468, -0.7776983866567864 
3.750000000003489, -0.7758233711850087 
3.7600000000035103, -0.7736271800728337 
3.7700000000035314, -0.7712180079219018 
3.7800000000035525, -0.7687260192379165 
3.7900000000035736, -0.7662703136827413 
3.8000000000035947, -0.7639409613515574 
3.810000000003616, -0.761798661739481 
3.820000000003637, -0.7598833994524417 
3.830000000003658, -0.7582231131901803 
3.840000000003679, -0.756838069096623 
3.8500000000037002, -0.7557407617164762 
3.8600000000037213, -0.7549332741819488 
3.8700000000037424, -0.7544045945199953 
3.8800000000037635, -0.7541299470527896 
3.8900000000037847, -0.754073058899037 
3.9000000000038058, -0.7541908753075259 
3.910000000003827, -0.7544392291674913 
3.920000000003848, -0.7547778503838475 
3.930000000003869, -0.755173736719042 
3.94000000000389, -0.75560262178686 
3.9500000000039113, -0.7560484618925497 
3.9600000000039324, -0.7565006222175783 
3.9700000000039535, -0.7569486542734258 
3.9800000000039746, -0.7573760104268331 
3.9900000000039957, -0.7577560815085798 
4.000000000004016, -0.7580542589038204 
4.010000000003993, -0.7582364946468837 
4.02000000000397, -0.758279821873602 
4.030000000003946, -0.7581785220001126 
4.040000000003923, -0.7579434955467909 
4.0500000000039, -0.757597870494152 
4.0600000000038765, -0.7571738258180859 
4.070000000003853, -0.7567138734028287 
4.08000000000383, -0.7562773066558165 
4.090000000003807, -0.755950676255764 
4.100000000003783, -0.7558595680153379 
4.11000000000376, -0.7561771399164766 
4.120000000003737, -0.7571234919566084 
4.130000000003713, -0.7589504432673876 
4.14000000000369, -0.761909103552262 
4.150000000003667, -0.7662007815407594 
4.1600000000036434, -0.7719129893308523 
4.17000000000362, -0.7789445080956277 
4.180000000003597, -0.7869372579328527 
4.1900000000035735, -0.7952639940587284 
4.20000000000355, -0.8031396724570092 
4.210000000003527, -0.8098619985259511 
4.220000000003504, -0.8150488527093367 
4.23000000000348, -0.8187006263539232 
4.240000000003457, -0.8210723756485903 
4.250000000003434, -0.8224937369061195 
4.26000000000341, -0.8232516808024055 
4.270000000003387, -0.8235510811258615 
4.280000000003364, -0.8235185021284327 
4.2900000000033405, -0.8232182871218336 
4.300000000003317, -0.8226666947322198 
4.310000000003294, -0.8218410769674055 
4.320000000003271, -0.8206869123098202 
4.330000000003247, -0.8191300557049569 
4.340000000003224, -0.8171073527819624 
4.350000000003201, -0.8146332500195979 
4.360000000003177, -0.8119094335358639 
4.370000000003154, -0.8094330900450075 
4.380000000003131, -0.8079704849003637 
4.390000000003107, -0.8082623729011473 
4.400000000003084, -0.8105859555876742 
4.410000000003061, -0.814566792487035 
4.4200000000030375, -0.8193973808065916 
4.430000000003014, -0.8242144222133188 
4.440000000002991, -0.8283920651689287 
4.450000000002968, -0.831651651063327 
4.460000000002944, -0.8339958171535823 
4.470000000002921, -0.8355707603918405 
4.480000000002898, -0.8365540640308667 
4.490000000002874, -0.8370964600289277 
4.500000000002851, -0.8373024767373556 
4.510000000002828, -0.8372283118842457 
4.520000000002804, -0.836882462252678 
4.530000000002781, -0.8362214678725202 
4.540000000002758, -0.8351369122278107 
4.5500000000027345, -0.8334329387547011 
4.560000000002711, -0.8308009734976951 
4.570000000002688, -0.8268166530084619 
4.580000000002665, -0.8210118403300253 
4.590000000002641, -0.8130760090789286 
4.600000000002618, -0.8031432069161349 
4.610000000002595, -0.7919476250423159 
4.620000000002571, -0.7806358736091714 
4.630000000002548, -0.7703326096814139 
4.640000000002525, -0.7617845468613644 
4.6500000000025015, -0.7552637474718575 
4.660000000002478, -0.750666332282157 
4.670000000002455, -0.7476722374667418 
4.6800000000024315, -0.7458848015071646 
4.690000000002408, -0.7449249614357986 
4.700000000002385, -0.7444807454356237 
4.710000000002362, -0.7443217311529471 
4.720000000002338, -0.7442911426375762 
4.730000000002315, -0.7442877144145439 
4.740000000002292, -0.7442462162367229 
4.750000000002268, -0.7441215918255669 
4.760000000002245, -0.7438788236641841 
4.770000000002222, -0.7434892668367833 
4.7800000000021985, -0.7429332624600031 
4.790000000002175, -0.7422068599185746 
4.800000000002152, -0.7413274732411718 
4.810000000002129, -0.7403323971471205 
4.820000000002105, -0.739268616090148 
4.830000000002082, -0.7381794789468805 
4.840000000002059, -0.7370961800486023 
4.850000000002035, -0.7360374992386721 
4.860000000002012, -0.7350154081650085 
4.870000000001989, -0.7340419752867571 
4.880000000001965, -0.7331344082873427 
4.890000000001942, -0.732317334289524 
4.900000000001919, -0.7316226452707423 
4.9100000000018955, -0.7310873832635668 
4.920000000001872, -0.7307500651043769 
4.930000000001849, -0.7306461110035577 
