t, s[1].omega / s[0].omega 
0, -0.7399976761988675 
0.009999999999999995, -0.7397451450032393 
0.019999999999999934, -0.7394502255268114 
0.029999999999999874, -0.73910735988807 
0.04000000000000012, -0.7387122937713705 
0.050000000000000405, -0.7382662336006114 
0.06000000000000069, -0.7377780747136653 
0.07000000000000098, -0.7372650279985582 
0.08000000000000126, -0.7367530419318284 
0.09000000000000155, -0.7362780109427656 
0.10000000000000184, -0.735887661458263 
0.11000000000000212, -0.7356430566855763 
0.12000000000000241, -0.7356182678909858 
0.130000000000002, -0.735897065522024 
0.1400000000000009, -0.7365663919636729 
0.1499999999999998, -0.7377073721555322 
0.1599999999999987, -0.7393848811498803 
0.1699999999999976, -0.7416357671720437 
0.1799999999999965, -0.7444544194076353 
0.1899999999999954, -0.7477745830013652 
0.1999999999999943, -0.7514509530904165 
0.2099999999999932, -0.7552536435698712 
0.2199999999999921, -0.7588954419943488 
0.229999999999991, -0.7620992983323652 
0.2399999999999899, -0.76467825962096 
0.2499999999999888, -0.7665773952905687 
0.2599999999999877, -0.7678542488665496 
0.2699999999999866, -0.7686232213071691 
0.2799999999999855, -0.7690040688631975 
0.2899999999999844, -0.7690935027617222 
0.2999999999999833, -0.7689567550919842 
0.3099999999999822, -0.7686292216671344 
0.3199999999999811, -0.7681210726031431 
0.32999999999998, -0.7674221244336357 
0.3399999999999789, -0.7665075829918202 
0.3499999999999778, -0.765347698812007 
0.35999999999997667, -0.7639261117740919 
0.36999999999997557, -0.7622709125142506 
0.37999999999997447, -0.7604943674989408 
0.38999999999997337, -0.7588176170585994 
0.39999999999997227, -0.7575378953902097 
0.40999999999997117, -0.7569210636631365 
0.41999999999997006, -0.7570872398214873 
0.42999999999996896, -0.757985553713175 
0.43999999999996786, -0.7594408614533725 
0.44999999999996676, -0.7612008472766114 
0.45999999999996566, -0.7629932446726932 
0.46999999999996456, -0.7646005863834818 
0.47999999999996346, -0.7659040584723875 
0.48999999999996235, -0.7668748144517606 
0.49999999999996125, -0.7675379717863928 
0.5099999999999602, -0.7679380467909416 
0.519999999999959, -0.768116733737395 
0.529999999999958, -0.7681014493801724 
0.5399999999999568, -0.7678996308614661 
0.5499999999999557, -0.7674946828398278 
0.5599999999999546, -0.7668414902755586 
0.5699999999999535, -0.7658619385459586 
0.5799999999999524, -0.7644445957722042 
0.5899999999999513, -0.762457565549084 
0.5999999999999502, -0.7597853345409274 
0.6099999999999491, -0.7563893850285272 
0.619999999999948, -0.7523648587975822 
0.6299999999999469, -0.7479471353078002 
0.6399999999999458, -0.7434503603905303 
0.6499999999999447, -0.739176190019851 
0.6599999999999436, -0.735348326399124 
0.6699999999999425, -0.7320938561237683 
0.6799999999999414, -0.7294564737661656 
0.6899999999999403, -0.7274194944012576 
0.6999999999999392, -0.7259265835014339 
0.7099999999999381, -0.7248978118705749 
0.719999999999937, -0.7242423835292946 
0.7299999999999359, -0.7238691070308314 
0.7399999999999348, -0.7236944298848751 
0.7499999999999337, -0.7236473706389827 
0.7599999999999326, -0.7236711988771767 
0.7699999999999315, -0.7237226047930722 
0.7799999999999304, -0.7237696919641821 
0.7899999999999293, -0.7237901183732709 
0.7999999999999282, -0.7237701067585129 
0.8099999999999271, -0.7237040204511996 
0.819999999999926, -0.7235932510500904 
0.8299999999999249, -0.723443184471724 
0.8399999999999238, -0.7232585174989486 
0.8499999999999227, -0.7230391740014258 
0.8599999999999216, -0.7227794643786865 
0.8699999999999205, -0.7224711541845649 
0.8799999999999194, -0.7221084423052138 
0.8899999999999183, -0.7216919793014516 
0.8999999999999172, -0.7212305795630769 
0.9099999999999161, -0.7207414237002567 
0.919999999999915, -0.7202504159401346 
0.9299999999999139, -0.7197937649425343 
0.9399999999999128, -0.7194207161320618 
0.9499999999999117, -0.7191964103593265 
0.9599999999999106, -0.719203324993993 
0.9699999999999095, -0.719539759042349 
0.9799999999999084, -0.7203143659621543 
0.9899999999999073, -0.7216365064478782 
0.9999999999999062, -0.7236024948257038 
1.0099999999999052, -0.7262771362509652 
1.019999999999904, -0.7296690365390922 
1.029999999999903, -0.7336998337777413 
1.039999999999902, -0.7381757486614828 
1.0499999999999008, -0.7427842682024703 
1.0599999999998997, -0.747144504929397 
1.0699999999998986, -0.7509117489566628 
1.0799999999998975, -0.7538823316546028 
1.0899999999998964, -0.7560289561242612 
1.0999999999998953, -0.7574541662036524 
1.1099999999998942, -0.7583120716500628 
1.119999999999893, -0.7587487589645279 
1.129999999999892, -0.7588753444158097 
1.1399999999998909, -0.7587632701616014 
1.1499999999998898, -0.758448392604923 
1.1599999999998887, -0.7579358406286446 
1.1699999999998876, -0.7572025971914387 
1.1799999999998865, -0.7561975608845738 
1.1899999999998854, -0.754840478296602 
1.1999999999998843, -0.7530226419149268 
1.2099999999998832, -0.7506139165619322 
1.219999999999882, -0.7474821750488235 
1.229999999999881, -0.7435332234881118 
1.2399999999998799, -0.7387833964911324 
1.2499999999998788, -0.7334684203008809 
1.2599999999998777, -0.7281221009428169 
1.2699999999998766, -0.723464660848348 
1.2799999999998755, -0.7200679434599655 
1.2899999999998744, -0.7180776929429895 
1.2999999999998733, -0.7172435791614891 
1.3099999999998722, -0.7171522893972081 
1.319999999999871, -0.717429634993359 
1.32999999999987, -0.7178205460258604 
1.3399999999998689, -0.7181826090472413 
1.3499999999998678, -0.7184494808780927 
1.3599999999998666, -0.7185957039210495 
1.3699999999998655, -0.7186120748445491 
1.3799999999998644, -0.7184905700286193 
1.3899999999998633, -0.7182155373427854 
1.3999999999998622, -0.7177588396714034 
1.4099999999998611, -0.7170787013249327 
1.41999999999986, -0.7161242318303092 
1.429999999999859, -0.7148485627307275 
1.4399999999998578, -0.7132305156232085 
1.4499999999998567, -0.7112965109487164 
1.4599999999998556, -0.7091274778193596 
1.4699999999998545, -0.7068416486248182 
1.4799999999998534, -0.7045623071980184 
1.4899999999998523, -0.7023903382884372 
1.4999999999998512, -0.7003936121213052 
1.5099999999998501, -0.6986108952263371 
1.519999999999849, -0.697061472140637 
1.529999999999848, -0.6957536300512284 
1.5399999999998468, -0.6946894821108182 
1.5499999999998457, -0.6938665206942227 
1.5599999999998446, -0.6932773802346364 
1.5699999999998435, -0.6929092919587382 
1.5799999999998424, -0.692744240503689 
1.5899999999998413, -0.692760203630334 
1.5999999999998402, -0.6929332786627393 
1.6099999999998391, -0.6932401398276438 
1.619999999999838, -0.6936601829559508 
1.629999999999837, -0.6941767827551808 
1.6399999999998358, -0.6947771227014954 
1.6499999999998347, -0.6954500290907242 
1.6599999999998336, -0.6961814856679094 
1.6699999999998325, -0.6969485829371372 
1.6799999999998314, -0.6977146235784065 
1.6899999999998303, -0.6984295944711042 
1.6999999999998292, -0.6990386934313217 
1.709999999999828, -0.6994962321779754 
1.719999999999827, -0.699777152601776 
1.729999999999826, -0.6998795822342249 
1.7399999999998248, -0.6998187294748551 
1.7499999999998237, -0.6996177652539133 
1.7599999999998226, -0.699301120176252 
1.7699999999998215, -0.6988925632514081 
1.7799999999998204, -0.6984183214230012 
1.7899999999998193, -0.6979152994391298 
1.7999999999998182, -0.6974451960624697 
1.809999999999817, -0.6971156852801444 
1.819999999999816, -0.6971084368365419 
1.8299999999998149, -0.6977086645336147 
1.8399999999998138, -0.6993198350102203 
1.8499999999998127, -0.702430050147974 
1.8599999999998116, -0.7074836832601958 
1.8699999999998105, -0.7146371403233691 
1.8799999999998094, -0.7234885585326826 
1.8899999999998083, -0.7330253115165994 
1.8999999999998072, -0.7419830187266837 
1.909999999999806, -0.7494121469178308 
1.919999999999805, -0.7549806604093927 
1.9299999999998039, -0.7588548080479451 
1.9399999999998028, -0.7614108530632142 
1.9499999999998017, -0.763025497760771 
1.9599999999998006, -0.7639926441000352 
1.9699999999997995, -0.7645146679832308 
1.9799999999997984, -0.7647191319968272 
1.9899999999997973, -0.764677207416172 
1.9999999999997962, -0.7644160637694994 
2.0099999999998173, -0.7639237221864111 
2.0199999999998384, -0.7631464927391123 
2.0299999999998595, -0.7619797223630361 
2.0399999999998806, -0.760254838421664 
2.0499999999999017, -0.7577325899040817 
2.059999999999923, -0.75412558030369 
2.069999999999944, -0.7491834334111316 
2.079999999999965, -0.7428493277820128 
2.089999999999986, -0.7354117132030942 
2.100000000000007, -0.7275044457769388 
2.1100000000000283, -0.7198992621085734 
2.1200000000000494, -0.7132313506953223 
2.1300000000000705, -0.7078433713299381 
2.1400000000000916, -0.7037916083269906 
2.1500000000001127, -0.7009392763555893 
2.160000000000134, -0.6990577673578979 
2.170000000000155, -0.6979004510240088 
2.180000000000176, -0.697245137528334 
2.190000000000197, -0.6969124329325728 
2.2000000000002182, -0.6967684338260534 
2.2100000000002393, -0.6967187603874392 
2.2200000000002604, -0.6966991063725656 
2.2300000000002815, -0.696665741333234 
2.2400000000003026, -0.6965879621322022 
2.2500000000003237, -0.6964434979998786 
2.260000000000345, -0.6962171586168069 
2.270000000000366, -0.695902129277653 
2.280000000000387, -0.6955020319516829 
2.290000000000408, -0.6950309297432791 
2.3000000000004293, -0.6945093685481071 
2.3100000000004504, -0.6939575603424731 
2.3200000000004715, -0.6933894562763483 
2.3300000000004926, -0.6928110266380174 
2.3400000000005137, -0.6922230385996573 
2.3500000000005348, -0.6916259473266156 
2.360000000000556, -0.6910242022067814 
2.370000000000577, -0.6904288191335765 
2.380000000000598, -0.6898586658398705 
2.390000000000619, -0.6893413854975547 
2.4000000000006403, -0.6889144035319228 
2.4100000000006614, -0.688625762894975 
2.4200000000006825, -0.6885341363070752 
2.4300000000007036, -0.6887074124353173 
2.4400000000007247, -0.6892196234217316 
2.450000000000746, -0.6901463483592469 
2.460000000000767, -0.6915586523859478 
2.470000000000788, -0.6935148075808999 
2.480000000000809, -0.6960477353824075 
2.49000000000083, -0.6991455637076023 
2.5000000000008513, -0.7027254995232105 
2.5100000000008724, -0.7066102346559847 
2.5200000000008935, -0.7105290008570352 
2.5300000000009146, -0.7141666257318545 
2.5400000000009357, -0.7172539330229396 
2.550000000000957, -0.7196479339939378 
2.560000000000978, -0.72134837538039 
2.570000000000999, -0.7224515554065614 
2.58000000000102, -0.7230864344941147 
2.5900000000010412, -0.7233698303107708 
2.6000000000010624, -0.7233874699318209 
2.6100000000010835, -0.7231911537265627 
2.6200000000011046, -0.7228015737965188 
2.6300000000011257, -0.7222107900158651 
2.6400000000011468, -0.7213819337843292 
2.650000000001168, -0.72024552063612 
2.660000000001189, -0.7186926931996022 
2.67000000000121, -0.71656689067886 
2.680000000001231, -0.7136585266475042 
2.6900000000012523, -0.709716014052218 
2.7000000000012734, -0.7045054060939373 
2.7100000000012945, -0.6979645130592307 
2.7200000000013156, -0.6904311451920397 
2.7300000000013367, -0.6827363010656986 
2.740000000001358, -0.6759158405786453 
2.750000000001379, -0.6706986266201472 
2.7600000000014, -0.6672405485762017 
2.770000000001421, -0.6652548479674818 
2.780000000001442, -0.6642926474869781 
2.7900000000014633, -0.6639430871033037 
2.8000000000014844, -0.6639078930687397 
2.8100000000015055, -0.6639988923599518 
2.8200000000015266, -0.6641083324964574 
2.8300000000015477, -0.6641781483450206 
2.840000000001569, -0.6641767004255685 
2.85000000000159, -0.6640834761793057 
2.860000000001611, -0.6638800120104766 
2.870000000001632, -0.663545610615217 
2.8800000000016532, -0.6630575035095473 
2.8900000000016743, -0.6623957657217306 
2.9000000000016954, -0.6615523404223875 
2.9100000000017165, -0.6605405059480771 
2.9200000000017377, -0.6593982853416727 
2.9300000000017588, -0.6581812389263576 
2.94000000000178, -0.6569475010737809 
2.950000000001801, -0.6557438638883676 
2.960000000001822, -0.6545998852436524 
2.970000000001843, -0.6535303682082158 
2.9800000000018643, -0.6525420390840665 
2.9900000000018854, -0.651640163143641 
3.0000000000019065, -0.6508330140208237 
3.0100000000019276, -0.6501340514343401 
3.0200000000019487, -0.6495624580101309 
3.03000000000197, -0.6491426619014529 
3.040000000001991, -0.6489032374435759 
3.050000000002012, -0.6488754685835671 
3.060000000002033, -0.6490918808091155 
3.070000000002054, -0.6495850277827827 
3.0800000000020753, -0.650386584670917 
3.0900000000020964, -0.6515262625408317 
3.1000000000021175, -0.6530292512112864 
3.1100000000021386, -0.6549100574645642 
3.1200000000021597, -0.6571604227496045 
3.130000000002181, -0.6597309772358076 
3.140000000002202, -0.6625122736391585 
3.150000000002223, -0.6653298301587667 
3.160000000002244, -0.6679704687963464 
3.1700000000022652, -0.6702399278685176 
3.1800000000022863, -0.6720210545377187 
3.1900000000023074, -0.6732942200839204 
3.2000000000023285, -0.6741131361541779 
3.2100000000023496, -0.6745623071813983 
3.2200000000023707, -0.6747230348253644 
3.230000000002392, -0.674656318967837 
3.240000000002413, -0.674397869393764 
3.250000000002434, -0.6739580481956573 
3.260000000002455, -0.6733218803290189 
3.2700000000024763, -0.6724466117032815 
3.2800000000024974, -0.6712554590118817 
3.2900000000025185, -0.6696266016708589 
3.3000000000025396, -0.6673773416150334 
3.3100000000025607, -0.6642480038964774 
3.3200000000025818, -0.6599063351812002 
3.330000000002603, -0.6540265446228112 
3.340000000002624, -0.6465092461324102 
3.350000000002645, -0.6377793592267381 
3.360000000002666, -0.6288447110579709 
3.3700000000026873, -0.6208768902778992 
3.3800000000027084, -0.614640058396714 
3.3900000000027295, -0.6102815011897997 
3.4000000000027506, -0.6075171139472495 
3.4100000000027717, -0.6059126242237886 
3.420000000002793, -0.6050651348528601 
3.430000000002814, -0.6046695069169498 
3.440000000002835, -0.6045193539934098 
3.450000000002856, -0.6044845943104289 
3.460000000002877, -0.6044866020697504 
3.4700000000028983, -0.6044782808362484 
3.4800000000029194, -0.6044302089348046 
3.4900000000029405, -0.6043220539285054 
3.5000000000029616, -0.6041383072547892 
3.5100000000029827, -0.6038676995313088 
3.520000000003004, -0.6035055711217621 
3.530000000003025, -0.6030575231715419 
3.540000000003046, -0.6025413421419522 
3.550000000003067, -0.6019842325407988 
3.5600000000030882, -0.6014151703836021 
3.5700000000031094, -0.600856030761022 
3.5800000000031305, -0.6003163663073645 
3.5900000000031516, -0.5997941573638459 
3.6000000000031727, -0.5992810933451792 
3.6100000000031938, -0.598768959353669 
3.620000000003215, -0.598254335841704 
3.630000000003236, -0.5977408998692331 
3.640000000003257, -0.5972403561040568 
3.650000000003278, -0.5967735144753433 
3.6600000000032993, -0.5963725975516667 
3.6700000000033204, -0.5960852309636653 
3.6800000000033415, -0.5959801120685807 
3.6900000000033626, -0.5961540125547862 
3.7000000000033837, -0.5967392899750389 
3.710000000003405, -0.5979100577843856 
3.720000000003426, -0.5998829449445318 
3.730000000003447, -0.6029041410857491 
3.740000000003468, -0.6072083112519479 
3.750000000003489, -0.6129319661314662 
3.7600000000035103, -0.6199801677106715 
3.7700000000035314, -0.627902829864554 
3.7800000000035525, -0.6359115976442344 
3.7900000000035736, -0.6431321557655559 
3.8000000000035947, -0.6489614281008109 
3.810000000003616, -0.6532436643416822 
3.820000000003637, -0.6561683786454402 
3.830000000003658, -0.6580579647255402 
3.840000000003679, -0.6592163133251834 
3.8500000000037002, -0.6598721313803448 
3.8600000000037213, -0.6601773096111663 
3.8700000000037424, -0.6602224989115026 
3.8800000000037635, -0.6600519365869195 
3.8900000000037847, -0.6596721520968931 
3.9000000000038058, -0.6590540107770027 
3.910000000003827, -0.6581291105811232 
3.920000000003848, -0.656783297443649 
3.930000000003869, -0.6548545926313325 
3.94000000000389, -0.6521510063303614 
3.9500000000039113, -0.6485089734763483 
3.9600000000039324, -0.6438951906090822 
3.9700000000039535, -0.6385001574556693 
3.9800000000039746, -0.6327317747482154 
3.9900000000039957, -0.6270809368077672 
4.000000000004016, -0.6219532601476934 
4.010000000003993, -0.6175798861701541 
4.02000000000397, -0.6140266698267969 
4.030000000003946, -0.6112506034002403 
4.040000000003923, -0.6091554795639462 
4.0500000000039, -0.607628807935463 
4.0600000000038765, -0.6065612836702345 
4.070000000003853, -0.6058553089987327 
4.08000000000383, -0.6054278937493471 
4.090000000003807, -0.6052109746331447 
4.100000000003783, -0.6051505825241487 
4.11000000000376, -0.6052054980373601 
4.120000000003737, -0.6053457568978142 
4.130000000003713, -0.6055512679502931 
4.14000000000369, -0.6058106431636539 
4.150000000003667, -0.6061199757146486 
4.1600000000036434, -0.6064807985776828 
4.17000000000362, -0.606896193036939 
4.180000000003597, -0.6073646112974663 
4.1900000000035735, -0.6078727350104675 
4.20000000000355, -0.6083908698116178 
4.210000000003527, -0.6088750065113873 
4.220000000003504, -0.6092767671936821 
4.23000000000348, -0.6095568472497862 
4.240000000003457, -0.6096942980118334 
4.250000000003434, -0.6096871323787858 
4.26000000000341, -0.6095461580873704 
4.270000000003387, -0.6092872525234159 
4.280000000003364, -0.6089260182248534 
4.2900000000033405, -0.6084761140314836 
4.300000000003317, -0.607951163445539 
4.310000000003294, -0.6073702217890979 
4.320000000003271, -0.6067674733752739 
4.330000000003247, -0.6062071206656123 
4.340000000003224, -0.6058028525968935 
4.350000000003201, -0.6057351149872502 
4.360000000003177, -0.6062453545926535 
4.370000000003154, -0.6075683927385613 
4.380000000003131, -0.6097744393947928 
4.390000000003107, -0.6125940293047256 
4.400000000003084, -0.6154514562105963 
4.410000000003061, -0.6178198864142346 
4.4200000000030375, -0.6195557495202277 
4.430000000003014, -0.6208326236703526 
4.440000000002991, -0.6218596835908363 
4.450000000002968, -0.6227380945973175 
4.460000000002944, -0.623483662609921 
4.470000000002921, -0.6240858228377482 
4.480000000002898, -0.6245386900425837 
4.490000000002874, -0.624846290385153 
4.500000000002851, -0.6250176020783351 
4.510000000002828, -0.6250604083930102 
4.520000000002804, -0.6249767076255222 
4.530000000002781, -0.6247598872697762 
4.540000000002758, -0.6243936452361487 
4.5500000000027345, -0.6238534171010517 
4.560000000002711, -0.6231119140377552 
4.570000000002688, -0.6221499933382958 
4.580000000002665, -0.6209709241515877 
4.590000000002641, -0.6196108482196536 
4.600000000002618, -0.6181364233058018 
4.610000000002595, -0.6166278932477393 
4.620000000002571, -0.6151571819637826 
4.630000000002548, -0.6137736402848538 
4.640000000002525, -0.6125023443393777 
4.6500000000025015, -0.6113511113104527 
4.660000000002478, -0.6103198195690828 
4.670000000002455, -0.6094078460039506 
4.6800000000024315, -0.6086184556869056 
4.690000000002408, -0.6079607253718412 
4.700000000002385, -0.6074499958244978 
4.710000000002362, -0.6071076104714201 
4.720000000002338, -0.6069603803796313 
4.730000000002315, -0.6070400341849522 
4.740000000002292, -0.6073828211635813 
4.750000000002268, -0.6080292873723052 
4.760000000002245, -0.6090238821600276 
4.770000000002222, -0.6104133528585438 
4.7800000000021985, -0.612241829301923 
4.790000000002175, -0.6145394160944745 
4.800000000002152, -0.6173012562561989 
4.810000000002129, -0.6204581764433271 
4.820000000002105, -0.6238509600879923 
4.830000000002082, -0.627233605767797 
4.840000000002059, -0.6303271303051019 
4.850000000002035, -0.6329078916888257 
4.860000000002012, -0.6348735495017757 
4.870000000001989, -0.6362439028145198 
4.880000000001965, -0.6371115590192402 
4.890000000001942, -0.6375868673242385 
4.900000000001919, -0.6377637694042259 
4.9100000000018955, -0.6377068963756839 
4.920000000001872, -0.6374498630843461 
