t, s[1].omega / s[0].omega 
0, -0.6601143305178869 
0.009999999999999995, -0.6714189836855569 
0.019999999999999934, -0.681604375611732 
0.029999999999999874, -0.6897489881561306 
0.04000000000000012, -0.695620710098753 
0.050000000000000405, -0.6995287736644042 
0.06000000000000069, -0.7019795066242368 
0.07000000000000098, -0.7034345116142958 
0.08000000000000126, -0.7042283697661919 
0.09000000000000155, -0.7045741472332026 
0.10000000000000184, -0.7045923296087915 
0.11000000000000212, -0.7043350006009499 
0.12000000000000241, -0.7037978093699706 
0.130000000000002, -0.7029187642916821 
0.1400000000000009, -0.701563502315693 
0.1499999999999998, -0.6994973933606339 
0.1599999999999987, -0.6963520687735374 
0.1699999999999976, -0.6916175573981359 
0.1799999999999965, -0.6847337956756296 
0.1899999999999954, -0.6753662114839112 
0.1999999999999943, -0.6637999181268296 
0.2099999999999932, -0.6510995537176759 
0.2199999999999921, -0.6387279245425052 
0.229999999999991, -0.6278939241734658 
0.2399999999999899, -0.6191857515735426 
0.2499999999999888, -0.6126320912196358 
0.2599999999999877, -0.6079473650712346 
0.2699999999999866, -0.6047424108829531 
0.2799999999999855, -0.6026415929001382 
0.2899999999999844, -0.601329427860658 
0.2999999999999833, -0.6005599996382774 
0.3099999999999822, -0.600150611927128 
0.3199999999999811, -0.5999702943069833 
0.32999999999998, -0.5999278016539851 
0.3399999999999789, -0.5999610612124662 
0.3499999999999778, -0.6000289130406318 
0.35999999999997667, -0.6001054864836155 
0.36999999999997557, -0.6001771418050101 
0.37999999999997447, -0.600241253291599 
0.38999999999997337, -0.6003051821255279 
0.39999999999997227, -0.6003831913819417 
0.40999999999997117, -0.6004898719175207 
0.41999999999997006, -0.6006311854719149 
0.42999999999996896, -0.6007970185951753 
0.43999999999996786, -0.6009598827887733 
0.44999999999996676, -0.6010817974476915 
0.45999999999996566, -0.6011263766526026 
0.46999999999996456, -0.6010694395232916 
0.47999999999996346, -0.6009029346908685 
0.48999999999996235, -0.6006323790696271 
0.49999999999996125, -0.600272013575316 
0.5099999999999602, -0.5998419114420885 
0.519999999999959, -0.5993693980474587 
0.529999999999958, -0.5988959766642864 
0.5399999999999568, -0.5984911855623799 
0.5499999999999557, -0.5982757954248782 
0.5599999999999546, -0.5984573428048301 
0.5699999999999535, -0.5993790547431748 
0.5799999999999524, -0.6015738885168274 
0.5899999999999513, -0.605789177179284 
0.5999999999999502, -0.6128952558577778 
0.6099999999999491, -0.6235418661315423 
0.619999999999948, -0.6375281915270614 
0.6299999999999469, -0.6533042550793884 
0.6399999999999458, -0.6684109126097766 
0.6499999999999447, -0.6808384051827255 
0.6599999999999436, -0.6899374702930477 
0.6699999999999425, -0.6961324966741951 
0.6799999999999414, -0.7001930468186377 
0.6899999999999403, -0.702800806463953 
0.6999999999999392, -0.7044433824219403 
0.7099999999999381, -0.7054412162411111 
0.719999999999937, -0.7059959269855447 
0.7299999999999359, -0.7062279414737949 
0.7399999999999348, -0.7062001725489068 
0.7499999999999337, -0.70593039187011 
0.7599999999999326, -0.7053949518853566 
0.7699999999999315, -0.7045262985154193 
0.7799999999999304, -0.7032084600118985 
0.7899999999999293, -0.7012799601390952 
0.7999999999999282, -0.6985612684097682 
0.8099999999999271, -0.6949233614267143 
0.819999999999926, -0.6903850911222627 
0.8299999999999249, -0.6851747568578285 
0.8399999999999238, -0.6796847213847903 
0.8499999999999227, -0.6743355817784562 
0.8599999999999216, -0.6694500629873454 
0.8699999999999205, -0.6652071842012267 
0.8799999999999194, -0.6616648249384236 
0.8899999999999183, -0.658804868689133 
0.8999999999999172, -0.6565707257633724 
0.9099999999999161, -0.6548897804735325 
0.919999999999915, -0.6536844342520246 
0.9299999999999139, -0.6528772520907176 
0.9399999999999128, -0.652393991353678 
0.9499999999999117, -0.6521661643231446 
0.9599999999999106, -0.6521333599516018 
0.9699999999999095, -0.6522449965774231 
0.9799999999999084, -0.6524612650693243 
0.9899999999999073, -0.6527533426339215 
0.9999999999999062, -0.6531030950370156 
1.0099999999999052, -0.6535021790851318 
1.019999999999904, -0.6539497951340247 
1.029999999999903, -0.654447927363136 
1.039999999999902, -0.6549936695407603 
1.0499999999999008, -0.655570530489919 
1.0599999999998997, -0.6561432891172432 
1.0699999999998986, -0.6566613715477793 
1.0799999999998975, -0.6570715360917944 
1.0899999999998964, -0.6573336104350236 
1.0999999999998953, -0.6574299453748897 
1.1099999999998942, -0.6573643684909107 
1.119999999999893, -0.6571543758679314 
1.129999999999892, -0.6568233134733445 
1.1399999999998909, -0.656397046148471 
1.1499999999998898, -0.6559066866767729 
1.1599999999998887, -0.6553980752673436 
1.1699999999998876, -0.6549495523373878 
1.1799999999998865, -0.6547007805418166 
1.1899999999998854, -0.6548952874344566 
1.1999999999998843, -0.6559352524790483 
1.2099999999998832, -0.6584335185885064 
1.219999999999882, -0.6632169270458512 
1.229999999999881, -0.6711859915779581 
1.2399999999998799, -0.6829139533852889 
1.2499999999998788, -0.6980202137116243 
1.2599999999998777, -0.7147857986411311 
1.2699999999998766, -0.7306988912664318 
1.2799999999998755, -0.7437572323872115 
1.2899999999998744, -0.7532928073711688 
1.2999999999998733, -0.7597162008902756 
1.3099999999998722, -0.7638309513182857 
1.319999999999871, -0.7663807406000192 
1.32999999999987, -0.7679084933176943 
1.3399999999998689, -0.7687688478428827 
1.3499999999998678, -0.7691779326248103 
1.3599999999998666, -0.7692564615869586 
1.3699999999998655, -0.7690568608593058 
1.3799999999998644, -0.7685752442258975 
1.3899999999998633, -0.7677500527648486 
1.3999999999998622, -0.7664484200571675 
1.4099999999998611, -0.7644429634046255 
1.41999999999986, -0.7613909563312014 
1.429999999999859, -0.7568503879615924 
1.4399999999998578, -0.7503939097071376 
1.4499999999998567, -0.7418562897985991 
1.4599999999998556, -0.731604142134099 
1.4699999999998545, -0.720562451132617 
1.4799999999998534, -0.7098793421813652 
1.4899999999998523, -0.7004825060598959 
1.4999999999998512, -0.6928521162273796 
1.5099999999998501, -0.6870575134546728 
1.519999999999849, -0.6829098631720424 
1.529999999999848, -0.680105914949864 
1.5399999999998468, -0.6783225014280956 
1.5499999999998457, -0.6772672417956211 
1.5599999999998446, -0.6767002347094013 
1.5699999999998435, -0.6764382530275734 
1.5799999999998424, -0.676349049577501 
1.5899999999998413, -0.676341045892159 
1.5999999999998402, -0.6763521663514037 
1.6099999999998391, -0.6763403313597423 
1.619999999999838, -0.6762770723660597 
1.629999999999837, -0.6761447992779009 
1.6399999999998358, -0.6759370864467014 
1.6499999999998347, -0.6756597802374594 
1.6599999999998336, -0.6753296663582964 
1.6699999999998325, -0.6749686163632594 
1.6799999999998314, -0.6745947650019727 
1.6899999999998303, -0.6742154118783268 
1.6999999999998292, -0.6738258005266211 
1.709999999999828, -0.6734141117349728 
1.719999999999827, -0.6729692594589719 
1.729999999999826, -0.6724872894394028 
1.7399999999998248, -0.6719744763528008 
1.7499999999998237, -0.6714481467988754 
1.7599999999998226, -0.6709374708733579 
1.7699999999998215, -0.6704858022240977 
1.7799999999998204, -0.670154820768436 
1.7899999999998193, -0.6700296480331959 
1.7999999999998182, -0.6702234703361948 
1.809999999999817, -0.6708799751764098 
1.819999999999816, -0.6721719701502653 
1.8299999999998149, -0.6742944957317477 
1.8399999999998138, -0.6774496775959206 
1.8499999999998127, -0.6818176842403647 
1.8599999999998116, -0.6875045886320502 
1.8699999999998105, -0.694460188238929 
1.8799999999998094, -0.7023809068077699 
1.8899999999998083, -0.7106627175141332 
1.8999999999998072, -0.7185039804689721 
1.909999999999806, -0.7251765567527162 
1.919999999999805, -0.7302965492237621 
1.9299999999998039, -0.7338841642271967 
1.9399999999998028, -0.7362126724457474 
1.9499999999998017, -0.7376166755511528 
1.9599999999998006, -0.7383783155290852 
1.9699999999997995, -0.7386944206925792 
1.9799999999997984, -0.7386834330756035 
1.9899999999997973, -0.7384008249326831 
1.9999999999997962, -0.7378492273407142 
2.0099999999998173, -0.7369787524375161 
2.0199999999998384, -0.7356754170884464 
2.0299999999998595, -0.7337351284175293 
2.0399999999998806, -0.7308210867467306 
2.0499999999999017, -0.7264106640948437 
2.059999999999923, -0.719770081624607 
2.069999999999944, -0.7100700901483696 
2.079999999999965, -0.6968171566433169 
2.089999999999986, -0.6805601377374042 
2.100000000000007, -0.6632158771617678 
2.1100000000000283, -0.6472933022265989 
2.1200000000000494, -0.634574258046101 
2.1300000000000705, -0.6255279607021519 
2.1400000000000916, -0.6196669776806805 
2.1500000000001127, -0.6161560745792163 
2.160000000000134, -0.6142051570635702 
2.170000000000155, -0.6132117408497905 
2.180000000000176, -0.612766003704937 
2.190000000000197, -0.6126081816484003 
2.2000000000002182, -0.6125810340151656 
2.2100000000002393, -0.6125916424278248 
2.2200000000002604, -0.6125846269214462 
2.2300000000002815, -0.6125250176206579 
2.2400000000003026, -0.6123886115883577 
2.2500000000003237, -0.6121582801402462 
2.260000000000345, -0.6118250578824875 
2.270000000000366, -0.6113920893728457 
2.280000000000387, -0.6108777746116736 
2.290000000000408, -0.6103137482684179 
2.3000000000004293, -0.6097361239318115 
2.3100000000004504, -0.6091736939365798 
2.3200000000004715, -0.6086396029581436 
2.3300000000004926, -0.608130655359916 
2.3400000000005137, -0.607633490069265 
2.3500000000005348, -0.6071334274364337 
2.360000000000556, -0.6066216683001984 
2.370000000000577, -0.6060989992991763 
2.380000000000598, -0.6055769832942999 
2.390000000000619, -0.6050788808366652 
2.4000000000006403, -0.6046421685577072 
2.4100000000006614, -0.6043235637380132 
2.4200000000006825, -0.6042067209765167 
2.4300000000007036, -0.6044123206441983 
2.4400000000007247, -0.6051098329354455 
2.450000000000746, -0.6065293645236673 
2.460000000000767, -0.6089698614155299 
2.470000000000788, -0.6127950181804217 
2.480000000000809, -0.618398665797738 
2.49000000000083, -0.626108716856095 
2.5000000000008513, -0.6359994543337998 
2.5100000000008724, -0.6476409205612781 
2.5200000000008935, -0.6599631553704527 
2.5300000000009146, -0.671506412057669 
2.5400000000009357, -0.6810469567038602 
2.550000000000957, -0.6880979761754975 
2.560000000000978, -0.6928743310096752 
2.570000000000999, -0.6959144400290619 
2.58000000000102, -0.6977568498023496 
2.5900000000010412, -0.6988080257105205 
2.6000000000010624, -0.6993339504586018 
2.6100000000010835, -0.6994916578000173 
2.6200000000011046, -0.6993599475668477 
2.6300000000011257, -0.6989577352392443 
2.6400000000011468, -0.6982488672317244 
2.650000000001168, -0.6971339325671806 
2.660000000001189, -0.6954298787797992 
2.67000000000121, -0.6928427727487941 
2.680000000001231, -0.6889553972309841 
2.6900000000012523, -0.683283634585812 
2.7000000000012734, -0.6754738405819178 
2.7100000000012945, -0.6656234456220131 
2.7200000000013156, -0.6544830175997736 
2.7300000000013367, -0.6432475297074787 
2.740000000001358, -0.6330397791176804 
2.750000000001379, -0.6245255741843624 
2.7600000000014, -0.6178771306724895 
2.770000000001421, -0.6129439357530237 
2.780000000001442, -0.60943575452471 
2.7900000000014633, -0.6070390978448743 
2.8000000000014844, -0.6054719655574288 
2.8100000000015055, -0.6045021531461605 
2.8200000000015266, -0.6039483565334512 
2.8300000000015477, -0.6036743675559973 
2.840000000001569, -0.6035810804713013 
2.85000000000159, -0.6035984322734782 
2.860000000001611, -0.603678361036984 
2.870000000001632, -0.6037894242299727 
2.8800000000016532, -0.6039133651077659 
2.8900000000016743, -0.6040433563631794 
2.9000000000016954, -0.6041827878416673 
2.9100000000017165, -0.6043426723891857 
2.9200000000017377, -0.6045359566572733 
2.9300000000017588, -0.6047689371058522 
2.94000000000178, -0.6050328536692982 
2.950000000001801, -0.6053004768895013 
2.960000000001822, -0.6055311219795253 
2.970000000001843, -0.6056827303851666 
2.9800000000018643, -0.6057245179159516 
2.9900000000018854, -0.6056433005114878 
3.0000000000019065, -0.6054418692881649 
3.0100000000019276, -0.605133272421996 
3.0200000000019487, -0.6047360310888047 
3.03000000000197, -0.6042733563717255 
3.040000000001991, -0.6037776578127133 
3.050000000002012, -0.6033014627884463 
3.060000000002033, -0.6029368611361449 
3.070000000002054, -0.6028466777077242 
3.0800000000020753, -0.6033100133032743 
3.0900000000020964, -0.6047786484070098 
3.1000000000021175, -0.6079206147629621 
3.1100000000021386, -0.6135814899439834 
3.1200000000021597, -0.6225329499108689 
3.130000000002181, -0.6349115099431014 
3.140000000002202, -0.6496057167152742 
3.150000000002223, -0.6643709652200378 
3.160000000002244, -0.6770204325922184 
3.1700000000022652, -0.6865693012384911 
3.1800000000022863, -0.6932184707283958 
3.1900000000023074, -0.6976581414820402 
3.2000000000023285, -0.7005610269771989 
3.2100000000023496, -0.7024271746558031 
3.2200000000023707, -0.7035937662837376 
3.230000000002392, -0.7042787122248775 
3.240000000002413, -0.7046171843844286 
3.250000000002434, -0.704685660379134 
3.260000000002455, -0.7045155294375276 
3.2700000000024763, -0.7040985869857408 
3.2800000000024974, -0.7033864142817882 
3.2900000000025185, -0.7022867070617722 
3.3000000000025396, -0.7006634614668342 
3.3100000000025607, -0.6983545256857748 
3.3200000000025818, -0.6952228417498658 
3.330000000002603, -0.6912402006684598 
3.340000000002624, -0.6865584895223678 
3.350000000002645, -0.6814991893234076 
3.360000000002666, -0.6764484637626799 
3.3700000000026873, -0.6717330949212189 
3.3800000000027084, -0.6675565409348443 
3.3900000000027295, -0.664004480826977 
3.4000000000027506, -0.6610825261666472 
3.4100000000027717, -0.6587530198487881 
3.420000000002793, -0.6569588452764903 
3.430000000002814, -0.655635490955339 
3.440000000002835, -0.6547163561569118 
3.450000000002856, -0.6541354254081523 
3.460000000002877, -0.6538294948359022 
3.4700000000028983, -0.6537405356699285 
3.4800000000029194, -0.6538179259238321 
3.4900000000029405, -0.6540201220325067 
3.5000000000029616, -0.6543155876641096 
3.5100000000029827, -0.6546830466392253 
3.520000000003004, -0.655111037159233 
3.530000000003025, -0.6555962347899702 
3.540000000003046, -0.656139482364008 
3.550000000003067, -0.6567387801488072 
3.5600000000030882, -0.6573803403441864 
3.5700000000031094, -0.6580316575892148 
3.5800000000031305, -0.6586420951961703 
3.5900000000031516, -0.6591537475927866 
3.6000000000031727, -0.6595182200434005 
3.6100000000031938, -0.6597094732153062 
3.620000000003215, -0.6597257852430067 
3.630000000003236, -0.6595825599556833 
3.640000000003257, -0.6593030085214926 
3.650000000003278, -0.6589124881277768 
3.6600000000032993, -0.6584388000684324 
3.6700000000033204, -0.6579190425589728 
3.6800000000033415, -0.6574141254515914 
3.6900000000033626, -0.6570334940458876 
3.7000000000033837, -0.6569734121921837 
3.710000000003405, -0.6575700044990146 
3.720000000003426, -0.65935855328565 
3.730000000003447, -0.6631053124965538 
3.740000000003468, -0.669731076012875 
3.750000000003489, -0.6800012782579918 
3.7600000000035103, -0.6939335564869109 
3.7700000000035314, -0.7102416722928699 
3.7800000000035525, -0.7265409094207609 
3.7900000000035736, -0.7405315075203992 
3.8000000000035947, -0.7511086783063197 
3.810000000003616, -0.7584096144428342 
3.820000000003637, -0.763166594706645 
3.830000000003658, -0.7661558452790361 
3.840000000003679, -0.7679776359037541 
3.8500000000037002, -0.7690369577174457 
3.8600000000037213, -0.7695872224483208 
3.8700000000037424, -0.7697759678724555 
3.8800000000037635, -0.7696763792630634 
3.8900000000037847, -0.76930363826633 
3.9000000000038058, -0.7686178673228686 
3.910000000003827, -0.7675148735095323 
3.920000000003848, -0.7658064138197276 
3.930000000003869, -0.7631977316245824 
3.94000000000389, -0.7592874688608839 
3.9500000000039113, -0.7536417991120116 
3.9600000000039324, -0.7459935055330352 
3.9700000000039535, -0.7365141354397826 
3.9800000000039746, -0.7259367508543809 
3.9900000000039957, -0.7153367326839455 
4.000000000004016, -0.705707081486445 
4.010000000003993, -0.6976590029222278 
4.02000000000397, -0.6913848325810327 
4.030000000003946, -0.6867798281838368 
4.040000000003923, -0.6835860953316957 
4.0500000000039, -0.6814973757989653 
4.0600000000038765, -0.6802201072494202 
4.070000000003853, -0.6795032837070537 
4.08000000000383, -0.6791486803661203 
4.090000000003807, -0.6790092327944548 
4.100000000003783, -0.6789809849670102 
4.11000000000376, -0.6789926662635033 
4.120000000003737, -0.6789958444130548 
4.130000000003713, -0.6789575556359377 
4.14000000000369, -0.6788563630720202 
4.150000000003667, -0.6786817222475835 
4.1600000000036434, -0.678435051457892 
4.17000000000362, -0.6781294898996855 
4.180000000003597, -0.677785586353559 
4.1900000000035735, -0.6774231216809463 
4.20000000000355, -0.6770529735020487 
4.210000000003527, -0.6766737767172273 
4.220000000003504, -0.676275134983351 
4.23000000000348, -0.6758449771172341 
4.240000000003457, -0.6753767272102478 
4.250000000003434, -0.6748734349189822 
4.26000000000341, -0.6743490699612545 
4.270000000003387, -0.6738290816071768 
4.280000000003364, -0.6733521443333252 
4.2900000000033405, -0.6729737447768407 
4.300000000003317, -0.6727710400705222 
4.310000000003294, -0.6728476356084753 
4.320000000003271, -0.6733365929230731 
4.330000000003247, -0.674400018065974 
4.340000000003224, -0.6762237137289074 
4.350000000003201, -0.6790048464103173 
4.360000000003177, -0.6829284222186423 
4.370000000003154, -0.6881247854584608 
4.380000000003131, -0.6945995845991803 
4.390000000003107, -0.7021410733035395 
4.400000000003084, -0.7102498414160859 
4.410000000003061, -0.7181832531409743 
4.4200000000030375, -0.7251741234772279 
4.430000000003014, -0.7307192120765547 
4.440000000002991, -0.7347172769132767 
4.450000000002968, -0.7373756457154526 
4.460000000002944, -0.739018453771079 
4.470000000002921, -0.7399455837720266 
4.480000000002898, -0.7403779641283462 
4.490000000002874, -0.7404554120912538 
4.500000000002851, -0.7402509309745305 
4.510000000002828, -0.7397829564051004 
4.520000000002804, -0.7390189977049435 
4.530000000002781, -0.7378683065481834 
4.540000000002758, -0.736161371429289 
4.5500000000027345, -0.7336136821113602 
4.560000000002711, -0.729775348041558 
4.570000000002688, -0.7239889333814181 
4.580000000002665, -0.7154365175796631 
4.590000000002641, -0.7034413179979295 
4.600000000002618, -0.6881158020603746 
4.610000000002595, -0.6709335859245098 
4.620000000002571, -0.6543598432027807 
4.630000000002548, -0.6405570591687796 
4.640000000002525, -0.6304326903078227 
4.6500000000025015, -0.6237346305087913 
4.660000000002478, -0.6196662368068925 
4.670000000002455, -0.6173826263555354 
4.6800000000024315, -0.616208582807978 
4.690000000002408, -0.6156746876131435 
4.700000000002385, -0.615480656145568 
4.710000000002362, -0.6154445356787994 
4.720000000002338, -0.6154595306955428 
4.730000000002315, -0.6154630281380074 
4.740000000002292, -0.6154164385551507 
4.750000000002268, -0.6152933897452372 
4.760000000002245, -0.6150744126374049 
4.770000000002222, -0.614746933823609 
4.7800000000021985, -0.6143090810671572 
4.790000000002175, -0.6137741686299212 
4.800000000002152, -0.613171190798129 
4.810000000002129, -0.6125381388825911 
4.820000000002105, -0.6119101055256472 
4.830000000002082, -0.6113086161667078 
4.840000000002059, -0.6107378942157237 
4.850000000002035, -0.6101889516925221 
4.860000000002012, -0.6096480255029036 
4.870000000001989, -0.6091047062997222 
4.880000000001965, -0.6085569672907599 
4.890000000001942, -0.6080132092956962 
4.900000000001919, -0.6074932426578713 
4.9100000000018955, -0.6070301784665264 
4.920000000001872, -0.6066743278455103 
