t, s[1].omega / s[0].omega 
0, -0.6099977253684978 
0.009999999999999995, -0.6097869502992774 
0.019999999999999934, -0.6095990846174686 
0.029999999999999874, -0.6094084012828261 
0.04000000000000012, -0.6091845582977271 
0.050000000000000405, -0.6089039872286817 
0.06000000000000069, -0.608556505772086 
0.07000000000000098, -0.6081463132220637 
0.08000000000000126, -0.6076905272823172 
0.09000000000000155, -0.6072192974890733 
0.10000000000000184, -0.6067802669463944 
0.11000000000000212, -0.606448921644091 
0.12000000000000241, -0.606345999863186 
0.130000000000002, -0.6066631925654451 
0.1400000000000009, -0.6076979389825181 
0.1499999999999998, -0.6098958207199703 
0.1599999999999987, -0.6138919353942862 
0.1699999999999976, -0.6205244012734961 
0.1799999999999965, -0.6307550099094745 
0.1899999999999954, -0.6453805531238468 
0.1999999999999943, -0.6644371120786611 
0.2099999999999932, -0.6864977770808279 
0.2199999999999921, -0.7086347291378469 
0.229999999999991, -0.7276899125736364 
0.2399999999999899, -0.7419399273247587 
0.2499999999999888, -0.7514989988682801 
0.2599999999999877, -0.7574689153875658 
0.2699999999999866, -0.7610387953511143 
0.2799999999999855, -0.763101869351503 
0.2899999999999844, -0.7642301824448563 
0.2999999999999833, -0.7647596647784173 
0.3099999999999822, -0.7648715976027152 
0.3199999999999811, -0.7646442010537806 
0.32999999999998, -0.7640760580911753 
0.3399999999999789, -0.7630857662716487 
0.3499999999999778, -0.761488390963758 
0.35999999999997667, -0.7589467464156819 
0.36999999999997557, -0.7549029581411216 
0.37999999999997447, -0.7485321233391887 
0.38999999999997337, -0.7388444466331723 
0.39999999999997227, -0.7251282378933523 
0.40999999999997117, -0.7077005185750362 
0.41999999999997006, -0.6883151588553921 
0.42999999999996896, -0.6695092458288212 
0.43999999999996786, -0.653349596628584 
0.44999999999996676, -0.6407449813147055 
0.45999999999996566, -0.6316128890531251 
0.46999999999996456, -0.625368930584793 
0.47999999999996346, -0.6213086304252181 
0.48999999999996235, -0.6187972143396819 
0.49999999999996125, -0.6173312238641571 
0.5099999999999602, -0.6165393708172393 
0.519999999999959, -0.6161611072493964 
0.529999999999958, -0.6160203420424736 
0.5399999999999568, -0.6160013046084373 
0.5499999999999557, -0.6160290779179933 
0.5599999999999546, -0.616055491121823 
0.5699999999999535, -0.6160503265088366 
0.5799999999999524, -0.6159973445517484 
0.5899999999999513, -0.6158938217915552 
0.5999999999999502, -0.6157509134965515 
0.6099999999999491, -0.6155911734631959 
0.619999999999948, -0.6154408769091618 
0.6299999999999469, -0.6153187302470705 
0.6399999999999458, -0.6152262461811329 
0.6499999999999447, -0.6151452417182297 
0.6599999999999436, -0.615044290378499 
0.6699999999999425, -0.6148907918486219 
0.6799999999999414, -0.6146620990204343 
0.6899999999999403, -0.61435074176789 
0.6999999999999392, -0.6139638826081015 
0.7099999999999381, -0.6135209900730556 
0.719999999999937, -0.6130539713375888 
0.7299999999999359, -0.6126124154833612 
0.7399999999999348, -0.6122754740621563 
0.7499999999999337, -0.6121718060591428 
0.7599999999999326, -0.6125092491668385 
0.7699999999999315, -0.613615329519529 
0.7799999999999304, -0.6159865969603227 
0.7899999999999293, -0.6203352031724967 
0.7999999999999282, -0.627597217900119 
0.8099999999999271, -0.6388195587422225 
0.819999999999926, -0.6547876753004671 
0.8299999999999249, -0.6753164805034418 
0.8399999999999238, -0.6985435718624018 
0.8499999999999227, -0.7211592970884284 
0.8599999999999216, -0.7400151302697611 
0.8699999999999205, -0.7537324825605787 
0.8799999999999194, -0.7627542955193585 
0.8899999999999183, -0.7683203143507756 
0.8999999999999172, -0.7716235282146408 
0.9099999999999161, -0.7735185009713288 
0.919999999999915, -0.7745397951217808 
0.9299999999999139, -0.7749966929708536 
0.9399999999999128, -0.7750525593861335 
0.9499999999999117, -0.774772302005274 
0.9599999999999106, -0.7741419137365544 
0.9699999999999095, -0.7730642453054087 
0.9799999999999084, -0.7713308057937048 
0.9899999999999073, -0.7685673563709765 
0.9999999999999062, -0.7641610883530745 
1.0099999999999052, -0.7572206123275017 
1.019999999999904, -0.7467138867745002 
1.029999999999903, -0.7319827205866872 
1.039999999999902, -0.7135388562328353 
1.0499999999999008, -0.6933873664361887 
1.0599999999998997, -0.6742041206095117 
1.0699999999998986, -0.6580217064699514 
1.0799999999998975, -0.6456230629084498 
1.0899999999998964, -0.6368012367496838 
1.0999999999998953, -0.6308855395685462 
1.1099999999998942, -0.6271225701573329 
1.119999999999893, -0.624855227214908 
1.129999999999892, -0.6235744670283477 
1.1399999999998909, -0.6229128994454698 
1.1499999999998898, -0.6226182362961294 
1.1599999999998887, -0.6225235834775494 
1.1699999999998876, -0.6225212865313542 
1.1799999999998865, -0.6225425608898736 
1.1899999999998854, -0.6225432973395814 
1.1999999999998843, -0.6224957454232664 
1.2099999999998832, -0.6223853599485741 
1.219999999999882, -0.622211206009869 
1.229999999999881, -0.6219867964589482 
1.2399999999998799, -0.6217373673876582 
1.2499999999998788, -0.6214914762568137 
1.2599999999998777, -0.6212693056098408 
1.2699999999998766, -0.6210735498655595 
1.2799999999998755, -0.6208880356237522 
1.2899999999998744, -0.6206848980981117 
1.2999999999998733, -0.6204362396820601 
1.3099999999998722, -0.62012405925073 
1.319999999999871, -0.6197446167673928 
1.32999999999987, -0.6193081291479434 
1.3399999999998689, -0.618837630637889 
1.3499999999998678, -0.6183706264711577 
1.3599999999998666, -0.6179656468786924 
1.3699999999998655, -0.6177147548463523 
1.3799999999998644, -0.6177627083069069 
1.3899999999998633, -0.6183331566470553 
1.3999999999998622, -0.6197610560997364 
1.4099999999998611, -0.6225270140950819 
1.41999999999986, -0.6272805007795897 
1.429999999999859, -0.6348191216674604 
1.4399999999998578, -0.6459560652225724 
1.4499999999998567, -0.6611784448851215 
1.4599999999998556, -0.6800769472132823 
1.4699999999998545, -0.7008680046585591 
1.4799999999998534, -0.7207187506247299 
1.4899999999998523, -0.7370878481210594 
1.4999999999998512, -0.7489443792110568 
1.5099999999998501, -0.7567351797800324 
1.519999999999849, -0.7615376118671306 
1.529999999999848, -0.7643757437565906 
1.5399999999998468, -0.7659830091294977 
1.5499999999998457, -0.7668180194774878 
1.5599999999998446, -0.7671439157632938 
1.5699999999998435, -0.7670947469609211 
1.5799999999998424, -0.7667140142979427 
1.5899999999998413, -0.7659677337722404 
1.5999999999998402, -0.7647342407311382 
1.6099999999998391, -0.7627688177257752 
1.619999999999838, -0.7596399119594546 
1.629999999999837, -0.754647114316956 
1.6399999999998358, -0.7467854530386421 
1.6499999999998347, -0.7349334635878285 
1.6599999999998336, -0.7184873723492324 
1.6699999999998325, -0.6982600459655781 
1.6799999999998314, -0.6766933466632483 
1.6899999999998303, -0.6567363049459202 
1.6999999999998292, -0.6403837596585203 
1.709999999999828, -0.6281957704411668 
1.719999999999827, -0.6197384168216237 
1.729999999999826, -0.61419236511342 
1.7399999999998248, -0.6107340855161747 
1.7499999999998237, -0.6086879794821969 
1.7599999999998226, -0.6075528459053465 
1.7699999999998215, -0.6069787934552119 
1.7799999999998204, -0.60673167127428 
1.7899999999998193, -0.6066595220554416 
1.7999999999998182, -0.6066655876161331 
1.809999999999817, -0.6066885743169108 
1.819999999999816, -0.6066896473755168 
1.8299999999998149, -0.6066453400095083 
1.8399999999998138, -0.6065452997006282 
1.8499999999998127, -0.6063928982781686 
1.8599999999998116, -0.6062053391089491 
1.8699999999998105, -0.6060095515976421 
1.8799999999998094, -0.6058326594251554 
1.8899999999998083, -0.6056902595242644 
1.8999999999998072, -0.6055784757439763 
1.909999999999806, -0.6054743698544909 
1.919999999999805, -0.6053447955540352 
1.9299999999998039, -0.6051589370381736 
1.9399999999998028, -0.6048979775812542 
1.9499999999998017, -0.6045583808495911 
1.9599999999998006, -0.6041503944905586 
1.9699999999997995, -0.6036961240940252 
1.9799999999997984, -0.6032309700131824 
1.9899999999997973, -0.602810672955943 
1.9999999999997962, -0.6025255211900876 
2.0099999999998173, -0.6025235338591743 
2.0199999999998384, -0.6030448238256785 
2.0299999999998595, -0.6044685786518589 
2.0399999999998806, -0.6073696822750074 
2.0499999999999017, -0.612568156986611 
2.059999999999923, -0.6211201936984795 
2.069999999999944, -0.6341356409118925 
2.079999999999965, -0.6522562092657395 
2.089999999999986, -0.6747928681368507 
2.100000000000007, -0.6991460283753115 
2.1100000000000283, -0.7216027756108385 
2.1200000000000494, -0.7393538045636415 
2.1300000000000705, -0.7517264525802623 
2.1400000000000916, -0.7596389523320467 
2.1500000000001127, -0.7644472761695 
2.160000000000134, -0.7672785320563107 
2.170000000000155, -0.7688890916272582 
2.180000000000176, -0.769736989253569 
2.190000000000197, -0.7700813645126867 
2.2000000000002182, -0.7700534515318523 
2.2100000000002393, -0.7696953045841907 
2.2200000000002604, -0.7689723702400584 
2.2300000000002815, -0.7677633854231337 
2.2400000000003026, -0.7658271682529988 
2.2500000000003237, -0.7627471493663167 
2.260000000000345, -0.7578731714288602 
2.270000000000366, -0.7503361895139335 
2.280000000000387, -0.7392930974851505 
2.290000000000408, -0.7245084485540351 
2.3000000000004293, -0.7069590304413506 
2.3100000000004504, -0.6887281752240015 
2.3200000000004715, -0.6720335560573395 
2.3300000000004926, -0.6582780072254215 
2.3400000000005137, -0.6478414457088372 
2.3500000000005348, -0.6404160890836192 
2.360000000000556, -0.6354094248703366 
2.370000000000577, -0.6322003356551206 
2.380000000000598, -0.6302531268203009 
2.390000000000619, -0.6291492591425846 
2.4000000000006403, -0.6285817189446423 
2.4100000000006614, -0.6283356399261978 
2.4200000000006825, -0.628266047638033 
2.4300000000007036, -0.6282775632523506 
2.4400000000007247, -0.6283081632283398 
2.450000000000746, -0.6283177923947003 
2.460000000000767, -0.6282819342290342 
2.470000000000788, -0.6281895402375532 
2.480000000000809, -0.6280434883533671 
2.49000000000083, -0.6278602255988192 
2.5000000000008513, -0.6276650754268605 
2.5100000000008724, -0.6274824603762029 
2.5200000000008935, -0.6273247219344956 
2.5300000000009146, -0.6271854972835309 
2.5400000000009357, -0.6270416240113292 
2.550000000000957, -0.6268626953230738 
2.560000000000978, -0.6266229243860123 
2.570000000000999, -0.626309274338522 
2.58000000000102, -0.6259235918581958 
2.5900000000010412, -0.6254811807472266 
2.6000000000010624, -0.6250100516912288 
2.6100000000010835, -0.6245540527505977 
2.6200000000011046, -0.6241815253198606 
2.6300000000011257, -0.6240003374204814 
2.6400000000011468, -0.6241798731982489 
2.650000000001168, -0.6249799653022677 
2.660000000001189, -0.6267848304178797 
2.67000000000121, -0.6301350549841576 
2.680000000001231, -0.6357388434866641 
2.6900000000012523, -0.6444192104372306 
2.7000000000012734, -0.6569172201553293 
2.7100000000012945, -0.673464806339786 
2.7200000000013156, -0.6931965607420278 
2.7300000000013367, -0.7138809260033765 
2.740000000001358, -0.7326365389734681 
2.750000000001379, -0.7473851985904574 
2.7600000000014, -0.7576782398911741 
2.770000000001421, -0.7642734261764821 
2.780000000001442, -0.7682726896987898 
2.7900000000014633, -0.7706024216352583 
2.8000000000014844, -0.7718903972627852 
2.8100000000015055, -0.7725171061929365 
2.8200000000015266, -0.7726939383247319 
2.8300000000015477, -0.7725197188169631 
2.840000000001569, -0.7720097438801359 
2.85000000000159, -0.7711004328334232 
2.860000000001611, -0.7696302468446061 
2.870000000001632, -0.7672933257583716 
2.8800000000016532, -0.7635634342196108 
2.8900000000016743, -0.7576085571173754 
2.9000000000016954, -0.7482928137769226 
2.9100000000017165, -0.7344914844667917 
2.9200000000017377, -0.7159091309039116 
2.9300000000017588, -0.6939700114974287 
2.94000000000178, -0.6716333604921532 
2.950000000001801, -0.6518795245313818 
2.960000000001822, -0.6363408494801075 
2.970000000001843, -0.6251682020531654 
2.9800000000018643, -0.6176649940897474 
2.9900000000018854, -0.6128992500474366 
3.0000000000019065, -0.6100263118372748 
3.0100000000019276, -0.6083917253589618 
3.0200000000019487, -0.6075294044071076 
3.03000000000197, -0.607124775100109 
3.040000000001991, -0.60697343603753 
3.050000000002012, -0.6069459656269302 
3.060000000002033, -0.606961337554167 
3.070000000002054, -0.6069685522871918 
3.0800000000020753, -0.6069353948353633 
3.0900000000020964, -0.6068432001555802 
3.1000000000021175, -0.6066861968557327 
3.1100000000021386, -0.6064728646221219 
3.1200000000021597, -0.6062253909025281 
3.130000000002181, -0.6059737952286017 
3.140000000002202, -0.605744920244586 
3.150000000002223, -0.6055510178150821 
3.160000000002244, -0.6053840519302179 
3.1700000000022652, -0.6052189549747548 
3.1800000000022863, -0.6050240836361305 
3.1900000000023074, -0.6047731581305886 
3.2000000000023285, -0.6044529150811686 
3.2100000000023496, -0.6040647600075768 
3.2200000000023707, -0.6036231655238917 
3.230000000002392, -0.6031550207253591 
3.240000000002413, -0.602703051385671 
3.250000000002434, -0.6023351025522069 
3.260000000002455, -0.6021606682099061 
3.2700000000024763, -0.6023562763201691 
3.2800000000024974, -0.6032012906433926 
3.2900000000025185, -0.6051239820837698 
3.3000000000025396, -0.6087514174902705 
3.3100000000025607, -0.6149392667291138 
3.3200000000025818, -0.624718400541676 
3.330000000002603, -0.6390342756921807 
3.340000000002624, -0.658146316150111 
3.350000000002645, -0.6808248678529317 
3.360000000002666, -0.7041254210239651 
3.3700000000026873, -0.7245907179747137 
3.3800000000027084, -0.7401256382342681 
3.3900000000027295, -0.7506476873135106 
3.4000000000027506, -0.7572584367669568 
3.4100000000027717, -0.7612311404683338 
3.420000000002793, -0.7635445680187193 
3.430000000002814, -0.7648323601909673 
3.440000000002835, -0.7654699881711592 
3.450000000002856, -0.7656639665579101 
3.460000000002877, -0.7655102272790728 
3.4700000000028983, -0.76502274365505 
3.4800000000029194, -0.7641377827507136 
3.4900000000029405, -0.76269554364992 
3.5000000000029616, -0.7603979448745312 
3.5100000000029827, -0.7567465783710989 
3.520000000003004, -0.7509944220009482 
3.530000000003025, -0.7422175272590512 
3.540000000003046, -0.7296818602618538 
3.550000000003067, -0.7135186972298255 
3.5600000000030882, -0.695184921378645 
3.5700000000031094, -0.6770015721313613 
3.5800000000031305, -0.6610242685909351 
3.5900000000031516, -0.648295571970763 
3.6000000000031727, -0.638890598706079 
3.6100000000031938, -0.632340221992582 
3.620000000003215, -0.6280038652580132 
3.630000000003236, -0.6252727725230203 
3.640000000003257, -0.6236470162752478 
3.650000000003278, -0.6227477593500186 
3.6600000000032993, -0.6223030392549698 
3.6700000000033204, -0.6221255025190748 
3.6800000000033415, -0.6220900851301971 
3.6900000000033626, -0.6221149728202701 
3.7000000000033837, -0.6221471377069132 
3.710000000003405, -0.6221528212452847 
3.720000000003426, -0.6221127729771265 
3.730000000003447, -0.6220212543872045 
3.740000000003468, -0.6218864485311287 
3.750000000003489, -0.6217287008398231 
3.7600000000035103, -0.6215737984332766 
3.7700000000035314, -0.6214420890556328 
3.7800000000035525, -0.6213382578869163 
3.7900000000035736, -0.6212474688920011 
3.8000000000035947, -0.621140443001879 
3.810000000003616, -0.6209849009719706 
3.820000000003637, -0.6207570807275913 
3.830000000003658, -0.6204479010994131 
3.840000000003679, -0.6200631541716375 
3.8500000000037002, -0.6196213333688947 
3.8600000000037213, -0.6191534177860398 
3.8700000000037424, -0.6187074332327552 
3.8800000000037635, -0.61835929291733 
3.8900000000037847, -0.6182310697904144 
3.9000000000038058, -0.6185178814145054 
3.910000000003827, -0.6195239497170799 
3.920000000003848, -0.6217056759848896 
3.930000000003869, -0.6257118067331653 
3.94000000000389, -0.6323918990237305 
3.9500000000039113, -0.6427064881279972 
3.9600000000039324, -0.6574248673473242 
3.9700000000039535, -0.6765259604771985 
3.9800000000039746, -0.6985244220411991 
3.9900000000039957, -0.7204863482054251 
4.000000000004016, -0.7393146390128779 
4.010000000003993, -0.7533581524410711 
4.02000000000397, -0.7627633411390475 
4.030000000003946, -0.7686284123474459 
4.040000000003923, -0.7721277519817683 
4.0500000000039, -0.7741418328927149 
4.0600000000038765, -0.7752341159250744 
4.070000000003853, -0.775734885804839 
4.08000000000383, -0.7758212999733335 
4.090000000003807, -0.7755678808322439 
4.100000000003783, -0.7749689182434262 
4.11000000000376, -0.7739367504516875 
4.120000000003737, -0.7722758116217636 
4.130000000003713, -0.7696291546555148 
4.14000000000369, -0.7654005671171379 
4.150000000003667, -0.7586920262001231 
4.1600000000036434, -0.7483898817090909 
4.17000000000362, -0.7336283391038227 
4.180000000003597, -0.7146515919320593 
4.1900000000035735, -0.6933743095342437 
4.20000000000355, -0.6727089545222367 
4.210000000003527, -0.6550733970996707 
4.220000000003504, -0.6415133899350454 
4.23000000000348, -0.6318867191235802 
4.240000000003457, -0.625466577783199 
4.250000000003434, -0.6214098532373258 
4.26000000000341, -0.6189808901821102 
4.270000000003387, -0.6176151890461861 
4.280000000003364, -0.6169105707399265 
4.2900000000033405, -0.6165945850104415 
4.300000000003317, -0.6164893541177768 
4.310000000003294, -0.6164815560987276 
4.320000000003271, -0.6164995991160109 
4.330000000003247, -0.6164979246650006 
4.340000000003224, -0.6164477583451186 
4.350000000003201, -0.616333403752579 
4.360000000003177, -0.6161525067328236 
4.370000000003154, -0.6159172904403474 
4.380000000003131, -0.6156526699253058 
4.390000000003107, -0.6153885943766862 
4.400000000003084, -0.6151483328983405 
4.410000000003061, -0.6149383809484479 
4.4200000000030375, -0.6147455855645131 
4.430000000003014, -0.6145431066482188 
4.440000000002991, -0.614301821187836 
4.450000000002968, -0.6140010134049594 
4.460000000002944, -0.6136338245879894 
4.470000000002921, -0.6132075449429008 
4.480000000002898, -0.6127422950923488 
4.490000000002874, -0.6122719344843256 
4.500000000002851, -0.6118496164386589 
4.510000000002828, -0.6115592766309386 
4.520000000002804, -0.6115340019765748 
4.530000000002781, -0.6119821063669661 
4.540000000002758, -0.6132209227008092 
4.5500000000027345, -0.6157154008751309 
4.560000000002711, -0.6201105680989837 
4.570000000002688, -0.6272277012397569 
4.580000000002665, -0.6379569664938012 
4.590000000002641, -0.6529382800167914 
4.600000000002618, -0.6719717512987452 
4.610000000002595, -0.693425842505292 
4.620000000002571, -0.7143971332580411 
4.630000000002548, -0.7320411633316806 
4.640000000002525, -0.7450113278043677 
4.6500000000025015, -0.7536151619957416 
4.660000000002478, -0.7589512185651774 
4.670000000002455, -0.7621232972379305 
4.6800000000024315, -0.7639390286656899 
4.690000000002408, -0.7649090312040925 
4.700000000002385, -0.765329749289768 
4.710000000002362, -0.76535700513075 
4.720000000002338, -0.7650506289350503 
4.730000000002315, -0.7643924121182352 
4.740000000002292, -0.7632806922556294 
4.750000000002268, -0.7615008714795246 
4.760000000002245, -0.7586692443992363 
4.770000000002222, -0.7541578725068873 
4.7800000000021985, -0.7470533663910549 
4.790000000002175, -0.7363008300587224 
4.800000000002152, -0.7212405271630054 
4.810000000002129, -0.7024331488313936 
4.820000000002105, -0.6819745991541268 
4.830000000002082, -0.6626098981196239 
4.840000000002059, -0.6463715976806028 
4.850000000002035, -0.6339933749754103 
4.860000000002012, -0.625215411178055 
4.870000000001989, -0.61933481424727 
4.880000000001965, -0.6155872534106254 
4.890000000001942, -0.6133176268341929 
4.900000000001919, -0.6120239068916924 
4.9100000000018955, -0.6113459335655256 
4.920000000001872, -0.6110368494860126 
