t, s[1].omega / s[0].omega 
0, -0.06999782995388196 
0.009999999999999995, -0.06989299815284414 
0.019999999999999934, -0.06999632778718652 
0.029999999999999874, -0.07026645838509817 
0.04000000000000012, -0.0706383218854673 
0.050000000000000405, -0.0710345647220513 
0.06000000000000069, -0.07138297379958612 
0.07000000000000098, -0.07163097712870545 
0.08000000000000126, -0.07174953938032946 
0.09000000000000155, -0.07172690815681311 
0.10000000000000184, -0.07155820635888069 
0.11000000000000212, -0.07123622562674835 
0.12000000000000241, -0.07074587266608034 
0.130000000000002, -0.0700634002893612 
0.1400000000000009, -0.06916222737221438 
0.1499999999999998, -0.06802757557133221 
0.1599999999999987, -0.0666784273544194 
0.1699999999999976, -0.06518557065632453 
0.1799999999999965, -0.06366733824549826 
0.1899999999999954, -0.062256466186227245 
0.1999999999999943, -0.061057851903678385 
0.2099999999999932, -0.06012512196499562 
0.2199999999999921, -0.059463007018188706 
0.229999999999991, -0.05904212225471515 
0.2399999999999899, -0.05881276388770692 
0.2499999999999888, -0.05871449265397684 
0.2599999999999877, -0.05868421581008813 
0.2699999999999866, -0.058664264801965814 
0.2799999999999855, -0.0586084424792615 
0.2899999999999844, -0.05848329097621252 
0.2999999999999833, -0.05826424533797273 
0.3099999999999822, -0.05792864743069048 
0.3199999999999811, -0.05744790487846557 
0.32999999999998, -0.05678046943478645 
0.3399999999999789, -0.05586782013071515 
0.3499999999999778, -0.05463843183183955 
0.35999999999997667, -0.05302832641045928 
0.36999999999997557, -0.05102368679161877 
0.37999999999997447, -0.04870968971720342 
0.38999999999997337, -0.04628004497455656 
0.39999999999997227, -0.043974621138551766 
0.40999999999997117, -0.04198376948109396 
0.41999999999997006, -0.040394722222307396 
0.42999999999996896, -0.03920246304050845 
0.43999999999996786, -0.03834951269249382 
0.44999999999996676, -0.03775937227061423 
0.45999999999996566, -0.037354457590948784 
0.46999999999996456, -0.03706397239023059 
0.47999999999996346, -0.036827624986773236 
0.48999999999996235, -0.03659706958911117 
0.49999999999996125, -0.036334618868509624 
0.5099999999999602, -0.036008948634108376 
0.519999999999959, -0.03558836016366691 
0.529999999999958, -0.03503233872040455 
0.5399999999999568, -0.03428205341399575 
0.5499999999999557, -0.033251732509656094 
0.5599999999999546, -0.03182766688901771 
0.5699999999999535, -0.02989019789666931 
0.5799999999999524, -0.02737630447517776 
0.5899999999999513, -0.024369607872396323 
0.5999999999999502, -0.021139388299768885 
0.6099999999999491, -0.018048936312868347 
0.619999999999948, -0.015388874448236334 
0.6299999999999469, -0.013282589579512819 
0.6399999999999458, -0.01171003138749365 
0.6499999999999447, -0.010579470256506322 
0.6599999999999436, -0.009782458158603149 
0.6699999999999425, -0.009219081473256795 
0.6799999999999414, -0.00880524416197811 
0.6899999999999403, -0.008473191032875438 
0.6999999999999392, -0.008169882459581727 
0.7099999999999381, -0.00785377619338916 
0.719999999999937, -0.007489669823042233 
0.7299999999999359, -0.007041569679745709 
0.7399999999999348, -0.006463679759763898 
0.7499999999999337, -0.0056897280605215945 
0.7599999999999326, -0.004622580065128385 
0.7699999999999315, -0.0031320564233105453 
0.7799999999999304, -0.0010797975554680764 
0.7899999999999293, 0.0013588551180905516 
0.7999999999999282, 0.004143680555751861 
0.8099999999999271, 0.007150391620197966 
0.819999999999926, 0.009971368652906949 
0.8299999999999249, 0.012298394900306788 
0.8399999999999238, 0.01401761611617841 
0.8499999999999227, 0.015168424060621277 
0.8599999999999216, 0.01585881899856063 
0.8699999999999205, 0.016207231896274064 
0.8799999999999194, 0.016318789899799166 
0.8899999999999183, 0.016280208751932514 
0.8999999999999172, 0.016160741196637515 
0.9099999999999161, 0.016014531911481812 
0.919999999999915, 0.015884120680245542 
0.9299999999999139, 0.015805690427201417 
0.9399999999999128, 0.01581616257874747 
0.9499999999999117, 0.015961866177011296 
0.9599999999999106, 0.016308034919003418 
0.9699999999999095, 0.016946212791830388 
0.9799999999999084, 0.017990763661978573 
0.9899999999999073, 0.019547586443076418 
0.9999999999999062, 0.021642621382527386 
1.0099999999999052, 0.024140548713351043 
1.019999999999904, 0.02674175776901001 
1.029999999999903, 0.02910491893814906 
1.039999999999902, 0.030998421434441138 
1.0499999999999008, 0.03235304337218993 
1.0599999999998997, 0.03321564989691491 
1.0699999999998986, 0.03368168558565852 
1.0799999999998975, 0.033852935658121475 
1.0899999999998964, 0.033821399227530385 
1.0999999999998953, 0.03366573650223053 
1.1099999999998942, 0.03345099428863399 
1.119999999999893, 0.03322908599196826 
1.129999999999892, 0.03304084384712773 
1.1399999999998909, 0.03292044481467775 
1.1499999999998898, 0.03290185914194452 
1.1599999999998887, 0.03302621461295661 
1.1699999999998876, 0.03334829462018904 
1.1799999999998865, 0.03393840072937197 
1.1899999999998854, 0.0348719223231093 
1.1999999999998843, 0.03619705298833479 
1.2099999999998832, 0.037882942413886594 
1.219999999999882, 0.03978259576149672 
1.229999999999881, 0.041661733320038266 
1.2399999999998799, 0.04329246214878524 
1.2499999999998788, 0.04453698831652325 
1.2599999999998777, 0.04536305129639447 
1.2699999999998766, 0.04580880323556853 
1.2799999999998755, 0.045942899891012544 
1.2899999999998744, 0.04584158985516859 
1.2999999999998733, 0.04558006814770434 
1.3099999999998722, 0.04522884631758468 
1.319999999999871, 0.04485001140984694 
1.32999999999987, 0.044493826950496154 
1.3399999999998689, 0.04419823431219115 
1.3499999999998678, 0.04399224086105692 
1.3599999999998666, 0.043901837053410116 
1.3699999999998655, 0.043956051123606746 
1.3799999999998644, 0.04419054388334887 
1.3899999999998633, 0.04464543743754234 
1.3999999999998622, 0.04535315656902868 
1.4099999999998611, 0.04631450851920671 
1.41999999999986, 0.04747190276757483 
1.429999999999859, 0.048702675635596784 
1.4399999999998578, 0.04985051406347009 
1.4499999999998567, 0.05077933460236962 
1.4599999999998556, 0.05141041142400029 
1.4699999999998545, 0.051724086476060985 
1.4799999999998534, 0.05174090679650308 
1.4899999999998523, 0.051503919911107324 
1.4999999999998512, 0.05107020260249125 
1.5099999999998501, 0.05050725934052741 
1.519999999999849, 0.04988723551611747 
1.529999999999848, 0.049277064972468816 
1.5399999999998468, 0.04872912019655926 
1.5499999999998457, 0.04827789074208368 
1.5599999999998446, 0.04794360767790622 
1.5699999999998435, 0.04773934244511045 
1.5799999999998424, 0.04767734524627455 
1.5899999999998413, 0.047771687907546254 
1.5999999999998402, 0.048035328212900526 
1.6099999999998391, 0.04847061841189792 
1.619999999999838, 0.0490551612092638 
1.629999999999837, 0.049730676868570786 
1.6399999999998358, 0.05040609911305068 
1.6499999999998347, 0.05097865522634158 
1.6599999999998336, 0.051361068381066466 
1.6699999999998325, 0.05149773304198961 
1.6799999999998314, 0.05136515893563347 
1.6899999999998303, 0.05096584209650893 
1.6999999999998292, 0.05032569905795468 
1.709999999999828, 0.04949633189283473 
1.719999999999827, 0.048554511429046064 
1.729999999999826, 0.04759064605656413 
1.7399999999998248, 0.04668792872341695 
1.7499999999998237, 0.04590440695177631 
1.7599999999998226, 0.04526834067878916 
1.7699999999998215, 0.044785809931863804 
1.7799999999998204, 0.0444523080022205 
1.7899999999998193, 0.04426142462619202 
1.7999999999998182, 0.0442079896996886 
1.809999999999817, 0.04428565717368079 
1.819999999999816, 0.04448006767520672 
1.8299999999998149, 0.04476034037016216 
1.8399999999998138, 0.04507394535155394 
1.8499999999998127, 0.04535010468233018 
1.8599999999998116, 0.04551179835827822 
1.8699999999998105, 0.04548956411807458 
1.8799999999998094, 0.045229746988695065 
1.8899999999998083, 0.044697082012145464 
1.8999999999998072, 0.04387825594561553 
1.909999999999806, 0.04279191581282428 
1.919999999999805, 0.04150104743385005 
1.9299999999998039, 0.04011296396222859 
1.9399999999998028, 0.03875485149573448 
1.9499999999998017, 0.03753446949649756 
1.9599999999998006, 0.03651274454442598 
1.9699999999997995, 0.03570340780685845 
1.9799999999997984, 0.03509079572288247 
1.9899999999997973, 0.034648995360320005 
1.9999999999997962, 0.03435328867243584 
2.0099999999998173, 0.034183275563047046 
2.0199999999998384, 0.03412013200229154 
2.0299999999998595, 0.034140592110918196 
2.0399999999998806, 0.03421038956901336 
2.0499999999999017, 0.03428048319953616 
2.059999999999923, 0.034288709943783344 
2.069999999999944, 0.03416632548958085 
2.079999999999965, 0.033845552194290834 
2.089999999999986, 0.03326506293236593 
2.100000000000007, 0.03237560152393454 
2.1100000000000283, 0.03115234900186286 
2.1200000000000494, 0.029617365614514207 
2.1300000000000705, 0.02786126187815662 
2.1400000000000916, 0.02603833031085901 
2.1500000000001127, 0.024320305353743483 
2.160000000000134, 0.022834776166124893 
2.170000000000155, 0.02163405367570919 
2.180000000000176, 0.020707726535802957 
2.190000000000197, 0.020014623652029877 
2.2000000000002182, 0.019508719013299005 
2.2100000000002393, 0.019151178644640606 
2.2200000000002604, 0.01891185445934762 
2.2300000000002815, 0.01876512960420689 
2.2400000000003026, 0.01868345843101457 
2.2500000000003237, 0.018631027825251296 
2.260000000000345, 0.01855989662388134 
2.270000000000366, 0.01841025752949501 
2.280000000000387, 0.01811427620775343 
2.290000000000408, 0.01760104815343938 
2.3000000000004293, 0.0168015866233447 
2.3100000000004504, 0.015657520874925394 
2.3200000000004715, 0.014140614625643496 
2.3300000000004926, 0.012284445406942809 
2.3400000000005137, 0.01021019608525734 
2.3500000000005348, 0.008111769497024626 
2.360000000000556, 0.006188569376657538 
2.370000000000577, 0.004570765763952558 
2.380000000000598, 0.0032938876528873333 
2.390000000000619, 0.0023257437741648953 
2.4000000000006403, 0.00160782021117129 
2.4100000000006614, 0.0010831668354366183 
2.4200000000006825, 0.0007068324050390149 
2.4300000000007036, 0.000445358373730798 
2.4400000000007247, 0.00027134337871669636 
2.450000000000746, 0.00015642209011263388 
2.460000000000767, 0.00006475281719018831 
2.470000000000788, 5.856640123863039e-7 
2.480000000000809, -6.102934704251977e-7 
2.49000000000083, -0.0000011315518982704744 
2.5000000000008513, -0.00013599265902763344 
2.5100000000008724, -0.000561587694040233 
2.5200000000008935, -0.0013349489598894963 
2.5300000000009146, -0.00247939653902181 
2.5400000000009357, -0.0039522021681108604 
2.550000000000957, -0.005622026920299635 
2.560000000000978, -0.007290377704876947 
2.570000000000999, -0.008762632538039697 
2.58000000000102, -0.009919111093648996 
2.5900000000010412, -0.010733566710303656 
2.6000000000010624, -0.011242783013580601 
2.6100000000010835, -0.011505878636635318 
2.6200000000011046, -0.011578413201932645 
2.6300000000011257, -0.011503368902620131 
2.6400000000011468, -0.011312302612305638 
2.650000000001168, -0.011031035854382488 
2.660000000001189, -0.01068683106312325 
2.67000000000121, -0.010315009049593551 
2.680000000001231, -0.00996287565973726 
2.6900000000012523, -0.009689368601958591 
2.7000000000012734, -0.009560888015485176 
2.7100000000012945, -0.009645617087101734 
2.7200000000013156, -0.010007360578417428 
2.7300000000013367, -0.01069565054173804 
2.740000000001358, -0.01172654600259863 
2.750000000001379, -0.01305531923061308 
2.7600000000014, -0.014559469907856623 
2.770000000001421, -0.01606021208013282 
2.780000000001442, -0.017384511407112453 
2.7900000000014633, -0.018425124942778474 
2.8000000000014844, -0.019155889901238794 
2.8100000000015055, -0.019605972700376985 
2.8200000000015266, -0.01982500958761022 
2.8300000000015477, -0.019860313168402415 
2.840000000001569, -0.01974849800872657 
2.85000000000159, -0.019516300141177348 
2.860000000001611, -0.01918594522053637 
2.870000000001632, -0.018782346131715966 
2.8800000000016532, -0.01833992439080708 
2.8900000000016743, -0.0179064109970059 
2.9000000000016954, -0.017541524912738027 
2.9100000000017165, -0.017311036411056864 
2.9200000000017377, -0.017279316728399725 
2.9300000000017588, -0.017502511098773873 
2.94000000000178, -0.01802013144810066 
2.950000000001801, -0.018840442587469607 
2.960000000001822, -0.019920566153590426 
2.970000000001843, -0.021155457778430677 
2.9800000000018643, -0.022396201032536457 
2.9900000000018854, -0.02349817252291852 
3.0000000000019065, -0.024367659893358526 
3.0100000000019276, -0.02497529150591932 
3.0200000000019487, -0.025337684475254647 
3.03000000000197, -0.025490326758817034 
3.040000000001991, -0.02546851996415319 
3.050000000002012, -0.025299560506705725 
3.060000000002033, -0.025002983816865842 
3.070000000002054, -0.024595543647636355 
3.0800000000020753, -0.02409865693711377 
3.0900000000020964, -0.02354583556594108 
3.1000000000021175, -0.022986577511461957 
3.1100000000021386, -0.022483697548098935 
3.1200000000021597, -0.022104688926497567 
3.130000000002181, -0.02191164155899151 
3.140000000002202, -0.02195360754485622 
3.150000000002223, -0.02226027980530602 
3.160000000002244, -0.022832677324660544 
3.1700000000022652, -0.02363067221875017 
3.1800000000022863, -0.024567050889429183 
3.1900000000023074, -0.025521985466873898 
3.2000000000023285, -0.026378070496015094 
3.2100000000023496, -0.027054662480014417 
3.2200000000023707, -0.027519431772814483 
3.230000000002392, -0.02777658632598058 
3.240000000002413, -0.027846987343129636 
3.250000000002434, -0.027752843812347945 
3.260000000002455, -0.02751064539128249 
3.2700000000024763, -0.02713102947543552 
3.2800000000024974, -0.026623655467009975 
3.2900000000025185, -0.0260054148037601 
3.3000000000025396, -0.025309178866851578 
3.3100000000025607, -0.024588252544335738 
3.3200000000025818, -0.023912044364214947 
3.330000000002603, -0.023353643165279797 
3.340000000002624, -0.022976053571895874 
3.350000000002645, -0.022823460605657563 
3.360000000002666, -0.022917237280987067 
3.3700000000026873, -0.023251786212413937 
3.3800000000027084, -0.023788386878958612 
3.3900000000027295, -0.024453148655442906 
3.4000000000027506, -0.02514846875443902 
3.4100000000027717, -0.02577822698506413 
3.420000000002793, -0.026272688631884634 
3.430000000002814, -0.026597946845511644 
3.440000000002835, -0.026748496880840484 
3.450000000002856, -0.02673276465374928 
3.460000000002877, -0.026560928109778947 
3.4700000000028983, -0.026238690753499123 
3.4800000000029194, -0.0257670712270666 
3.4900000000029405, -0.02514757714612319 
3.5000000000029616, -0.024391813593797846 
3.5100000000029827, -0.023532404871225557 
3.520000000003004, -0.022628646546322732 
3.530000000003025, -0.021760263495598155 
3.540000000003046, -0.02101004921070934 
3.550000000003067, -0.020445305467098 
3.5600000000030882, -0.020107714502872184 
3.5700000000031094, -0.020011845708991567 
3.5800000000031305, -0.02014580450569815 
3.5900000000031516, -0.020470165854598845 
3.6000000000031727, -0.02091877428739307 
3.6100000000031938, -0.021408237205394826 
3.620000000003215, -0.02185664278790641 
3.630000000003236, -0.02220201517953562 
3.640000000003257, -0.02240979579211614 
3.650000000003278, -0.02246777584063491 
3.6600000000032993, -0.022375064416295203 
3.6700000000033204, -0.022132096541706142 
3.6800000000033415, -0.02173510661690576 
3.6900000000033626, -0.02117602157577125 
3.7000000000033837, -0.020448229773943248 
3.710000000003405, -0.01955803471794385 
3.720000000003426, -0.018538355623233044 
3.730000000003447, -0.017456022490798802 
3.740000000003468, -0.01640341946520037 
3.750000000003489, -0.015475412733567829 
3.7600000000035103, -0.014745430026001044 
3.7700000000035314, -0.014254015335191822 
3.7800000000035525, -0.01401000999693514 
3.7900000000035736, -0.013995521198660904 
3.8000000000035947, -0.014168750601930912 
3.810000000003616, -0.014466748387863711 
3.820000000003637, -0.01481374081381189 
3.830000000003658, -0.015135956975319147 
3.840000000003679, -0.015376088915971036 
3.8500000000037002, -0.01549927008287946 
3.8600000000037213, -0.015489085702062439 
3.8700000000037424, -0.015338448285041389 
3.8800000000037635, -0.015040921488776138 
3.8900000000037847, -0.014585678456574939 
3.9000000000038058, -0.013957590658398994 
3.910000000003827, -0.013143704428555166 
3.920000000003848, -0.012146519650139766 
3.930000000003869, -0.011000257210725452 
3.94000000000389, -0.009779448868452655 
3.9500000000039113, -0.008588262885835935 
3.9600000000039324, -0.007532090086571996 
3.9700000000039535, -0.006689220733267704 
3.9800000000039746, -0.006098916867379227 
3.9900000000039957, -0.005765216419422715 
4.000000000004016, -0.005665193582551493 
4.010000000003993, -0.005754239713973762 
4.02000000000397, -0.005969861655391118 
4.030000000003946, -0.006239366330469411 
4.040000000003923, -0.006492688227689433 
4.0500000000039, -0.006674760355376476 
4.0600000000038765, -0.006750576404364999 
4.070000000003853, -0.006701578404109791 
4.08000000000383, -0.006517415528647361 
4.090000000003807, -0.006187959851926007 
4.100000000003783, -0.0056986275107229 
4.11000000000376, -0.005030781222828374 
4.120000000003737, -0.0041688794994041035 
4.130000000003713, -0.0031149676921109265 
4.14000000000369, -0.0019061456686263836 
4.150000000003667, -0.0006229738415139392 
4.1600000000036434, 0.00040198330182424557 
4.17000000000362, 0.0010664198589608379 
4.180000000003597, 0.001506199740024736 
4.1900000000035735, 0.001684655471738021 
4.20000000000355, 0.0016012435899626556 
4.210000000003527, 0.0012819421732976094 
4.220000000003504, 0.0007733855729025952 
4.23000000000348, 0.00013891478193135616 
4.240000000003457, -0.00020382303199419438 
4.250000000003434, -0.00044000071450221983 
4.26000000000341, -0.0006062966278281148 
4.270000000003387, -0.000668118336314242 
4.280000000003364, -0.000606721728595872 
4.2900000000033405, -0.00041114063235054156 
4.300000000003317, -0.00007047351689316289 
4.310000000003294, 0.00006788768253136362 
4.320000000003271, 0.0003119394595784055 
4.330000000003247, 0.0007498128541106939 
4.340000000003224, 0.0013773778039606014 
4.350000000003201, 0.0021545031392577545 
4.360000000003177, 0.002997986701521794 
4.370000000003154, 0.0037962701952233982 
4.380000000003131, 0.0044414920300929524 
4.390000000003107, 0.004858026019984708 
4.400000000003084, 0.005011818943401996 
4.410000000003061, 0.0049040226784429885 
4.4200000000030375, 0.004561664505352535 
4.430000000003014, 0.004032309034034597 
4.440000000002991, 0.003380295185243546 
4.450000000002968, 0.002678905502962757 
4.460000000002944, 0.001997575463914019 
4.470000000002921, 0.0013900400327926373 
4.480000000002898, 0.0008900194324734676 
4.490000000002874, 0.0005153303700843344 
4.500000000002851, 0.0002761801699362052 
4.510000000002828, 0.00018285766414113627 
4.520000000002804, 0.00024989416462118167 
4.530000000002781, 0.0004949529799934251 
4.540000000002758, 0.0009309045857971768 
4.5500000000027345, 0.001551026185107605 
4.560000000002711, 0.002312626089062789 
4.570000000002688, 0.0031314081463855318 
4.580000000002665, 0.0038972211150280003 
4.590000000002641, 0.004505554126572218 
4.600000000002618, 0.00488429700956339 
4.610000000002595, 0.005001701548471559 
4.620000000002571, 0.004859939620079371 
4.630000000002548, 0.004486550905243902 
4.640000000002525, 0.003929832850110221 
4.6500000000025015, 0.003255180386330087 
4.660000000002478, 0.0025367460036262385 
4.670000000002455, 0.0018440647036999918 
4.6800000000024315, 0.0012300968941595539 
4.690000000002408, 0.0007273158351491641 
4.700000000002385, 0.00035231440952595574 
4.710000000002362, 0.00011434987596305047 
4.720000000002338, 0.000022987629732940912 
4.730000000002315, 0.00009200923414369408 
4.740000000002292, 0.00033794471212773153 
4.750000000002268, 0.0007718348321129293 
4.760000000002245, 0.0013844714719824574 
