t, s[1].omega / s[0].omega 
0, -1.3199889907727116 
0.009999999999999995, -1.3186966089680174 
0.019999999999999934, -1.3170257980674096 
0.029999999999999874, -1.3149778801375371 
0.04000000000000012, -1.3125545651050126 
0.050000000000000405, -1.3097579777848818 
0.06000000000000069, -1.3065906944755656 
0.07000000000000098, -1.303055788451324 
0.08000000000000126, -1.2991568835096996 
0.09000000000000155, -1.2948982145684977 
0.10000000000000184, -1.290284694153023 
0.11000000000000212, -1.285321983466741 
0.12000000000000241, -1.2800165665947145 
0.130000000000002, -1.2743758262488447 
0.1400000000000009, -1.2684081193303915 
0.1499999999999998, -1.2621228504666542 
0.1599999999999987, -1.2555305415882771 
0.1699999999999976, -1.2486428955688014 
0.1799999999999965, -1.241472851968105 
0.1899999999999954, -1.2340346330243115 
0.1999999999999943, -1.2263437782369309 
0.2099999999999932, -1.2184171661800978 
0.2199999999999921, -1.2102730225677178 
0.229999999999991, -1.2019309140356838 
0.2399999999999899, -1.1934117275680207 
0.2499999999999888, -1.1847376359200306 
0.2599999999999877, -1.1759320497222683 
0.2699999999999866, -1.1670195571275455 
0.2799999999999855, -1.1580258518449955 
0.2899999999999844, -1.148977650169009 
0.2999999999999833, -1.1399025971653016 
0.3099999999999822, -1.1308291615642692 
0.3199999999999811, -1.1217865182088091 
0.32999999999998, -1.1128044162119615 
0.3399999999999789, -1.1039130304158262 
0.3499999999999778, -1.0951427934243723 
0.35999999999997667, -1.08652420550956 
0.36999999999997557, -1.0780876201324014 
0.37999999999997447, -1.06986300370454 
0.38999999999997337, -1.0618796695185526 
0.39999999999997227, -1.05416598742293 
0.40999999999997117, -1.0467490726929618 
0.41999999999997006, -1.0396544595005588 
0.42999999999996896, -1.0329057662463321 
0.43999999999996786, -1.0265243616175173 
0.44999999999996676, -1.0205290414246684 
0.45999999999996566, -1.0149357269301873 
0.46999999999996456, -1.0097571954375508 
0.47999999999996346, -1.0050028533369038 
0.48999999999996235, -1.0006785606256154 
0.49999999999996125, -0.9967865142130645 
0.5099999999999602, -0.9933251951863626 
0.519999999999959, -0.9902893827932351 
0.529999999999958, -0.9876702353393028 
0.5399999999999568, -0.9854554356505462 
0.5499999999999557, -0.9836293963597098 
0.5599999999999546, -0.982173518161997 
0.5699999999999535, -0.9810664924504561 
0.5799999999999524, -0.9802846384569707 
0.5899999999999513, -0.9798022642329921 
0.5999999999999502, -0.9795920405179783 
0.6099999999999491, -0.9796253767481883 
0.619999999999948, -0.979872789114685 
0.6299999999999469, -0.980304251627142 
0.6399999999999458, -0.980889522503561 
0.6499999999999447, -0.9815984397989791 
0.6599999999999436, -0.9824011819174155 
0.6699999999999425, -0.9832684904300208 
0.6799999999999414, -0.984171854363582 
0.6899999999999403, -0.985083656752081 
0.6999999999999392, -0.9859772856978029 
0.7099999999999381, -0.9868272134202583 
0.719999999999937, -0.987609047749023 
0.7299999999999359, -0.9882995612229305 
0.7399999999999348, -0.988876703388164 
0.7499999999999337, -0.9893196020469259 
0.7599999999999326, -0.9896085591094886 
0.7699999999999315, -0.9897250463634313 
0.7799999999999304, -0.9896517059159109 
0.7899999999999293, -0.9893723593110527 
0.7999999999999282, -0.9888720284002881 
0.8099999999999271, -0.9881369699765881 
0.819999999999926, -0.9871547250063974 
0.8299999999999249, -0.9859141820439339 
0.8399999999999238, -0.9844056531375097 
0.8499999999999227, -0.9826209592915313 
0.8599999999999216, -0.9805535213942063 
0.8699999999999205, -0.9781984515295765 
0.8799999999999194, -0.9755526388358947 
0.8899999999999183, -0.9726148236197774 
0.8999999999999172, -0.969385653345693 
0.9099999999999161, -0.9658677144333535 
0.919999999999915, -0.9620655345253416 
0.9299999999999139, -0.9579855510159271 
0.9399999999999128, -0.9536360431067801 
0.9499999999999117, -0.9490270263900767 
0.9599999999999106, -0.9441701108404446 
0.9699999999999095, -0.9390783249922607 
0.9799999999999084, -0.9337659108505493 
0.9899999999999073, -0.9282480956032326 
0.9999999999999062, -0.9225408473626674 
1.0099999999999052, -0.9166606228905783 
1.019999999999904, -0.910624115517098 
1.029999999999903, -0.9044480112564625 
1.039999999999902, -0.8981487604913014 
1.0499999999999008, -0.8917423716165633 
1.0599999999998997, -0.8852442317952373 
1.0699999999998986, -0.878668958582503 
1.0799999999998975, -0.8720302847228399 
1.0899999999998964, -0.8653409770061814 
1.0999999999998953, -0.8586127887587822 
1.1099999999998942, -0.851856444397463 
1.119999999999893, -0.845081653528034 
1.129999999999892, -0.8382971513374657 
1.1399999999998909, -0.8315107615169145 
1.1499999999998898, -0.8247294776489751 
1.1599999999998887, -0.8179595588790408 
1.1699999999998876, -0.8112066357434381 
1.1799999999998865, -0.8044758222191601 
1.1899999999998854, -0.7977718303638078 
1.1999999999998843, -0.7910990843022845 
1.2099999999998832, -0.7844618307627186 
1.219999999999882, -0.7778642438438089 
1.229999999999881, -0.7713105221872345 
1.2399999999998799, -0.7648049772126235 
1.2499999999998788, -0.7583521115323307 
1.2599999999998777, -0.751956687085492 
1.2699999999998766, -0.7456237829053611 
1.2799999999998755, -0.7393588427538729 
1.2899999999998744, -0.7331677131190385 
1.2999999999998733, -0.7270566722734598 
1.3099999999998722, -0.7210324512377816 
1.319999999999871, -0.7151022475854107 
1.32999999999987, -0.7092737330698815 
1.3399999999998689, -0.703555056060556 
1.3499999999998678, -0.6979548397430905 
1.3599999999998666, -0.6924821769853584 
1.3699999999998655, -0.6871466226941548 
1.3799999999998644, -0.6819581843989201 
1.3899999999998633, -0.6769273117011474 
1.3999999999998622, -0.6720648851260913 
1.4099999999998611, -0.6673822048100518 
1.41999999999986, -0.6628909793539204 
1.429999999999859, -0.6586033150732479 
1.4399999999998578, -0.6545317057772818 
1.4499999999998567, -0.6506890231143586 
1.4599999999998556, -0.647088507428317 
1.4699999999998545, -0.6437437589795965 
1.4799999999998534, -0.6406687292946711 
1.4899999999998523, -0.6378777123177471 
1.4999999999998512, -0.6353853349485202 
1.5099999999998501, -0.633206546458897 
1.519999999999849, -0.6313566061897086 
1.529999999999848, -0.6298510688358319 
1.5399999999998468, -0.628705766535395 
1.5499999999998457, -0.6279367868869838 
1.5599999999998446, -0.6275604459297635 
1.5699999999998435, -0.6275932550374614 
1.5799999999998424, -0.6280518806014529 
1.5899999999998413, -0.6289530953145589 
1.5999999999998402, -0.6303137198205214 
1.6099999999998391, -0.6321505534701103 
1.619999999999838, -0.6344802929301032 
1.629999999999837, -0.6373194374334338 
1.6399999999998358, -0.6406841795457849 
1.6499999999998347, -0.6445902804644581 
1.6599999999998336, -0.6490529290681885 
1.6699999999998325, -0.6540865842099217 
1.6799999999998314, -0.6597048000955822 
1.6899999999998303, -0.6659200350256386 
1.6999999999998292, -0.6727434442949229 
1.709999999999828, -0.6801846586476774 
1.719999999999827, -0.6882515503618345 
1.729999999999826, -0.696949989775341 
1.7399999999998248, -0.7062835958468188 
1.7499999999998237, -0.7162534851339565 
1.7599999999998226, -0.7268580243388849 
1.7699999999998215, -0.7380925922662778 
1.7799999999998204, -0.7499493576174138 
1.7899999999998193, -0.7624170794494421 
1.7999999999998182, -0.7754809373118913 
1.809999999999817, -0.7891223979855425 
1.819999999999816, -0.8033191253560079 
1.8299999999998149, -0.8180449392349052 
1.8399999999998138, -0.8332698278946906 
1.8499999999998127, -0.8489600177314848 
1.8599999999998116, -0.8650781018612198 
1.8699999999998105, -0.8815832276594061 
1.8799999999998094, -0.8984313413657474 
1.8899999999998083, -0.9155754859977839 
1.8999999999998072, -0.9329661470647227 
1.909999999999806, -0.9505516390519079 
1.919999999999805, -0.9682785244525358 
1.9299999999998039, -0.9860920563279639 
1.9399999999998028, -1.0039366350232473 
1.9499999999998017, -1.0217562697583653 
1.9599999999998006, -1.0394950363312916 
1.9699999999997995, -1.0570975230480146 
1.9799999999997984, -1.0745092581520213 
1.9899999999997973, -1.0916771133587557 
1.9999999999997962, -1.1085496794977345 
2.0099999999998173, -1.1250776116162835 
2.0199999999998384, -1.14121394210495 
2.0299999999998595, -1.1569143613853916 
2.0399999999998806, -1.1721374664019628 
2.0499999999999017, -1.1868449775530456 
2.059999999999923, -1.2010019247934065 
2.069999999999944, -1.2145768034709477 
2.079999999999965, -1.2275417000936932 
2.089999999999986, -1.239872387740458 
2.100000000000007, -1.251548390329191 
2.1100000000000283, -1.2625530145418833 
2.1200000000000494, -1.27287334796809 
2.1300000000000705, -1.2825002220472077 
2.1400000000000916, -1.2914281387121433 
2.1500000000001127, -1.299655160280221 
2.160000000000134, -1.3071827630806643 
2.170000000000155, -1.3140156564958627 
2.180000000000176, -1.3201615704398701 
2.190000000000197, -1.3256310156945654 
2.2000000000002182, -1.330437022854431 
2.2100000000002393, -1.3345948667801488 
2.2200000000002604, -1.338121784328214 
2.2300000000002815, -1.3410366936307978 
2.2400000000003026, -1.343359923298105 
2.2500000000003237, -1.3451129595857578 
2.260000000000345, -1.3463182188217027 
2.270000000000366, -1.3469988512538753 
2.280000000000387, -1.347178581011024 
2.290000000000408, -1.3468815851254845 
2.3000000000004293, -1.346132412614681 
2.3100000000004504, -1.3449559425276558 
2.3200000000004715, -1.3433773777082854 
2.3300000000004926, -1.3414222688894077 
2.3400000000005137, -1.3391165617061966 
2.3500000000005348, -1.3364866574142975 
2.360000000000556, -1.3335594766508012 
2.370000000000577, -1.3303625146349485 
2.380000000000598, -1.3269238759316184 
2.390000000000619, -1.323272277448291 
2.4000000000006403, -1.319437009827309 
2.4100000000006614, -1.3154478498888376 
2.4200000000006825, -1.3113349202382907 
2.4300000000007036, -1.3071284964147483 
2.4400000000007247, -1.3028587667260956 
2.450000000000746, -1.2985555547645842 
2.460000000000767, -1.294248018999036 
2.470000000000788, -1.2899643472351274 
2.480000000000809, -1.2857314656026415 
2.49000000000083, -1.2815747816756489 
2.5000000000008513, -1.2775179791708604 
2.5100000000008724, -1.2735828774715392 
2.5200000000008935, -1.269789363331963 
2.5300000000009146, -1.2661553951155842 
2.5400000000009357, -1.262697072566743 
2.550000000000957, -1.259428758243724 
2.560000000000978, -1.2563632311478925 
2.570000000000999, -1.2535118494310058 
2.58000000000102, -1.250884697795189 
2.5900000000010412, -1.2484906964979916 
2.6000000000010624, -1.2463376526412073 
2.6100000000010835, -1.2444322402997074 
2.6200000000011046, -1.242779903461368 
2.6300000000011257, -1.2413846839703013 
2.6400000000011468, -1.2402489848766725 
2.650000000001168, -1.2393732869724552 
2.660000000001189, -1.2387558420794078 
2.67000000000121, -1.2383923702455981 
2.680000000001231, -1.2382757890059142 
2.6900000000012523, -1.238396001139492 
2.7000000000012734, -1.2387397630703672 
2.7100000000012945, -1.2392906496441596 
2.7200000000013156, -1.2400291231463518 
2.7300000000013367, -1.240932705937431 
2.740000000001358, -1.2419762478535012 
2.750000000001379, -1.2431322723885014 
2.7600000000014, -1.2443713803071845 
2.770000000001421, -1.2456626861703177 
2.780000000001442, -1.246974262441641 
2.7900000000014633, -1.2482735672712642 
2.8000000000014844, -1.2495278353610126 
2.8100000000015055, -1.2507044160005716 
2.8200000000015266, -1.2517710478295523 
2.8300000000015477, -1.2526960655467578 
2.840000000001569, -1.2534485391466852 
2.85000000000159, -1.2539983509274424 
2.860000000001611, -1.2543162192366997 
2.870000000001632, -1.2543736805911954 
2.8800000000016532, -1.2541430434231258 
2.8900000000016743, -1.2535973273581216 
2.9000000000016954, -1.2527102017476888 
2.9100000000017165, -1.2514559363151934 
2.9200000000017377, -1.2498093753743356 
2.9300000000017588, -1.247745945268411 
2.94000000000178, -1.2452417025579603 
2.950000000001801, -1.2422734281304848 
2.960000000001822, -1.2388187698796078 
2.970000000001843, -1.234856433957766 
2.9800000000018643, -1.2303664219068127 
2.9900000000018854, -1.2253303082907732 
3.0000000000019065, -1.219731550890774 
3.0100000000019276, -1.2135558231924781 
3.0200000000019487, -1.2067913569362625 
3.03000000000197, -1.1994292810518048 
3.040000000001991, -1.1914639424945308 
3.050000000002012, -1.182893194447987 
3.060000000002033, -1.1737186381154234 
3.070000000002054, -1.163945805898383 
3.0800000000020753, -1.153584276084509 
3.0900000000020964, -1.1426477121074892 
3.1000000000021175, -1.13115382280595 
3.1100000000021386, -1.119124243660149 
3.1200000000021597, -1.1065843424724364 
3.130000000002181, -1.0935629561351494 
3.140000000002202, -1.0800920677878958 
3.150000000002223, -1.0662064356500418 
3.160000000002244, -1.0519431860368023 
3.1700000000022652, -1.0373413835133498 
3.1800000000022863, -1.022441590862419 
3.1900000000023074, -1.0072854306421144 
3.2000000000023285, -0.991915158734266 
3.2100000000023496, -0.9763732585891399 
3.2200000000023707, -0.9607020630188927 
3.230000000002392, -0.9449434085235967 
3.240000000002413, -0.9291383253680788 
3.250000000002434, -0.9133267650519524 
3.260000000002455, -0.8975473654832037 
3.2700000000024763, -0.8818372531016847 
3.2800000000024974, -0.8662318804016494 
3.2900000000025185, -0.8507648967518167 
3.3000000000025396, -0.8354680500744104 
3.3100000000025607, -0.8203711167817657 
3.3200000000025818, -0.8055018573391036 
3.330000000002603, -0.790885994886106 
3.340000000002624, -0.7765472144737268 
3.350000000002645, -0.7625071806283324 
3.360000000002666, -0.7487855711215344 
3.3700000000026873, -0.7354001249862324 
3.3800000000027084, -0.7223667029684357 
3.3900000000027295, -0.709699358736161 
3.4000000000027506, -0.6974104192804697 
3.4100000000027717, -0.6855105730414105 
3.420000000002793, -0.6740089643766043 
3.430000000002814, -0.6629132930664617 
3.440000000002835, -0.6522299176215498 
3.450000000002856, -0.641963961227865 
3.460000000002877, -0.632119419237549 
3.4700000000028983, -0.6226992671875975 
3.4800000000029194, -0.6137055684083772 
3.4900000000029405, -0.6051395803672762 
3.5000000000029616, -0.5970018589799481 
3.5100000000029827, -0.5892923602111944 
3.520000000003004, -0.5820105383780473 
3.530000000003025, -0.575155440657269 
3.540000000003046, -0.5687257973865987 
3.550000000003067, -0.5627201078318735 
3.5600000000030882, -0.557136721169137 
3.5700000000031094, -0.5519739125007405 
3.5800000000031305, -0.547229953786183 
3.5900000000031516, -0.5429031796212744 
3.6000000000031727, -0.5389920478427042 
3.6100000000031938, -0.5354951949689454 
3.620000000003215, -0.5324114865126779 
3.630000000003236, -0.5297400622147338 
3.640000000003257, -0.5274803762552585 
3.650000000003278, -0.5256322324948249 
3.6600000000032993, -0.5241958147871636 
3.6700000000033204, -0.523171712386593 
3.6800000000033415, -0.522560940447795 
3.6900000000033626, -0.5223649555840213 
3.7000000000033837, -0.5225856664128127 
3.710000000003405, -0.5232254389766903 
3.720000000003426, -0.5242870968808242 
3.730000000003447, -0.5257739159413025 
3.740000000003468, -0.5276896130872468 
3.750000000003489, -0.5300383292087645 
3.7600000000035103, -0.5328246055917505 
3.7700000000035314, -0.5360533535312519 
3.7800000000035525, -0.5397298166690234 
3.7900000000035736, -0.5438595255598365 
3.8000000000035947, -0.5484482439370502 
3.810000000003616, -0.5535019061232497 
3.820000000003637, -0.5590265450189247 
3.830000000003658, -0.5650282101041028 
3.840000000003679, -0.5715128749076392 
3.8500000000037002, -0.5784863334398846 
3.8600000000037213, -0.5859540851502067 
3.8700000000037424, -0.5939212080650031 
3.8800000000037635, -0.6023922198880082 
3.8900000000037847, -0.6113709270064602 
3.9000000000038058, -0.6208602615472415 
3.910000000003827, -0.63086210686924 
3.920000000003848, -0.641377112164073 
3.930000000003869, -0.6524044971681705 
3.94000000000389, -0.6639418483651663 
3.9500000000039113, -0.6759849084773957 
3.9600000000039324, -0.6885273615061157 
3.9700000000039535, -0.7015606160771478 
3.9800000000039746, -0.7150735903750157 
3.9900000000039957, -0.7290525024949744 
4.000000000004016, -0.7434806705963576 
4.010000000003993, -0.7583383277871495 
4.02000000000397, -0.7736024571897009 
4.030000000003946, -0.7892466531082031 
4.040000000003923, -0.8052410146126369 
4.0500000000039, -0.8215520781394252 
4.0600000000038765, -0.8381427958488441 
4.070000000003853, -0.8549725664317814 
4.08000000000383, -0.8719973247779316 
4.090000000003807, -0.8891696963562737 
4.100000000003783, -0.9064392212695348 
4.11000000000376, -0.9237526516852919 
4.120000000003737, -0.9410543246863312 
4.130000000003713, -0.9582866105089839 
4.14000000000369, -0.9753904336638249 
4.150000000003667, -0.9923058616065447 
4.1600000000036434, -1.0089727525376446 
4.17000000000362, -1.0253314506933389 
4.180000000003597, -1.041323514327217 
4.1900000000035735, -1.05689245869191 
4.20000000000355, -1.0719844939556444 
4.210000000003527, -1.0865492363771494 
4.220000000003504, -1.1005403704378443 
4.23000000000348, -1.1139162401640306 
4.240000000003457, -1.126640349655049 
4.250000000003434, -1.1386817558554312 
4.26000000000341, -1.1500153407460998 
4.270000000003387, -1.160621955148003 
4.280000000003364, -1.1704884319052575 
4.2900000000033405, -1.1796074719573801 
4.300000000003317, -1.1879774123144615 
4.310000000003294, -1.1956018898321996 
4.320000000003271, -1.2024894186265631 
4.330000000003247, -1.2086529017471865 
4.340000000003224, -1.2141090992334354 
4.350000000003201, -1.2188780749118582 
4.360000000003177, -1.2229826433646933 
4.370000000003154, -1.2264478365918823 
4.380000000003131, -1.229300407237882 
4.390000000003107, -1.2315683821113252 
4.400000000003084, -1.233280676331011 
4.410000000003061, -1.2344667749936773 
4.4200000000030375, -1.2351564859381692 
4.430000000003014, -1.2353797640853068 
4.440000000002991, -1.2351666050212633 
4.450000000002968, -1.23454700298116 
4.460000000002944, -1.2335509661668471 
4.470000000002921, -1.2322085803729332 
4.480000000002898, -1.2305501101745153 
4.490000000002874, -1.2286061254417195 
4.500000000002851, -1.2264076397108514 
4.510000000002828, -1.2239862460151931 
4.520000000002804, -1.2213742352517047 
4.530000000002781, -1.2186046821546281 
4.540000000002758, -1.215711484601421 
4.5500000000027345, -1.2127293434247586 
4.560000000002711, -1.209693672249912 
4.570000000002688, -1.2066404301629112 
4.580000000002665, -1.2036058741962856 
4.590000000002641, -1.2006262335410984 
4.600000000002618, -1.1977373127832283 
4.610000000002595, -1.194974036935248 
4.620000000002571, -1.1923699561275887 
4.630000000002548, -1.189956732032966 
4.640000000002525, -1.187763630949607 
4.6500000000025015, -1.1858170495743579 
4.660000000002478, -1.1841400986185606 
4.670000000002455, -1.1827522665139298 
4.6800000000024315, -1.1816691806924537 
4.690000000002408, -1.180902477678901 
4.700000000002385, -1.1804597860494472 
4.710000000002362, -1.1803448188349717 
4.720000000002338, -1.1805575648644842 
4.730000000002315, -1.1810945624887048 
4.740000000002292, -1.181949234616111 
4.750000000002268, -1.183112261385177 
4.760000000002245, -1.1845719662393173 
4.770000000002222, -1.186314692613189 
4.7800000000021985, -1.1883251516407292 
4.790000000002175, -1.1905867258653426 
4.800000000002152, -1.1930817193752623 
4.810000000002129, -1.1957915505567633 
4.820000000002105, -1.1986968892126777 
4.830000000002082, -1.2017777446456186 
4.840000000002059, -1.2050135150618249 
4.850000000002035, -1.2083830110472176 
4.860000000002012, -1.2118644667825547 
4.870000000001989, -1.2154355521313887 
4.880000000001965, -1.2190733969265373 
4.890000000001942, -1.2227546359900237 
4.900000000001919, -1.2264554800221668 
4.9100000000018955, -1.2301518138989966 
4.920000000001872, -1.2338193205237518 
4.930000000001849, -1.2374336255309257 
