t, s[1].omega / s[0].omega 
0, -1.3401260981097471 
0.009999999999999995, -1.3547878852777813 
0.019999999999999934, -1.368926549064206 
0.029999999999999874, -1.378931223019214 
0.04000000000000012, -1.3848763437104354 
0.050000000000000405, -1.388058809694169 
0.06000000000000069, -1.3896083769897298 
0.07000000000000098, -1.390227297615459 
0.08000000000000126, -1.3902980890083763 
0.09000000000000155, -1.3900218267144246 
0.10000000000000184, -1.3895266561316684 
0.11000000000000212, -1.3889636502406728 
0.12000000000000241, -1.3885867133696728 
0.130000000000002, -1.3887347368176948 
0.1400000000000009, -1.3896382457437413 
0.1499999999999998, -1.3912176485183279 
0.1599999999999987, -1.393143186474258 
0.1699999999999976, -1.3950658317129994 
0.1799999999999965, -1.396753898117871 
0.1899999999999954, -1.3980940606207795 
0.1999999999999943, -1.3990474571840033 
0.2099999999999932, -1.39961396994432 
0.2199999999999921, -1.399812422542185 
0.229999999999991, -1.3996713421417 
0.2399999999999899, -1.399225324233352 
0.2499999999999888, -1.3985152226276956 
0.2599999999999877, -1.397592478672693 
0.2699999999999866, -1.3965264255844496 
0.2799999999999855, -1.395410065299219 
0.2899999999999844, -1.3943597606101146 
0.2999999999999833, -1.393502543586433 
0.3099999999999822, -1.3929356261409422 
0.3199999999999811, -1.3926646828044185 
0.32999999999998, -1.3925845391033214 
0.3399999999999789, -1.3925360678519627 
0.3499999999999778, -1.392370904416744 
0.35999999999997667, -1.3919593978051528 
0.36999999999997557, -1.3911512707920606 
0.37999999999997447, -1.3897191454761129 
0.38999999999997337, -1.3873009435261794 
0.39999999999997227, -1.3833615016277965 
0.40999999999997117, -1.3772310759655988 
0.41999999999997006, -1.3683402129402218 
0.42999999999996896, -1.35679253156849 
0.43999999999996786, -1.3441496039517145 
0.44999999999996676, -1.3334607073417162 
0.45999999999996566, -1.3273501287263403 
0.46999999999996456, -1.325755749344773 
0.47999999999996346, -1.3265586139624888 
0.48999999999996235, -1.32785964380227 
0.49999999999996125, -1.3288363680587165 
0.5099999999999602, -1.3293385414934837 
0.519999999999959, -1.3294216195476432 
0.529999999999958, -1.329137979529701 
0.5399999999999568, -1.32847589856747 
0.5499999999999557, -1.3273525293736772 
0.5599999999999546, -1.3256596241084426 
0.5699999999999535, -1.3234642837615123 
0.5799999999999524, -1.3215296793323617 
0.5899999999999513, -1.3219291086539555 
0.5999999999999502, -1.3273697858529887 
0.6099999999999491, -1.3384411013127215 
0.619999999999948, -1.3522334077314462 
0.6299999999999469, -1.3649095724158766 
0.6399999999999458, -1.3744291442401573 
0.6499999999999447, -1.3806727937077097 
0.6599999999999436, -1.3843856106239838 
0.6699999999999425, -1.3864012711737992 
0.6799999999999414, -1.387353553239352 
0.6899999999999403, -1.387651532175893 
0.6999999999999392, -1.3875410759360467 
0.7099999999999381, -1.3871781836736512 
0.719999999999937, -1.386695411639799 
0.7299999999999359, -1.3862499065735339 
0.7399999999999348, -1.3860207441495789 
0.7499999999999337, -1.3861355183582371 
0.7599999999999326, -1.3865932166741708 
0.7699999999999315, -1.3872778897992384 
0.7799999999999304, -1.388037221870261 
0.7899999999999293, -1.3887390776819604 
0.7999999999999282, -1.389286454066749 
0.8099999999999271, -1.3896136632083826 
0.819999999999926, -1.3896776150628367 
0.8299999999999249, -1.3894493086933877 
0.8399999999999238, -1.3889084786244499 
0.8499999999999227, -1.3880419973514402 
0.8599999999999216, -1.3868457051350636 
0.8699999999999205, -1.3853306126707876 
0.8799999999999194, -1.383535937430304 
0.8899999999999183, -1.3815512314456102 
0.8999999999999172, -1.379543779409638 
0.9099999999999161, -1.377763989532883 
0.919999999999915, -1.3764707456349647 
0.9299999999999139, -1.3757730218365105 
0.9399999999999128, -1.375542084159759 
0.9499999999999117, -1.3755167995541364 
0.9599999999999106, -1.375463886246883 
0.9699999999999095, -1.3752263525634687 
0.9799999999999084, -1.37467342235569 
0.9899999999999073, -1.373619474755354 
0.9999999999999062, -1.3717293924923126 
1.0099999999999052, -1.3684002242545916 
1.019999999999904, -1.3626484304010618 
1.029999999999903, -1.35318986677806 
1.039999999999902, -1.339191214813661 
1.0499999999999008, -1.3220600100032533 
1.0599999999998997, -1.3066844013336694 
1.0699999999998986, -1.2984427511920358 
1.0799999999998975, -1.2978995322524505 
1.0899999999998964, -1.3012103456946758 
1.0999999999998953, -1.304825943487745 
1.1099999999998942, -1.3073947611985541 
1.119999999999893, -1.308878889758643 
1.129999999999892, -1.309576918768912 
1.1399999999998909, -1.3097427692208334 
1.1499999999998898, -1.3095185909784017 
1.1599999999998887, -1.3089560783285612 
1.1699999999998876, -1.3080620575320316 
1.1799999999998865, -1.3068926194623134 
1.1899999999998854, -1.3057603114973626 
1.1999999999998843, -1.3055262689369582 
1.2099999999998832, -1.307563719276987 
1.219999999999882, -1.3128325646304781 
1.229999999999881, -1.3207682292630172 
1.2399999999998799, -1.329577448665058 
1.2499999999998788, -1.3375553970639185 
1.2599999999998777, -1.3438303519616448 
1.2699999999998766, -1.3482722330929329 
1.2799999999998755, -1.351141752182086 
1.2899999999998744, -1.3528180681618889 
1.2999999999998733, -1.3536531308681574 
1.3099999999998722, -1.3539176678226421 
1.319999999999871, -1.353801096430185 
1.32999999999987, -1.3534383208018657 
1.3399999999998689, -1.3529462718076581 
1.3499999999998678, -1.3524535302160927 
1.3599999999998666, -1.3520986355189712 
1.3699999999998655, -1.3519860234956194 
1.3799999999998644, -1.3521383121593726 
1.3899999999998633, -1.3524972310862622 
1.3999999999998622, -1.3529630131812813 
1.4099999999998611, -1.3534291082566237 
1.41999999999986, -1.3538001911330446 
1.429999999999859, -1.3539996686288003 
1.4399999999998578, -1.3539690023014963 
1.4499999999998567, -1.3536624602772591 
1.4599999999998556, -1.353042951563276 
1.4699999999998545, -1.352081399971217 
1.4799999999998534, -1.3507591102589025 
1.4899999999998523, -1.3490732899278934 
1.4999999999998512, -1.3470485025600605 
1.5099999999998501, -1.3447580823832275 
1.519999999999849, -1.3423553424382098 
1.529999999999848, -1.3400950940743086 
1.5399999999998468, -1.3382897789399801 
1.5499999999998457, -1.3371576103138016 
1.5599999999998446, -1.3366672062980036 
1.5699999999998435, -1.3365688294454543 
1.5799999999998424, -1.3365765636909601 
1.5899999999998413, -1.3364875109585452 
1.5999999999998402, -1.3361705335375718 
1.6099999999998391, -1.3354958225427258 
1.619999999999838, -1.3342541274297306 
1.629999999999837, -1.3320634949283465 
1.6399999999998358, -1.3282558034063456 
1.6499999999998347, -1.3217960804895899 
1.6599999999998336, -1.311460807457611 
1.6699999999998325, -1.296729547308555 
1.6799999999998314, -1.2794757441526592 
1.6899999999998303, -1.264578885884939 
1.6999999999998292, -1.2566689017753125 
1.709999999999828, -1.2558455289039545 
1.719999999999827, -1.2586001040365737 
1.729999999999826, -1.2617834403391144 
1.7399999999998248, -1.2641249550034932 
1.7499999999998237, -1.2655172816434155 
1.7599999999998226, -1.2661897330077643 
1.7699999999998215, -1.2663574864399858 
1.7799999999998204, -1.2661436302733677 
1.7899999999998193, -1.265585562369378 
1.7999999999998182, -1.2646626413389979 
1.809999999999817, -1.2633592846540016 
1.819999999999816, -1.2618332080951316 
1.8299999999998149, -1.260756105445466 
1.8399999999998138, -1.2616180441812048 
1.8499999999998127, -1.2662295214107755 
1.8599999999998116, -1.275118993993815 
1.8699999999998105, -1.2865959309674946 
1.8799999999998094, -1.2979729181870767 
1.8899999999998083, -1.3073346397354246 
1.8999999999998072, -1.3140715675094203 
1.909999999999806, -1.3184487606038005 
1.919999999999805, -1.3210493747393068 
1.9299999999998039, -1.3224395091530352 
1.9399999999998028, -1.323045492294847 
1.9499999999998017, -1.3231493372144287 
1.9599999999998006, -1.3229296983407555 
1.9699999999997995, -1.322513840528186 
1.9799999999997984, -1.3220281573144441 
1.9899999999997973, -1.3216309473190315 
1.9999999999997962, -1.321495224580444 
2.0099999999998173, -1.3217331733969708 
2.0199999999998384, -1.3223305487960029 
2.0299999999998595, -1.3231657293685535 
2.0399999999998806, -1.3240834456112114 
2.0499999999999017, -1.3249492442545867 
2.059999999999923, -1.325665991178087 
2.069999999999944, -1.3261707009441934 
2.079999999999965, -1.3264258766283303 
2.089999999999986, -1.3264112187599564 
2.100000000000007, -1.3261180931758507 
2.1100000000000283, -1.325547093620297 
2.1200000000000494, -1.324708287476708 
2.1300000000000705, -1.3236242077724256 
2.1400000000000916, -1.3223359921319446 
2.1500000000001127, -1.3209120660196627 
2.160000000000134, -1.3194565330481158 
2.170000000000155, -1.3181102929442965 
2.180000000000176, -1.3170287990865464 
2.190000000000197, -1.3163209076011784 
2.2000000000002182, -1.3159787425491845 
2.2100000000002393, -1.315874099756911 
2.2200000000002604, -1.3158324997291053 
2.2300000000002815, -1.31570170548444 
2.2400000000003026, -1.3153591154934663 
2.2500000000003237, -1.3146751554680878 
2.260000000000345, -1.313463333424418 
2.270000000000366, -1.311431309676233 
2.280000000000387, -1.308147155435742 
2.290000000000408, -1.3030582927955814 
2.3000000000004293, -1.2956336703058002 
2.3100000000004504, -1.2857065945053439 
2.3200000000004715, -1.2739919855435773 
2.3300000000004926, -1.262411573714925 
2.3400000000005137, -1.2534783332492865 
2.3500000000005348, -1.2486481276933608 
2.360000000000556, -1.2473277819997484 
2.370000000000577, -1.2478151271458153 
2.380000000000598, -1.2487326970211103 
2.390000000000619, -1.249452574998847 
2.4000000000006403, -1.2498181360295404 
2.4100000000006614, -1.2498348096746585 
2.4200000000006825, -1.2495134784814532 
2.4300000000007036, -1.248807848022102 
2.4400000000007247, -1.247582089335902 
2.450000000000746, -1.2455920546431387 
2.460000000000767, -1.2425310817196142 
2.470000000000788, -1.2383136753877015 
2.480000000000809, -1.2338497121589307 
2.49000000000083, -1.2319894495336643 
2.5000000000008513, -1.236693397937054 
2.5100000000008724, -1.2491682648246292 
2.5200000000008935, -1.2655569657867356 
2.5300000000009146, -1.280458104486547 
2.5400000000009357, -1.2911515937546194 
2.550000000000957, -1.297757574523438 
2.560000000000978, -1.301464088753448 
2.570000000000999, -1.3033821003446933 
2.58000000000102, -1.3042511292389554 
2.5900000000010412, -1.3044971670869583 
2.6000000000010624, -1.3043493833263962 
2.6100000000010835, -1.303936428570573 
2.6200000000011046, -1.303367698695602 
2.6300000000011257, -1.3028172127217004 
2.6400000000011468, -1.3025878025567423 
2.650000000001168, -1.3030601044359922 
2.660000000001189, -1.304470536577786 
2.67000000000121, -1.3067103153841424 
2.680000000001231, -1.3093954200277438 
2.6900000000012523, -1.3121083717825015 
2.7000000000012734, -1.3145546555523602 
2.7100000000012945, -1.3165787052836981 
2.7200000000013156, -1.3181220357945187 
2.7300000000013367, -1.3191836668958694 
2.740000000001358, -1.3197961251272983 
2.750000000001379, -1.3200115368949992 
2.7600000000014, -1.3198919201011754 
2.770000000001421, -1.3195029478578044 
2.780000000001442, -1.3189135391499975 
2.7900000000014633, -1.318201058447064 
2.8000000000014844, -1.3174552951194625 
2.8100000000015055, -1.3167715810093308 
2.8200000000015266, -1.3162326108098787 
2.8300000000015477, -1.3158896789787138 
2.840000000001569, -1.315748914260057 
2.85000000000159, -1.3157635814887265 
2.860000000001611, -1.315843345760165 
2.870000000001632, -1.315881733524386 
2.8800000000016532, -1.315779109799979 
2.8900000000016743, -1.315444724580387 
2.9000000000016954, -1.3147852266726485 
2.9100000000017165, -1.31369515878613 
2.9200000000017377, -1.3120589072928905 
2.9300000000017588, -1.3097658514120036 
2.94000000000178, -1.3067363024801373 
2.950000000001801, -1.302958382082656 
2.960000000001822, -1.2985432990884804 
2.970000000001843, -1.2938008517789226 
2.9800000000018643, -1.2892864916164726 
2.9900000000018854, -1.2856867032963002 
3.0000000000019065, -1.2834666775412704 
3.0100000000019276, -1.2825521945194458 
3.0200000000019487, -1.2824429811666669 
3.03000000000197, -1.2826110877244932 
3.040000000001991, -1.2827300074504762 
3.050000000002012, -1.2826485466174016 
3.060000000002033, -1.2822815131678649 
3.070000000002054, -1.2815170857612572 
3.0800000000020753, -1.2801395566398748 
3.0900000000020964, -1.277739625714844 
3.1000000000021175, -1.2736087503157767 
3.1100000000021386, -1.2667120204944 
3.1200000000021597, -1.2560698824129573 
3.130000000002181, -1.2420468719009745 
3.140000000002202, -1.2280344477270364 
3.150000000002223, -1.219514916207729 
3.160000000002244, -1.2191915007227185 
3.1700000000022652, -1.2244229040315013 
3.1800000000022863, -1.2307829484644661 
3.1900000000023074, -1.2357718162330467 
3.2000000000023285, -1.2389598171096075 
3.2100000000023496, -1.2407526649114922 
3.2200000000023707, -1.2416268733663127 
3.230000000002392, -1.2419116316616312 
3.240000000002413, -1.2417885595621336 
3.250000000002434, -1.2413354738366036 
3.260000000002455, -1.2405722682760896 
3.2700000000024763, -1.2395273157533535 
3.2800000000024974, -1.2383747736423678 
3.2900000000025185, -1.2376725559233888 
3.3000000000025396, -1.238532599969868 
3.3100000000025607, -1.2422429073180439 
3.3200000000025818, -1.2492234167729825 
3.330000000002603, -1.258403496623727 
3.340000000002624, -1.2679134747090968 
3.350000000002645, -1.2762191113172503 
3.360000000002666, -1.2826094110830506 
3.3700000000026873, -1.2870543210573646 
3.3800000000027084, -1.2898791758506674 
3.3900000000027295, -1.2915042751280843 
3.4000000000027506, -1.2923019024985234 
3.4100000000027717, -1.2925479935822226 
3.420000000002793, -1.29242948448319 
3.430000000002814, -1.2920766704341742 
3.440000000002835, -1.2916038044556732 
3.450000000002856, -1.2911445228946985 
3.460000000002877, -1.2908578166373221 
3.4700000000028983, -1.2908822429931335 
3.4800000000029194, -1.291265998839403 
3.4900000000029405, -1.291944967305289 
3.5000000000029616, -1.2927886740117924 
3.5100000000029827, -1.293659930150984 
3.520000000003004, -1.2944467785517058 
3.530000000003025, -1.2950695445594715 
3.540000000003046, -1.2954768029377337 
3.550000000003067, -1.2956381870992357 
3.5600000000030882, -1.2955380327809016 
3.5700000000031094, -1.2951715226579124 
3.5800000000031305, -1.2945433761464804 
3.5900000000031516, -1.2936688209561393 
3.6000000000031727, -1.2925769931183684 
3.6100000000031938, -1.2913167586571777 
3.620000000003215, -1.2899634490923264 
3.630000000003236, -1.2886228264833233 
3.640000000003257, -1.287425617568888 
3.650000000003278, -1.2865007370298227 
3.6600000000032993, -1.2859214989227312 
3.6700000000033204, -1.2856568797420551 
3.6800000000033415, -1.2855818965085728 
3.6900000000033626, -1.2855412685755518 
3.7000000000033837, -1.285399923996731 
3.710000000003405, -1.28504460914071 
3.720000000003426, -1.2843533317777 
3.730000000003447, -1.2831578776710812 
3.740000000003468, -1.2812142259182446 
3.750000000003489, -1.2781956853319956 
3.7600000000035103, -1.273732795550853 
3.7700000000035314, -1.2675281049435025 
3.7800000000035525, -1.2595605763979656 
3.7900000000035736, -1.2503477784478123 
3.8000000000035947, -1.2411086005234364 
3.810000000003616, -1.2334909286309208 
3.820000000003637, -1.228701128115686 
3.830000000003658, -1.2267140655752342 
3.840000000003679, -1.226510339763621 
3.8500000000037002, -1.2269884437341794 
3.8600000000037213, -1.2274939476619164 
3.8700000000037424, -1.227775537694924 
3.8800000000037635, -1.2277704457495449 
3.8900000000037847, -1.227452837592861 
3.9000000000038058, -1.2267549529679267 
3.910000000003827, -1.225514879616131 
3.920000000003848, -1.2234210785125026 
3.930000000003869, -1.2199633645746737 
3.94000000000389, -1.21449289703758 
3.9500000000039113, -1.206671170525869 
3.9600000000039324, -1.1975922807606376 
3.9700000000039535, -1.1907997554028458 
3.9800000000039746, -1.1906618912010518 
3.9900000000039957, -1.198027961863431 
4.000000000004016, -1.2090318857273887 
4.010000000003993, -1.219129817531379 
4.02000000000397, -1.2263131289134566 
4.030000000003946, -1.2307179525885872 
4.040000000003923, -1.2331704886938406 
4.0500000000039, -1.2344071279862385 
4.0600000000038765, -1.234905231067469 
4.070000000003853, -1.2349311663723817 
4.08000000000383, -1.2346165376885359 
4.090000000003807, -1.2340213426553839 
4.100000000003783, -1.2332002797064643 
4.11000000000376, -1.232308612901264 
4.120000000003737, -1.2317622972367814 
4.130000000003713, -1.2323374786271857 
4.14000000000369, -1.2349196752737608 
4.150000000003667, -1.2398512458299593 
4.1600000000036434, -1.246521971994851 
4.17000000000362, -1.2537382614577903 
4.180000000003597, -1.2604062675960481 
4.1900000000035735, -1.2658870079022295 
4.20000000000355, -1.2699823806929296 
4.210000000003527, -1.272783699365842 
4.220000000003504, -1.2745223425842673 
4.23000000000348, -1.2754606388996206 
4.240000000003457, -1.275828607146475 
4.250000000003434, -1.275801991158021 
4.26000000000341, -1.2755100110953177 
4.270000000003387, -1.2750599244145537 
4.280000000003364, -1.274565617238458 
4.2900000000033405, -1.2741614353748205 
4.300000000003317, -1.2739797287297592 
4.310000000003294, -1.2740979330979183 
4.320000000003271, -1.274503348337247 
4.330000000003247, -1.2751100774568631 
4.340000000003224, -1.2758035456806738 
4.350000000003201, -1.276474712681967 
4.360000000003177, -1.2770354843254996 
4.370000000003154, -1.2774220585231082 
4.380000000003131, -1.2775918940523698 
4.390000000003107, -1.2775186427654421 
4.400000000003084, -1.277188124794619 
4.410000000003061, -1.276596318131141 
4.4200000000030375, -1.2757493166698242 
4.430000000003014, -1.2746654758296754 
4.440000000002991, -1.2733801945780576 
4.450000000002968, -1.2719529767554978 
4.460000000002944, -1.2704744857745416 
4.470000000002921, -1.269068431401348 
4.480000000002898, -1.2678779301184995 
4.490000000002874, -1.267023201985331 
4.500000000002851, -1.266539850203767 
4.510000000002828, -1.2663496851770835 
4.520000000002804, -1.2663017876848361 
4.530000000002781, -1.2662418061618674 
4.540000000002758, -1.266044727084323 
4.5500000000027345, -1.265600753866703 
4.560000000002711, -1.2647800306953227 
4.570000000002688, -1.2633971249211684 
4.580000000002665, -1.261187674369447 
4.590000000002641, -1.2578140158602773 
4.600000000002618, -1.2529250463930819 
4.610000000002595, -1.2462925936499178 
4.620000000002571, -1.2380229759945123 
4.630000000002548, -1.22878588743921 
4.640000000002525, -1.2198804541146144 
4.6500000000025015, -1.2128466783715979 
4.660000000002478, -1.208619789815616 
4.670000000002455, -1.2069630112175302 
4.6800000000024315, -1.2068543558687304 
4.690000000002408, -1.2073049591155154 
4.700000000002385, -1.2077517312315402 
4.710000000002362, -1.2079801514516453 
4.720000000002338, -1.2079320188585092 
4.730000000002315, -1.2075742100836497 
4.740000000002292, -1.2068272600835157 
4.750000000002268, -1.2055123639637233 
4.760000000002245, -1.2032893963154074 
4.770000000002222, -1.1995920610997604 
4.7800000000021985, -1.1936496671713674 
4.790000000002175, -1.1848551425354978 
4.800000000002152, -1.1737991774924228 
4.810000000002129, -1.1634585286335637 
4.820000000002105, -1.1583088465244764 
4.830000000002082, -1.1605032390123524 
4.840000000002059, -1.1676893485890836 
4.850000000002035, -1.175729092965935 
4.860000000002012, -1.1820807349775178 
4.870000000001989, -1.1862495914601534 
4.880000000001965, -1.1886901126194718 
4.890000000001942, -1.189980065201162 
4.900000000001919, -1.1905420323646 
4.9100000000018955, -1.1906261382013703 
4.920000000001872, -1.190355921883015 
4.930000000001849, -1.1897729236172034 
4.940000000001826, -1.1888795890312929 
