t, s[1].omega / s[0].omega 
0, -1.0599975212595207 
0.009999999999999995, -1.0596719254862914 
0.019999999999999934, -1.0591962335544873 
0.029999999999999874, -1.0585822071647648 
0.04000000000000012, -1.0578508250480723 
0.050000000000000405, -1.0570338486879096 
0.06000000000000069, -1.056174971812094 
0.07000000000000098, -1.055329249330552 
0.08000000000000126, -1.0545587902883928 
0.09000000000000155, -1.0539234827198065 
0.10000000000000184, -1.0534682648880465 
0.11000000000000212, -1.0532112738595765 
0.12000000000000241, -1.05313797595756 
0.130000000000002, -1.0532045421298517 
0.1400000000000009, -1.0533494320990395 
0.1499999999999998, -1.0535075023052003 
0.1599999999999987, -1.05362027138036 
0.1699999999999976, -1.0536401211854745 
0.1799999999999965, -1.0535306625878373 
0.1899999999999954, -1.0532664422530336 
0.1999999999999943, -1.0528332239212665 
0.2099999999999932, -1.0522280981792 
0.2199999999999921, -1.0514585979933984 
0.229999999999991, -1.0505413506684487 
0.2399999999999899, -1.0495016062397264 
0.2499999999999888, -1.0483742748856155 
0.2599999999999877, -1.047205682594114 
0.2699999999999866, -1.0460541173302436 
0.2799999999999855, -1.0449867759913887 
0.2899999999999844, -1.044071324160409 
0.2999999999999833, -1.0433623466946078 
0.3099999999999822, -1.0428862707434332 
0.3199999999999811, -1.0426315066045295 
0.32999999999998, -1.0425503244814185 
0.3399999999999789, -1.0425726895465757 
0.3499999999999778, -1.0426240786531624 
0.35999999999997667, -1.0426378053608916 
0.36999999999997557, -1.0425586831574578 
0.37999999999997447, -1.0423415268479577 
0.38999999999997337, -1.0419497314088642 
0.39999999999997227, -1.0413567596335258 
0.40999999999997117, -1.0405497523772682 
0.41999999999997006, -1.0395322703653223 
0.42999999999996896, -1.038324019373688 
0.43999999999996786, -1.0369583511053282 
0.44999999999996676, -1.0354801569754934 
0.45999999999996566, -1.0339456837320073 
0.46999999999996456, -1.0324231760157752 
0.47999999999996346, -1.030991283307716 
0.48999999999996235, -1.0297318860192166 
0.49999999999996125, -1.0287157961817894 
0.5099999999999602, -1.027984056370252 
0.519999999999959, -1.0275331070197036 
0.529999999999958, -1.027313792684565 
0.5399999999999568, -1.027246784141771 
0.5499999999999557, -1.0272451663938427 
0.5599999999999546, -1.0272311128753175 
0.5699999999999535, -1.0271409302043313 
0.5799999999999524, -1.0269219225802264 
0.5899999999999513, -1.0265279228907145 
0.5999999999999502, -1.0259186246843481 
0.6099999999999491, -1.0250641312813282 
0.619999999999948, -1.0239521892612378 
0.6299999999999469, -1.0225933192960457 
0.6399999999999458, -1.0210206648842308 
0.6499999999999447, -1.0192858025999003 
0.6599999999999436, -1.0174544472185203 
0.6699999999999425, -1.015604358763366 
0.6799999999999414, -1.0138239677050422 
0.6899999999999403, -1.0122076631134598 
0.6999999999999392, -1.0108439884398561 
0.7099999999999381, -1.009796692410705 
0.719999999999937, -1.0090851414197168 
0.7299999999999359, -1.008675685425873 
0.7399999999999348, -1.0084918246401782 
0.7499999999999337, -1.0084382028741827 
0.7599999999999326, -1.0084238562178045 
0.7699999999999315, -1.00837366604174 
0.7799999999999304, -1.008227714214427 
0.7899999999999293, -1.0079351279241866 
0.7999999999999282, -1.0074493473073827 
0.8099999999999271, -1.0067289110432507 
0.819999999999926, -1.0057441294864877 
0.8299999999999249, -1.0044860727782325 
0.8399999999999238, -1.0029721734973662 
0.8499999999999227, -1.0012450724818263 
0.8599999999999216, -0.9993666662760345 
0.8699999999999205, -0.9974121770730673 
0.8799999999999194, -0.9954668380601165 
0.8899999999999183, -0.9936234404038418 
0.8999999999999172, -0.9919764757138445 
0.9099999999999161, -0.990609514876124 
0.919999999999915, -0.9895768077597061 
0.9299999999999139, -0.9888864073724376 
0.9399999999999128, -0.9884955340061923 
0.9499999999999117, -0.9883234862586161 
0.9599999999999106, -0.9882753878588592 
0.9699999999999095, -0.9882631482690283 
0.9799999999999084, -0.9882148160378348 
0.9899999999999073, -0.9880732046303613 
0.9999999999999062, -0.9877901509634996 
1.0099999999999052, -0.9873226068235785 
1.019999999999904, -0.9866339696111724 
1.029999999999903, -0.985700452720077 
1.039999999999902, -0.9845186829778283 
1.0499999999999008, -0.9831092932991193 
1.0599999999998997, -0.9815141630592183 
1.0699999999998986, -0.9797899689233398 
1.0799999999998975, -0.978002701657543 
1.0899999999998964, -0.9762252073087909 
1.0999999999998953, -0.9745359127668058 
1.1099999999998942, -0.973015007219189 
1.119999999999893, -0.9717352447330982 
1.129999999999892, -0.9707477378197717 
1.1399999999998909, -0.9700676293599507 
1.1499999999998898, -0.9696675943722957 
1.1599999999998887, -0.9694846615307192 
1.1699999999998876, -0.9694376808676667 
1.1799999999998865, -0.9694458631242263 
1.1899999999998854, -0.9694398883022719 
1.1999999999998843, -0.969363971943433 
1.2099999999998832, -0.9691729363037386 
1.219999999999882, -0.9688294968288398 
1.229999999999881, -0.9683049232336722 
1.2399999999998799, -0.9675829497289566 
1.2499999999998788, -0.9666638854797887 
1.2599999999998777, -0.9655653304560617 
1.2699999999998766, -0.9643186520814314 
1.2799999999998755, -0.9629639234622764 
1.2899999999998744, -0.9615467090397715 
1.2999999999998733, -0.9601176623834198 
1.3099999999998722, -0.9587331650233297 
1.319999999999871, -0.957454179988239 
1.32999999999987, -0.9563411488124773 
1.3399999999998689, -0.9554445905523542 
1.3499999999998678, -0.9547936393604596 
1.3599999999998666, -0.9543871597005509 
1.3699999999998655, -0.9541924232065403 
1.3799999999998644, -0.9541530440799629 
1.3899999999998633, -0.954202478943127 
1.3999999999998622, -0.9542764879485052 
1.4099999999998611, -0.9543200986323186 
1.41999999999986, -0.9542892214148233 
1.429999999999859, -0.9541499762569525 
1.4399999999998578, -0.9538785470629545 
1.4499999999998567, -0.9534621755043815 
1.4599999999998556, -0.9528998213239233 
1.4699999999998545, -0.952200854246407 
1.4799999999998534, -0.9513820206102173 
1.4899999999998523, -0.9504647226840252 
1.4999999999998512, -0.9494743527343438 
1.5099999999998501, -0.9484416088469105 
1.519999999999849, -0.9474042992746137 
1.529999999999848, -0.9464078248067637 
1.5399999999998468, -0.9455028350663565 
1.5499999999998457, -0.9447393031143715 
1.5599999999998446, -0.9441577057028676 
1.5699999999998435, -0.9437798145116055 
1.5799999999998424, -0.9436026836989797 
1.5899999999998413, -0.9435987180034479 
1.5999999999998402, -0.9437221278645135 
1.6099999999998391, -0.943918966515449 
1.619999999999838, -0.9441365595359004 
1.629999999999837, -0.9443295262828377 
1.6399999999998358, -0.9444622418863459 
1.6499999999998347, -0.9445091450873948 
1.6599999999998336, -0.9444540352479788 
1.6699999999998325, -0.9442885974535867 
1.6799999999998314, -0.9440103067217149 
1.6899999999998303, -0.9436206297437219 
1.6999999999998292, -0.9431247080129109 
1.709999999999828, -0.9425327225939146 
1.719999999999827, -0.9418619719270611 
1.729999999999826, -0.9411385954240107 
1.7399999999998248, -0.9403984480084313 
1.7499999999998237, -0.9396866563588396 
1.7599999999998226, -0.9390547856971863 
1.7699999999998215, -0.9385545567362635 
1.7799999999998204, -0.9382286225242533 
1.7899999999998193, -0.9381012362483139 
1.7999999999998182, -0.9381726395616168 
1.809999999999817, -0.9384195608261374 
1.819999999999816, -0.9388013623547534 
1.8299999999998149, -0.9392690400776272 
1.8399999999998138, -0.9397736665897624 
1.8499999999998127, -0.9402719576582476 
1.8599999999998116, -0.9407284005957566 
1.8699999999998105, -0.9411146809702042 
1.8799999999998094, -0.9414077492144571 
1.8899999999998083, -0.9415881784146336 
1.8999999999998072, -0.9416403530475131 
1.909999999999806, -0.9415548546759924 
1.919999999999805, -0.9413315851494402 
1.9299999999998039, -0.9409815361513596 
1.9399999999998028, -0.9405265948138883 
1.9499999999998017, -0.9399987080523993 
1.9599999999998006, -0.9394399055086069 
1.9699999999997995, -0.9389029075842741 
1.9799999999997984, -0.9384499179248351 
1.9899999999997973, -0.9381466817894724 
1.9999999999997962, -0.9380512051879295 
2.0099999999998173, -0.9382006984564344 
2.0199999999998384, -0.9386028047355357 
2.0299999999998595, -0.9392352110891323 
2.0399999999998806, -0.940052896717041 
2.0499999999999017, -0.940998685015745 
2.059999999999923, -0.9420124819062071 
2.069999999999944, -0.9430366038967968 
2.079999999999965, -0.9440171652147183 
2.089999999999986, -0.9449035688772869 
2.100000000000007, -0.9456491384303789 
2.1100000000000283, -0.9462150475434152 
2.1200000000000494, -0.9465767014202207 
2.1300000000000705, -0.9467286512716798 
2.1400000000000916, -0.9466844290244252 
2.1500000000001127, -0.9464716861785751 
2.160000000000134, -0.9461266494148848 
2.170000000000155, -0.945691907045607 
2.180000000000176, -0.9452187773590455 
2.190000000000197, -0.9447722482149334 
2.2000000000002182, -0.9444338180440518 
2.2100000000002393, -0.9442965778042158 
2.2200000000002604, -0.94444971249884 
2.2300000000002815, -0.9449567028133183 
2.2400000000003026, -0.945837767505917 
2.2500000000003237, -0.947065522200879 
2.260000000000345, -0.9485740213033494 
2.270000000000366, -0.9502737499798233 
2.280000000000387, -0.9520646143053201 
2.290000000000408, -0.9538437634436094 
2.3000000000004293, -0.9555104393062788 
2.3100000000004504, -0.9569725839921587 
2.3200000000004715, -0.9581578406734925 
2.3300000000004926, -0.9590256612658286 
2.3400000000005137, -0.9595728369959889 
2.3500000000005348, -0.959827755076198 
2.360000000000556, -0.9598368788817814 
2.370000000000577, -0.9596517636487778 
2.380000000000598, -0.9593228705371551 
2.390000000000619, -0.9589017523961791 
2.4000000000006403, -0.9584498868554363 
2.4100000000006614, -0.9580502007532552 
2.4200000000006825, -0.9578144270603024 
2.4300000000007036, -0.9578771178061458 
2.4400000000007247, -0.9583706534844284 
2.450000000000746, -0.9593877945441083 
2.460000000000767, -0.960950534793415 
2.470000000000788, -0.9630018369830031 
2.480000000000809, -0.9654205113609537 
2.49000000000083, -0.9680461343754715 
2.5000000000008513, -0.9707019164348287 
2.5100000000008724, -0.9732132605077805 
2.5200000000008935, -0.9754266647785718 
2.5300000000009146, -0.9772311338954042 
2.5400000000009357, -0.9785753055300302 
2.550000000000957, -0.979469210261097 
2.560000000000978, -0.9799676913171649 
2.570000000000999, -0.9801451678973576 
2.58000000000102, -0.9800750170442883 
2.5900000000010412, -0.9798205350720741 
2.6000000000010624, -0.9794373945940593 
2.6100000000010835, -0.9789848190985528 
2.6200000000011046, -0.9785421875133448 
2.6300000000011257, -0.9782253465669193 
2.6400000000011468, -0.9781915960383953 
2.650000000001168, -0.97861993276672 
2.660000000001189, -0.9796637154950556 
2.67000000000121, -0.9813953660784319 
2.680000000001231, -0.9837748648614963 
2.6900000000012523, -0.9866577004030409 
2.7000000000012734, -0.9898302214979504 
2.7100000000012945, -0.9930504940585214 
2.7200000000013156, -0.9960837269962809 
2.7300000000013367, -0.9987335985051443 
2.740000000001358, -1.0008702480822504 
2.750000000001379, -1.0024464535525093 
2.7600000000014, -1.0034913832761583 
2.770000000001421, -1.004083467918441 
2.780000000001442, -1.0043174145654301 
2.7900000000014633, -1.0042805952248786 
2.8000000000014844, -1.0040444008547653 
2.8100000000015055, -1.003668466036455 
2.8200000000015266, -1.003213976697341 
2.8300000000015477, -1.0027626524407387 
2.840000000001569, -1.002435431426275 
2.85000000000159, -1.0023983401181125 
2.860000000001611, -1.0028397307259038 
2.870000000001632, -1.0039158963352723 
2.8800000000016532, -1.005689688704671 
2.8900000000016743, -1.008100262505957 
2.9000000000016954, -1.010979707755276 
2.9100000000017165, -1.014098273310125 
2.9200000000017377, -1.0172108279015835 
2.9300000000017588, -1.020092576538426 
2.94000000000178, -1.0225665909217942 
2.950000000001801, -1.0245253667937795 
2.960000000001822, -1.025940080416154 
2.970000000001843, -1.0268499602647756 
2.9800000000018643, -1.0273351026814543 
2.9900000000018854, -1.027486675198108 
3.0000000000019065, -1.0273872521156038 
3.0100000000019276, -1.0271053247487603 
3.0200000000019487, -1.0267017149398372 
3.03000000000197, -1.0262440666307382 
3.040000000001991, -1.025824640664876 
3.050000000002012, -1.0255724444657948 
3.060000000002033, -1.025645629620486 
3.070000000002054, -1.0261947449068083 
3.0800000000020753, -1.0273089101763218 
3.0900000000020964, -1.0289779257151852 
3.1000000000021175, -1.0310948308260384 
3.1100000000021386, -1.0334912176757007 
3.1200000000021597, -1.035978697868912 
3.130000000002181, -1.0383785333140896 
3.140000000002202, -1.0405388066014427 
3.150000000002223, -1.0423463485981879 
3.160000000002244, -1.0437367881191475 
3.1700000000022652, -1.0446985519244998 
3.1800000000022863, -1.0452652328398642 
3.1900000000023074, -1.045497794550721 
3.2000000000023285, -1.0454653854142346 
3.2100000000023496, -1.045233427833139 
3.2200000000023707, -1.0448622599250401 
3.230000000002392, -1.0444147972004019 
3.240000000002413, -1.0439687304984717 
3.250000000002434, -1.043625465719144 
3.260000000002455, -1.043505007590975 
3.2700000000024763, -1.0437200716852335 
3.2800000000024974, -1.0443383627804803 
3.2900000000025185, -1.0453566345339667 
3.3000000000025396, -1.0467036935933316 
3.3100000000025607, -1.0482665234868629 
3.3200000000025818, -1.0499202322653243 
3.330000000002603, -1.0515481883021962 
3.340000000002624, -1.0530507847249275 
3.350000000002645, -1.0543482223906486 
3.360000000002666, -1.0553829406023705 
3.3700000000026873, -1.0561233999201562 
3.3800000000027084, -1.0565663995830976 
3.3900000000027295, -1.0567341376578725 
3.4000000000027506, -1.056666015916744 
3.4100000000027717, -1.0564096856767655 
3.420000000002793, -1.0560164529763032 
3.430000000002814, -1.0555429943441959 
3.440000000002835, -1.0550570230069956 
3.450000000002856, -1.0546406994452813 
3.460000000002877, -1.054384103864741 
3.4700000000028983, -1.054365830692879 
3.4800000000029194, -1.054628800289645 
3.4900000000029405, -1.0551664708330868 
3.5000000000029616, -1.0559277822679747 
3.5100000000029827, -1.0568353402143722 
3.520000000003004, -1.057805226787322 
3.530000000003025, -1.05876065316242 
3.540000000003046, -1.0596379129797913 
3.550000000003067, -1.060386936840537 
3.5600000000030882, -1.060969921492981 
3.5700000000031094, -1.061360826163488 
3.5800000000031305, -1.0615465772656392 
3.5900000000031516, -1.0615286170437817 
3.6000000000031727, -1.0613227604946776 
3.6100000000031938, -1.0609570256519851 
3.620000000003215, -1.06046936371447 
3.630000000003236, -1.0599073596516169 
3.640000000003257, -1.0593294665409314 
3.650000000003278, -1.0588040980790656 
3.6600000000032993, -1.0584020531874867 
3.6700000000033204, -1.0581817253520136 
3.6800000000033415, -1.0581733152686266 
3.6900000000033626, -1.058370838547214 
3.7000000000033837, -1.058735727404907 
3.710000000003405, -1.0592088033389513 
3.720000000003426, -1.059724436818982 
3.730000000003447, -1.0602218114490438 
3.740000000003468, -1.0606510238342675 
3.750000000003489, -1.0609745452138484 
3.7600000000035103, -1.0611660304893167 
3.7700000000035314, -1.061208421782453 
3.7800000000035525, -1.061092660286295 
3.7900000000035736, -1.0608176053631657 
3.8000000000035947, -1.0603909276262649 
3.810000000003616, -1.059830219200755 
3.820000000003637, -1.059163884163382 
3.830000000003658, -1.058431883205145 
3.840000000003679, -1.0576858373697418 
3.8500000000037002, -1.056986513517433 
3.8600000000037213, -1.056396394191334 
3.8700000000037424, -1.0559675548768817 
3.8800000000037635, -1.0557288992186076 
3.8900000000037847, -1.0556783017569153 
3.9000000000038058, -1.0557831871166345 
3.910000000003827, -1.0559893227827228 
3.920000000003848, -1.0562338802979867 
3.930000000003869, -1.0564571158841634 
3.94000000000389, -1.056609042097958 
3.9500000000039113, -1.056651403255245 
3.9600000000039324, -1.0565574134063582 
3.9700000000039535, -1.0563110425936089 
3.9800000000039746, -1.0559061319845984 
3.9900000000039957, -1.0553452314865253 
4.000000000004016, -1.0546386803147205 
4.010000000003993, -1.0538047224597693 
4.02000000000397, -1.052870831272133 
4.030000000003946, -1.0518755511707965 
4.040000000003923, -1.0508694701971573 
4.0500000000039, -1.0499133793609539 
4.0600000000038765, -1.049071780910781 
4.070000000003853, -1.0484014996338538 
4.08000000000383, -1.0479379360473802 
4.090000000003807, -1.0476840800718765 
4.100000000003783, -1.0476080446768805 
4.11000000000376, -1.0476515891871752 
4.120000000003737, -1.0477454820212047 
4.130000000003713, -1.0478234238122597 
4.14000000000369, -1.0478290944735833 
4.150000000003667, -1.047717125771402 
4.1600000000036434, -1.0474521984613019 
4.17000000000362, -1.0470094378923471 
4.180000000003597, -1.0463762408609398 
4.1900000000035735, -1.0455535850191748 
4.20000000000355, -1.044555372579664 
4.210000000003527, -1.0434065348829387 
4.220000000003504, -1.042141870620135 
4.23000000000348, -1.0408066340186664 
4.240000000003457, -1.0394578674472674 
4.250000000003434, -1.0381639596201169 
4.26000000000341, -1.0369995863727965 
4.270000000003387, -1.0360343574562356 
4.280000000003364, -1.0353164859203017 
4.2900000000033405, -1.0348572561324052 
4.300000000003317, -1.0346250833903405 
4.310000000003294, -1.0345544720547177 
4.320000000003271, -1.034565252865248 
4.330000000003247, -1.0345805633620402 
4.340000000003224, -1.0345354374960163 
4.350000000003201, -1.034376551365517 
4.360000000003177, -1.0340588659414234 
4.370000000003154, -1.0335445144857969 
4.380000000003131, -1.032805903084058 
4.390000000003107, -1.0318311648873912 
4.400000000003084, -1.0306280128518917 
4.410000000003061, -1.0292234201164756 
4.4200000000030375, -1.0276602694466985 
4.430000000003014, -1.025994262367527 
4.440000000002991, -1.0242929157639578 
4.450000000002968, -1.0226352523101716 
4.460000000002944, -1.0211085587945183 
4.470000000002921, -1.0197986219235433 
4.480000000002898, -1.0187726462108737 
4.490000000002874, -1.018059661364469 
4.500000000002851, -1.0176388154409808 
4.510000000002828, -1.0174447532377555 
4.520000000002804, -1.017388385596889 
4.530000000002781, -1.0173802606094482 
4.540000000002758, -1.0173442575557825 
4.5500000000027345, -1.0172191333068583 
4.560000000002711, -1.016953470234979 
4.570000000002688, -1.0165010441792532 
4.580000000002665, -1.0158210955083589 
4.590000000002641, -1.0148841970284104 
4.600000000002618, -1.0136804887960456 
4.610000000002595, -1.012224970420855 
4.620000000002571, -1.0105566765995098 
4.630000000002548, -1.0087334984847245 
4.640000000002525, -1.0068270727471815 
4.6500000000025015, -1.0049200831415193 
4.660000000002478, -1.0031042109086339 
4.670000000002455, -1.001474500010956 
4.6800000000024315, -1.0001166568613469 
4.690000000002408, -0.9990880399647007 
4.700000000002385, -0.9983996544454176 
4.710000000002362, -0.998010426282752 
4.720000000002338, -0.9978398072387795 
4.730000000002315, -0.9977920935815622 
4.740000000002292, -0.9977781683751648 
4.750000000002268, -0.9977252173531579 
4.760000000002245, -0.9975752343824933 
4.770000000002222, -0.9972789574562675 
4.7800000000021985, -0.9967917122097626 
4.790000000002175, -0.9960747555701077 
4.800000000002152, -0.9951020287913928 
4.810000000002129, -0.9938684650244693 
4.820000000002105, -0.9923943554623484 
4.830000000002082, -0.9907230843009577 
4.840000000002059, -0.9889147548617496 
4.850000000002035, -0.987040484070296 
4.860000000002012, -0.9851795624499571 
4.870000000001989, -0.983417557101357 
4.880000000001965, -0.9818413522973997 
4.890000000001942, -0.9805281365180164 
4.900000000001919, -0.9795291554353843 
4.9100000000018955, -0.9788543924007035 
4.920000000001872, -0.9784674166023739 
4.930000000001849, -0.9782955838133871 
