t, s[1].omega / s[0].omega 
0, -1.1299982791223528 
0.009999999999999995, -1.129701146188013 
0.019999999999999934, -1.1291716148995168 
0.029999999999999874, -1.1285086481704303 
0.04000000000000012, -1.1279208452495586 
0.050000000000000405, -1.1276171706055753 
0.06000000000000069, -1.1275778155509955 
0.07000000000000098, -1.1274924883428736 
0.08000000000000126, -1.1270651230973137 
0.09000000000000155, -1.1261315536388372 
0.10000000000000184, -1.124724025829605 
0.11000000000000212, -1.1229866994921704 
0.12000000000000241, -1.1212029130473256 
0.130000000000002, -1.1200019740638356 
0.1400000000000009, -1.1196782841138586 
0.1499999999999998, -1.1195946315048568 
0.1599999999999987, -1.119161137098159 
0.1699999999999976, -1.1177441704258237 
0.1799999999999965, -1.114432200769763 
0.1899999999999954, -1.1090219896306543 
0.1999999999999943, -1.1026445053059692 
0.2099999999999932, -1.097977773189686 
0.2199999999999921, -1.0967253952305172 
0.229999999999991, -1.0967651841026054 
0.2399999999999899, -1.0966064292934756 
0.2499999999999888, -1.0956473650615015 
0.2599999999999877, -1.0919437543007697 
0.2699999999999866, -1.0804051762758022 
0.2799999999999855, -1.058773770717459 
0.2899999999999844, -1.0386004208491104 
0.2999999999999833, -1.0317310247248623 
0.3099999999999822, -1.0316097922483254 
0.3199999999999811, -1.0318845511217578 
0.32999999999998, -1.0316552482507162 
0.3399999999999789, -1.0303805062071576 
0.3499999999999778, -1.0250650835225696 
0.35999999999997667, -1.0064765924804828 
0.36999999999997557, -0.9714299059960763 
0.37999999999997447, -0.943666988450577 
0.38999999999997337, -0.9355991633415737 
0.39999999999997227, -0.9353010674826194 
0.40999999999997117, -0.9356060862084121 
0.41999999999997006, -0.9354960442245384 
0.42999999999996896, -0.9346570007496411 
0.43999999999996786, -0.9317086463495498 
0.44999999999996676, -0.9237433929802229 
0.45999999999996566, -0.9109658525481774 
0.46999999999996456, -0.8989191296697897 
0.47999999999996346, -0.8918152392349804 
0.48999999999996235, -0.8895734261670237 
0.49999999999996125, -0.8893590481217559 
0.5099999999999602, -0.8893617140058276 
0.519999999999959, -0.8890582393334875 
0.529999999999958, -0.8880700960122319 
0.5399999999999568, -0.885970069107607 
0.5499999999999557, -0.8830350074758234 
0.5599999999999546, -0.8800808484004103 
0.5699999999999535, -0.8776161707065506 
0.5799999999999524, -0.875955413553064 
0.5899999999999513, -0.8752179164598815 
0.5999999999999502, -0.8750705816779891 
0.6099999999999491, -0.8750318486989659 
0.619999999999948, -0.8748115073878878 
0.6299999999999469, -0.8742952663933703 
0.6399999999999458, -0.8735639905997705 
0.6499999999999447, -0.8727725176168637 
0.6599999999999436, -0.8719949759216827 
0.6699999999999425, -0.8713135071392821 
0.6799999999999414, -0.8708683531662246 
0.6899999999999403, -0.8707498400298599 
0.6999999999999392, -0.8708926456452812 
0.7099999999999381, -0.8711270358426219 
0.719999999999937, -0.8713314109401394 
0.7299999999999359, -0.8714796672719534 
0.7399999999999348, -0.8715367225255938 
0.7499999999999337, -0.8714217658305484 
0.7599999999999326, -0.8711487736513276 
0.7699999999999315, -0.870893952007423 
0.7799999999999304, -0.870964780357854 
0.7899999999999293, -0.8715917079134696 
0.7999999999999282, -0.8727269318558571 
0.8099999999999271, -0.8741943071695902 
0.819999999999926, -0.8758115514150124 
0.8299999999999249, -0.8772250793641787 
0.8399999999999238, -0.8780044670489139 
0.8499999999999227, -0.8781551696636558 
0.8599999999999216, -0.8779565897216028 
0.8699999999999205, -0.8777629248627791 
0.8799999999999194, -0.8784924594244106 
0.8899999999999183, -0.8817068318923877 
0.8999999999999172, -0.887987405718369 
0.9099999999999161, -0.8961155799918492 
0.919999999999915, -0.903287393853026 
0.9299999999999139, -0.9070273332513202 
0.9399999999999128, -0.9081626571840392 
0.9499999999999117, -0.9082467065257722 
0.9599999999999106, -0.9078617683548637 
0.9699999999999095, -0.907371259000156 
0.9799999999999084, -0.9096449291171027 
0.9899999999999073, -0.9247077966194487 
0.9999999999999062, -0.9569255123893284 
1.0099999999999052, -0.9856185733043568 
1.019999999999904, -0.997062038928623 
1.029999999999903, -0.9997831822993826 
1.039999999999902, -1.0002006628885944 
1.0499999999999008, -0.9998978398222443 
1.0599999999998997, -0.9990936507989845 
1.0699999999998986, -0.9996074114322545 
1.0799999999998975, -1.0128477242644631 
1.0899999999998964, -1.0461364407437628 
1.0999999999998953, -1.0746507541931059 
1.1099999999998942, -1.0855491676246485 
1.119999999999893, -1.0880727866502147 
1.129999999999892, -1.0884101138228748 
1.1399999999998909, -1.0880944420731025 
1.1499999999998898, -1.0876764513416968 
1.1599999999998887, -1.089694049796399 
1.1699999999998876, -1.0975381579292778 
1.1799999999998865, -1.1075331009482465 
1.1899999999998854, -1.1148522777639405 
1.1999999999998843, -1.1182601597241364 
1.2099999999998832, -1.1192056542565862 
1.219999999999882, -1.1191959024618021 
1.229999999999881, -1.1189100695951681 
1.2399999999998799, -1.1191325878773342 
1.2499999999998788, -1.1207045701493588 
1.2599999999998777, -1.1229960933876308 
1.2699999999998766, -1.1250886184670585 
1.2799999999998755, -1.1265927923379442 
1.2899999999998744, -1.1273321239439007 
1.2999999999998733, -1.1274182101699655 
1.3099999999998722, -1.1271656456557761 
1.319999999999871, -1.126961230020266 
1.32999999999987, -1.1271528834191151 
1.3399999999998689, -1.1276534092363726 
1.3499999999998678, -1.128172405748471 
1.3599999999998666, -1.1285212884703963 
1.3699999999998655, -1.1286271027548103 
1.3799999999998644, -1.1284596339670312 
1.3899999999998633, -1.1280435759902165 
1.3999999999998622, -1.1275296032523172 
1.4099999999998611, -1.1271463051573207 
1.41999999999986, -1.1270255931864206 
1.429999999999859, -1.1270733511834834 
1.4399999999998578, -1.127019338556559 
1.4499999999998567, -1.1266550148478693 
1.4599999999998556, -1.1259229332886 
1.4699999999998545, -1.1248816088309646 
1.4799999999998534, -1.1236318694378025 
1.4899999999998523, -1.1224052914482554 
1.4999999999998512, -1.121637596280007 
1.5099999999998501, -1.1214454951432766 
1.519999999999849, -1.1213360112606232 
1.529999999999848, -1.1208352109230912 
1.5399999999998468, -1.119449426305413 
1.5499999999998457, -1.1167978499069435 
1.5599999999998446, -1.1130746766963753 
1.5699999999998435, -1.109017484640581 
1.5799999999998424, -1.1062127460545452 
1.5899999999998413, -1.1055014290268887 
1.5999999999998402, -1.1054919227015467 
1.6099999999998391, -1.105206158561866 
1.619999999999838, -1.103954061643839 
1.629999999999837, -1.099766880149495 
1.6399999999998358, -1.0896551938136594 
1.6499999999998347, -1.0746435443627504 
1.6599999999998336, -1.0625311700594844 
1.6699999999998325, -1.0590069607930566 
1.6799999999998314, -1.0591002668078946 
1.6899999999998303, -1.0591935976619173 
1.6999999999998292, -1.0587195831526637 
1.709999999999828, -1.056624471498354 
1.719999999999827, -1.0481123343875154 
1.729999999999826, -1.0233092537239377 
1.7399999999998248, -0.9883750877139322 
1.7499999999998237, -0.9691118561836014 
1.7599999999998226, -0.9660778091095834 
1.7699999999998215, -0.9664712192535526 
1.7799999999998204, -0.9666232104453808 
1.7899999999998193, -0.9662262734669708 
1.7999999999998182, -0.9645272626501035 
1.809999999999817, -0.9584368319653483 
1.819999999999816, -0.9431227861447091 
1.8299999999998149, -0.9225426050436928 
1.8399999999998138, -0.9078087224361296 
1.8499999999998127, -0.9025175019299496 
1.8599999999998116, -0.9018868736905261 
1.8699999999998105, -0.9019943377445933 
1.8799999999998094, -0.9018537989750158 
1.8899999999998083, -0.9011085256353506 
1.8999999999998072, -0.8990021881300521 
1.909999999999806, -0.8949305286411295 
1.919999999999805, -0.8898952313957412 
1.9299999999998039, -0.8853693407600184 
1.9399999999998028, -0.8821999074864018 
1.9499999999998017, -0.8807067687203248 
1.9599999999998006, -0.8803588589468277 
1.9699999999997995, -0.8803173080310147 
1.9799999999997984, -0.8801188263730702 
1.9899999999997973, -0.879525024785844 
1.9999999999997962, -0.8784711064697012 
2.0099999999998173, -0.8771892510895718 
2.0199999999998384, -0.8759282670096191 
2.0299999999998595, -0.8748127304281522 
2.0399999999998806, -0.8739780332109588 
2.0499999999999017, -0.873550854369972 
2.059999999999923, -0.8734878784918577 
2.069999999999944, -0.8735670132541948 
2.079999999999965, -0.8735868263342609 
2.089999999999986, -0.8734822994602972 
2.100000000000007, -0.8732879736080454 
2.1100000000000283, -0.8730101470144068 
2.1200000000000494, -0.8726348487138751 
2.1300000000000705, -0.8722500653579551 
2.1400000000000916, -0.8720569865479576 
2.1500000000001127, -0.8722244888598476 
2.160000000000134, -0.8727383241554739 
2.170000000000155, -0.8734634696243271 
2.180000000000176, -0.8742839398502958 
2.190000000000197, -0.8750925340862443 
2.2000000000002182, -0.8756698822873108 
2.2100000000002393, -0.8758415502751459 
2.2200000000002604, -0.8756911418892968 
2.2300000000002815, -0.8754659748943834 
2.2400000000003026, -0.8756702455326149 
2.2500000000003237, -0.8770355288981875 
2.260000000000345, -0.8798291113803548 
2.270000000000366, -0.8836812093383173 
2.280000000000387, -0.8878419751266611 
2.290000000000408, -0.8910060392125503 
2.3000000000004293, -0.8924402969384034 
2.3100000000004504, -0.8927454571699457 
2.3200000000004715, -0.8925393994280795 
2.3300000000004926, -0.8921692585243057 
2.3400000000005137, -0.8928994268168533 
2.3500000000005348, -0.899015135967174 
2.360000000000556, -0.9145820096120324 
2.370000000000577, -0.9348601619630964 
2.380000000000598, -0.9487509307154085 
2.390000000000619, -0.9537428027776034 
2.4000000000006403, -0.9548926769488526 
2.4100000000006614, -0.9549100201715653 
2.4200000000006825, -0.9543902665483387 
2.4300000000007036, -0.9536411377230646 
2.4400000000007247, -0.957145084683231 
2.450000000000746, -0.9807425642749723 
2.460000000000767, -1.022344976195863 
2.470000000000788, -1.0488177308581024 
2.480000000000809, -1.0566548105953162 
2.49000000000083, -1.058234809249725 
2.5000000000008513, -1.0583226849644083 
2.5100000000008724, -1.05784649874791 
2.5200000000008935, -1.0573873209574047 
2.5300000000009146, -1.0613871270659716 
2.5400000000009357, -1.0760994495083445 
2.550000000000957, -1.093795123439611 
2.560000000000978, -1.1046073872093063 
2.570000000000999, -1.1084268263456065 
2.58000000000102, -1.1092529621039269 
2.5900000000010412, -1.1091604263652792 
2.6000000000010624, -1.1088199726894612 
2.6100000000010835, -1.1093567966012683 
2.6200000000011046, -1.112312216924755 
2.6300000000011257, -1.1165642496465529 
2.6400000000011468, -1.120301852139383 
2.650000000001168, -1.1227279043729954 
2.660000000001189, -1.1237424930259932 
2.67000000000121, -1.1238633070571222 
2.680000000001231, -1.1236206349175883 
2.6900000000012523, -1.123519857858271 
2.7000000000012734, -1.1240616761963642 
2.7100000000012945, -1.1250565269942532 
2.7200000000013156, -1.1260404681289398 
2.7300000000013367, -1.1267883761703263 
2.740000000001358, -1.1271968320694978 
2.750000000001379, -1.127212991097043 
2.7600000000014, -1.1269210379411696 
2.770000000001421, -1.126553945146948 
2.780000000001442, -1.1263849810320332 
2.7900000000014633, -1.1264785858780133 
2.8000000000014844, -1.1266786971466103 
2.8100000000015055, -1.1267622609920647 
2.8200000000015266, -1.1265993237548637 
2.8300000000015477, -1.126175475878855 
2.840000000001569, -1.1255183240700724 
2.85000000000159, -1.1247078245485984 
2.860000000001611, -1.123941179440129 
2.870000000001632, -1.1234860624053162 
2.8800000000016532, -1.1233841476811905 
2.8900000000016743, -1.1232917357573775 
2.9000000000016954, -1.1228516269880304 
2.9100000000017165, -1.1218011528732459 
2.9200000000017377, -1.1200981324584152 
2.9300000000017588, -1.1179228302988402 
2.94000000000178, -1.115623387948452 
2.950000000001801, -1.1139927404266168 
2.960000000001822, -1.1135196907439806 
2.970000000001843, -1.113456825725689 
2.9800000000018643, -1.1131030506450947 
2.9900000000018854, -1.1118096325871196 
3.0000000000019065, -1.1083542822658943 
3.0100000000019276, -1.1019469251017322 
3.0200000000019487, -1.0937850557596063 
3.03000000000197, -1.087335981168982 
3.040000000001991, -1.0853467874150973 
3.050000000002012, -1.0853712030205864 
3.060000000002033, -1.0853170297126808 
3.070000000002054, -1.0846113346398791 
3.0800000000020753, -1.0817476565754958 
3.0900000000020964, -1.0716907995808607 
3.1000000000021175, -1.0492442770119181 
3.1100000000021386, -1.0243289803648084 
3.1200000000021597, -1.0134702483353595 
3.130000000002181, -1.0125794248660684 
3.140000000002202, -1.0129534842541708 
3.150000000002223, -1.0128922801973912 
3.160000000002244, -1.0120724600275492 
3.1700000000022652, -1.00870989718004 
3.1800000000022863, -0.9963791215513199 
3.1900000000023074, -0.96884474322548 
3.2000000000023285, -0.9402870221234572 
3.2100000000023496, -0.9276471478556165 
3.2200000000023707, -0.9258451026341328 
3.230000000002392, -0.926095055364652 
3.240000000002413, -0.926134779391475 
3.250000000002434, -0.92564654586902 
3.260000000002455, -0.9238593661342965 
3.2700000000024763, -0.918826142839559 
3.2800000000024974, -0.9097882550320723 
3.2900000000025185, -0.8999946273555884 
3.3000000000025396, -0.8928673333660488 
3.3100000000025607, -0.8896217806943744 
3.3200000000025818, -0.8889339863007568 
3.330000000002603, -0.8889193612563884 
3.340000000002624, -0.888772922295628 
3.350000000002645, -0.8881576786224343 
3.360000000002666, -0.8867165228003708 
3.3700000000026873, -0.8844866797787634 
3.3800000000027084, -0.8820606348960436 
3.3900000000027295, -0.8798934358209031 
3.4000000000027506, -0.8782435157426017 
3.4100000000027717, -0.8773172227435332 
3.420000000002793, -0.8770358885866384 
3.430000000002814, -0.8770135898172604 
3.440000000002835, -0.8769160109951267 
3.450000000002856, -0.8765835855002998 
3.460000000002877, -0.876033649941708 
3.4700000000028983, -0.8753908251655645 
3.4800000000029194, -0.8747230906028757 
3.4900000000029405, -0.8740861186885647 
3.5000000000029616, -0.873611516118151 
3.5100000000029827, -0.8734322071561019 
3.520000000003004, -0.8735516126277562 
3.530000000003025, -0.873834490496762 
3.540000000003046, -0.8741371511769545 
3.550000000003067, -0.8744030841958469 
3.5600000000030882, -0.8745934078463257 
3.5700000000031094, -0.8746078179319454 
3.5800000000031305, -0.8744115677840203 
3.5900000000031516, -0.8741362696449668 
3.6000000000031727, -0.8740781493773611 
3.6100000000031938, -0.8745784427053312 
3.620000000003215, -0.8757147051455051 
3.630000000003236, -0.8773125976988672 
3.640000000003257, -0.8791642748745947 
3.650000000003278, -0.880926850901548 
3.6600000000032993, -0.8820654434550136 
3.6700000000033204, -0.8824356357906886 
3.6800000000033415, -0.8823285776810792 
3.6900000000033626, -0.8820622755786865 
3.7000000000033837, -0.8823207522387974 
3.710000000003405, -0.8847422464245777 
3.720000000003426, -0.8906820284741902 
3.730000000003447, -0.8993811723732593 
3.740000000003468, -0.9080269655382244 
3.750000000003489, -0.9132243200703208 
3.7600000000035103, -0.9150223638970033 
3.7700000000035314, -0.9153354672179911 
3.7800000000035525, -0.9150666788212728 
3.7900000000035736, -0.9144963144566826 
3.8000000000035947, -0.915221825603631 
3.810000000003616, -0.9253160206588124 
3.820000000003637, -0.9539548852408473 
3.830000000003658, -0.9863437539370048 
3.840000000003679, -1.002180793597567 
3.8500000000037002, -1.0063606273008099 
3.8600000000037213, -1.007136629668208 
3.8700000000037424, -1.006988828653625 
3.8800000000037635, -1.006315962645815 
3.8900000000037847, -1.0060306323947754 
3.9000000000038058, -1.0140642198576766 
3.910000000003827, -1.0410923643915726 
3.920000000003848, -1.0703814869022508 
3.930000000003869, -1.0842247785185428 
3.94000000000389, -1.0878909568758355 
3.9500000000039113, -1.088528394178598 
3.9600000000039324, -1.08833576608995 
3.9700000000039535, -1.0878711728288095 
3.9800000000039746, -1.0888395294063629 
3.9900000000039957, -1.094780962176451 
4.000000000004016, -1.103861743336934 
4.010000000003993, -1.111396305285216 
4.02000000000397, -1.115455951389844 
4.030000000003946, -1.1167972164216335 
4.040000000003923, -1.1169395799453832 
4.0500000000039, -1.1166764031574166 
4.0600000000038765, -1.1166593639002262 
4.070000000003853, -1.1178160903873842 
4.08000000000383, -1.1199027842487137 
4.090000000003807, -1.1219732661031547 
4.100000000003783, -1.1235685650203948 
4.11000000000376, -1.1244708835310944 
4.120000000003737, -1.1246898718501381 
4.130000000003713, -1.1244899880567951 
4.14000000000369, -1.1242261223728527 
4.150000000003667, -1.1242879353758577 
4.1600000000036434, -1.1247157478107117 
4.17000000000362, -1.125236998002121 
4.180000000003597, -1.1256292424328973 
4.1900000000035735, -1.125794506180375 
4.20000000000355, -1.1256966431562458 
4.210000000003527, -1.1253362762176857 
4.220000000003504, -1.12482394098269 
4.23000000000348, -1.1243802343585783 
4.240000000003457, -1.1241810796608533 
4.250000000003434, -1.1242049213803644 
4.26000000000341, -1.1242081022366515 
4.270000000003387, -1.1239484833585607 
4.280000000003364, -1.123325275083633 
4.2900000000033405, -1.12237505360821 
4.300000000003317, -1.1211855208559913 
4.310000000003294, -1.119930916095507 
4.320000000003271, -1.1189960890512622 
4.330000000003247, -1.1186714877060728 
4.340000000003224, -1.118595282695744 
4.350000000003201, -1.1182630791425054 
4.360000000003177, -1.1172220207460655 
4.370000000003154, -1.1150297238337599 
4.380000000003131, -1.111716794302908 
4.390000000003107, -1.1078183072757546 
4.400000000003084, -1.104566539606698 
4.410000000003061, -1.103319635336064 
4.4200000000030375, -1.1032412636778708 
4.430000000003014, -1.1030957845854643 
4.440000000002991, -1.102280418322232 
4.450000000002968, -1.0994338148926404 
4.460000000002944, -1.091856751712213 
4.470000000002921, -1.0789398101777359 
4.480000000002898, -1.0659389134115778 
4.490000000002874, -1.0601407649267767 
4.500000000002851, -1.0596945629508812 
4.510000000002828, -1.0598814418456393 
4.520000000002804, -1.0596274185723422 
4.530000000002781, -1.0583003734049359 
4.540000000002758, -1.0528750718139472 
4.5500000000027345, -1.0349826765561263 
4.560000000002711, -1.0030580892551955 
4.570000000002688, -0.978652920480101 
4.580000000002665, -0.9723110019107111 
4.590000000002641, -0.972368276582393 
4.600000000002618, -0.9726457486022891 
4.610000000002595, -0.9724371593079064 
4.620000000002571, -0.9712933494679425 
4.630000000002548, -0.9670126214834852 
4.640000000002525, -0.9545160306669491 
4.6500000000025015, -0.9340183500175894 
4.660000000002478, -0.9163940118955779 
4.670000000002455, -0.9086073657645745 
4.6800000000024315, -0.9072589737737513 
4.690000000002408, -0.907353332634305 
4.700000000002385, -0.9073127507424358 
4.710000000002362, -0.9067731439364124 
4.720000000002338, -0.9050752517156097 
4.730000000002315, -0.9012960878742596 
4.740000000002292, -0.8959481863043313 
4.750000000002268, -0.8907476534402248 
4.760000000002245, -0.8868615953172515 
4.770000000002222, -0.8848359855378665 
4.7800000000021985, -0.8842764166309224 
4.790000000002175, -0.8842216796682222 
4.800000000002152, -0.8840798031934824 
4.810000000002129, -0.8835673852890255 
4.820000000002105, -0.8825306363186481 
4.830000000002082, -0.8811386987178433 
4.840000000002059, -0.8797102758146412 
4.850000000002035, -0.878420194505483 
4.860000000002012, -0.8774073393665074 
4.870000000001989, -0.8768221281726487 
4.880000000001965, -0.8766628929134859 
4.890000000001942, -0.8767070978783224 
4.900000000001919, -0.876713567906679 
4.9100000000018955, -0.8765753040729818 
4.920000000001872, -0.8763194435433713 
4.930000000001849, -0.8759877377659973 
