t, s[1].omega / s[0].omega 
0, -0.6399977151785835 
0.009999999999999995, -0.6397811135701365 
0.019999999999999934, -0.639578087365407 
0.029999999999999874, -0.6393636095761865 
0.04000000000000012, -0.6391088289371945 
0.050000000000000405, -0.6387925763075535 
0.06000000000000069, -0.6384079200769217 
0.07000000000000098, -0.6379632286299539 
0.08000000000000126, -0.6374811904606521 
0.09000000000000155, -0.6369998548551404 
0.10000000000000184, -0.6365781822795349 
0.11000000000000212, -0.6363070008119609 
0.12000000000000241, -0.6363253432797655 
0.130000000000002, -0.6368414220721637 
0.1400000000000009, -0.6381563513182525 
0.1499999999999998, -0.6406864931975403 
0.1599999999999987, -0.6449755317251444 
0.1699999999999976, -0.6516767559393688 
0.1799999999999965, -0.6614655678135362 
0.1899999999999954, -0.6748181844628278 
0.1999999999999943, -0.6916129077122012 
0.2099999999999932, -0.7106851659814251 
0.2199999999999921, -0.7297979269142195 
0.229999999999991, -0.7464667312890023 
0.2399999999999899, -0.7591753096001376 
0.2499999999999888, -0.7678431257991964 
0.2599999999999877, -0.7732996082515416 
0.2699999999999866, -0.776550914390432 
0.2799999999999855, -0.778395600518456 
0.2899999999999844, -0.7793586294766628 
0.2999999999999833, -0.7797492453273489 
0.3099999999999822, -0.7797294843905098 
0.3199999999999811, -0.7793592125149573 
0.32999999999998, -0.778614399458422 
0.3399999999999789, -0.7773799395127619 
0.3499999999999778, -0.7754140225016755 
0.35999999999997667, -0.7722753859349358 
0.36999999999997557, -0.7672062577439153 
0.37999999999997447, -0.7589986519132175 
0.38999999999997337, -0.7459992748460283 
0.39999999999997227, -0.7266409146972488 
0.40999999999997117, -0.7008188468238339 
0.41999999999997006, -0.671231363470386 
0.42999999999996896, -0.6426079577022992 
0.43999999999996786, -0.6189218899851946 
0.44999999999996676, -0.6016100257635674 
0.45999999999996566, -0.5900484761809557 
0.46999999999996456, -0.5828150541794198 
0.47999999999996346, -0.5785196953993619 
0.48999999999996235, -0.5760944907013076 
0.49999999999996125, -0.5748055407911498 
0.5099999999999602, -0.5741782937848378 
0.519999999999959, -0.5739171715430808 
0.529999999999958, -0.5738424165934591 
0.5399999999999568, -0.5738459562842133 
0.5499999999999557, -0.5738625595074417 
0.5599999999999546, -0.5738522974775189 
0.5699999999999535, -0.5737913639219095 
0.5799999999999524, -0.5736691220676463 
0.5899999999999513, -0.5734890355354099 
0.5999999999999502, -0.573269896080628 
0.6099999999999491, -0.5730430000540319 
0.619999999999948, -0.5728429579833333 
0.6299999999999469, -0.5726945453162745 
0.6399999999999458, -0.5726017179911976 
0.6499999999999447, -0.5725445594298526 
0.6599999999999436, -0.572486106539662 
0.6699999999999425, -0.572385845265037 
0.6799999999999414, -0.5722128864444233 
0.6899999999999403, -0.5719527433089161 
0.6999999999999392, -0.5716069784796572 
0.7099999999999381, -0.5711897902914427 
0.719999999999937, -0.5707264553745094 
0.7299999999999359, -0.5702569732444824 
0.7399999999999348, -0.5698471930294098 
0.7499999999999337, -0.5696102879185656 
0.7599999999999326, -0.5697433111930371 
0.7699999999999315, -0.5705857058726986 
0.7799999999999304, -0.5727066099250282 
0.7899999999999293, -0.5770181381186841 
0.7999999999999282, -0.5848723814788108 
0.8099999999999271, -0.597993287105089 
0.819999999999926, -0.6179200493401138 
0.8299999999999249, -0.6446751341926755 
0.8399999999999238, -0.675335953110988 
0.8499999999999227, -0.7046345789445085 
0.8599999999999216, -0.7281390350153965 
0.8699999999999205, -0.7445800952312587 
0.8799999999999194, -0.7551250940494882 
0.8899999999999183, -0.7615905667487197 
0.8999999999999172, -0.7654697230569956 
0.9099999999999161, -0.7677569751360948 
0.919999999999915, -0.7690583834115168 
0.9299999999999139, -0.7697264152142721 
0.9399999999999128, -0.7699544684624745 
0.9499999999999117, -0.7698313720938893 
0.9599999999999106, -0.7693661727081563 
0.9699999999999095, -0.7684901172861325 
0.9799999999999084, -0.7670384990578936 
0.9899999999999073, -0.7647150584046527 
0.9999999999999062, -0.7610537032082629 
1.0099999999999052, -0.7554280794459973 
1.019999999999904, -0.7472095165654735 
1.029999999999903, -0.7361431071740583 
1.039999999999902, -0.7227618575151035 
1.0499999999999008, -0.7083934571879388 
1.0599999999998997, -0.6946057777869952 
1.0699999999998986, -0.6825678021429792 
1.0799999999998975, -0.6728080178576823 
1.0899999999998964, -0.6653418776139409 
1.0999999999998953, -0.6599033630176219 
1.1099999999998942, -0.656121918040334 
1.119999999999893, -0.6536208743947809 
1.129999999999892, -0.6520628790425522 
1.1399999999998909, -0.6511672388188179 
1.1499999999998898, -0.6507130959405003 
1.1599999999998887, -0.6505349181771355 
1.1699999999998876, -0.6505137842876338 
1.1799999999998865, -0.6505671133487375 
1.1899999999998854, -0.6506391180634898 
1.1999999999998843, -0.6506937136239559 
1.2099999999998832, -0.6507107278344038 
1.219999999999882, -0.6506848701523957 
1.229999999999881, -0.6506251224601375 
1.2399999999998799, -0.6505511471565143 
1.2499999999998788, -0.6504847727850043 
1.2599999999998777, -0.6504386293470877 
1.2699999999998766, -0.6504074946042382 
1.2799999999998755, -0.6503676515607213 
1.2899999999998744, -0.6502853123764771 
1.2999999999998733, -0.650129585970123 
1.3099999999998722, -0.6498828431407838 
1.319999999999871, -0.6495443243765862 
1.32999999999987, -0.6491285982632921 
1.3399999999998689, -0.6486636878910399 
1.3499999999998678, -0.6481930014486503 
1.3599999999998666, -0.6477831599440396 
1.3699999999998655, -0.6475384558200485 
1.3799999999998644, -0.6476220045844195 
1.3899999999998633, -0.6482827638211603 
1.3999999999998622, -0.649885644870346 
1.4099999999998611, -0.6529379903553542 
1.41999999999986, -0.6580976360884537 
1.429999999999859, -0.6661314750665894 
1.4399999999998578, -0.6777666919508298 
1.4499999999998567, -0.6933602360438158 
1.4599999999998556, -0.7123910298690053 
1.4699999999998545, -0.7330718300843191 
1.4799999999998534, -0.7526876796559029 
1.4899999999998523, -0.7688268591708517 
1.4999999999998512, -0.7805051525327246 
1.5099999999998501, -0.7881557769311694 
1.519999999999849, -0.7928374385248259 
1.529999999999848, -0.7955668908737437 
1.5399999999998468, -0.7970752690241512 
1.5499999999998457, -0.7978180747971205 
1.5599999999998446, -0.7980527720624649 
1.5699999999998435, -0.797904687302037 
1.5799999999998424, -0.7974043965633024 
1.5899999999998413, -0.7964979522738764 
1.5999999999998402, -0.7950309595194432 
1.6099999999998391, -0.7927018868715983 
1.619999999999838, -0.7889750686141055 
1.629999999999837, -0.7829505393233498 
1.6399999999998358, -0.7732401981418362 
1.6499999999998347, -0.7580634063418313 
1.6599999999998336, -0.7360116846915438 
1.6699999999998325, -0.707656257353797 
1.6799999999998314, -0.6766344390428556 
1.6899999999998303, -0.6481105576951752 
1.6999999999998292, -0.6256802983621627 
1.709999999999828, -0.6100832528243403 
1.719999999999827, -0.6001785707749299 
1.729999999999826, -0.5943097294120505 
1.7399999999998248, -0.5910382896763826 
1.7499999999998237, -0.5893328585982263 
1.7599999999998226, -0.5885222318477494 
1.7699999999998215, -0.5881937275901477 
1.7799999999998204, -0.5881026465933306 
1.7899999999998193, -0.5881068457015922 
1.7999999999998182, -0.5881236963957324 
1.809999999999817, -0.5881035624958402 
1.819999999999816, -0.5880149429060392 
1.8299999999998149, -0.5878381350731144 
1.8399999999998138, -0.5875652232872918 
1.8499999999998127, -0.587203568780832 
1.8599999999998116, -0.5867781613958185 
1.8699999999998105, -0.586327736740585 
1.8799999999998094, -0.5858932431523525 
1.8899999999998083, -0.585503373200712 
1.8999999999998072, -0.5851647718613486 
1.909999999999806, -0.5848617636610778 
1.919999999999805, -0.5845650466503819 
1.9299999999998039, -0.584244397253989 
1.9399999999998028, -0.5838791647475505 
1.9499999999998017, -0.5834630497684592 
1.9599999999998006, -0.5830042424202173 
1.9699999999997995, -0.5825247516886144 
1.9799999999997984, -0.5820625966356852 
1.9899999999997973, -0.5816792379266553 
1.9999999999997962, -0.5814739326990688 
2.0099999999998173, -0.5816068896533468 
2.0199999999998384, -0.5823335871631281 
2.0299999999998595, -0.5840523177564415 
2.0399999999998806, -0.587363594271762 
2.0499999999999017, -0.5931275263909861 
2.059999999999923, -0.6024707747472309 
2.069999999999944, -0.6166230829739888 
2.079999999999965, -0.6363861263981241 
2.089999999999986, -0.6611675752453732 
2.100000000000007, -0.6882029457061972 
2.1100000000000283, -0.7132964944006489 
2.1200000000000494, -0.7331436321996738 
2.1300000000000705, -0.7469017130446886 
2.1400000000000916, -0.7556177976735131 
2.1500000000001127, -0.7608586156425432 
2.160000000000134, -0.763914976223783 
2.170000000000155, -0.7656410346602837 
2.180000000000176, -0.7665465361530179 
2.190000000000197, -0.766916123000194 
2.2000000000002182, -0.7668923285260048 
2.2100000000002393, -0.7665200423054113 
2.2200000000002604, -0.7657607107344895 
2.2300000000002815, -0.7644806058189205 
2.2400000000003026, -0.7624122894218267 
2.2500000000003237, -0.7590891091203825 
2.260000000000345, -0.7537737297334994 
2.270000000000366, -0.7454691821755979 
2.280000000000387, -0.7332039817339141 
2.290000000000408, -0.716725663913898 
2.3000000000004293, -0.6972111638207965 
2.3100000000004504, -0.6770913738400279 
2.3200000000004715, -0.6588571605243934 
2.3300000000004926, -0.64398568118102 
2.3400000000005137, -0.632788512615156 
2.3500000000005348, -0.6248513752917506 
2.360000000000556, -0.6194945453067604 
2.370000000000577, -0.6160404886260253 
2.380000000000598, -0.61392060274524 
2.390000000000619, -0.6126972851076276 
2.4000000000006403, -0.6120515297753946 
2.4100000000006614, -0.6117599643229259 
2.4200000000006825, -0.6116711329378897 
2.4300000000007036, -0.6116848104336452 
2.4400000000007247, -0.6117357651382574 
2.450000000000746, -0.6117824268589993 
2.460000000000767, -0.6118004002300326 
2.470000000000788, -0.6117801003939115 
2.480000000000809, -0.6117265677940481 
2.49000000000083, -0.6116581231288489 
2.5000000000008513, -0.611600562663695 
2.5100000000008724, -0.6115764418196977 
2.5200000000008935, -0.6115932755949693 
2.5300000000009146, -0.6116367490355242 
2.5400000000009357, -0.6116733423858336 
2.550000000000957, -0.611661828989157 
2.560000000000978, -0.6115676103866519 
2.570000000000999, -0.6113722760532855 
2.58000000000102, -0.6110751989274448 
2.5900000000010412, -0.6106901547675696 
2.6000000000010624, -0.6102424404121753 
2.6100000000010835, -0.6097706613643121 
2.6200000000011046, -0.6093355413278704 
2.6300000000011257, -0.6090377227723305 
2.6400000000011468, -0.6090473584697081 
2.650000000001168, -0.609649208746826 
2.660000000001189, -0.611306236822459 
2.67000000000121, -0.6147386228704714 
2.680000000001231, -0.620994679204266 
2.6900000000012523, -0.6314377289274015 
2.7000000000012734, -0.6474761539389845 
2.7100000000012945, -0.6698016750060403 
2.7200000000013156, -0.6972093402557886 
2.7300000000013367, -0.7260401865996656 
2.740000000001358, -0.7516575486563442 
2.750000000001379, -0.7711154066364385 
2.7600000000014, -0.7842021588750803 
2.770000000001421, -0.7923358334919315 
2.780000000001442, -0.797169204904055 
2.7900000000014633, -0.7999602764609655 
2.8000000000014844, -0.8015131341260963 
2.8100000000015055, -0.8022991688673248 
2.8200000000015266, -0.8025770060804401 
2.8300000000015477, -0.8024701588862388 
2.840000000001569, -0.8020059840824025 
2.85000000000159, -0.8011241567009536 
2.860000000001611, -0.7996571850697521 
2.870000000001632, -0.7972792398908127 
2.8800000000016532, -0.7934195584805341 
2.8900000000016743, -0.7871607373042544 
2.9000000000016954, -0.7772275675724067 
2.9100000000017165, -0.762322964815825 
2.9200000000017377, -0.7420431998236083 
2.9300000000017588, -0.7179109520677466 
2.94000000000178, -0.693215663776227 
2.950000000001801, -0.6713211090787091 
2.960000000001822, -0.6540961833112371 
2.970000000001843, -0.6417383153010972 
2.9800000000018643, -0.6334788924576008 
2.9900000000018854, -0.6282742826456685 
3.0000000000019065, -0.6251738181774171 
3.0100000000019276, -0.6234397447270363 
3.0200000000019487, -0.6225475594229213 
3.03000000000197, -0.6221451859280152 
3.040000000001991, -0.6220059515811126 
3.050000000002012, -0.6219880414532686 
3.060000000002033, -0.622003693961304 
3.070000000002054, -0.6219979072447581 
3.0800000000020753, -0.6219354657955429 
3.0900000000020964, -0.6217950427825363 
3.1000000000021175, -0.6215688337271762 
3.1100000000021386, -0.6212648582429858 
3.1200000000021597, -0.6209073266429229 
3.130000000002181, -0.6205308222042848 
3.140000000002202, -0.6201683003775547 
3.150000000002223, -0.619838328768775 
3.160000000002244, -0.6195384950778388 
3.1700000000022652, -0.6192483439111551 
3.1800000000022863, -0.6189397594319701 
3.1900000000023074, -0.6185889577782312 
3.2000000000023285, -0.6181845181429286 
3.2100000000023496, -0.6177298735095352 
3.2200000000023707, -0.6172428784243642 
3.230000000002392, -0.6167564037690928 
3.240000000002413, -0.6163228027991232 
3.250000000002434, -0.6160236125158589 
3.260000000002455, -0.6159850261467645 
3.2700000000024763, -0.6163992491016657 
3.2800000000024974, -0.6175511644167869 
3.2900000000025185, -0.61984793649959 
3.3000000000025396, -0.6238445320886677 
3.3100000000025607, -0.6302466777553559 
3.3200000000025818, -0.6398483752198982 
3.330000000002603, -0.6533248968506762 
3.340000000002624, -0.6707988806886606 
3.350000000002645, -0.6912632628331994 
3.360000000002666, -0.712364135229808 
3.3700000000026873, -0.7311971044261564 
3.3800000000027084, -0.7457845239141606 
3.3900000000027295, -0.755824125900608 
3.4000000000027506, -0.7621763655283966 
3.4100000000027717, -0.7659821509908112 
3.420000000002793, -0.7681681986678923 
3.430000000002814, -0.7693488938889832 
3.440000000002835, -0.7698894414176163 
3.450000000002856, -0.7699869294264725 
3.460000000002877, -0.7697256717375376 
3.4700000000028983, -0.7691029768330522 
3.4800000000029194, -0.7680282938322345 
3.4900000000029405, -0.7662947003212626 
3.5000000000029616, -0.7635162496912595 
3.5100000000029827, -0.7590263029488568 
3.520000000003004, -0.7517639747886566 
3.530000000003025, -0.7402864306377238 
3.540000000003046, -0.7232304550232784 
3.550000000003067, -0.7004585336599894 
3.5600000000030882, -0.6741512478731982 
3.5700000000031094, -0.648223963545534 
3.5800000000031305, -0.6261346012710887 
3.5900000000031516, -0.6093724869734705 
3.6000000000031727, -0.5976828887950049 
3.6100000000031938, -0.5900144582429017 
3.620000000003215, -0.5852213684721161 
3.630000000003236, -0.5823577305192222 
3.640000000003257, -0.5807321523865978 
3.650000000003278, -0.5798711770622497 
3.6600000000032993, -0.5794634359743009 
3.6700000000033204, -0.5793097614007972 
3.6800000000033415, -0.579285081582954 
3.6900000000033626, -0.5793115385747849 
3.7000000000033837, -0.5793408345839668 
3.710000000003405, -0.5793439456665207 
3.720000000003426, -0.5793066367022499 
3.730000000003447, -0.5792288973434236 
3.740000000003468, -0.5791253019366094 
3.750000000003489, -0.5790224069278348 
3.7600000000035103, -0.5789505966880897 
3.7700000000035314, -0.5789317223812933 
3.7800000000035525, -0.5789677681363197 
3.7900000000035736, -0.5790365448068712 
3.8000000000035947, -0.5790975346580587 
3.810000000003616, -0.579105678558778 
3.820000000003637, -0.5790259048186044 
3.830000000003658, -0.5788410581521968 
3.840000000003679, -0.5785514948661551 
3.8500000000037002, -0.5781704886704815 
3.8600000000037213, -0.57772100670658 
3.8700000000037424, -0.5772376144115048 
3.8800000000037635, -0.576775781790286 
3.8900000000037847, -0.5764312800053977 
3.9000000000038058, -0.5763743670495682 
3.910000000003827, -0.5769060615035306 
3.920000000003848, -0.578544788518473 
3.930000000003869, -0.5821442306005069 
3.94000000000389, -0.5890081254906724 
3.9500000000039113, -0.600866419977708 
3.9600000000039324, -0.6193945759445502 
3.9700000000039535, -0.6449340559205743 
3.9800000000039746, -0.6749426155838554 
3.9900000000039957, -0.7042824317287364 
4.000000000004016, -0.7282853629003758 
4.010000000003993, -0.7453468756117425 
4.02000000000397, -0.7564378918697994 
4.030000000003946, -0.7633190599593752 
4.040000000003923, -0.7674936045598251 
4.0500000000039, -0.7699846722315641 
4.0600000000038765, -0.7714269563172831 
4.070000000003853, -0.7721961187942543 
4.08000000000383, -0.7725033885583499 
4.090000000003807, -0.7724520954170337 
4.100000000003783, -0.7720652126079595 
4.11000000000376, -0.771290665706431 
4.120000000003737, -0.769987285077276 
4.130000000003713, -0.7678936898511654 
4.14000000000369, -0.7645917367225217 
4.150000000003667, -0.7595060633759286 
4.1600000000036434, -0.7520277651443827 
4.17000000000362, -0.741839113683 
4.180000000003597, -0.7293148011429078 
4.1900000000035735, -0.7156057608678659 
4.20000000000355, -0.7021900593669377 
4.210000000003527, -0.6902586894241461 
4.220000000003504, -0.6804216212074133 
4.23000000000348, -0.6727798779682372 
4.240000000003457, -0.6671323752710263 
4.250000000003434, -0.6631498549464715 
4.26000000000341, -0.6604778078151902 
4.270000000003387, -0.6587873111420863 
4.280000000003364, -0.6577971353475213 
4.2900000000033405, -0.65728089629562 
4.300000000003317, -0.657065637434936 
4.310000000003294, -0.6570251738213947 
4.320000000003271, -0.6570708427101716 
4.330000000003247, -0.6571421317469037 
4.340000000003224, -0.6571992213509937 
4.350000000003201, -0.6572186411085986 
4.360000000003177, -0.657191894460998 
4.370000000003154, -0.6571250718437092 
4.380000000003131, -0.6570360856787116 
4.390000000003107, -0.6569470741051411 
4.400000000003084, -0.6568732713595172 
4.410000000003061, -0.6568135337177589 
4.4200000000030375, -0.6567481535187666 
4.430000000003014, -0.6566458234395033 
4.440000000002991, -0.6564760370620133 
4.450000000002968, -0.6562199968746822 
4.460000000002944, -0.6558752832002483 
4.470000000002921, -0.6554550803528143 
4.480000000002898, -0.6549864228529518 
4.490000000002874, -0.6545116814429482 
4.500000000002851, -0.6540954824178884 
4.510000000002828, -0.653837647578307 
4.520000000002804, -0.6538918126647101 
4.530000000002781, -0.6544883809335234 
4.540000000002758, -0.6559587419435406 
4.5500000000027345, -0.6587546945958934 
4.560000000002711, -0.6634514145911011 
4.570000000002688, -0.6707110109054979 
4.580000000002665, -0.6811642933451949 
4.590000000002641, -0.6951530909000789 
4.600000000002618, -0.7123222991090471 
4.610000000002595, -0.7312568816011309 
4.620000000002571, -0.7496386502458303 
4.630000000002548, -0.7651915952876519 
4.640000000002525, -0.7767561680466756 
4.6500000000025015, -0.7845014595682118 
4.660000000002478, -0.7893152828221636 
4.670000000002455, -0.792151021755135 
4.6800000000024315, -0.7937317987727247 
4.690000000002408, -0.794522060225171 
4.700000000002385, -0.7947899758579497 
4.710000000002362, -0.7946700828347393 
4.720000000002338, -0.7942016195402523 
4.730000000002315, -0.793341195301623 
4.740000000002292, -0.7919506198813459 
4.750000000002268, -0.7897560890894237 
4.760000000002245, -0.7862697183722173 
4.770000000002222, -0.7806671348814616 
4.7800000000021985, -0.7716527281008967 
4.790000000002175, -0.7574802476750072 
4.800000000002152, -0.7365475617291354 
4.810000000002129, -0.708909298657485 
4.820000000002105, -0.6777078408140198 
4.830000000002082, -0.6481840144917076 
4.840000000002059, -0.6244893071787969 
4.850000000002035, -0.607832019181184 
4.860000000002012, -0.5972170561345865 
4.870000000001989, -0.5909341654680953 
4.880000000001965, -0.5874434946378194 
4.890000000001942, -0.5856309527131802 
4.900000000001919, -0.5847724814648607 
4.9100000000018955, -0.5844254564538282 
4.920000000001872, -0.5843294670755107 
