t, s[1].omega / s[0].omega 
0, -0.7599976686477632 
0.009999999999999995, -0.7597463052207974 
0.019999999999999934, -0.7594532184259741 
0.029999999999999874, -0.7591052482738594 
0.04000000000000012, -0.7586902189269163 
0.050000000000000405, -0.7582051014370125 
0.06000000000000069, -0.757660420325539 
0.07000000000000098, -0.7570814260216888 
0.08000000000000126, -0.7565086370777061 
0.09000000000000155, -0.7559993906263396 
0.10000000000000184, -0.7556297106340838 
0.11000000000000212, -0.7554940788550386 
0.12000000000000241, -0.7557006431726554 
0.130000000000002, -0.756361255978769 
0.1400000000000009, -0.7575785981770186 
0.1499999999999998, -0.7594344250197314 
0.1599999999999987, -0.7619818101281022 
0.1699999999999976, -0.7652403712539253 
0.1799999999999965, -0.7691892073903973 
0.1899999999999954, -0.7737508769074485 
0.1999999999999943, -0.7787647469037767 
0.2099999999999932, -0.7839625485750379 
0.2199999999999921, -0.7889782511517056 
0.229999999999991, -0.7934233395884698 
0.2399999999999899, -0.7970090042549591 
0.2499999999999888, -0.7996342862984409 
0.2599999999999877, -0.8013757298911257 
0.2699999999999866, -0.8024037809738802 
0.2799999999999855, -0.8028978247657801 
0.2899999999999844, -0.8029998053028983 
0.2999999999999833, -0.8028029068034016 
0.3099999999999822, -0.8023581780132742 
0.3199999999999811, -0.8016884797964332 
0.32999999999998, -0.8008095743132666 
0.3399999999999789, -0.7997678555859198 
0.3499999999999778, -0.7987137736788149 
0.35999999999997667, -0.7980361651839499 
0.36999999999997557, -0.798568448709493 
0.37999999999997447, -0.8018041121214037 
0.38999999999997337, -0.8098863730376997 
0.39999999999997227, -0.8249424609317437 
0.40999999999997117, -0.8475337029891211 
0.41999999999997006, -0.8751373452032926 
0.42999999999996896, -0.9027009415488709 
0.43999999999996786, -0.9255838754865499 
0.44999999999996676, -0.9419313480122321 
0.45999999999996566, -0.9524192821848239 
0.46999999999996456, -0.9586971863454747 
0.47999999999996346, -0.9622882355567546 
0.48999999999996235, -0.9642537955784896 
0.49999999999996125, -0.9652404726824937 
0.5099999999999602, -0.9656104960750916 
0.519999999999959, -0.965546050751817 
0.529999999999958, -0.9651106991183761 
0.5399999999999568, -0.9642762445526394 
0.5499999999999557, -0.9629258309087835 
0.5599999999999546, -0.9608460723398698 
0.5699999999999535, -0.957735605674381 
0.5799999999999524, -0.9532961151248147 
0.5899999999999513, -0.9475236146679649 
0.5999999999999502, -0.9412722577352065 
0.6099999999999491, -0.9367755928183239 
0.619999999999948, -0.9371709421635487 
0.6299999999999469, -0.9444382986598481 
0.6399999999999458, -0.9573725642884746 
0.6499999999999447, -0.9721739051218163 
0.6599999999999436, -0.9851931592640499 
0.6699999999999425, -0.9947839823918443 
0.6799999999999414, -1.001067555013354 
0.6899999999999403, -1.0048805036243886 
0.6999999999999392, -1.0070601181172967 
0.7099999999999381, -1.0082089916001007 
0.719999999999937, -1.008697335359858 
0.7299999999999359, -1.0087233634226629 
0.7399999999999348, -1.0083626335718523 
0.7499999999999337, -1.0075910328826545 
0.7599999999999326, -1.0062820754140602 
0.7699999999999315, -1.004184215671513 
0.7799999999999304, -1.0008973067978757 
0.7899999999999293, -0.9959098830050281 
0.7999999999999282, -0.9888413573893958 
0.8099999999999271, -0.9800664568583505 
0.819999999999926, -0.9715559242219536 
0.8299999999999249, -0.966871170882888 
0.8399999999999238, -0.9691332705685378 
0.8499999999999227, -0.9782520550309866 
0.8599999999999216, -0.9907633517671085 
0.8699999999999205, -1.002646570918397 
0.8799999999999194, -1.0117316217098922 
0.8899999999999183, -1.0177906707418374 
0.8999999999999172, -1.0214944525365888 
0.9099999999999161, -1.0236133898170106 
0.919999999999915, -1.024723742530273 
0.9299999999999139, -1.0251840353856723 
0.9399999999999128, -1.0251857777941416 
0.9499999999999117, -1.02479912493559 
0.9599999999999106, -1.0239942064783167 
0.9699999999999095, -1.0226381170648673 
0.9799999999999084, -1.0204755359220345 
0.9899999999999073, -1.0171202901353873 
0.9999999999999062, -1.0121392762610841 
1.0099999999999052, -1.0054001260510121 
1.019999999999904, -0.9978357458620734 
1.029999999999903, -0.9922423962784299 
1.039999999999902, -0.9926910652017529 
1.0499999999999008, -1.0016006642837172 
1.0599999999998997, -1.0169984183535177 
1.0699999999998986, -1.03379465307987 
1.0799999999998975, -1.047743998507463 
1.0899999999998964, -1.0574381605825145 
1.0999999999998953, -1.0634563796682028 
1.1099999999998942, -1.0669318547753182 
1.119999999999893, -1.0688169040293845 
1.129999999999892, -1.0697331551464302 
1.1399999999998909, -1.0700353464727725 
1.1499999999998898, -1.0698983108064972 
1.1599999999998887, -1.0693752420692815 
1.1699999999998876, -1.0684271995942722 
1.1799999999998865, -1.066941288730541 
1.1899999999998854, -1.0647770987266298 
1.1999999999998843, -1.061931891932182 
1.2099999999998832, -1.0589777825457816 
1.219999999999882, -1.0578161335369778 
1.229999999999881, -1.0621175300804349 
1.2399999999998799, -1.075855379741999 
1.2499999999998788, -1.0995333579353135 
1.2599999999998777, -1.1280090276951005 
1.2699999999998766, -1.153921053881893 
1.2799999999998755, -1.1729612891186907 
1.2899999999998744, -1.185001315922595 
1.2999999999998733, -1.1919119969515126 
1.3099999999998722, -1.1956310923014715 
1.319999999999871, -1.1975062006428505 
1.32999999999987, -1.1983285408889914 
1.3399999999998689, -1.1985227651570043 
1.3499999999998678, -1.1983034449564613 
1.3599999999998666, -1.197780908350302 
1.3699999999998655, -1.1970498538672047 
1.3799999999998644, -1.1963016105733126 
1.3899999999998633, -1.1959660309690485 
1.3999999999998622, -1.1967665619464583 
1.4099999999998611, -1.1994582240039091 
1.41999999999986, -1.2042835031444146 
1.429999999999859, -1.210701009601788 
1.4399999999998578, -1.217721448548718 
1.4499999999998567, -1.2244285316340275 
1.4599999999998556, -1.2302313653911388 
1.4699999999998545, -1.2348580666427225 
1.4799999999998534, -1.2382686079751226 
1.4899999999998523, -1.2405738330818366 
1.4999999999998512, -1.2419664691528935 
1.5099999999998501, -1.2426602153155284 
1.519999999999849, -1.2428464769712397 
1.529999999999848, -1.2426781394572162 
1.5399999999998468, -1.2422788614313802 
1.5499999999998457, -1.24176767243227 
1.5599999999998446, -1.2412811641321901 
1.5699999999998435, -1.2409681238196029 
1.5799999999998424, -1.2409448288718674 
1.5899999999998413, -1.2412442632746212 
1.5999999999998402, -1.2418103411094457 
1.6099999999998391, -1.242536397658252 
1.619999999999838, -1.2433060480159774 
1.629999999999837, -1.244015657069992 
1.6399999999998358, -1.2445834833085896 
1.6499999999998347, -1.2449513235852945 
1.6599999999998336, -1.2450813833725696 
1.6699999999998325, -1.2449516075215978 
1.6799999999998314, -1.2445518764034724 
1.6899999999998303, -1.2438819093470912 
1.6999999999998292, -1.242951313483459 
1.709999999999828, -1.2417822304033537 
1.719999999999827, -1.2404145347461644 
1.729999999999826, -1.2389124111072713 
1.7399999999998248, -1.2373697849420227 
1.7499999999998237, -1.2359108037523379 
1.7599999999998226, -1.2346774385291581 
1.7699999999998215, -1.2337909844667465 
1.7799999999998204, -1.2332916820075819 
1.7899999999998193, -1.2331045213116147 
1.7999999999998182, -1.2330743172835021 
1.809999999999817, -1.2330353982763322 
1.819999999999816, -1.2328489769118889 
1.8299999999998149, -1.2323922788009243 
1.8399999999998138, -1.2315252458301167 
1.8499999999998127, -1.2300601019079127 
1.8599999999998116, -1.2277500161931367 
1.8699999999998105, -1.2243108284055573 
1.8799999999998094, -1.2194835693892152 
1.8899999999998083, -1.213129669923775 
1.8999999999998072, -1.205341778979013 
1.909999999999806, -1.1965587516566072 
1.919999999999805, -1.1876470170840467 
1.9299999999998039, -1.1798079423389247 
1.9399999999998028, -1.1741372853512382 
1.9499999999998017, -1.1710077710140347 
1.9599999999998006, -1.169894267394699 
1.9699999999997995, -1.1698700470692072 
1.9799999999997984, -1.1701834458213847 
1.9899999999997973, -1.1704326849117224 
1.9999999999997962, -1.1704530477648236 
2.0099999999998173, -1.170164520362054 
2.0199999999998384, -1.1694653648664728 
2.0299999999998595, -1.1681508143830888 
2.0399999999998806, -1.1658153411439423 
2.0499999999999017, -1.1617079906994576 
2.059999999999923, -1.1545569128891326 
2.069999999999944, -1.1425300397278344 
2.079999999999965, -1.1237949898264046 
2.089999999999986, -1.0981939026686525 
2.100000000000007, -1.0692523141009946 
2.1100000000000283, -1.0435893492523238 
2.1200000000000494, -1.0265996355335492 
2.1300000000000705, -1.0189252007402332 
2.1400000000000916, -1.0175244828480683 
2.1500000000001127, -1.0188838404264726 
2.160000000000134, -1.0208011751130983 
2.170000000000155, -1.022375687101234 
2.180000000000176, -1.0234092898242664 
2.190000000000197, -1.0239520936582633 
2.2000000000002182, -1.024088584235474 
2.2100000000002393, -1.0238601837277577 
2.2200000000002604, -1.0232351649525815 
2.2300000000002815, -1.0220788736592454 
2.2400000000003026, -1.0200988168466212 
2.2500000000003237, -1.0167474080545882 
2.260000000000345, -1.0110829351725399 
2.270000000000366, -1.0016614346952033 
2.280000000000387, -0.9867149749351389 
2.290000000000408, -0.9650637403590181 
2.3000000000004293, -0.9377947128407144 
2.3100000000004504, -0.9091991099679649 
2.3200000000004715, -0.8849153611068911 
2.3300000000004926, -0.8684376345947633 
2.3400000000005137, -0.8596720797162014 
2.3500000000005348, -0.8563294672525897 
2.360000000000556, -0.8558964998019387 
2.370000000000577, -0.8566202270475138 
2.380000000000598, -0.85757274242678 
2.390000000000619, -0.8583693189745925 
2.4000000000006403, -0.8588961220535024 
2.4100000000006614, -0.8591420053553493 
2.4200000000006825, -0.8591140414215493 
2.4300000000007036, -0.8587975788265215 
2.4400000000007247, -0.8581328833927694 
2.450000000000746, -0.8569936139708059 
2.460000000000767, -0.855163755711212 
2.470000000000788, -0.8523246109821045 
2.480000000000809, -0.8480855842934153 
2.49000000000083, -0.8421047571728358 
2.5000000000008513, -0.8342974399531753 
2.5100000000008724, -0.8250090049270892 
2.5200000000008935, -0.8149777002481606 
2.5300000000009146, -0.8050819405935217 
2.5400000000009357, -0.79606627201584 
2.550000000000957, -0.7884054898304628 
2.560000000000978, -0.7823034855461862 
2.570000000000999, -0.7777503175381206 
2.58000000000102, -0.7745866609213821 
2.5900000000010412, -0.7725631675809346 
2.6000000000010624, -0.7713953382378888 
2.6100000000010835, -0.7708104832232162 
2.6200000000011046, -0.7705793621612704 
2.6300000000011257, -0.7705284736108144 
2.6400000000011468, -0.770536048389063 
2.650000000001168, -0.770519301889838 
2.660000000001189, -0.7704205091737806 
2.67000000000121, -0.7701970869601608 
2.680000000001231, -0.7698182657921475 
2.6900000000012523, -0.7692682127896588 
2.7000000000012734, -0.7685518626952417 
2.7100000000012945, -0.7676967111640607 
2.7200000000013156, -0.7667455802058489 
2.7300000000013367, -0.765742717233705 
2.740000000001358, -0.7647216796896463 
2.750000000001379, -0.7637017447880683 
2.7600000000014, -0.7626927806338435 
2.770000000001421, -0.7617037303609014 
2.780000000001442, -0.7607499061275168 
2.7900000000014633, -0.7598569777242962 
2.8000000000014844, -0.759061709705342 
2.8100000000015055, -0.7584099884354105 
2.8200000000015266, -0.7579524033762748 
2.8300000000015477, -0.7577378491897232 
2.840000000001569, -0.7578065001172823 
2.85000000000159, -0.7581842660986605 
2.860000000001611, -0.7588805967986932 
2.870000000001632, -0.7598901732986547 
2.8800000000016532, -0.7611973193766306 
2.8900000000016743, -0.7627806536900267 
2.9000000000016954, -0.7646149322631031 
2.9100000000017165, -0.7666673171687666 
2.9200000000017377, -0.7688869932071773 
2.9300000000017588, -0.7711912243020461 
2.94000000000178, -0.7734574881955704 
2.950000000001801, -0.7755351937348066 
2.960000000001822, -0.7772817668302439 
2.970000000001843, -0.7786059920774823 
2.9800000000018643, -0.7794891359770146 
2.9900000000018854, -0.7799718041521698 
3.0000000000019065, -0.7801223642570925 
3.0100000000019276, -0.7800097020958473 
3.0200000000019487, -0.7796909086768135 
3.03000000000197, -0.7792134330632992 
3.040000000001991, -0.7786294341249892 
3.050000000002012, -0.7780237713695619 
3.060000000002033, -0.7775610785505161 
3.070000000002054, -0.7775573023479118 
3.0800000000020753, -0.7785712175296993 
3.0900000000020964, -0.7814849606071564 
3.1000000000021175, -0.7874983546266334 
3.1100000000021386, -0.7979168928304823 
3.1200000000021597, -0.8136221875306481 
3.130000000002181, -0.8342869352646133 
3.140000000002202, -0.8578120751058801 
3.150000000002223, -0.8807740580760688 
3.160000000002244, -0.9000080469007499 
3.1700000000022652, -0.9140646531864745 
3.1800000000022863, -0.9232907367993111 
3.1900000000023074, -0.9289018173180882 
3.2000000000023285, -0.9321327058558154 
3.2100000000023496, -0.9338921968822929 
3.2200000000023707, -0.9347518891891843 
3.230000000002392, -0.9350378849801387 
3.240000000002413, -0.9349166969407188 
3.250000000002434, -0.9344504451865371 
3.260000000002455, -0.93362628273615 
3.2700000000024763, -0.9323728013453587 
3.2800000000024974, -0.9305836132490208 
3.2900000000025185, -0.9281870963816988 
3.3000000000025396, -0.9253323103337554 
3.3100000000025607, -0.9227654364342538 
3.3200000000025818, -0.9223177139380347 
3.330000000002603, -0.9269702006581563 
3.340000000002624, -0.9395697555466711 
3.350000000002645, -0.9602411798827604 
3.360000000002666, -0.9850137120058736 
3.3700000000026873, -1.0081265098203034 
3.3800000000027084, -1.0258247497086335 
3.3900000000027295, -1.0375728282603849 
3.4000000000027506, -1.0446736587183687 
3.4100000000027717, -1.0487155575426863 
3.420000000002793, -1.050902204443925 
3.430000000002814, -1.0519870191968015 
3.440000000002835, -1.052394385697504 
3.450000000002856, -1.0523394683144949 
3.460000000002877, -1.0519050062974717 
3.4700000000028983, -1.051082669914258 
3.4800000000029194, -1.0497998121378633 
3.4900000000029405, -1.0479680546779195 
3.5000000000029616, -1.0456276567995388 
3.5100000000029827, -1.0433073796224581 
3.520000000003004, -1.0426406389313032 
3.530000000003025, -1.0467804496437043 
3.540000000003046, -1.059375120916618 
3.550000000003067, -1.0815087714966545 
3.5600000000030882, -1.1092897566834758 
3.5700000000031094, -1.1359264246452156 
3.5800000000031305, -1.1565223824785762 
3.5900000000031516, -1.1701108619626157 
3.6000000000031727, -1.1781652853708726 
3.6100000000031938, -1.182612434129196 
3.620000000003215, -1.184922192919346 
3.630000000003236, -1.1860037995785846 
3.640000000003257, -1.1863625774912148 
3.650000000003278, -1.1862611708026713 
3.6600000000032993, -1.1858329964222918 
3.6700000000033204, -1.1851685383824289 
3.6800000000033415, -1.1844123199530014 
3.6900000000033626, -1.1838925854303093 
3.7000000000033837, -1.1842210648366047 
3.710000000003405, -1.1861660802016543 
3.720000000003426, -1.1901954213273138 
3.730000000003447, -1.1960618011936517 
3.740000000003468, -1.2029195266557913 
3.750000000003489, -1.2098112888906827 
3.7600000000035103, -1.216023572730694 
3.7700000000035314, -1.221162653392494 
3.7800000000035525, -1.2250940074368817 
3.7900000000035736, -1.2278648776601102 
3.8000000000035947, -1.2296357833751137 
3.810000000003616, -1.2306160287969865 
3.820000000003637, -1.2310099832378887 
3.830000000003658, -1.230987478202554 
3.840000000003679, -1.2306822136493936 
3.8500000000037002, -1.2302111657215153 
3.8600000000037213, -1.2297011638287847 
3.8700000000037424, -1.2293004641832763 
3.8800000000037635, -1.2291521283668245 
3.8900000000037847, -1.2293375199204744 
3.9000000000038058, -1.2298414968342752 
3.910000000003827, -1.2305727282806647 
3.920000000003848, -1.2314107358216078 
3.930000000003869, -1.2322404475382833 
3.94000000000389, -1.2329675415897323 
3.9500000000039113, -1.2335227168951743 
3.9600000000039324, -1.2338598541021324 
3.9700000000039535, -1.2339512210992205 
3.9800000000039746, -1.2337826593301089 
3.9900000000039957, -1.2333503840851272 
4.000000000004016, -1.232659986314415 
4.010000000003993, -1.2317278288843172 
4.02000000000397, -1.2305846983088435 
4.030000000003946, -1.2292809753645164 
4.040000000003923, -1.2278913733497006 
4.0500000000039, -1.2265161818646741 
4.0600000000038765, -1.2252755223511669 
4.070000000003853, -1.2242901320177186 
4.08000000000383, -1.223641259075381 
4.090000000003807, -1.223324204480187 
4.100000000003783, -1.2232392559046676 
4.11000000000376, -1.2232367097784906 
4.120000000003737, -1.2231712626032436 
4.130000000003713, -1.22292014611427 
4.14000000000369, -1.222366461653715 
4.150000000003667, -1.22137278613229 
4.1600000000036434, -1.2197653859846067 
4.17000000000362, -1.2173414462639134 
4.180000000003597, -1.2139043542775758 
4.1900000000035735, -1.2093199000229142 
4.20000000000355, -1.203578095260068 
4.210000000003527, -1.1968547232727633 
4.220000000003504, -1.189577021537103 
4.23000000000348, -1.1824631052106025 
4.240000000003457, -1.1764202288824621 
4.250000000003434, -1.1721933117552632 
4.26000000000341, -1.1699405976121773 
4.270000000003387, -1.1691807290287097 
4.280000000003364, -1.1691924824710227 
4.2900000000033405, -1.1694141739415818 
4.300000000003317, -1.169543061743679 
4.310000000003294, -1.1694408259521678 
4.320000000003271, -1.1690151974735419 
4.330000000003247, -1.1681298477270077 
4.340000000003224, -1.166522760604771 
4.350000000003201, -1.1637012696201405 
4.360000000003177, -1.1588016239963792 
4.370000000003154, -1.150472000815596 
4.380000000003131, -1.1370085278250721 
4.390000000003107, -1.1171647579345128 
4.400000000003084, -1.091752308314784 
4.410000000003061, -1.064788937424462 
4.4200000000030375, -1.0420352711866152 
4.430000000003014, -1.0273354090114517 
4.440000000002991, -1.0205601758388723 
4.450000000002968, -1.0189769446861 
4.460000000002944, -1.0197230143059852 
4.470000000002921, -1.0210272195174137 
4.480000000002898, -1.0221374540399357 
4.490000000002874, -1.022854511401742 
4.500000000002851, -1.02318228490497 
4.510000000002828, -1.0231565603935668 
4.520000000002804, -1.0227748424739127 
4.530000000002781, -1.0219593242262335 
4.540000000002758, -1.0205136929187888 
4.5500000000027345, -1.0180496612085603 
4.560000000002711, -1.013870023070383 
4.570000000002688, -1.0068315686087734 
4.580000000002665, -0.9953262498182195 
4.590000000002641, -0.9777233415758827 
4.600000000002618, -0.9536111793303579 
4.610000000002595, -0.92528319664032 
4.620000000002571, -0.8975932870673539 
4.630000000002548, -0.875357012747995 
4.640000000002525, -0.8607032744297743 
4.6500000000025015, -0.8528396899443014 
4.660000000002478, -0.8495878339833052 
4.670000000002455, -0.8488365633853752 
4.6800000000024315, -0.8491480574067778 
4.690000000002408, -0.8497428312301029 
4.700000000002385, -0.8502727559941181 
4.710000000002362, -0.850611617165217 
4.720000000002338, -0.8507224128665607 
4.730000000002315, -0.8505864575804404 
4.740000000002292, -0.8501663932915822 
4.750000000002268, -0.8493830141342429 
4.760000000002245, -0.8480968145292731 
4.770000000002222, -0.8460972883708731 
4.7800000000021985, -0.8431179629542849 
4.790000000002175, -0.8389052396657235 
4.800000000002152, -0.8333472955208029 
4.810000000002129, -0.8265998732884301 
4.820000000002105, -0.8190982354136203 
4.830000000002082, -0.8114224397012402 
4.840000000002059, -0.8041173512556125 
4.850000000002035, -0.7975827063551072 
4.860000000002012, -0.79205328024647 
4.870000000001989, -0.7876242654737101 
4.880000000001965, -0.7842820403249702 
4.890000000001942, -0.7819288545856715 
4.900000000001919, -0.7804065282634816 
4.9100000000018955, -0.7795244745124865 
4.920000000001872, -0.7790898001333112 
4.930000000001849, -0.7789318366802674 
