t, s[1].omega / s[0].omega 
0, -0.6799976992686754 
0.009999999999999995, -0.6797575011258539 
0.019999999999999934, -0.6794935877810677 
0.029999999999999874, -0.679197131507449 
0.04000000000000012, -0.6788591406260238 
0.050000000000000405, -0.6784753131987821 
0.06000000000000069, -0.678048661006436 
0.07000000000000098, -0.6775900357121238 
0.08000000000000126, -0.6771181429005555 
0.09000000000000155, -0.6766605814842714 
0.10000000000000184, -0.6762565767397873 
0.11000000000000212, -0.6759611920690257 
0.12000000000000241, -0.6758501580444681 
0.130000000000002, -0.6760239685381273 
0.1400000000000009, -0.6766094821667821 
0.1499999999999998, -0.6777568591976455 
0.1599999999999987, -0.6796290281562822 
0.1699999999999976, -0.6823797247833141 
0.1799999999999965, -0.6861150503327388 
0.1899999999999954, -0.6908358052719981 
0.1999999999999943, -0.6963707188118585 
0.2099999999999932, -0.7023381264350755 
0.2199999999999921, -0.708195076149994 
0.229999999999991, -0.7133962593282874 
0.2399999999999899, -0.7175822888997925 
0.2499999999999888, -0.7206645439317557 
0.2599999999999877, -0.7227662350297006 
0.2699999999999866, -0.7241006314709649 
0.2799999999999855, -0.7248761670928076 
0.2899999999999844, -0.725254255383669 
0.2999999999999833, -0.7253426758436199 
0.3099999999999822, -0.7252025491191118 
0.3199999999999811, -0.7248561339479754 
0.32999999999998, -0.7242902942044447 
0.3399999999999789, -0.723453896430956 
0.3499999999999778, -0.7222484603086594 
0.35999999999997667, -0.7205124458120489 
0.36999999999997557, -0.7180036440895804 
0.37999999999997447, -0.7143958880005588 
0.38999999999997337, -0.7093281748312501 
0.39999999999997227, -0.7025574479244081 
0.40999999999997117, -0.6942075945827887 
0.41999999999997006, -0.6849430901270924 
0.42999999999996896, -0.6758203407090062 
0.43999999999996786, -0.6678423211124094 
0.44999999999996676, -0.6615766946847433 
0.45999999999996566, -0.657092882245115 
0.46999999999996456, -0.654134085558647 
0.47999999999996346, -0.6523235884148979 
0.48999999999996235, -0.6512996453425726 
0.49999999999996125, -0.6507729201285926 
0.5099999999999602, -0.6505355340059714 
0.519999999999959, -0.650448400273526 
0.529999999999958, -0.65042266571676 
0.5399999999999568, -0.6504025686072089 
0.5499999999999557, -0.6503522299348423 
0.5599999999999546, -0.6502467556207006 
0.5699999999999535, -0.6500673808678016 
0.5799999999999524, -0.6498003082477724 
0.5899999999999513, -0.6494385907862195 
0.5999999999999502, -0.6489854002265231 
0.6099999999999491, -0.6484557547271276 
0.619999999999948, -0.647873922360932 
0.6299999999999469, -0.6472664376707071 
0.6399999999999458, -0.6466542192133777 
0.6499999999999447, -0.6460481964149757 
0.6599999999999436, -0.645450270527067 
0.6699999999999425, -0.6448580006561946 
0.6799999999999414, -0.6442699301835493 
0.6899999999999403, -0.6436893992957514 
0.6999999999999392, -0.6431265555567703 
0.7099999999999381, -0.6425994805975646 
0.719999999999937, -0.6421354252850056 
0.7299999999999359, -0.6417725832200853 
0.7399999999999348, -0.6415622402653516 
0.7499999999999337, -0.6415707793273869 
0.7599999999999326, -0.6418808791813014 
0.7699999999999315, -0.6425911742953347 
0.7799999999999304, -0.643813378424044 
0.7899999999999293, -0.6456650620247746 
0.7999999999999282, -0.648254704875329 
0.8099999999999271, -0.6516540083580827 
0.819999999999926, -0.6558537287680444 
0.8299999999999249, -0.6607095620859736 
0.8399999999999238, -0.6659077036273303 
0.8499999999999227, -0.6709996121021231 
0.8599999999999216, -0.6755287305545922 
0.8699999999999205, -0.6791872716933035 
0.8799999999999194, -0.6818923433304501 
0.8899999999999183, -0.6837420499492151 
0.8999999999999172, -0.6849149257771565 
0.9099999999999161, -0.6855885463876621 
0.919999999999915, -0.6859016275078023 
0.9299999999999139, -0.6859466597857999 
0.9399999999999128, -0.6857746496653374 
0.9499999999999117, -0.6854007532482795 
0.9599999999999106, -0.6848059714107594 
0.9699999999999095, -0.683933039357522 
0.9799999999999084, -0.6826757492537145 
0.9899999999999073, -0.6808626072360978 
0.9999999999999062, -0.6782414654919668 
1.0099999999999052, -0.6744862390372749 
1.019999999999904, -0.6692681844874104 
1.029999999999903, -0.6624311468000722 
1.039999999999902, -0.6542194907785983 
1.0499999999999008, -0.6453577435570257 
1.0599999999998997, -0.6368153705499016 
1.0699999999998986, -0.6294031531616742 
1.0799999999998975, -0.6235238231070882 
1.0899999999998964, -0.6191906117735493 
1.0999999999998953, -0.6161852160479634 
1.1099999999998942, -0.6142096064630369 
1.119999999999893, -0.6129775157479334 
1.129999999999892, -0.6122528918262156 
1.1399999999998909, -0.6118573246649757 
1.1499999999998898, -0.611663423425424 
1.1599999999998887, -0.6115836944929942 
1.1699999999998876, -0.6115594659743742 
1.1799999999998865, -0.6115517346157161 
1.1899999999998854, -0.611534562860829 
1.1999999999998843, -0.6114911143419751 
1.2099999999998832, -0.6114120764477663 
1.219999999999882, -0.611295703044699 
1.229999999999881, -0.6111479616692506 
1.2399999999998799, -0.6109808600769011 
1.2499999999998788, -0.6108078953885646 
1.2599999999998777, -0.6106377867373189 
1.2699999999998766, -0.610469630743327 
1.2799999999998755, -0.610292438852482 
1.2899999999998744, -0.6100895017238932 
1.2999999999998733, -0.6098450473045495 
1.3099999999998722, -0.6095495960343287 
1.319999999999871, -0.6092020381168455 
1.32999999999987, -0.6088090985980238 
1.3399999999998689, -0.6083843140124336 
1.3499999999998678, -0.6079484538429901 
1.3599999999998666, -0.6075324917115463 
1.3699999999998655, -0.607183652844968 
1.3799999999998644, -0.6069748368681354 
1.3899999999998633, -0.607017435376213 
1.3999999999998622, -0.6074766051691636 
1.4099999999998611, -0.6085855022893554 
1.41999999999986, -0.6106494631189965 
1.429999999999859, -0.6140215020857187 
1.4399999999998578, -0.6190198512632172 
1.4499999999998567, -0.6257640311015227 
1.4599999999998556, -0.6339656514829846 
1.4699999999998545, -0.6428318167513943 
1.4799999999998534, -0.6512786303329646 
1.4899999999998523, -0.6584000338107242 
1.4999999999998512, -0.6638117438965068 
1.5099999999998501, -0.6676176630717874 
1.519999999999849, -0.6701559701447974 
1.529999999999848, -0.6717839469949834 
1.5399999999998468, -0.6727848201853746 
1.5499999999998457, -0.6733549508875847 
1.5599999999998446, -0.6736197529433657 
1.5699999999998435, -0.673652309099196 
1.5799999999998424, -0.6734865951218059 
1.5899999999998413, -0.6731243340231705 
1.5999999999998402, -0.6725364904333769 
1.6099999999998391, -0.6716612716100168 
1.619999999999838, -0.670402392406047 
1.629999999999837, -0.6686353210861293 
1.6399999999998358, -0.6662334621556303 
1.6499999999998347, -0.6631224402783857 
1.6599999999998336, -0.6593475826462771 
1.6699999999998325, -0.6551074637438058 
1.6799999999998314, -0.6507111417090191 
1.6899999999998303, -0.6464780919478297 
1.6999999999998292, -0.6426494521170156 
1.709999999999828, -0.639356058876172 
1.719999999999827, -0.6366348874948401 
1.729999999999826, -0.634462785429214 
1.7399999999998248, -0.6327859176905235 
1.7499999999998237, -0.6315386457979817 
1.7599999999998226, -0.6306536868006364 
1.7699999999998215, -0.6300671302859814 
1.7799999999998204, -0.6297209713717056 
1.7899999999998193, -0.6295645251154698 
1.7999999999998182, -0.6295552211143056 
1.809999999999817, -0.6296589119796848 
1.819999999999816, -0.6298497814640498 
1.8299999999998149, -0.6301099648635101 
1.8399999999998138, -0.6304288892795379 
1.8499999999998127, -0.6308020157474931 
1.8599999999998116, -0.6312282715612187 
1.8699999999998105, -0.6317054737553102 
1.8799999999998094, -0.632224028716528 
1.8899999999998083, -0.6327611296586125 
1.8999999999998072, -0.6332793032722519 
1.909999999999806, -0.6337322887675176 
1.919999999999805, -0.6340768749361724 
1.9299999999998039, -0.6342844139250878 
1.9399999999998028, -0.6343455338141688 
1.9499999999998017, -0.6342668414531067 
1.9599999999998006, -0.6340636295872923 
1.9699999999997995, -0.6337534116562008 
1.9799999999997984, -0.6333528327354696 
1.9899999999997973, -0.6328784371862696 
1.9999999999997962, -0.6323512470332626 
2.0099999999998173, -0.631805639513386 
2.0199999999998384, -0.6313036653175181 
2.0299999999998595, -0.6309556242316862 
2.0399999999998806, -0.6309445622146448 
2.0499999999999017, -0.6315432791116791 
2.059999999999923, -0.6330952064236735 
2.069999999999944, -0.6359143037416773 
2.079999999999965, -0.6400843845376921 
2.089999999999986, -0.6452593869732601 
2.100000000000007, -0.6507019090737429 
2.1100000000000283, -0.6556484428222471 
2.1200000000000494, -0.6596792838271959 
2.1300000000000705, -0.6627557017808795 
2.1400000000000916, -0.6650271657100566 
2.1500000000001127, -0.6666703118458295 
2.160000000000134, -0.6678318438508705 
2.170000000000155, -0.668624084618081 
2.180000000000176, -0.6691311374648825 
2.190000000000197, -0.6694136417702607 
2.2000000000002182, -0.6695115979178764 
2.2100000000002393, -0.669445993712816 
2.2200000000002604, -0.6692194227816118 
2.2300000000002815, -0.668815874503705 
2.2400000000003026, -0.6682006204350471 
2.2500000000003237, -0.6673226018375649 
2.260000000000345, -0.6661234237182971 
2.270000000000366, -0.6645568108608401 
2.280000000000387, -0.6626164620873047 
2.290000000000408, -0.6603587787711203 
2.3000000000004293, -0.6579014003099987 
2.3100000000004504, -0.6553924285060952 
2.3200000000004715, -0.652968899883587 
2.3300000000004926, -0.6507292252500041 
2.3400000000005137, -0.6487283781415727 
2.3500000000005348, -0.6469880487404639 
2.360000000000556, -0.6455103248799835 
2.370000000000577, -0.6442882142644645 
2.380000000000598, -0.6433114885012177 
2.390000000000619, -0.6425689348222526 
2.4000000000006403, -0.6420486775576096 
2.4100000000006614, -0.6417379179913665 
2.4200000000006825, -0.6416229141658214 
2.4300000000007036, -0.6416895334157072 
2.4400000000007247, -0.6419243312537477 
2.450000000000746, -0.6423158542911037 
2.460000000000767, -0.6428556971723224 
2.470000000000788, -0.6435386812588211 
2.480000000000809, -0.6443613170973932 
2.49000000000083, -0.6453176243290125 
2.5000000000008513, -0.6463919248120258 
2.5100000000008724, -0.6475500606512015 
2.5200000000008935, -0.6487335200153558 
2.5300000000009146, -0.6498629208785988 
2.5400000000009357, -0.650854082550519 
2.550000000000957, -0.6516406853055022 
2.560000000000978, -0.6521903013394267 
2.570000000000999, -0.6525048551483839 
2.58000000000102, -0.6526084945209016 
2.5900000000010412, -0.6525325497121555 
2.6000000000010624, -0.6523046822490888 
2.6100000000010835, -0.651943808991069 
2.6200000000011046, -0.6514593834562296 
2.6300000000011257, -0.6508534891781099 
2.6400000000011468, -0.6501252895233433 
2.650000000001168, -0.6492784275392598 
2.660000000001189, -0.6483321016446795 
2.67000000000121, -0.6473343477963321 
2.680000000001231, -0.6463693588180784 
2.6900000000012523, -0.6455399255722445 
2.7000000000012734, -0.644905713065475 
2.7100000000012945, -0.6444030451742534 
2.7200000000013156, -0.643856447300206 
2.7300000000013367, -0.6431554428795362 
2.740000000001358, -0.6424152518263447 
2.750000000001379, -0.6418812401145144 
2.7600000000014, -0.6417026727332025 
2.770000000001421, -0.6418511207680864 
2.780000000001442, -0.6421974029115797 
2.7900000000014633, -0.6426076955432953 
2.8000000000014844, -0.6429883708723146 
2.8100000000015055, -0.6432885922468714 
2.8200000000015266, -0.6434866493397531 
2.8300000000015477, -0.6435753462814099 
2.840000000001569, -0.6435512650082698 
2.85000000000159, -0.6434079807094213 
2.860000000001611, -0.6431323027254374 
2.870000000001632, -0.6427032338713893 
2.8800000000016532, -0.6420944195901799 
2.8900000000016743, -0.6412814089677241 
2.9000000000016954, -0.640253670220168 
2.9100000000017165, -0.6390272130795743 
2.9200000000017377, -0.6376495984437761 
2.9300000000017588, -0.6361912003009442 
2.94000000000178, -0.6347261643482466 
2.950000000001801, -0.6333144127705493 
2.960000000001822, -0.6319937080299545 
2.970000000001843, -0.6307821990809076 
2.9800000000018643, -0.6296862195906454 
2.9900000000018854, -0.6287081365308711 
3.0000000000019065, -0.6278517365889521 
3.0100000000019276, -0.6271249369364897 
3.0200000000019487, -0.6265405819860542 
3.03000000000197, -0.6261161383197964 
3.040000000001991, -0.6258728578026622 
3.050000000002012, -0.6258347910699775 
3.060000000002033, -0.6260279380078166 
3.070000000002054, -0.6264797067043142 
3.0800000000020753, -0.6272185920082137 
3.0900000000020964, -0.6282734997936531 
3.1000000000021175, -0.6296714271547754 
3.1100000000021386, -0.6314314253486579 
3.1200000000021597, -0.6335525355692933 
3.130000000002181, -0.6359951518850944 
3.140000000002202, -0.638660977785643 
3.150000000002223, -0.6413857676952912 
3.160000000002244, -0.6439625715471312 
3.1700000000022652, -0.6461972504578704 
3.1800000000022863, -0.6479673738099472 
3.1900000000023074, -0.6492457261132042 
3.2000000000023285, -0.6500792430694644 
3.2100000000023496, -0.6505479282964938 
3.2200000000023707, -0.6507308026134602 
3.230000000002392, -0.6506881282947123 
3.240000000002413, -0.6504557158081536 
3.250000000002434, -0.6500442429520109 
3.260000000002455, -0.6494385382798844 
3.2700000000024763, -0.6485939534585102 
3.2800000000024974, -0.6474280019168906 
3.2900000000025185, -0.6458059769373405 
3.3000000000025396, -0.6435212280914802 
3.3100000000025607, -0.6402787861323395 
3.3200000000025818, -0.6357125256368337 
3.330000000002603, -0.6294969268264745 
3.340000000002624, -0.621596099690257 
3.350000000002645, -0.6125269440075208 
3.360000000002666, -0.60332190441991 
3.3700000000026873, -0.5950803297351224 
3.3800000000027084, -0.5884852165906852 
3.3900000000027295, -0.5836734724376753 
3.4000000000027506, -0.5804128486337689 
3.4100000000027717, -0.5783344995110793 
3.420000000002793, -0.577081926576682 
3.430000000002814, -0.5763704013905664 
3.440000000002835, -0.5759944786077072 
3.450000000002856, -0.5758147465820158 
3.460000000002877, -0.5757401660899977 
3.4700000000028983, -0.5757124906516016 
3.4800000000029194, -0.5756945374901692 
3.4900000000029405, -0.5756622946610565 
3.5000000000029616, -0.5756003851435396 
3.5100000000029827, -0.5755003266014505 
3.520000000003004, -0.5753607693788885 
3.530000000003025, -0.5751882613556023 
3.540000000003046, -0.5749964988988103 
3.550000000003067, -0.5748024820704022 
3.5600000000030882, -0.5746200106028276 
3.5700000000031094, -0.5744533590271326 
3.5800000000031305, -0.5742946593811648 
3.5900000000031516, -0.5741266651180167 
3.6000000000031727, -0.5739294025630787 
3.6100000000031938, -0.5736870420090694 
3.620000000003215, -0.5733918125844824 
3.630000000003236, -0.5730443604230165 
3.640000000003257, -0.5726522648951573 
3.650000000003278, -0.572228988147254 
3.6600000000032993, -0.5717948540354375 
3.6700000000033204, -0.5713809255242727 
3.6800000000033415, -0.5710364144443316 
3.6900000000033626, -0.5708403179799462 
3.7000000000033837, -0.5709177299930318 
3.710000000003405, -0.5714596753574044 
3.720000000003426, -0.5727404464846828 
3.730000000003447, -0.5751154658584032 
3.740000000003468, -0.5789651718969451 
3.750000000003489, -0.5845409917613311 
3.7600000000035103, -0.5917174272791349 
3.7700000000035314, -0.5998073998332576 
3.7800000000035525, -0.6077188932640122 
3.7900000000035736, -0.6144759324990418 
3.8000000000035947, -0.6196495414729064 
3.810000000003616, -0.6233339303276588 
3.820000000003637, -0.6258557105241576 
3.830000000003658, -0.6275455096995254 
3.840000000003679, -0.628656073021159 
3.8500000000037002, -0.6293608777734204 
3.8600000000037213, -0.6297736163448573 
3.8700000000037424, -0.629965803077819 
3.8800000000037635, -0.629978414332213 
3.8900000000037847, -0.6298285379678674 
3.9000000000038058, -0.6295126169744556 
3.910000000003827, -0.6290079401464681 
3.920000000003848, -0.628274696610821 
3.930000000003869, -0.6272621910924496 
3.94000000000389, -0.6259234004976404 
3.9500000000039113, -0.6242387824293927 
3.9600000000039324, -0.6222409294219949 
3.9700000000039535, -0.6200226114950372 
3.9800000000039746, -0.61771644400369 
3.9900000000039957, -0.6154561463108077 
4.000000000004016, -0.6133438042824894 
4.010000000003993, -0.6114384831859216 
4.02000000000397, -0.609763227387562 
4.030000000003946, -0.6083191302285059 
4.040000000003923, -0.6070978532648602 
4.0500000000039, -0.6060895136593774 
4.0600000000038765, -0.6052863515737122 
4.070000000003853, -0.6046836997860274 
4.08000000000383, -0.6042796606971031 
4.090000000003807, -0.6040744512536045 
4.100000000003783, -0.6040699722254523 
4.11000000000376, -0.6042698479314689 
4.120000000003737, -0.6046799161453171 
4.130000000003713, -0.6053088645709344 
4.14000000000369, -0.606168350526698 
4.150000000003667, -0.6072714682354182 
4.1600000000036434, -0.6086279499230588 
4.17000000000362, -0.610234502910046 
4.180000000003597, -0.6120603053952102 
4.1900000000035735, -0.6140321350270173 
4.20000000000355, -0.6160298368952194 
4.210000000003527, -0.6179041362429625 
4.220000000003504, -0.6195163863002886 
4.23000000000348, -0.6207791709729152 
4.240000000003457, -0.6216718181335521 
4.250000000003434, -0.6222255796865893 
4.26000000000341, -0.622495155940877 
4.270000000003387, -0.6225345877945663 
4.280000000003364, -0.6223838987519353 
4.2900000000033405, -0.6220638995867566 
4.300000000003317, -0.6215743529496979 
4.310000000003294, -0.6208917749486538 
4.320000000003271, -0.6199644136361091 
4.330000000003247, -0.6187024552778593 
4.340000000003224, -0.6169617893045369 
4.350000000003201, -0.6145219671768772 
4.360000000003177, -0.6110693626157856 
4.370000000003154, -0.6062241078932679 
4.380000000003131, -0.5996833083640833 
4.390000000003107, -0.5915083084913342 
4.400000000003084, -0.582364546272789 
4.410000000003061, -0.5733693818876707 
4.4200000000030375, -0.5655606779124154 
4.430000000003014, -0.5594707317288209 
4.440000000002991, -0.5551071005882109 
4.450000000002968, -0.5521787945503506 
4.460000000002944, -0.5503153095523532 
4.470000000002921, -0.549185281276142 
4.480000000002898, -0.5485343354706613 
4.490000000002874, -0.5481827391027495 
4.500000000002851, -0.5480096494496849 
4.510000000002828, -0.5479362597559722 
4.520000000002804, -0.5479120406810091 
4.530000000002781, -0.5479048425858425 
4.540000000002758, -0.5478945055585573 
4.5500000000027345, -0.5478693978263116 
4.560000000002711, -0.5478252126628999 
4.570000000002688, -0.5477650142184147 
4.580000000002665, -0.5476989552992209 
4.590000000002641, -0.5476418838510037 
4.600000000002618, -0.547608020850386 
4.610000000002595, -0.5476040151759975 
4.620000000002571, -0.5476235965459073 
4.630000000002548, -0.5476471038117017 
4.640000000002525, -0.5476468548187818 
4.6500000000025015, -0.5475958326304213 
4.660000000002478, -0.5474750820562755 
4.670000000002455, -0.5472765118722516 
4.6800000000024315, -0.547001268449754 
4.690000000002408, -0.5466562838018807 
4.700000000002385, -0.546251621380248 
4.710000000002362, -0.5458000442015283 
4.720000000002338, -0.5453193306165607 
4.730000000002315, -0.5448376952589007 
4.740000000002292, -0.5444028323210861 
4.750000000002268, -0.5440947590935442 
4.760000000002245, -0.544040330091571 
4.770000000002222, -0.5444204053642114 
4.7800000000021985, -0.5454467169381473 
4.790000000002175, -0.5472713371515123 
4.800000000002152, -0.5498156051801129 
4.810000000002129, -0.5526287642136587 
4.820000000002105, -0.5550260375089807 
4.830000000002082, -0.5565451529945453 
4.840000000002059, -0.5572487873774064 
4.850000000002035, -0.5575209569789711 
4.860000000002012, -0.5576954123558121 
4.870000000001989, -0.5579129652847037 
4.880000000001965, -0.5581792752116798 
4.890000000001942, -0.5584531729167964 
4.900000000001919, -0.5586945743377592 
4.9100000000018955, -0.5588776956042806 
4.920000000001872, -0.5589889908109613 
