t, s[1].omega / s[0].omega 
0, -0.6799976993672837 
0.009999999999999995, -0.6797584653904116 
0.019999999999999934, -0.6794969468292466 
0.029999999999999874, -0.6792031675695176 
0.04000000000000012, -0.6788668206459894 
0.050000000000000405, -0.6784826395986328 
0.06000000000000069, -0.6780533064140661 
0.07000000000000098, -0.677590026079397 
0.08000000000000126, -0.6771125187471564 
0.09000000000000155, -0.6766501347660003 
0.10000000000000184, -0.6762448366708197 
0.11000000000000212, -0.6759558176840941 
0.12000000000000241, -0.6758648181907898 
0.130000000000002, -0.676080675556793 
0.1400000000000009, -0.6767412181512648 
0.1499999999999998, -0.6780102124015253 
0.1599999999999987, -0.6800664041157368 
0.1699999999999976, -0.6830803453577234 
0.1799999999999965, -0.6871731317347785 
0.1899999999999954, -0.6923529990759034 
0.1999999999999943, -0.6984393243259498 
0.2099999999999932, -0.7050150300024356 
0.2199999999999921, -0.7114762101676673 
0.229999999999991, -0.7172100780922245 
0.2399999999999899, -0.7218120571801283 
0.2499999999999888, -0.7251855604819083 
0.2599999999999877, -0.7274741592492064 
0.2699999999999866, -0.7289209236789109 
0.2799999999999855, -0.7297603609877765 
0.2899999999999844, -0.7301719839120437 
0.2999999999999833, -0.7302743902667889 
0.3099999999999822, -0.7301341310902723 
0.3199999999999811, -0.7297749318748796 
0.32999999999998, -0.7291816684252804 
0.3399999999999789, -0.7282972423585472 
0.3499999999999778, -0.7270114691108771 
0.35999999999997667, -0.7251419675944047 
0.36999999999997557, -0.7224113037259993 
0.37999999999997447, -0.7184381694686393 
0.38999999999997337, -0.7127879327835994 
0.39999999999997227, -0.7051496982726568 
0.40999999999997117, -0.6956427077071454 
0.41999999999997006, -0.6850450268834247 
0.42999999999996896, -0.6746205085227549 
0.43999999999996786, -0.6655633725863749 
0.44999999999996676, -0.658526169237621 
0.45999999999996566, -0.6535576104218459 
0.46999999999996456, -0.65032851274972 
0.47999999999996346, -0.6483856083613451 
0.48999999999996235, -0.6473079881825213 
0.49999999999996125, -0.6467676577967313 
0.5099999999999602, -0.6465342005065943 
0.519999999999959, -0.6464565312882453 
0.529999999999958, -0.6464398904929672 
0.5399999999999568, -0.6464257583085125 
0.5499999999999557, -0.6463769114309634 
0.5599999999999546, -0.6462676192034004 
0.5699999999999535, -0.6460784406234436 
0.5799999999999524, -0.6457951270607858 
0.5899999999999513, -0.6454108662286162 
0.5999999999999502, -0.6449299838791642 
0.6099999999999491, -0.644369806008208 
0.619999999999948, -0.6437576046063656 
0.6299999999999469, -0.6431226912301965 
0.6399999999999458, -0.6424876775053546 
0.6499999999999447, -0.6418637865860306 
0.6599999999999436, -0.6412521013696639 
0.6699999999999425, -0.6406488619744188 
0.6799999999999414, -0.6400513868397436 
0.6899999999999403, -0.6394622630337897 
0.6999999999999392, -0.6388915134863866 
0.7099999999999381, -0.6383577794740998 
0.719999999999937, -0.6378896421083622 
0.7299999999999359, -0.637527589458042 
0.7399999999999348, -0.6373264859125921 
0.7499999999999337, -0.6373580063299433 
0.7599999999999326, -0.637712339745829 
0.7699999999999315, -0.6384983806770764 
0.7799999999999304, -0.6398413170236569 
0.7899999999999293, -0.6418755671322344 
0.7999999999999282, -0.6447290979669456 
0.8099999999999271, -0.6484928999918513 
0.819999999999926, -0.6531701308644774 
0.8299999999999249, -0.6586106935732643 
0.8399999999999238, -0.6644650013614062 
0.8499999999999227, -0.6702181861864389 
0.8599999999999216, -0.6753379037543671 
0.8699999999999205, -0.6794640151524832 
0.8799999999999194, -0.6825023098404528 
0.8899999999999183, -0.684571377656245 
0.8999999999999172, -0.6858813712937518 
0.9099999999999161, -0.6866380415322485 
0.919999999999915, -0.6870000002197221 
0.9299999999999139, -0.6870719540699481 
0.9399999999999128, -0.686911411624508 
0.9499999999999117, -0.6865358241112343 
0.9599999999999106, -0.6859248218875347 
0.9699999999999095, -0.6850155392222692 
0.9799999999999084, -0.6836900787063906 
0.9899999999999073, -0.6817558430278126 
0.9999999999999062, -0.6789259847239939 
1.0099999999999052, -0.6748245310445748 
1.019999999999904, -0.6690674162882659 
1.029999999999903, -0.6614686196243988 
1.039999999999902, -0.6523101018883977 
1.0499999999999008, -0.6424306771984541 
1.0599999999998997, -0.632938375073542 
1.0699999999998986, -0.6247378320585353 
1.0799999999998975, -0.6182578452371406 
1.0899999999998964, -0.6134918322384814 
1.0999999999998953, -0.6101855707147819 
1.1099999999998942, -0.6080064131723365 
1.119999999999893, -0.6066404977006113 
1.129999999999892, -0.6058313347470394 
1.1399999999998909, -0.6053857887916281 
1.1499999999998898, -0.6051659972082886 
1.1599999999998887, -0.6050771322527508 
1.1699999999998876, -0.605055521639866 
1.1799999999998865, -0.6050589180197703 
1.1899999999998854, -0.605059485227854 
1.1999999999998843, -0.605039549125775 
1.2099999999998832, -0.604989813044649 
1.219999999999882, -0.6049091918217494 
1.229999999999881, -0.6048046468168993 
1.2399999999998799, -0.6046890292796908 
1.2499999999998788, -0.6045759196409317 
1.2599999999998777, -0.6044728013945196 
1.2699999999998766, -0.6043759624015201 
1.2799999999998755, -0.6042703101454336 
1.2899999999998744, -0.6041345805280871 
1.2999999999998733, -0.6039490764595535 
1.3099999999998722, -0.6037017627643293 
1.319999999999871, -0.6033903753250406 
1.32999999999987, -0.6030213405515076 
1.3399999999998689, -0.6026080537565868 
1.3499999999998678, -0.6021708187178774 
1.3599999999998666, -0.6017397639234089 
1.3699999999998655, -0.6013614420409381 
1.3799999999998644, -0.60110972364982 
1.3899999999998633, -0.6011015242494768 
1.3999999999998622, -0.601517055627084 
1.4099999999998611, -0.6026213789536518 
1.41999999999986, -0.6047768900244267 
1.429999999999859, -0.6084225548996216 
1.4399999999998578, -0.6139779434379802 
1.4499999999998567, -0.6216323012756418 
1.4599999999998556, -0.6310596158648376 
1.4699999999998545, -0.6412806532503728 
1.4799999999998534, -0.6509545718803535 
1.4899999999998523, -0.6590049330810781 
1.4999999999998512, -0.6650340604610283 
1.5099999999998501, -0.6692257906352368 
1.519999999999849, -0.67200558493439 
1.529999999999848, -0.6737905483802596 
1.5399999999998468, -0.674898287569926 
1.5499999999998457, -0.6755442468884769 
1.5599999999998446, -0.67586488142517 
1.5699999999998435, -0.6759400739551166 
1.5799999999998424, -0.675808202758329 
1.5899999999998413, -0.6754739361068537 
1.5999999999998402, -0.6749102943627997 
1.6099999999998391, -0.6740571482148219 
1.619999999999838, -0.6728201759796051 
1.629999999999837, -0.6710782157486596 
1.6399999999998358, -0.6687107456861217 
1.6499999999998347, -0.6656522666538046 
1.6599999999998336, -0.6619564483873266 
1.6699999999998325, -0.6578230801975666 
1.6799999999998314, -0.6535508424366719 
1.6899999999998303, -0.6494403738731874 
1.6999999999998292, -0.6457140568290562 
1.709999999999828, -0.6424909991684129 
1.719999999999827, -0.6398053282740278 
1.729999999999826, -0.6376380822346948 
1.7399999999998248, -0.6359436888390937 
1.7499999999998237, -0.6346662267873378 
1.7599999999998226, -0.6337477198105393 
1.7699999999998215, -0.6331320085463775 
1.7799999999998204, -0.632766748247046 
1.7899999999998193, -0.6326047890899609 
1.7999999999998182, -0.6326053077239371 
1.809999999999817, -0.6327346616737672 
1.819999999999816, -0.6329668839689424 
1.8299999999998149, -0.6332837915667759 
1.8399999999998138, -0.6336746207475484 
1.8499999999998127, -0.6341348092030776 
1.8599999999998116, -0.6346631621694165 
1.8699999999998105, -0.6352566722614376 
1.8799999999998094, -0.6359033452797686 
1.8899999999998083, -0.6365755710623338 
1.8999999999998072, -0.6372285335789009 
1.909999999999806, -0.6378072775805446 
1.919999999999805, -0.6382608915382856 
1.9299999999998039, -0.6385562179726048 
1.9399999999998028, -0.6386831971090633 
1.9499999999998017, -0.6386504876656323 
1.9599999999998006, -0.6384764090915346 
1.9699999999997995, -0.6381810438823305 
1.9799999999997984, -0.6377823803678069 
1.9899999999997973, -0.6372968393965502 
1.9999999999997962, -0.6367439668331396 
2.0099999999998173, -0.636155823083606 
2.0199999999998384, -0.6355925555982064 
2.0299999999998595, -0.6351655941287508 
2.0399999999998806, -0.6350667201673685 
2.0499999999999017, -0.6355910135127545 
2.059999999999923, -0.6371207685069432 
2.069999999999944, -0.6400154279316879 
2.079999999999965, -0.6443790483703241 
2.089999999999986, -0.6498246422565941 
2.100000000000007, -0.6555260516482844 
2.1100000000000283, -0.6606564044753167 
2.1200000000000494, -0.6648015881889041 
2.1300000000000705, -0.6679612471599092 
2.1400000000000916, -0.6703092319424926 
2.1500000000001127, -0.6720255441145561 
2.160000000000134, -0.6732522078592723 
2.170000000000155, -0.6740978747390209 
2.180000000000176, -0.6746458891708825 
2.190000000000197, -0.6749579446879888 
2.2000000000002182, -0.675075544336446 
2.2100000000002393, -0.6750207275100703 
2.2200000000002604, -0.6747961613610881 
2.2300000000002815, -0.6743845603786264 
2.2400000000003026, -0.6737482696185516 
2.2500000000003237, -0.6728315680799077 
2.260000000000345, -0.6715702615361165 
2.270000000000366, -0.6699130081472712 
2.280000000000387, -0.6678522325566096 
2.290000000000408, -0.6654494130937865 
2.3000000000004293, -0.6628331634702526 
2.3100000000004504, -0.6601646052971695 
2.3200000000004715, -0.6575914214986411 
2.3300000000004926, -0.6552182380712254 
2.3400000000005137, -0.6531023574207776 
2.3500000000005348, -0.6512655202410802 
2.360000000000556, -0.6497089564049382 
2.370000000000577, -0.6484246239868491 
2.380000000000598, -0.6474012366564394 
2.390000000000619, -0.646626417714828 
2.4000000000006403, -0.6460868527180312 
2.4100000000006614, -0.6457679210244365 
2.4200000000006825, -0.6456536872798109 
2.4300000000007036, -0.6457275858588601 
2.4400000000007247, -0.6459737126276204 
2.450000000000746, -0.6463783702205611 
2.460000000000767, -0.6469313574657449 
2.470000000000788, -0.6476263491243557 
2.480000000000809, -0.6484595043851205 
2.49000000000083, -0.6494253209212005 
2.5000000000008513, -0.650509250734404 
2.5100000000008724, -0.6516784363017508 
2.5200000000008935, -0.6528750904380078 
2.5300000000009146, -0.6540192937761292 
2.5400000000009357, -0.6550249791424503 
2.550000000000957, -0.6558233550361158 
2.560000000000978, -0.6563800505601821 
2.570000000000999, -0.6566962043343928 
2.58000000000102, -0.6567962002859666 
2.5900000000010412, -0.656712129805353 
2.6000000000010624, -0.6564725762538894 
2.6100000000010835, -0.6560975389725402 
2.6200000000011046, -0.6555981501591133 
2.6300000000011257, -0.6549797710948118 
2.6400000000011468, -0.654248343323008 
2.650000000001168, -0.6534211620183319 
2.660000000001189, -0.652543481391509 
2.67000000000121, -0.6517096116748846 
2.680000000001231, -0.6510779364202179 
2.6900000000012523, -0.6508521205125517 
2.7000000000012734, -0.6511915673206679 
2.7100000000012945, -0.652064024960177 
2.7200000000013156, -0.6531850979310995 
2.7300000000013367, -0.6542097057729979 
2.740000000001358, -0.655018679896292 
2.750000000001379, -0.6557332155915797 
2.7600000000014, -0.6564886790293509 
2.770000000001421, -0.6572988589616404 
2.780000000001442, -0.658092791381551 
2.7900000000014633, -0.6587928030844693 
2.8000000000014844, -0.6593521571880321 
2.8100000000015055, -0.6597554726220294 
2.8200000000015266, -0.6600056473422311 
2.8300000000015477, -0.6601110529109844 
2.840000000001569, -0.6600766933084418 
2.85000000000159, -0.6598988049121759 
2.860000000001611, -0.6595618225197815 
2.870000000001632, -0.6590376388068642 
2.8800000000016532, -0.6582886183185979 
2.8900000000016743, -0.6572768736516321 
2.9000000000016954, -0.6559808615385597 
2.9100000000017165, -0.6544145705195895 
2.9200000000017377, -0.6526374856592984 
2.9300000000017588, -0.6507447552311486 
2.94000000000178, -0.6488407636032973 
2.950000000001801, -0.6470124730489876 
2.960000000001822, -0.6453165756804727 
2.970000000001843, -0.6437817087281591 
2.9800000000018643, -0.6424183394750591 
2.9900000000018854, -0.6412289179161058 
3.0000000000019065, -0.6402147536744813 
3.0100000000019276, -0.6393792677762064 
3.0200000000019487, -0.6387286356145145 
3.03000000000197, -0.6382710034588113 
3.040000000001991, -0.6380152142829905 
3.050000000002012, -0.6379697050593507 
3.060000000002033, -0.638141992385769 
3.070000000002054, -0.6385388893633582 
3.0800000000020753, -0.6391672554384037 
3.0900000000020964, -0.6400346667230121 
3.1000000000021175, -0.6411489126898242 
3.1100000000021386, -0.6425147520613252 
3.1200000000021597, -0.644126256405197 
3.130000000002181, -0.6459542395037068 
3.140000000002202, -0.6479319307942359 
3.150000000002223, -0.6499479271236932 
3.160000000002244, -0.6518584675615355 
3.1700000000022652, -0.653522380114455 
3.1800000000022863, -0.6548424167251194 
3.1900000000023074, -0.6557866624975874 
3.2000000000023285, -0.6563792276181275 
3.2100000000023496, -0.656673153995053 
3.2200000000023707, -0.6567246540894416 
3.230000000002392, -0.6565777609638911 
3.240000000002413, -0.6562582738517891 
3.250000000002434, -0.6557724846389205 
3.260000000002455, -0.6551070612548343 
3.2700000000024763, -0.6542281483379039 
3.2800000000024974, -0.6530787598712828 
3.2900000000025185, -0.6515735931178169 
3.3000000000025396, -0.64958952325227 
3.3100000000025607, -0.6469497107209625 
3.3200000000025818, -0.643407194650329 
3.330000000002603, -0.6386672262201969 
3.340000000002624, -0.6325373713043461 
3.350000000002645, -0.6252312531838445 
3.360000000002666, -0.6175560164530527 
3.3700000000026873, -0.6106102031340803 
3.3800000000027084, -0.6051855879799846 
3.3900000000027295, -0.6014716273880314 
3.4000000000027506, -0.5992081200442799 
3.4100000000027717, -0.5979765567641759 
3.420000000002793, -0.5973925274547375 
3.430000000002814, -0.5971728182434586 
3.440000000002835, -0.5971327580049554 
3.450000000002856, -0.5971607052887845 
3.460000000002877, -0.5971919576184412 
3.4700000000028983, -0.5971889138386799 
3.4800000000029194, -0.5971279133895779 
3.4900000000029405, -0.5969915000115766 
3.5000000000029616, -0.5967650245070101 
3.5100000000029827, -0.5964370141442237 
3.520000000003004, -0.596002676261896 
3.530000000003025, -0.5954687443619833 
3.540000000003046, -0.5948561983391079 
3.550000000003067, -0.5941973540051216 
3.5600000000030882, -0.5935271079188033 
3.5700000000031094, -0.5928726628095438 
3.5800000000031305, -0.5922473806310201 
3.5900000000031516, -0.5916513268660749 
3.6000000000031727, -0.591076840874619 
3.6100000000031938, -0.5905154140882184 
3.620000000003215, -0.5899629051216485 
3.630000000003236, -0.5894222776031366 
3.640000000003257, -0.5889048244568247 
3.650000000003278, -0.5884313735631002 
3.6600000000032993, -0.588034571339249 
3.6700000000033204, -0.5877627253547218 
3.6800000000033415, -0.5876852365344776 
3.6900000000033626, -0.5878993371006339 
3.7000000000033837, -0.5885374253854283 
3.710000000003405, -0.5897733436089363 
3.720000000003426, -0.5918237974831445 
3.730000000003447, -0.594936845317602 
3.740000000003468, -0.5993528780712183 
3.750000000003489, -0.6052193308866449 
3.7600000000035103, -0.6124547279798491 
3.7700000000035314, -0.62061499834275 
3.7800000000035525, -0.6288970659938353 
3.7900000000035736, -0.6363899182938917 
3.8000000000035947, -0.6424511838209271 
3.810000000003616, -0.6469052421843637 
3.820000000003637, -0.649944430048092 
3.830000000003658, -0.6519052837906265 
3.840000000003679, -0.6531063844215592 
3.8500000000037002, -0.6537872855869414 
3.8600000000037213, -0.6541066761550048 
3.8700000000037424, -0.6541590259536798 
3.8800000000037635, -0.6539904018481378 
3.8900000000037847, -0.6536077579098194 
3.9000000000038058, -0.6529811850354486 
3.910000000003827, -0.6520402427066786 
3.920000000003848, -0.6506673338310378 
3.930000000003869, -0.6486958693158658 
3.94000000000389, -0.6459295501490507 
3.9500000000039113, -0.6422042313969047 
3.9600000000039324, -0.6374938378996398 
3.9700000000039535, -0.6320040130840654 
3.9800000000039746, -0.6261585715426339 
3.9900000000039957, -0.6204558756810199 
4.000000000004016, -0.6152981099294339 
4.010000000003993, -0.610907106628443 
4.02000000000397, -0.6073397552672112 
4.030000000003946, -0.6045475970435683 
4.040000000003923, -0.6024327255324688 
4.0500000000039, -0.6008836226238773 
4.0600000000038765, -0.5997933650951839 
4.070000000003853, -0.5990671534901809 
4.08000000000383, -0.5986245821826666 
4.090000000003807, -0.5983996578515184 
4.100000000003783, -0.5983399244327882 
4.11000000000376, -0.5984052486502269 
4.120000000003737, -0.5985665375538243 
4.130000000003713, -0.5988045667554712 
4.14000000000369, -0.5991089450940558 
4.150000000003667, -0.5994768876390331 
4.1600000000036434, -0.5999109733785913 
4.17000000000362, -0.6004148142691563 
4.180000000003597, -0.6009861970405647 
4.1900000000035735, -0.6016091411012444 
4.20000000000355, -0.6022487569332451 
4.210000000003527, -0.602853662852038 
4.220000000003504, -0.6033675424302916 
4.23000000000348, -0.6037448447465917 
4.240000000003457, -0.6039615796861122 
4.250000000003434, -0.6040158047415625 
4.26000000000341, -0.6039200988370094 
4.270000000003387, -0.6036922189899212 
4.280000000003364, -0.6033484628710862 
4.2900000000033405, -0.6029009971024208 
4.300000000003317, -0.6023586972178616 
4.310000000003294, -0.6017310656837552 
4.320000000003271, -0.6010355052458769 
4.330000000003247, -0.6003085425141778 
4.340000000003224, -0.5996200848884666 
4.350000000003201, -0.5990838680249192 
4.360000000003177, -0.5988442453877729 
4.370000000003154, -0.5990058733571406 
4.380000000003131, -0.5994963097616542 
4.390000000003107, -0.5999689178383211 
4.400000000003084, -0.5999681014145746 
4.410000000003061, -0.5993362439645781 
4.4200000000030375, -0.5983786799386277 
4.430000000003014, -0.5975491479246159 
4.440000000002991, -0.5970949168057609 
4.450000000002968, -0.5970083511172445 
4.460000000002944, -0.5971603000560763 
4.470000000002921, -0.5974157600619752 
4.480000000002898, -0.597679016297688 
4.490000000002874, -0.597894947312885 
4.500000000002851, -0.5980359970370384 
4.510000000002828, -0.5980889288419792 
4.520000000002804, -0.5980452742074007 
4.530000000002781, -0.5978955103433059 
4.540000000002758, -0.597626393708161 
4.5500000000027345, -0.5972214450493326 
4.560000000002711, -0.5966651170866171 
4.570000000002688, -0.5959505984284864 
4.580000000002665, -0.5950887774632778 
4.590000000002641, -0.5941128642305759 
4.600000000002618, -0.5930735044502347 
4.610000000002595, -0.5920251999291235 
4.620000000002571, -0.5910116442494278 
4.630000000002548, -0.5900579346009697 
4.640000000002525, -0.5891718036327356 
4.6500000000025015, -0.5883505082891093 
4.660000000002478, -0.5875886696607402 
4.670000000002455, -0.5868841393994597 
4.6800000000024315, -0.5862413559662124 
4.690000000002408, -0.5856730866246672 
4.700000000002385, -0.5852016932522957 
4.710000000002362, -0.58486064679655 
4.720000000002338, -0.5846965261346903 
4.730000000002315, -0.5847714277879194 
4.740000000002292, -0.5851655479105945 
4.750000000002268, -0.585979479811622 
4.760000000002245, -0.5873351781459929 
4.770000000002222, -0.5893731214954039 
4.7800000000021985, -0.5922405278677016 
4.790000000002175, -0.5960619407688567 
4.800000000002152, -0.6008825851569066 
4.810000000002129, -0.6065862357491983 
4.820000000002105, -0.6128242849312195 
4.830000000002082, -0.6190351292706846 
4.840000000002059, -0.6246092268622981 
4.850000000002035, -0.6291211396292975 
4.860000000002012, -0.63245179241209 
4.870000000001989, -0.6347296169070247 
4.880000000001965, -0.636187937054592 
4.890000000001942, -0.6370541414581488 
4.900000000001919, -0.6375025558828511 
4.9100000000018955, -0.6376485911635561 
4.920000000001872, -0.6375575505307639 
