t, s[1].omega / s[0].omega 
0, -1.4499968158967034 
0.009999999999999995, -1.4494413431301294 
0.019999999999999934, -1.448415465455239 
0.029999999999999874, -1.4469169297911448 
0.04000000000000012, -1.444944698490832 
0.050000000000000405, -1.4425030704392943 
0.06000000000000069, -1.439608220241699 
0.07000000000000098, -1.4363027092511609 
0.08000000000000126, -1.432691026129609 
0.09000000000000155, -1.429001468705105 
0.10000000000000184, -1.4256277564998838 
0.11000000000000212, -1.4230384714385047 
0.12000000000000241, -1.421517740704313 
0.130000000000002, -1.4209565013337984 
0.1400000000000009, -1.4209438934782053 
0.1499999999999998, -1.4210340565569954 
0.1599999999999987, -1.4208955260714695 
0.1699999999999976, -1.4202792779917948 
0.1799999999999965, -1.4188977748571596 
0.1899999999999954, -1.4162615197032054 
0.1999999999999943, -1.4114325073512681 
0.2099999999999932, -1.4025901235718166 
0.2199999999999921, -1.3862663378163782 
0.229999999999991, -1.356202478857533 
0.2399999999999899, -1.3024512670180846 
0.2499999999999888, -1.2133300872554231 
0.2599999999999877, -1.0844615832948508 
0.2699999999999866, -0.9311065851975214 
0.2799999999999855, -0.7842899383005811 
0.2899999999999844, -0.668148259060721 
0.2999999999999833, -0.5878320603221552 
0.3099999999999822, -0.5364894978106874 
0.3199999999999811, -0.5049289154578891 
0.32999999999998, -0.4858578710284347 
0.3399999999999789, -0.4744228452911061 
0.3499999999999778, -0.4676108307362335 
0.35999999999997667, -0.46359667728505827 
0.36999999999997557, -0.46127938725113565 
0.37999999999997447, -0.4599917368517575 
0.38999999999997337, -0.4593261964240778 
0.39999999999997227, -0.4590317346390626 
0.40999999999997117, -0.4589525620105454 
0.41999999999997006, -0.4589917060536321 
0.42999999999996896, -0.45908959691195556 
0.43999999999996786, -0.45921206758244815 
0.44999999999996676, -0.4593444761744025 
0.45999999999996566, -0.45948970302530345 
0.46999999999996456, -0.45966799638234385 
0.47999999999996346, -0.45991652609982714 
0.48999999999996235, -0.46028667420553276 
0.49999999999996125, -0.4608379280925413 
0.5099999999999602, -0.46162840099955177 
0.519999999999959, -0.46270268005170545 
0.529999999999958, -0.46407783534539626 
0.5399999999999568, -0.4657293412918254 
0.5499999999999557, -0.46758158002909067 
0.5599999999999546, -0.4695107190777069 
0.5699999999999535, -0.47136569436507975 
0.5799999999999524, -0.4730027226890526 
0.5899999999999513, -0.4743174105281604 
0.5999999999999502, -0.4752586643943521 
0.6099999999999491, -0.47582127483478864 
0.619999999999948, -0.47602627005629006 
0.6299999999999469, -0.4759001799599683 
0.6399999999999458, -0.4754589083188189 
0.6499999999999447, -0.4746959856103122 
0.6599999999999436, -0.47357159404010163 
0.6699999999999425, -0.4719968242409151 
0.6799999999999414, -0.4698044877392899 
0.6899999999999403, -0.46668980692524975 
0.6999999999999392, -0.4620848632131985 
0.7099999999999381, -0.45488767136415054 
0.719999999999937, -0.4428899360289949 
0.7299999999999359, -0.4217078572674603 
0.7399999999999348, -0.38352987912151004 
0.7499999999999337, -0.31856235809483063 
0.7599999999999326, -0.22545068963306522 
0.7699999999999315, -0.12419469767766758 
0.7799999999999304, -0.04224950825657084 
0.7899999999999293, 0.011241054929950695 
0.7999999999999282, 0.04253397635461964 
0.8099999999999271, 0.060584247658861286 
0.819999999999926, 0.07115336769316694 
0.8299999999999249, 0.07749986503019943 
0.8399999999999238, 0.08139619653112261 
0.8499999999999227, 0.08381809213413151 
0.8599999999999216, 0.08531918795642629 
0.8699999999999205, 0.08622426023229936 
0.8799999999999194, 0.08672908706749971 
0.8899999999999183, 0.08695336788558869 
0.8999999999999172, 0.08697003323933568 
0.9099999999999161, 0.08682303820371101 
0.919999999999915, 0.0865411606287859 
0.9299999999999139, 0.08615552804633313 
0.9399999999999128, 0.08573500888451717 
0.9499999999999117, 0.08547254596948599 
0.9599999999999106, 0.085900121679652 
0.9699999999999095, 0.08838497353880378 
0.9799999999999084, 0.09603538698438281 
0.9899999999999073, 0.1143323697297124 
0.9999999999999062, 0.14830760847299537 
1.0099999999999052, 0.1942817197314191 
1.019999999999904, 0.23853187617268903 
1.029999999999903, 0.27082672660791585 
1.039999999999902, 0.2908520801352999 
1.0499999999999008, 0.30245599812209095 
1.0599999999998997, 0.3090591533522535 
1.0699999999998986, 0.3127873633889318 
1.0799999999998975, 0.3148311370856054 
1.0899999999998964, 0.3158485296711717 
1.0999999999998953, 0.31621613593320114 
1.1099999999998942, 0.3161660297790111 
1.119999999999893, 0.31585730527612343 
1.129999999999892, 0.31541181223834874 
1.1399999999998909, 0.3149305129076924 
1.1499999999998898, 0.31450029837896093 
1.1599999999998887, 0.3141973773184836 
1.1699999999998876, 0.3140902023285167 
1.1799999999998865, 0.3142419135130106 
1.1899999999998854, 0.31470990913654057 
1.1999999999998843, 0.3155390122457854 
1.2099999999998832, 0.31674583548218416 
1.219999999999882, 0.3182969009771678 
1.229999999999881, 0.32009143714237914 
1.2399999999998799, 0.3219648691391516 
1.2499999999998788, 0.32372034824382245 
1.2599999999998777, 0.32517431226998467 
1.2699999999998766, 0.32618842436905854 
1.2799999999998755, 0.3266700487498122 
1.2899999999998744, 0.3265444497169004 
1.2999999999998733, 0.3257124018605578 
1.3099999999998722, 0.3240036449298948 
1.319999999999871, 0.321132647982664 
1.32999999999987, 0.31667377578185624 
1.3399999999998689, 0.31011047522255764 
1.3499999999998678, 0.30106490309851414 
1.3599999999998666, 0.28976413448140687 
1.3699999999998655, 0.2774422824498297 
1.3799999999998644, 0.2660068802727252 
1.3899999999998633, 0.25695341452654796 
1.3999999999998622, 0.25065278249583345 
1.4099999999998611, 0.24661900909835277 
1.41999999999986, 0.24412633413693016 
1.429999999999859, 0.24257055844953157 
1.4399999999998578, 0.24154535080201295 
1.4499999999998567, 0.24079896304094187 
1.4599999999998556, 0.24017399533090364 
1.4699999999998545, 0.2395608631546284 
1.4799999999998534, 0.23886552792973634 
1.4899999999998523, 0.23798466464779283 
1.4999999999998512, 0.23678024191314082 
1.5099999999998501, 0.23504335681558358 
1.519999999999849, 0.23243025776551837 
1.529999999999848, 0.22833617967132674 
1.5399999999998468, 0.22163247852148285 
1.5499999999998457, 0.21010601069976242 
1.5599999999998446, 0.18930106362445234 
1.5699999999998435, 0.15058162926393176 
1.5799999999998424, 0.08063447059575672 
1.5899999999998413, -0.02690579299292892 
1.5999999999998402, -0.14567371674107069 
1.6099999999998391, -0.23318308002443439 
1.619999999999838, -0.27953354868682884 
1.629999999999837, -0.30005134254736165 
1.6399999999998358, -0.3087411590432151 
1.6499999999998347, -0.31264716037336776 
1.6599999999998336, -0.3146465470440067 
1.6699999999998325, -0.3158344128190585 
1.6799999999998314, -0.3166259006480809 
1.6899999999998303, -0.31718438728813153 
1.6999999999998292, -0.3175787223961322 
1.709999999999828, -0.31784050827390437 
1.719999999999827, -0.31798554371073406 
1.729999999999826, -0.3180227580475378 
1.7399999999998248, -0.31795925133964353 
1.7499999999998237, -0.3178047172910056 
1.7599999999998226, -0.3175762953813925 
1.7699999999998215, -0.31730351914229193 
1.7799999999998204, -0.3170319418656082 
1.7899999999998193, -0.316823600542278 
1.7999999999998182, -0.3167532835201093 
1.809999999999817, -0.3169012821460219 
1.819999999999816, -0.3173444171649328 
1.8299999999998149, -0.3181463377682293 
1.8399999999998138, -0.3193461318277746 
1.8499999999998127, -0.3209438209766585 
1.8599999999998116, -0.3228847567136535 
1.8699999999998105, -0.32505148230998976 
1.8799999999998094, -0.32727503144638953 
1.8899999999998083, -0.3293696629325635 
1.8999999999998072, -0.33117752962338215 
1.909999999999806, -0.332599670476068 
1.919999999999805, -0.33359950214647605 
1.9299999999998039, -0.3341839979771521 
1.9399999999998028, -0.3343771209872602 
1.9499999999998017, -0.33419615492761306 
1.9599999999998006, -0.33363324838382724 
1.9699999999997995, -0.3326387160527717 
1.9799999999997984, -0.33110013807345773 
1.9899999999997973, -0.3288103910390683 
1.9999999999997962, -0.3254184058650201 
2.0099999999998173, -0.3203636589938958 
2.0199999999998384, -0.31282377167716746 
2.0299999999998595, -0.3017757967484304 
2.0399999999998806, -0.28636193572993796 
2.0499999999999017, -0.2666512180573645 
2.059999999999923, -0.24430768879996526 
2.069999999999944, -0.2221832907946439 
2.079999999999965, -0.20284224331619047 
2.089999999999986, -0.18746593821519164 
2.100000000000007, -0.17595153487795107 
2.1100000000000283, -0.16758323258655758 
2.1200000000000494, -0.1615561408460463 
2.1300000000000705, -0.15719846604419485 
2.1400000000000916, -0.154011323080145 
2.1500000000001127, -0.15164180459305118 
2.160000000000134, -0.14984499125471315 
2.170000000000155, -0.14845274229360136 
2.180000000000176, -0.147351731363821 
2.190000000000197, -0.14646890466890944 
2.2000000000002182, -0.1457623297060198 
2.2100000000002393, -0.1452162514515451 
2.2200000000002604, -0.14484006129964072 
2.2300000000002815, -0.1446716442049154 
2.2400000000003026, -0.14478626220847662 
2.2500000000003237, -0.14531254775917848 
2.260000000000345, -0.14645578666793005 
2.270000000000366, -0.14851901453359004 
2.280000000000387, -0.15187050635269472 
2.290000000000408, -0.15665050540429667 
2.3000000000004293, -0.16151354772649634 
2.3100000000004504, -0.15958937633894196 
2.3200000000004715, -0.13012779660792195 
2.3300000000004926, -0.03917459736796106 
2.3400000000005137, 0.1093018413435409 
2.3500000000005348, 0.24153768891993516 
2.360000000000556, 0.3176144537755706 
2.370000000000577, 0.3544573193570096 
2.380000000000598, 0.3721848849661196 
2.390000000000619, 0.38112108608969847 
2.4000000000006403, 0.38583844463833566 
2.4100000000006614, 0.388391775989236 
2.4200000000006825, 0.38976297725796294 
2.4300000000007036, 0.3904589907830297 
2.4400000000007247, 0.3907661227727008 
2.450000000000746, 0.39086464342383803 
2.460000000000767, 0.39088474599967443 
2.470000000000788, 0.3909376174915049 
2.480000000000809, 0.391136331233911 
2.49000000000083, 0.39161215446051617 
2.5000000000008513, 0.392524995068507 
2.5100000000008724, 0.39405854742269975 
2.5200000000008935, 0.39638264071234985 
2.5300000000009146, 0.3995697576754672 
2.5400000000009357, 0.4034906250106047 
2.550000000000957, 0.4077738822800089 
2.560000000000978, 0.4119091865425004 
2.570000000000999, 0.41544516876867477 
2.58000000000102, 0.41812832030771085 
2.5900000000010412, 0.4199006143847088 
2.6000000000010624, 0.4208079524800897 
2.6100000000010835, 0.4209029058122427 
2.6200000000011046, 0.4201776080618449 
2.6300000000011257, 0.41852366331078983 
2.6400000000011468, 0.415712600894179 
2.650000000001168, 0.41141420733056216 
2.660000000001189, 0.40530878672445714 
2.67000000000121, 0.3973565784373882 
2.680000000001231, 0.3881420294465861 
2.6900000000012523, 0.3789126375172784 
2.7000000000012734, 0.3710077119684936 
2.7100000000012945, 0.36513309215210676 
2.7200000000013156, 0.3612110876904673 
2.7300000000013367, 0.35875240979955936 
2.740000000001358, 0.3572337306904383 
2.750000000001379, 0.356256682885516 
2.7600000000014, 0.3555556306317433 
2.770000000001421, 0.35495568803186667 
2.780000000001442, 0.35432868034948306 
2.7900000000014633, 0.353556942744128 
2.8000000000014844, 0.352499799193984 
2.8100000000015055, 0.35095086711845813 
2.8200000000015266, 0.3485647330221709 
2.8300000000015477, 0.3447072009485583 
2.840000000001569, 0.3381185041259659 
2.85000000000159, 0.32610557638873505 
2.860000000001611, 0.30254939568588674 
2.870000000001632, 0.2534092635674012 
2.8800000000016532, 0.1516929398286249 
2.8900000000016743, -0.020963021033729812 
2.9000000000016954, -0.20544409943726102 
2.9100000000017165, -0.3175741773252101 
2.9200000000017377, -0.35979479699745986 
2.9300000000017588, -0.3697445643579841 
2.94000000000178, -0.3699358743657407 
2.950000000001801, -0.36844195593121487 
2.960000000001822, -0.367305174275098 
2.970000000001843, -0.36675022948967395 
2.9800000000018643, -0.36660697882694265 
2.9900000000018854, -0.3666905764121145 
3.0000000000019065, -0.36687144598663696 
3.0100000000019276, -0.36706966893036636 
3.0200000000019487, -0.3672382562092853 
3.03000000000197, -0.3673498910245104 
3.040000000001991, -0.3673888722862989 
3.050000000002012, -0.36734742857269953 
3.060000000002033, -0.3672254472932202 
3.070000000002054, -0.36703273275371645 
3.0800000000020753, -0.36679256793298526 
3.0900000000020964, -0.366544700745352 
3.1000000000021175, -0.3663455483699766 
3.1100000000021386, -0.3662641779466092 
3.1200000000021597, -0.366374397573077 
3.130000000002181, -0.3667447138547171 
3.140000000002202, -0.3674276322765894 
3.150000000002223, -0.3684483570952885 
3.160000000002244, -0.36979278442820346 
3.1700000000022652, -0.37139758104026327 
3.1800000000022863, -0.3731494986666957 
3.1900000000023074, -0.3749012953659398 
3.2000000000023285, -0.37650312973384814 
3.2100000000023496, -0.3778359758143562 
3.2200000000023707, -0.3788302902310764 
3.230000000002392, -0.3794634227956221 
3.240000000002413, -0.37974228599796434 
3.250000000002434, -0.3796820718232201 
3.260000000002455, -0.3792875380164539 
3.2700000000024763, -0.37853716045609176 
3.2800000000024974, -0.37736609127461046 
3.2900000000025185, -0.3756409059566499 
3.3000000000025396, -0.37311542649564744 
3.3100000000025607, -0.3693509056076829 
3.3200000000025818, -0.3635778199676192 
3.330000000002603, -0.35448819807213305 
3.340000000002624, -0.34004056913398417 
3.350000000002645, -0.31765739497597084 
3.360000000002666, -0.28559390696953035 
3.3700000000026873, -0.24554979533046992 
3.3800000000027084, -0.2036665266526824 
3.3900000000027295, -0.16695226119858703 
3.4000000000027506, -0.1388834270574386 
3.4100000000027717, -0.11911659593083135 
3.420000000002793, -0.10568389969253847 
3.430000000002814, -0.09660458678021563 
3.440000000002835, -0.0903995447041318 
3.450000000002856, -0.08607868897885053 
3.460000000002877, -0.08300374074122294 
3.4700000000028983, -0.08076580386183356 
3.4800000000029194, -0.07910181096283171 
3.4900000000029405, -0.07784247656166429 
3.5000000000029616, -0.07688098372997576 
3.5100000000029827, -0.07615459224230195 
3.520000000003004, -0.07563457536612944 
3.530000000003025, -0.07532220107227403 
3.540000000003046, -0.07524995022652059 
3.550000000003067, -0.0754879367479871 
3.5600000000030882, -0.07615497684119582 
3.5700000000031094, -0.07742887449138512 
3.5800000000031305, -0.07952976057491629 
3.5900000000031516, -0.08257477143764885 
3.6000000000031727, -0.08595637775680398 
3.6100000000031938, -0.08625952198207854 
3.620000000003215, -0.07213240749670499 
3.630000000003236, -0.01969612258137218 
3.640000000003257, 0.08607868735727241 
3.650000000003278, 0.20681871782989691 
3.6600000000032993, 0.2909197640563306 
3.6700000000033204, 0.3356123957072146 
3.6800000000033415, 0.3577402682743921 
3.6900000000033626, 0.3689208983138344 
3.7000000000033837, 0.37479910116999193 
3.710000000003405, 0.3779743572875429 
3.720000000003426, 0.3796851936715311 
3.730000000003447, 0.38056077401760136 
3.740000000003468, 0.380947517781274 
3.750000000003489, 0.38105568891741454 
3.7600000000035103, 0.38102863940500326 
3.7700000000035314, 0.3809780234485913 
3.7800000000035525, 0.3810041007009934 
3.7900000000035736, 0.38120952201904473 
3.8000000000035947, 0.38170890396001733 
3.810000000003616, 0.3826313159764468 
3.820000000003637, 0.3841075726372945 
3.830000000003658, 0.38623216879091504 
3.840000000003679, 0.3890000961960014 
3.8500000000037002, 0.39224835195848284 
3.8600000000037213, 0.3956586367834706 
3.8700000000037424, 0.3988498548885054 
3.8800000000037635, 0.4015070596927386 
3.8900000000037847, 0.4034550496699295 
3.9000000000038058, 0.40464262847905524 
3.910000000003827, 0.40507508801742664 
3.920000000003848, 0.40474271969719516 
3.930000000003869, 0.40356479871326145 
3.94000000000389, 0.40134821132391213 
3.9500000000039113, 0.39776490791951624 
3.9600000000039324, 0.39238451557117787 
3.9700000000039535, 0.3848473584504564 
3.9800000000039746, 0.37524670820093403 
3.9900000000039957, 0.3645272311085575 
4.000000000004016, 0.35433088649694655 
4.010000000003993, 0.34610235228457104 
4.02000000000397, 0.3403320607180553 
4.030000000003946, 0.33666377311690143 
4.040000000003923, 0.3344435019950062 
4.0500000000039, 0.3330952841513426 
4.0600000000038765, 0.3322219306403158 
4.070000000003853, 0.3315733064324047 
4.08000000000383, 0.33098869768664424 
4.090000000003807, 0.3303489078340165 
4.100000000003783, 0.32953988887194063 
4.11000000000376, 0.3284193532955503 
4.120000000003737, 0.3267732012040507 
4.130000000003713, 0.3242393835727326 
4.14000000000369, 0.3201519153839801 
4.150000000003667, 0.3131918845267123 
4.1600000000036434, 0.30056022773666224 
4.17000000000362, 0.27598092858510365 
4.180000000003597, 0.2253958077163391 
4.1900000000035735, 0.12298578760518974 
4.20000000000355, -0.04623035350931128 
4.210000000003527, -0.22512666007722015 
4.220000000003504, -0.33701958830888246 
4.23000000000348, -0.3836327150125702 
4.240000000003457, -0.3985641213658406 
4.250000000003434, -0.4025981504384633 
4.26000000000341, -0.40370463891682584 
4.270000000003387, -0.40425451811960605 
4.280000000003364, -0.4047844899457172 
4.2900000000033405, -0.40533979821385174 
4.300000000003317, -0.40587158695237263 
4.310000000003294, -0.40633404173512033 
4.320000000003271, -0.406698452591439 
4.330000000003247, -0.40694865768792327 
4.340000000003224, -0.40707498625594063 
4.350000000003201, -0.40707048352004505 
4.360000000003177, -0.4069299581513785 
4.370000000003154, -0.40665181356362445 
4.380000000003131, -0.4062423583340124 
4.390000000003107, -0.4057215364682839 
4.400000000003084, -0.40512778580793096 
4.410000000003061, -0.4045189227785457 
4.4200000000030375, -0.4039668877212409 
4.430000000003014, -0.40354703076202164 
4.440000000002991, -0.4033253385398389 
4.450000000002968, -0.4033471895731453 
4.460000000002944, -0.4036291402907518 
4.470000000002921, -0.4041536722919425 
4.480000000002898, -0.40486768921589344 
4.490000000002874, -0.40568746854269416 
4.500000000002851, -0.40651223280015863 
4.510000000002828, -0.4072438767830877 
4.520000000002804, -0.4078051715919893 
4.530000000002781, -0.4081486568275797 
4.540000000002758, -0.4082540876049909 
4.5500000000027345, -0.4081182718223726 
4.560000000002711, -0.4077427695640823 
4.570000000002688, -0.4071227034591038 
4.580000000002665, -0.40623673094326823 
4.590000000002641, -0.40503559991259797 
4.600000000002618, -0.40342402061946825 
4.610000000002595, -0.401225517995954 
4.620000000002571, -0.39810784516420766 
4.630000000002548, -0.39341794618720977 
4.640000000002525, -0.38581434993079233 
4.6500000000025015, -0.3724925723739314 
4.660000000002478, -0.34786556745876757 
4.670000000002455, -0.30275671231734 
4.6800000000024315, -0.2290361880498878 
4.690000000002408, -0.13394970167449463 
4.700000000002385, -0.04396548958273308 
4.710000000002362, 0.02064481688379233 
4.720000000002338, 0.059899821744717856 
4.730000000002315, 0.0825194844460443 
4.740000000002292, 0.09555304203534704 
4.750000000002268, 0.10322788448438149 
4.760000000002245, 0.10785586863039896 
4.770000000002222, 0.11069233167024876 
4.7800000000021985, 0.11243661838333813 
4.790000000002175, 0.11349301341854924 
4.800000000002152, 0.11410437445844991 
4.810000000002129, 0.11442192384067959 
4.820000000002105, 0.11454351844916155 
4.830000000002082, 0.11453692853633539 
4.840000000002059, 0.11445764800292156 
4.850000000002035, 0.11436911320396496 
4.860000000002012, 0.11437642381482023 
4.870000000001989, 0.11469476926004814 
4.880000000001965, 0.11579371546976769 
4.890000000001942, 0.11867878569329868 
4.900000000001919, 0.1253096880879695 
