t, s[1].omega / s[0].omega 
0, -0.8399114791032707 
0.009999999999999995, -0.830934653396087 
0.019999999999999934, -0.822256817411304 
0.029999999999999874, -0.8145614511139818 
0.04000000000000012, -0.8082657820225074 
0.050000000000000405, -0.8035052272309683 
0.06000000000000069, -0.8001881222669975 
0.07000000000000098, -0.7980766522319712 
0.08000000000000126, -0.7968695875202653 
0.09000000000000155, -0.7962709382374351 
0.10000000000000184, -0.796033386255248 
0.11000000000000212, -0.7959739370902094 
0.12000000000000241, -0.7959684532951411 
0.130000000000002, -0.7959357757957346 
0.1400000000000009, -0.7958204843794886 
0.1499999999999998, -0.7955795885839217 
0.1599999999999987, -0.795175628484887 
0.1699999999999976, -0.794577178127803 
0.1799999999999965, -0.7937659479031549 
0.1899999999999954, -0.7927462104485002 
0.1999999999999943, -0.7915490783967332 
0.2099999999999932, -0.7902261995276555 
0.2199999999999921, -0.7888354812802348 
0.229999999999991, -0.7874278118631711 
0.2399999999999899, -0.786041723432277 
0.2499999999999888, -0.7847060079277222 
0.2599999999999877, -0.7834457997978257 
0.2699999999999866, -0.7822877408181523 
0.2799999999999855, -0.7812620577595897 
0.2899999999999844, -0.7804012634718932 
0.2999999999999833, -0.779736202167693 
0.3099999999999822, -0.7792907677372307 
0.3199999999999811, -0.7790770510703755 
0.32999999999998, -0.7790926520334784 
0.3399999999999789, -0.7793211781742643 
0.3499999999999778, -0.77973575082986 
0.35999999999997667, -0.7803042296971426 
0.36999999999997557, -0.7809943628930013 
0.37999999999997447, -0.7817772306691946 
0.38999999999997337, -0.7826278374410007 
0.39999999999997227, -0.7835223116514596 
0.40999999999997117, -0.7844322519371136 
0.41999999999997006, -0.7853187494032458 
0.42999999999996896, -0.7861306846167919 
0.43999999999996786, -0.786811359419745 
0.44999999999996676, -0.7873123562041562 
0.45999999999996566, -0.7876069220227189 
0.46999999999996456, -0.7876945472894044 
0.47999999999996346, -0.787595561665103 
0.48999999999996235, -0.7873418587568539 
0.49999999999996125, -0.7869707874944692 
0.5099999999999602, -0.786525797071597 
0.519999999999959, -0.7860643117475038 
0.529999999999958, -0.785671828625032 
0.5399999999999568, -0.7854798230501896 
0.5499999999999557, -0.7856822244822126 
0.5599999999999546, -0.7865414542473179 
0.5699999999999535, -0.7883731335055939 
0.5799999999999524, -0.7915017646423308 
0.5899999999999513, -0.7961875614662187 
0.5999999999999502, -0.8025328259785255 
0.6099999999999491, -0.810384216818688 
0.619999999999948, -0.8192641014408524 
0.6299999999999469, -0.8283928155503757 
0.6399999999999458, -0.8368636879087026 
0.6499999999999447, -0.8439369967554757 
0.6599999999999436, -0.8492759821864432 
0.6699999999999425, -0.8529599194667241 
0.6799999999999414, -0.8553096801106242 
0.6899999999999403, -0.8566925297559151 
0.6999999999999392, -0.8574112605689457 
0.7099999999999381, -0.8576750506542992 
0.719999999999937, -0.8576101562540946 
0.7299999999999359, -0.8572796402325311 
0.7399999999999348, -0.8566999849202972 
0.7499999999999337, -0.8558539503641706 
0.7599999999999326, -0.8547056902156329 
0.7699999999999315, -0.8532306681449541 
0.7799999999999304, -0.8514806701812813 
0.7899999999999293, -0.8497052213292546 
0.7999999999999282, -0.848518415216325 
0.8099999999999271, -0.8489970576964125 
0.819999999999926, -0.8524563303134192 
0.8299999999999249, -0.8597220852475823 
0.8399999999999238, -0.8702849068952979 
0.8499999999999227, -0.8822620761488785 
0.8599999999999216, -0.8934440062016524 
0.8699999999999205, -0.9024232415860789 
0.8799999999999194, -0.9088752880419368 
0.8899999999999183, -0.9131601787823461 
0.8999999999999172, -0.915845585474521 
0.9099999999999161, -0.9174392195161859 
0.919999999999915, -0.9183082495752826 
0.9299999999999139, -0.9186870699027745 
0.9399999999999128, -0.9187073247852663 
0.9499999999999117, -0.9184224523701795 
0.9599999999999106, -0.9178185650837241 
0.9699999999999095, -0.9168096283289117 
0.9799999999999084, -0.9152155516051632 
0.9899999999999073, -0.9127229499107232 
0.9999999999999062, -0.9088374135685854 
1.0099999999999052, -0.9028657541511919 
1.019999999999904, -0.8940265721346348 
1.029999999999903, -0.8818341069521176 
1.039999999999902, -0.8667545060868267 
1.0499999999999008, -0.8506436629972652 
1.0599999999998997, -0.8361902295818708 
1.0699999999998986, -0.825487371913517 
1.0799999999998975, -0.8190485605681651 
1.0899999999998964, -0.8160513400373832 
1.0999999999998953, -0.8152080914497615 
1.1099999999998942, -0.8154218822839668 
1.119999999999893, -0.8159961861205529 
1.129999999999892, -0.8165744716926773 
1.1399999999998909, -0.8170091659599631 
1.1499999999998898, -0.817254484878096 
1.1599999999998887, -0.8173007010861697 
1.1699999999998876, -0.8171386683340153 
1.1799999999998865, -0.8167403420807673 
1.1899999999998854, -0.8160458553958087 
1.1999999999998843, -0.8149538879637038 
1.2099999999998832, -0.8133192320645181 
1.219999999999882, -0.8109695322931847 
1.229999999999881, -0.8077557562962572 
1.2399999999998799, -0.8036334113047288 
1.2499999999998788, -0.7987320429061796 
1.2599999999998777, -0.7933521803067679 
1.2699999999998766, -0.7878785337976577 
1.2799999999998755, -0.7826698974333808 
1.2899999999998744, -0.777990992117797 
1.2999999999998733, -0.7739988807157647 
1.3099999999998722, -0.7707590030147808 
1.319999999999871, -0.7682663618589871 
1.32999999999987, -0.7664627941432312 
1.3399999999998689, -0.765251788028716 
1.3499999999998678, -0.7645141477324222 
1.3599999999998666, -0.7641247226775628 
1.3699999999998655, -0.7639672259091086 
1.3799999999998644, -0.7639437589725199 
1.3899999999998633, -0.7639778620537307 
1.3999999999998622, -0.7640126072066049 
1.4099999999998611, -0.764006690809553 
1.41999999999986, -0.7639313115487137 
1.429999999999859, -0.7637692671705587 
1.4399999999998578, -0.7635156427876437 
1.4499999999998567, -0.7631775748912819 
1.4599999999998556, -0.7627705415341219 
1.4699999999998545, -0.7623113700069851 
1.4799999999998534, -0.7618115641370731 
1.4899999999998523, -0.7612750324787425 
1.4999999999998512, -0.7607011975644311 
1.5099999999998501, -0.7600909109622521 
1.519999999999849, -0.759451726317397 
1.529999999999848, -0.7588009171805348 
1.5399999999998468, -0.7581667499545974 
1.5499999999998457, -0.7575890336049732 
1.5599999999998446, -0.7571190560727488 
1.5699999999998435, -0.7568179999080884 
1.5799999999998424, -0.7567528299463593 
1.5899999999998413, -0.7569896584391985 
1.5999999999998402, -0.7575860774304324 
1.6099999999998391, -0.7585847622679749 
1.619999999999838, -0.7600099580567968 
1.629999999999837, -0.7618664661153353 
1.6399999999998358, -0.7641385708652566 
1.6499999999998347, -0.7667853297030982 
1.6599999999998336, -0.7697300681524925 
1.6699999999998325, -0.7728470238714124 
1.6799999999998314, -0.7759564381440217 
1.6899999999998303, -0.7788444539910631 
1.6999999999998292, -0.781313203924731 
1.709999999999828, -0.7832384632127869 
1.719999999999827, -0.7845964560066416 
1.729999999999826, -0.7854445109166002 
1.7399999999998248, -0.7858771165222928 
1.7499999999998237, -0.7859876402701487 
1.7599999999998226, -0.7858487710261264 
1.7699999999998215, -0.785508854569047 
1.7799999999998204, -0.7849976582768411 
1.7899999999998193, -0.784338769852518 
1.7999999999998182, -0.7835711043218796 
1.809999999999817, -0.7827866433974527 
1.819999999999816, -0.7821936144980667 
1.8299999999998149, -0.7822079737701764 
1.8399999999998138, -0.7835493106389656 
1.8499999999998127, -0.7872586675817035 
1.8599999999998116, -0.7944845238529774 
1.8699999999998105, -0.8059071131768638 
1.8799999999998094, -0.820976888925444 
1.8899999999998083, -0.8376531901458533 
1.8999999999998072, -0.8532491768587664 
1.909999999999806, -0.865822937344738 
1.919999999999805, -0.8748357158173686 
1.9299999999998039, -0.8807744465021603 
1.9399999999998028, -0.8844683027558256 
1.9499999999998017, -0.8866637427949943 
1.9599999999998006, -0.8878960922307366 
1.9699999999997995, -0.8885062456956998 
1.9799999999997984, -0.8886926007882373 
1.9899999999997973, -0.8885546825540276 
1.9999999999997962, -0.8881186212869563 
2.0099999999998173, -0.8873449342472265 
2.0199999999998384, -0.8861199584641248 
2.0299999999998595, -0.8842314291229213 
2.0399999999998806, -0.8813311095771524 
2.0499999999999017, -0.8769001678539871 
2.059999999999923, -0.8702666563405937 
2.069999999999944, -0.8607780825817368 
2.079999999999965, -0.8482385312347388 
2.089999999999986, -0.8335002979114285 
2.100000000000007, -0.8186329872284654 
2.1100000000000283, -0.8060900413917101 
2.1200000000000494, -0.7973803981117109 
2.1300000000000705, -0.7925060577330193 
2.1400000000000916, -0.790472657423007 
2.1500000000001127, -0.7900951285258329 
2.160000000000134, -0.7904669220132684 
2.170000000000155, -0.7910492245014942 
2.180000000000176, -0.791579893087005 
2.190000000000197, -0.7919559454106421 
2.2000000000002182, -0.7921475112929348 
2.2100000000002393, -0.7921472465236594 
2.2200000000002604, -0.7919431248946972 
2.2300000000002815, -0.7915030752657791 
2.2400000000003026, -0.7907648778566968 
2.2500000000003237, -0.7896305040043414 
2.260000000000345, -0.7879705953281941 
2.270000000000366, -0.7856501430986338 
2.280000000000387, -0.7825822957419488 
2.290000000000408, -0.7787939539246909 
2.3000000000004293, -0.7744580246124929 
2.3100000000004504, -0.7698564670777994 
2.3200000000004715, -0.7652945795430003 
2.3300000000004926, -0.7610250877922471 
2.3400000000005137, -0.7572172569632676 
2.3500000000005348, -0.753963124923779 
2.360000000000556, -0.7512967698953462 
2.370000000000577, -0.7492108013343836 
2.380000000000598, -0.7476665327270999 
2.390000000000619, -0.7466007915164223 
2.4000000000006403, -0.7459330798846182 
2.4100000000006614, -0.7455745471591488 
2.4200000000006825, -0.7454375937082444 
2.4300000000007036, -0.7454437252943509 
2.4400000000007247, -0.7455279736961961 
2.450000000000746, -0.7456398984332366 
2.460000000000767, -0.7457425750648641 
2.470000000000788, -0.7458112723065622 
2.480000000000809, -0.7458326545428415 
2.49000000000083, -0.7458038313446266 
2.5000000000008513, -0.745729560404792 
2.5100000000008724, -0.7456167348547724 
2.5200000000008935, -0.7454678764473404 
2.5300000000009146, -0.7452773650903236 
2.5400000000009357, -0.7450331064704901 
2.550000000000957, -0.7447227200984791 
2.560000000000978, -0.7443403781146921 
2.570000000000999, -0.7438908808580517 
2.58000000000102, -0.7433906237399166 
2.5900000000010412, -0.7428675657504135 
2.6000000000010624, -0.7423623308267849 
2.6100000000010835, -0.7419309618446537 
2.6200000000011046, -0.7416481067005541 
2.6300000000011257, -0.7416083724690024 
2.6400000000011468, -0.7419236005570495 
2.650000000001168, -0.7427150459447613 
2.660000000001189, -0.7441013931178388 
2.67000000000121, -0.746184807430953 
2.680000000001231, -0.7490363678818861 
2.6900000000012523, -0.75267936171033 
2.7000000000012734, -0.7570665932756129 
2.7100000000012945, -0.762050737032252 
2.7200000000013156, -0.7673593533325188 
2.7300000000013367, -0.7726048554522983 
2.740000000001358, -0.7773607822173868 
2.750000000001379, -0.781290009097444 
2.7600000000014, -0.784246376114761 
2.770000000001421, -0.7862781602543382 
2.780000000001442, -0.7875485420547945 
2.7900000000014633, -0.7882447336757402 
2.8000000000014844, -0.7885230389490638 
2.8100000000015055, -0.7884912662495548 
2.8200000000015266, -0.7882110997954446 
2.8300000000015477, -0.7877064674769698 
2.840000000001569, -0.7869723396963398 
2.85000000000159, -0.7859848761457379 
2.860000000001611, -0.7847188672995415 
2.870000000001632, -0.7831832971510498 
2.8800000000016532, -0.7814881594396248 
2.8900000000016743, -0.7799440206831207 
2.9000000000016954, -0.779148734357696 
2.9100000000017165, -0.7799311327463186 
2.9200000000017377, -0.7830036199105427 
2.9300000000017588, -0.7884318753022556 
2.94000000000178, -0.7954276355792145 
2.950000000001801, -0.8027742759184047 
2.960000000001822, -0.8094444187950944 
2.970000000001843, -0.8148849758721406 
2.9800000000018643, -0.8189739198146546 
2.9900000000018854, -0.821855191672095 
3.0000000000019065, -0.8237776208891141 
3.0100000000019276, -0.8249885408103967 
3.0200000000019487, -0.825685363635509 
3.03000000000197, -0.8260043833699721 
3.040000000001991, -0.8260249657964728 
3.050000000002012, -0.8257752895457257 
3.060000000002033, -0.8252326686971031 
3.070000000002054, -0.8243150257210285 
3.0800000000020753, -0.8228622063181954 
3.0900000000020964, -0.8206105437918367 
3.1000000000021175, -0.8171775507296507 
3.1100000000021386, -0.81209948653909 
3.1200000000021597, -0.8049828685469912 
3.130000000002181, -0.795775581689434 
3.140000000002202, -0.7849984893672435 
3.150000000002223, -0.7736854689634305 
3.160000000002244, -0.763003007342115 
3.1700000000022652, -0.7538371335089116 
3.1800000000022863, -0.7466109341044203 
3.1900000000023074, -0.7413356170058025 
3.2000000000023285, -0.737760714496735 
3.2100000000023496, -0.7355201927326604 
3.2200000000023707, -0.7342368943801255 
3.230000000002392, -0.7335828229656969 
3.240000000002413, -0.7333037169287534 
3.250000000002434, -0.7332190210861849 
3.260000000002455, -0.7332083907015762 
3.2700000000024763, -0.7331938422686267 
3.2800000000024974, -0.7331234457872762 
3.2900000000025185, -0.7329595431886268 
3.3000000000025396, -0.7326727183331351 
3.3100000000025607, -0.7322417262706065 
3.3200000000025818, -0.7316580956199018 
3.330000000002603, -0.730931561367559 
3.340000000002624, -0.7300907306129736 
3.350000000002645, -0.7291758120683478 
3.360000000002666, -0.7282265141094186 
3.3700000000026873, -0.7272723503472509 
3.3800000000027084, -0.7263303037853913 
3.3900000000027295, -0.7254091785735632 
3.4000000000027506, -0.7245165340372315 
3.4100000000027717, -0.7236645176511398 
3.420000000002793, -0.7228731715464188 
3.430000000002814, -0.7221714599358625 
3.440000000002835, -0.7215965775858217 
3.450000000002856, -0.7211917434055442 
3.460000000002877, -0.7210025676195241 
3.4700000000028983, -0.7210724953155013 
3.4800000000029194, -0.7214384131955318 
3.4900000000029405, -0.7221276724458681 
3.5000000000029616, -0.7231571990240717 
3.5100000000029827, -0.724534184710087 
3.520000000003004, -0.7262565475341043 
3.530000000003025, -0.7283104425175047 
3.540000000003046, -0.7306622363945514 
3.550000000003067, -0.733244653845512 
3.5600000000030882, -0.7359425058856366 
3.5700000000031094, -0.738591097516879 
3.5800000000031305, -0.7410016606352726 
3.5900000000031516, -0.7430119331061327 
3.6000000000031727, -0.7445338537428398 
3.6100000000031938, -0.7455661483496897 
3.620000000003215, -0.7461687279790603 
3.630000000003236, -0.7464236013284627 
3.640000000003257, -0.7464056128723138 
3.650000000003278, -0.7461694333085618 
3.6600000000032993, -0.7457484916108854 
3.6700000000033204, -0.7451608053786729 
3.6800000000033415, -0.7444204859244151 
3.6900000000033626, -0.7435582441326739 
3.7000000000033837, -0.7426582884181407 
3.710000000003405, -0.7419206504757307 
3.720000000003426, -0.7417505036994253 
3.730000000003447, -0.7428451868708811 
3.740000000003468, -0.7461820549905381 
3.750000000003489, -0.7527391989348701 
3.7600000000035103, -0.7628672106174619 
3.7700000000035314, -0.7756638006026786 
3.7800000000035525, -0.7891113421096867 
3.7900000000035736, -0.8011375548411269 
3.8000000000035947, -0.8106000535432237 
3.810000000003616, -0.817388621703204 
3.820000000003637, -0.8219610616765604 
3.830000000003658, -0.8249060474057 
3.840000000003679, -0.8267289021070882 
3.8500000000037002, -0.8277966075518093 
3.8600000000037213, -0.8283506929565576 
3.8700000000037424, -0.8285360706574417 
3.8800000000037635, -0.8284250326639595 
3.8900000000037847, -0.8280302249550775 
3.9000000000038058, -0.8273050884501496 
3.910000000003827, -0.8261307546629512 
3.920000000003848, -0.8242887862410105 
3.930000000003869, -0.821424589617273 
3.94000000000389, -0.817025534281495 
3.9500000000039113, -0.8104769865416795 
3.9600000000039324, -0.8012883568451153 
3.9700000000039535, -0.78949231391439 
3.9800000000039746, -0.7759550893011039 
3.9900000000039957, -0.7622071261485989 
4.000000000004016, -0.7498090306042715 
4.010000000003993, -0.7397643628740855 
4.02000000000397, -0.7323591239339649 
4.030000000003946, -0.7273472017510957 
4.040000000003923, -0.7242264167045789 
4.0500000000039, -0.722450993727412 
4.0600000000038765, -0.7215481566614524 
4.070000000003853, -0.7211598509933836 
4.08000000000383, -0.721039760872743 
4.090000000003807, -0.7210300441717056 
4.100000000003783, -0.7210335758871231 
4.11000000000376, -0.7209898334461011 
4.120000000003737, -0.7208573776927043 
4.130000000003713, -0.7206034007362723 
4.14000000000369, -0.7202001939056829 
4.150000000003667, -0.7196280939269388 
4.1600000000036434, -0.7188828454676347 
4.17000000000362, -0.7179822349280103 
4.180000000003597, -0.716965445815844 
4.1900000000035735, -0.7158827954922333 
4.20000000000355, -0.7147812277331641 
4.210000000003527, -0.7136942421157685 
4.220000000003504, -0.7126406644916655 
4.23000000000348, -0.7116302292580318 
4.240000000003457, -0.7106711331352644 
4.250000000003434, -0.7097759337484006 
4.26000000000341, -0.708964646021178 
4.270000000003387, -0.7082654226063667 
4.280000000003364, -0.7077134404185979 
4.2900000000033405, -0.7073483542150891 
4.300000000003317, -0.7072106663490738 
4.310000000003294, -0.7073377140226981 
4.320000000003271, -0.7077603137050822 
4.330000000003247, -0.7085009885451055 
4.340000000003224, -0.7095739935788171 
4.350000000003201, -0.710986254227033 
4.360000000003177, -0.7127372197021353 
4.370000000003154, -0.7148149224504377 
4.380000000003131, -0.7171859207367695 
4.390000000003107, -0.7197796032959412 
4.400000000003084, -0.7224737855852339 
4.410000000003061, -0.7250962671939544 
4.4200000000030375, -0.7274559594549765 
4.430000000003014, -0.7293971245813557 
4.440000000002991, -0.7308443632530824 
4.450000000002968, -0.7318082558271122 
4.460000000002944, -0.7323548741877537 
4.470000000002921, -0.7325665162830874 
4.480000000002898, -0.7325147687853446 
4.490000000002874, -0.732249580648619 
4.500000000002851, -0.7317990301356312 
4.510000000002828, -0.7311748612986642 
4.520000000002804, -0.7303828186964032 
4.530000000002781, -0.7294410944940076 
4.540000000002758, -0.7284139730255289 
4.5500000000027345, -0.7274690912159023 
4.560000000002711, -0.7269585878495601 
4.570000000002688, -0.7274920389476045 
4.580000000002665, -0.7299017974990287 
4.590000000002641, -0.7349482905331712 
4.600000000002618, -0.7427545272473439 
4.610000000002595, -0.7524027436748199 
4.620000000002571, -0.762293176043012 
4.630000000002548, -0.7710431727254564 
4.640000000002525, -0.778008550437866 
4.6500000000025015, -0.7831647997874134 
4.660000000002478, -0.7867871021664514 
4.670000000002455, -0.7892264462563662 
4.6800000000024315, -0.7908019490442872 
4.690000000002408, -0.7917625535449211 
4.700000000002385, -0.7922832431240706 
4.710000000002362, -0.7924744861158951 
4.720000000002338, -0.7923928617573652 
4.730000000002315, -0.7920469420413905 
4.740000000002292, -0.7913957734343823 
4.750000000002268, -0.7903389939441798 
4.760000000002245, -0.7887002425810393 
4.770000000002222, -0.7862130281076046 
4.7800000000021985, -0.7825342596916588 
4.790000000002175, -0.7773276922668809 
4.800000000002152, -0.7704404581413448 
4.810000000002129, -0.7620988755379152 
4.820000000002105, -0.7529485664040971 
4.830000000002082, -0.7438484333748404 
4.840000000002059, -0.7355632791537761 
4.850000000002035, -0.7285710205788625 
4.860000000002012, -0.7230444361352297 
4.870000000001989, -0.7189306791570047 
4.880000000001965, -0.7160458723222608 
4.890000000001942, -0.714149379536739 
4.900000000001919, -0.7129939126686006 
4.9100000000018955, -0.7123562829809366 
4.920000000001872, -0.7120530393787928 
