t, s[1].omega / s[0].omega 
0, -0.6999976921275672 
0.009999999999999995, -0.6997567393819898 
0.019999999999999934, -0.6994907454341056 
0.029999999999999874, -0.6991878862055285 
0.04000000000000012, -0.6988361090583105 
0.050000000000000405, -0.6984296178717546 
0.06000000000000069, -0.6979723778410357 
0.07000000000000098, -0.6974788620915884 
0.08000000000000126, -0.6969741892172285 
0.09000000000000155, -0.6964956062271026 
0.10000000000000184, -0.6960959358451129 
0.11000000000000212, -0.6958482894996999 
0.12000000000000241, -0.6958504649383574 
0.130000000000002, -0.6962270465506276 
0.1400000000000009, -0.6971273526565327 
0.1499999999999998, -0.6987178789938493 
0.1599999999999987, -0.7011680863588443 
0.1699999999999976, -0.7046273004977877 
0.1799999999999965, -0.7091881860365314 
0.1899999999999954, -0.7148320349152535 
0.1999999999999943, -0.7213611984597788 
0.2099999999999932, -0.728352324909791 
0.2199999999999921, -0.7351956315855621 
0.229999999999991, -0.7412616353049544 
0.2399999999999899, -0.7461227441582529 
0.2499999999999888, -0.7496699592903664 
0.2599999999999877, -0.7520534019374792 
0.2699999999999866, -0.7535345706682792 
0.2799999999999855, -0.7543670267458347 
0.2899999999999844, -0.7547436411964275 
0.2999999999999833, -0.7547894465192461 
0.3099999999999822, -0.7545713504212421 
0.3199999999999811, -0.754108214999883 
0.32999999999998, -0.7533750086434923 
0.3399999999999789, -0.7522991921870987 
0.3499999999999778, -0.7507486823245297 
0.35999999999997667, -0.7485112973652062 
0.36999999999997557, -0.7452682620753811 
0.37999999999997447, -0.7405745081451556 
0.38999999999997337, -0.7338872748220406 
0.39999999999997227, -0.7247362782271112 
0.40999999999997117, -0.7131277021016484 
0.41999999999997006, -0.700010690872508 
0.42999999999996896, -0.6872096016937831 
0.43999999999996786, -0.6765388578203237 
0.44999999999996676, -0.6688872899708962 
0.45999999999996566, -0.6641039054111612 
0.46999999999996456, -0.6614847402703086 
0.47999999999996346, -0.6602581734175776 
0.48999999999996235, -0.6598186848651457 
0.49999999999996125, -0.6597664346292168 
0.5099999999999602, -0.6598650638943886 
0.519999999999959, -0.6599852743711601 
0.529999999999958, -0.6600592611481226 
0.5399999999999568, -0.6600500222025244 
0.5499999999999557, -0.6599326394886393 
0.5599999999999546, -0.6596839966862886 
0.5699999999999535, -0.6592788951984214 
0.5799999999999524, -0.658692181907103 
0.5899999999999513, -0.657906835202169 
0.5999999999999502, -0.6569256148479068 
0.6099999999999491, -0.6557795930952518 
0.619999999999948, -0.6545256091903122 
0.6299999999999469, -0.6532312504172727 
0.6399999999999458, -0.6519558858902652 
0.6499999999999447, -0.6507388146970912 
0.6599999999999436, -0.6495987442616487 
0.6699999999999425, -0.6485410515134002 
0.6799999999999414, -0.6475668852693961 
0.6899999999999403, -0.6466801828823552 
0.6999999999999392, -0.6458915856420909 
0.7099999999999381, -0.6452199410174725 
0.719999999999937, -0.6446923711515951 
0.7299999999999359, -0.6443435092863984 
0.7399999999999348, -0.6442141693088315 
0.7499999999999337, -0.644349671304656 
0.7599999999999326, -0.6447981687256974 
0.7699999999999315, -0.6456093286393018 
0.7799999999999304, -0.6468333497287506 
0.7899999999999293, -0.6485194245474645 
0.7999999999999282, -0.6507113917906157 
0.8099999999999271, -0.6534368564027835 
0.819999999999926, -0.6566857749760522 
0.8299999999999249, -0.6603784490120166 
0.8399999999999238, -0.6643348094125117 
0.8499999999999227, -0.6682736556337654 
0.8599999999999216, -0.6718705019148613 
0.8699999999999205, -0.6748611501470934 
0.8799999999999194, -0.6771242429038312 
0.8899999999999183, -0.6786857495457308 
0.8999999999999172, -0.6796595334129665 
0.9099999999999161, -0.6801794560628203 
0.919999999999915, -0.6803576673895815 
0.9299999999999139, -0.6802696445998261 
0.9399999999999128, -0.6799530515747486 
0.9499999999999117, -0.6794095116442811 
0.9599999999999106, -0.6786033284604924 
0.9699999999999095, -0.6774539475179359 
0.9799999999999084, -0.6758194133490745 
0.9899999999999073, -0.6734676233017615 
0.9999999999999062, -0.67003416413916 
1.0099999999999052, -0.6649804526039074 
1.019999999999904, -0.6576166310929327 
1.029999999999903, -0.6473402978511446 
1.039999999999902, -0.6342000403930195 
1.0499999999999008, -0.6194259251320553 
1.0599999999998997, -0.6051287489250662 
1.0699999999998986, -0.5931655425476711 
1.0799999999998975, -0.5843132710631218 
1.0899999999998964, -0.5783639968604507 
1.0999999999998953, -0.5746559039518233 
1.1099999999998942, -0.5724892388280207 
1.119999999999893, -0.5713036603271345 
1.129999999999892, -0.570705893657877 
1.1399999999998909, -0.5704397187497023 
1.1499999999998898, -0.5703456085506058 
1.1599999999998887, -0.570326751131397 
1.1699999999998876, -0.570324678183002 
1.1799999999998865, -0.5703033267329694 
1.1899999999998854, -0.5702396472472822 
1.1999999999998843, -0.5701192679550433 
1.2099999999998832, -0.5699360328949775 
1.219999999999882, -0.5696938203384356 
1.229999999999881, -0.5694079799031933 
1.2399999999998799, -0.5691032269670041 
1.2499999999998788, -0.5688065642734628 
1.2599999999998777, -0.5685374764180958 
1.2699999999998766, -0.5683003080813598 
1.2799999999998755, -0.5680829608540001 
1.2899999999998744, -0.5678625042591664 
1.2999999999998733, -0.5676144885830161 
1.3099999999998722, -0.5673211145238402 
1.319999999999871, -0.5669750928472713 
1.32999999999987, -0.5665795028779705 
1.3399999999998689, -0.5661463180459119 
1.3499999999998678, -0.5656963845189196 
1.3599999999998666, -0.5652626857741023 
1.3699999999998655, -0.5648980987295447 
1.3799999999998644, -0.5646889269273576 
1.3899999999998633, -0.5647758721657226 
1.3999999999998622, -0.565383871399646 
1.4099999999998611, -0.5668595066188116 
1.41999999999986, -0.5697053503419218 
1.429999999999859, -0.5745773268405931 
1.4399999999998578, -0.5821699593534508 
1.4499999999998567, -0.5928880550762287 
1.4599999999998556, -0.606321055735357 
1.4699999999998545, -0.6209206105145826 
1.4799999999998534, -0.6345090679481121 
1.4899999999998523, -0.6454537251464957 
1.4999999999998512, -0.6533396888634195 
1.5099999999998501, -0.6586406266952387 
1.519999999999849, -0.662079512564769 
1.529999999999848, -0.6642697500143273 
1.5399999999998468, -0.6656382497874326 
1.5499999999998457, -0.6664589692641262 
1.5599999999998446, -0.6669005159853002 
1.5699999999998435, -0.66706115681277 
1.5799999999998424, -0.6669899117666148 
1.5899999999998413, -0.6666972489941867 
1.5999999999998402, -0.6661586402705778 
1.6099999999998391, -0.6653141462471746 
1.619999999999838, -0.664069031189036 
1.629999999999837, -0.6623044636943459 
1.6399999999998358, -0.6599102645756907 
1.6499999999998347, -0.6568432111862961 
1.6599999999998336, -0.6531864705862308 
1.6699999999998325, -0.6491602716434383 
1.6799999999998314, -0.6450585022630921 
1.6899999999998303, -0.6411518906870046 
1.6999999999998292, -0.6376235548165741 
1.709999999999828, -0.6345606149756617 
1.719999999999827, -0.6319802104652448 
1.729999999999826, -0.6298610360934036 
1.7399999999998248, -0.628165951766219 
1.7499999999998237, -0.6268539535372406 
1.7599999999998226, -0.6258848531934917 
1.7699999999998215, -0.625220368642714 
1.7799999999998204, -0.6248241512067219 
1.7899999999998193, -0.6246620311912319 
1.7999999999998182, -0.6247028646784067 
1.809999999999817, -0.6249198503465966 
1.819999999999816, -0.6252919781520372 
1.8299999999998149, -0.6258052206272376 
1.8399999999998138, -0.6264529765985273 
1.8499999999998127, -0.627234972817831 
1.8599999999998116, -0.6281534314167282 
1.8699999999998105, -0.6292053897607983 
1.8799999999998094, -0.6303715321594476 
1.8899999999998083, -0.6316052750493453 
1.8999999999998072, -0.6328297077885334 
1.909999999999806, -0.6339496996771772 
1.919999999999805, -0.634877568636114 
1.9299999999998039, -0.635558222125132 
1.9399999999998028, -0.63597812538959 
1.9499999999998017, -0.6361556867057933 
1.9599999999998006, -0.636123483973878 
1.9699999999997995, -0.6359133026997561 
1.9799999999997984, -0.6355481566571923 
1.9899999999997973, -0.6350403515203882 
1.9999999999997962, -0.6343936691322496 
2.0099999999998173, -0.6336090394497377 
2.0199999999998384, -0.6326947228178458 
2.0299999999998595, -0.6316827045945996 
2.0399999999998806, -0.6306503373493394 
2.0499999999999017, -0.6297351400048945 
2.059999999999923, -0.6291062825884766 
2.069999999999944, -0.6288370016445748 
2.079999999999965, -0.6286947005489385 
2.089999999999986, -0.6281071971517247 
2.100000000000007, -0.6266235001609866 
2.1100000000000283, -0.6244845309827174 
2.1200000000000494, -0.622451058149177 
2.1300000000000705, -0.621105752214503 
2.1400000000000916, -0.6205400935221498 
2.1500000000001127, -0.6205366000684247 
2.160000000000134, -0.620824758079668 
2.170000000000155, -0.6212029815208733 
2.180000000000176, -0.6215538898606583 
2.190000000000197, -0.6218203078592718 
2.2000000000002182, -0.6219782199171938 
2.2100000000002393, -0.6220172157836907 
2.2200000000002604, -0.621928503222944 
2.2300000000002815, -0.6216983885534513 
2.2400000000003026, -0.6213059808467989 
2.2500000000003237, -0.6207254169117514 
2.260000000000345, -0.6199337422663416 
2.270000000000366, -0.6189240516058215 
2.280000000000387, -0.617718763099472 
2.290000000000408, -0.616373469081535 
2.3000000000004293, -0.6149650309892464 
2.3100000000004504, -0.6135692419649967 
2.3200000000004715, -0.6122417048883986 
2.3300000000004926, -0.6110113751878476 
2.3400000000005137, -0.6098858915732077 
2.3500000000005348, -0.6088620241915917 
2.360000000000556, -0.607935318565072 
2.370000000000577, -0.6071063992489526 
2.380000000000598, -0.6063841155701585 
2.390000000000619, -0.6057867714300224 
2.4000000000006403, -0.6053425307828411 
2.4100000000006614, -0.6050895551723268 
2.4200000000006825, -0.6050760506174926 
2.4300000000007036, -0.6053602940145224 
2.4400000000007247, -0.6060107182333415 
2.450000000000746, -0.6071059908248925 
2.460000000000767, -0.6087344139381764 
2.470000000000788, -0.6109905960057607 
2.480000000000809, -0.6139650607724956 
2.49000000000083, -0.6177199479623195 
2.5000000000008513, -0.6222443780824101 
2.5100000000008724, -0.6273938072896191 
2.5200000000008935, -0.6328454514168178 
2.5300000000009146, -0.6381297841854703 
2.5400000000009357, -0.6427700333721247 
2.550000000000957, -0.6464574256540299 
2.560000000000978, -0.6491297994888029 
2.570000000000999, -0.6509129128121376 
2.58000000000102, -0.6520055503021108 
2.5900000000010412, -0.6525939207983685 
2.6000000000010624, -0.6528159483871125 
2.6100000000010835, -0.6527566688158193 
2.6200000000011046, -0.6524536716039377 
2.6300000000011257, -0.6519007639930368 
2.6400000000011468, -0.651044536242365 
2.650000000001168, -0.6497707716317415 
2.660000000001189, -0.6478783257691483 
2.67000000000121, -0.6450419325275322 
2.680000000001231, -0.6407818982704573 
2.6900000000012523, -0.6345003687546453 
2.7000000000012734, -0.6256923619113335 
2.7100000000012945, -0.6143704573695513 
2.7200000000013156, -0.6014219969848741 
2.7300000000013367, -0.5884033738693781 
2.740000000001358, -0.5767974309465671 
2.750000000001379, -0.5674193368805829 
2.7600000000014, -0.5603781360120415 
2.770000000001421, -0.5553656909625513 
2.780000000001442, -0.5519387635945889 
2.7900000000014633, -0.5496761036159319 
2.8000000000014844, -0.5482353438879622 
2.8100000000015055, -0.5473590397279153 
2.8200000000015266, -0.5468619910199414 
2.8300000000015477, -0.5466147684913252 
2.840000000001569, -0.5465289267361749 
2.85000000000159, -0.5465453682515274 
2.860000000001611, -0.5466259210625208 
2.870000000001632, -0.5467478022030534 
2.8800000000016532, -0.5469004745594226 
2.8900000000016743, -0.547084070373782 
2.9000000000016954, -0.5473079574948434 
2.9100000000017165, -0.5475875332349068 
2.9200000000017377, -0.54793773293675 
2.9300000000017588, -0.5483635713608994 
2.94000000000178, -0.5488507976511279 
2.950000000001801, -0.5493618844851544 
2.960000000001822, -0.5498418645126772 
2.970000000001843, -0.550233358339259 
2.9800000000018643, -0.5504931065542745 
2.9900000000018854, -0.5506005768563567 
3.0000000000019065, -0.5505555716437164 
3.0100000000019276, -0.5503693597071694 
3.0200000000019487, -0.5500556733626187 
3.03000000000197, -0.549624986550711 
3.040000000001991, -0.549082412791834 
3.050000000002012, -0.5484283818768433 
3.060000000002033, -0.5476613340982921 
3.070000000002054, -0.54678159131176 
3.0800000000020753, -0.5457934951840409 
3.0900000000020964, -0.5446957419340797 
3.1000000000021175, -0.5434342992422756 
3.1100000000021386, -0.5417785940274977 
3.1200000000021597, -0.539135227956377 
3.130000000002181, -0.5345480845549122 
3.140000000002202, -0.5273327991803575 
3.150000000002223, -0.5180774328864411 
3.160000000002244, -0.5086062607726365 
3.1700000000022652, -0.5006531471834803 
3.1800000000022863, -0.49490886408645035 
3.1900000000023074, -0.4911808335973774 
3.2000000000023285, -0.4889406903237347 
3.2100000000023496, -0.48767667450480207 
3.2200000000023707, -0.48700805569978634 
3.230000000002392, -0.4866833116261488 
3.240000000002413, -0.48654616032104514 
3.250000000002434, -0.486502577145946 
3.260000000002455, -0.4864967807268853 
3.2700000000024763, -0.4864957687984351 
3.2800000000024974, -0.4864803194869494 
3.2900000000025185, -0.48644067251971135 
3.3000000000025396, -0.4863755348083928 
3.3100000000025607, -0.48629294338538803 
3.3200000000025818, -0.48621086261268803 
3.330000000002603, -0.48615497987896933 
3.340000000002624, -0.4861521725184009 
3.350000000002645, -0.4862207044532143 
3.360000000002666, -0.4863608333387675 
3.3700000000026873, -0.4865504565178121 
3.3800000000027084, -0.48674904058261437 
3.3900000000027295, -0.48690922677010107 
3.4000000000027506, -0.4869906134010513 
3.4100000000027717, -0.48696850449331386 
3.420000000002793, -0.48683432242041136 
3.430000000002814, -0.4865900686487568 
3.440000000002835, -0.48624142265305015 
3.450000000002856, -0.48579249187220264 
3.460000000002877, -0.48524282280777753 
3.4700000000028983, -0.48458585000369 
3.4800000000029194, -0.48380718865987404 
3.4900000000029405, -0.4828796796149016 
3.5000000000029616, -0.4817477572129406 
3.5100000000029827, -0.4802839477983391 
3.520000000003004, -0.47818788201408813 
3.530000000003025, -0.47481733424867106 
3.540000000003046, -0.46909504728042545 
3.550000000003067, -0.45993773023287987 
3.5600000000030882, -0.4474233637808326 
3.5700000000031094, -0.43347825209996343 
3.5800000000031305, -0.42070125584631735 
3.5900000000031516, -0.41065570812253716 
3.6000000000031727, -0.40352553796988433 
3.6100000000031938, -0.3987637311864975 
3.620000000003215, -0.3956904018840477 
3.630000000003236, -0.3937472097517921 
3.640000000003257, -0.3925403232985741 
3.650000000003278, -0.3918103705883507 
3.6600000000032993, -0.3913922722510029 
3.6700000000033204, -0.3911833635013145 
3.6800000000033415, -0.39112180487298465 
3.6900000000033626, -0.39117312838985185 
3.7000000000033837, -0.39132251978212307 
3.710000000003405, -0.3915709870489582 
3.720000000003426, -0.3919339291341676 
3.730000000003447, -0.39244054052567634 
3.740000000003468, -0.3931320183850698 
3.750000000003489, -0.3940559407466869 
3.7600000000035103, -0.3952539312718234 
3.7700000000035314, -0.39674090320868516 
3.7800000000035525, -0.39847914902432924 
3.7900000000035736, -0.40036075611469 
3.8000000000035947, -0.40221947282923365 
3.810000000003616, -0.4038797782820536 
3.820000000003637, -0.40521658959666895 
3.830000000003658, -0.4061841581513709 
3.840000000003679, -0.40680189363950897 
3.8500000000037002, -0.4071196412659662 
3.8600000000037213, -0.40718760341307253 
3.8700000000037424, -0.40703922259137437 
3.8800000000037635, -0.40668322519613104 
3.8900000000037847, -0.40609863277410624 
3.9000000000038058, -0.4052287158557152 
3.910000000003827, -0.4039735086034534 
3.920000000003848, -0.40218657166794414 
3.930000000003869, -0.39969199900061436 
3.94000000000389, -0.3963461875739499 
3.9500000000039113, -0.39214962890081534 
3.9600000000039324, -0.3873437136046997 
3.9700000000039535, -0.38237580281483663 
3.9800000000039746, -0.37771606099712646 
3.9900000000039957, -0.3736756372313819 
4.000000000004016, -0.3703574589002764 
4.010000000003993, -0.3677168873805151 
4.02000000000397, -0.3656444966650178 
4.030000000003946, -0.3640224506946734 
4.040000000003923, -0.36275084581461076 
4.0500000000039, -0.3617556229107067 
4.0600000000038765, -0.3609883655301051 
4.070000000003853, -0.3604239610003018 
4.08000000000383, -0.36005907604681353 
4.090000000003807, -0.35991291632819744 
4.100000000003783, -0.36003126944698705 
4.11000000000376, -0.3604949550601053 
4.120000000003737, -0.3614342007877408 
4.130000000003713, -0.3630505991482893 
4.14000000000369, -0.36564671222963424 
4.150000000003667, -0.3696560216672558 
4.1600000000036434, -0.37564373062754325 
4.17000000000362, -0.38420133930679445 
4.180000000003597, -0.39561071795376357 
4.1900000000035735, -0.4092690095086769 
4.20000000000355, -0.42336259214467187 
4.210000000003527, -0.43559566055561383 
4.220000000003504, -0.4446123319389506 
4.23000000000348, -0.45050641544138825 
4.240000000003457, -0.45412689007994966 
4.250000000003434, -0.4563187154607903 
4.26000000000341, -0.4576571873924625 
4.270000000003387, -0.4584789295585586 
4.280000000003364, -0.45897103251016935 
4.2900000000033405, -0.45923642528139413 
4.300000000003317, -0.45933072190795243 
4.310000000003294, -0.45928132871356897 
4.320000000003271, -0.4590975986306721 
4.330000000003247, -0.4587774917419315 
4.340000000003224, -0.45831424932347326 
4.350000000003201, -0.4577051105084136 
4.360000000003177, -0.4569616116834598 
4.370000000003154, -0.4561172569539337 
4.380000000003131, -0.4552262741882876 
4.390000000003107, -0.45435104686456296 
4.400000000003084, -0.4535440773569457 
4.410000000003061, -0.4528344796279404 
4.4200000000030375, -0.45222481772243606 
4.430000000003014, -0.45169718068478015 
4.440000000002991, -0.45122374042840463 
4.450000000002968, -0.4507769558511672 
4.460000000002944, -0.4503362921137257 
4.470000000002921, -0.44989078999936777 
4.480000000002898, -0.44943895108835347 
4.490000000002874, -0.44898822459207954 
4.500000000002851, -0.44855605870496645 
4.510000000002828, -0.44817394326450566 
4.520000000002804, -0.4478957685070177 
4.530000000002781, -0.44781213219287574 
4.540000000002758, -0.44807219130673104 
4.5500000000027345, -0.4489120598736441 
4.560000000002711, -0.4506777916359311 
4.570000000002688, -0.453800151556562 
4.580000000002665, -0.4586221326298999 
4.590000000002641, -0.4649686398149365 
4.600000000002618, -0.47163638757406473 
4.610000000002595, -0.47662696057330534 
4.620000000002571, -0.47862029271371664 
4.630000000002548, -0.47809134594372127 
4.640000000002525, -0.4765139596160979 
4.6500000000025015, -0.4750160801621851 
4.660000000002478, -0.47400626497942966 
4.670000000002455, -0.4734637893109678 
4.6800000000024315, -0.4732394196020692 
4.690000000002408, -0.4731929218325931 
4.700000000002385, -0.473226544180155 
4.710000000002362, -0.47328013866024143 
4.720000000002338, -0.47331860826611205 
4.730000000002315, -0.4733213909677774 
4.740000000002292, -0.4732757753182703 
4.750000000002268, -0.47317377592831306 
4.760000000002245, -0.4730120575220921 
4.770000000002222, -0.47279421648434605 
4.7800000000021985, -0.4725339057376951 
4.790000000002175, -0.47225610902300613 
4.800000000002152, -0.47199375717951736 
4.810000000002129, -0.4717791208452421 
4.820000000002105, -0.4716329530285842 
4.830000000002082, -0.4715563034868417 
4.840000000002059, -0.4715289671320943 
4.850000000002035, -0.47151564380386873 
4.860000000002012, -0.4714772280856729 
4.870000000001989, -0.47138179407356573 
4.880000000001965, -0.47121030153641713 
4.890000000001942, -0.4709559444183601 
4.900000000001919, -0.4706198111815044 
