t, s[1].omega / s[0].omega 
0, -0.6299977187630934 
0.009999999999999995, -0.6297844152739187 
0.019999999999999934, -0.6295900318812271 
0.029999999999999874, -0.6293882368387865 
0.04000000000000012, -0.6291483720479658 
0.050000000000000405, -0.6288473867602835 
0.06000000000000069, -0.6284767013052646 
0.07000000000000098, -0.6280432956182647 
0.08000000000000126, -0.6275685135603337 
0.09000000000000155, -0.6270888378863541 
0.10000000000000184, -0.6266613730718408 
0.11000000000000212, -0.6263752552182125 
0.12000000000000241, -0.6263694606658253 
0.130000000000002, -0.6268570017807877 
0.1400000000000009, -0.6281544878170042 
0.1499999999999998, -0.6307135408090284 
0.1599999999999987, -0.6351445946975625 
0.1699999999999976, -0.6422097473643371 
0.1799999999999965, -0.6527336656358995 
0.1899999999999954, -0.6673461586903239 
0.1999999999999943, -0.6859885320949904 
0.2099999999999932, -0.7073402138351331 
0.2199999999999921, -0.7287648462795503 
0.229999999999991, -0.7473435986450802 
0.2399999999999899, -0.761362979205376 
0.2499999999999888, -0.7708155945164481 
0.2599999999999877, -0.7767085623686534 
0.2699999999999866, -0.7801987379414071 
0.2799999999999855, -0.7821775958558135 
0.2899999999999844, -0.7832202343257653 
0.2999999999999833, -0.7836619011758843 
0.3099999999999822, -0.7836782923506784 
0.3199999999999811, -0.7833367198699446 
0.32999999999998, -0.7826172806501571 
0.3399999999999789, -0.781406756008667 
0.3499999999999778, -0.7794627845199117 
0.35999999999997667, -0.7763397739605524 
0.36999999999997557, -0.7712700786673233 
0.37999999999997447, -0.7630318092756629 
0.38999999999997337, -0.7499676318673024 
0.39999999999997227, -0.7305460930802654 
0.40999999999997117, -0.704744265934607 
0.41999999999997006, -0.6753066969642701 
0.42999999999996896, -0.6468857975509456 
0.43999999999996786, -0.6233251058722369 
0.44999999999996676, -0.6060076985456351 
0.45999999999996566, -0.5943429646399109 
0.46999999999996456, -0.5869678280266373 
0.47999999999996346, -0.582536051372061 
0.48999999999996235, -0.5800006575236177 
0.49999999999996125, -0.5786325009977549 
0.5099999999999602, -0.5779536548685849 
0.519999999999959, -0.5776624704232372 
0.529999999999958, -0.5775732313764966 
0.5399999999999568, -0.5775731106352209 
0.5499999999999557, -0.5775935164885995 
0.5599999999999546, -0.5775923544288555 
0.5699999999999535, -0.5775445263043433 
0.5799999999999524, -0.5774386471637168 
0.5899999999999513, -0.577277682238441 
0.5999999999999502, -0.5770799513113675 
0.6099999999999491, -0.5768761829632285 
0.619999999999948, -0.5767002932868884 
0.6299999999999469, -0.576576234460333 
0.6399999999999458, -0.5765069920537356 
0.6499999999999447, -0.5764715493816835 
0.6599999999999436, -0.5764318640239556 
0.6699999999999425, -0.5763466323852471 
0.6799999999999414, -0.5761846783237345 
0.6899999999999403, -0.5759317298320151 
0.6999999999999392, -0.5755898877710748 
0.7099999999999381, -0.5751740276775841 
0.719999999999937, -0.57471019329398 
0.7299999999999359, -0.5742393865223924 
0.7399999999999348, -0.5738290649271903 
0.7499999999999337, -0.5735952743903782 
0.7599999999999326, -0.573740262336262 
0.7699999999999315, -0.5746125865263013 
0.7799999999999304, -0.5767966781049176 
0.7899999999999293, -0.5812289865797193 
0.7999999999999282, -0.5892978297758321 
0.8099999999999271, -0.6027758330132802 
0.819999999999926, -0.6232552142858079 
0.8299999999999249, -0.650787111745919 
0.8399999999999238, -0.6824012779196542 
0.8499999999999227, -0.7126787044806389 
0.8599999999999216, -0.7370046639282667 
0.8699999999999205, -0.754014010234554 
0.8799999999999194, -0.7648925608314661 
0.8899999999999183, -0.7715287115664108 
0.8999999999999172, -0.775483888967817 
0.9099999999999161, -0.7777978898535136 
0.919999999999915, -0.779101901324168 
0.9299999999999139, -0.7797605476150171 
0.9399999999999128, -0.7799719594616661 
0.9499999999999117, -0.7798252153336837 
0.9599999999999106, -0.7793259468320735 
0.9699999999999095, -0.7783972322444768 
0.9799999999999084, -0.7768579084258488 
0.9899999999999073, -0.7743795972362849 
0.9999999999999062, -0.7704358635170319 
1.0099999999999052, -0.7642975257289548 
1.019999999999904, -0.7551944561588577 
1.029999999999903, -0.7427523207035767 
1.039999999999902, -0.7275268076760797 
1.0499999999999008, -0.711077735140804 
1.0599999999998997, -0.6953117489150039 
1.0699999999998986, -0.6816593643948591 
1.0799999999998975, -0.670745456880771 
1.0899999999998964, -0.6625494632732559 
1.0999999999998953, -0.6567077188980104 
1.1099999999998942, -0.6527429518529917 
1.119999999999893, -0.6501884792517303 
1.129999999999892, -0.6486415865613928 
1.1399999999998909, -0.6477797056779896 
1.1499999999998898, -0.6473585649462332 
1.1599999999998887, -0.6472017386635535 
1.1699999999998876, -0.6471866923507729 
1.1799999999998865, -0.6472306801348549 
1.1899999999998854, -0.6472788516106023 
1.1999999999998843, -0.6472960508346578 
1.2099999999998832, -0.6472628220580094 
1.219999999999882, -0.6471747471297883 
1.229999999999881, -0.6470423939010701 
1.2399999999998799, -0.6468880515755399 
1.2499999999998788, -0.646737076638072 
1.2599999999998777, -0.6466060570264511 
1.2699999999998766, -0.6464936614946799 
1.2799999999998755, -0.6463795807067064 
1.2899999999998744, -0.6462325482168849 
1.2999999999998733, -0.6460230055753724 
1.3099999999998722, -0.6457335219398102 
1.319999999999871, -0.645362892341565 
1.32999999999987, -0.6449252861660874 
1.3399999999998689, -0.6444489526170549 
1.3499999999998678, -0.6439784456906399 
1.3599999999998666, -0.6435823828757601 
1.3699999999998655, -0.6433673495635726 
1.3799999999998644, -0.6434977936287448 
1.3899999999998633, -0.6442208612218485 
1.3999999999998622, -0.6458933999561817 
1.4099999999998611, -0.6490049692115918 
1.41999999999986, -0.6541836301959196 
1.429999999999859, -0.6621564569811946 
1.4399999999998578, -0.6736115563277876 
1.4499999999998567, -0.688890849354336 
1.4599999999998556, -0.7075110295547182 
1.4699999999998545, -0.7277795825177105 
1.4799999999998534, -0.7470823128174052 
1.4899999999998523, -0.7630446935084363 
1.4999999999998512, -0.7746496302511509 
1.5099999999998501, -0.7822787805212992 
1.519999999999849, -0.7869571209324469 
1.529999999999848, -0.7896872214505934 
1.5399999999998468, -0.7911959537260557 
1.5499999999998457, -0.7919379085473499 
1.5599999999998446, -0.7921703571790889 
1.5699999999998435, -0.7920183322013765 
1.5799999999998424, -0.7915117092090938 
1.5899999999998413, -0.7905950967989733 
1.5999999999998402, -0.789111213934033 
1.6099999999998391, -0.7867526684652846 
1.619999999999838, -0.7829717456353386 
1.629999999999837, -0.7768442975747181 
1.6399999999998358, -0.7669382040170827 
1.6499999999998347, -0.7514098835095104 
1.6599999999998336, -0.7288042386086011 
1.6699999999998325, -0.6997356448558877 
1.6799999999998314, -0.6679918748963243 
1.6899999999998303, -0.6388768622616935 
1.6999999999998292, -0.6160119788534761 
1.709999999999828, -0.6000897585445717 
1.719999999999827, -0.5899256776657149 
1.729999999999826, -0.5838444093217481 
1.7399999999998248, -0.5804027417509432 
1.7499999999998237, -0.5785672496628798 
1.7599999999998226, -0.5776631007399035 
1.7699999999998215, -0.5772723064842178 
1.7799999999998204, -0.5771443955242461 
1.7899999999998193, -0.5771321039987212 
1.7999999999998182, -0.5771489971603421 
1.809999999999817, -0.5771432152893919 
1.819999999999816, -0.5770826133375336 
1.8299999999998149, -0.5769481847361074 
1.8399999999998138, -0.5767335050274223 
1.8499999999998127, -0.576447330003033 
1.8599999999998116, -0.5761149142222842 
1.8699999999998105, -0.5757734429270085 
1.8799999999998094, -0.5754605187450079 
1.8899999999998083, -0.5752001955209226 
1.8999999999998072, -0.5749936512493515 
1.909999999999806, -0.5748192439332888 
1.919999999999805, -0.5746417637892367 
1.9299999999998039, -0.5744260177801781 
1.9399999999998028, -0.5741479701037338 
1.9499999999998017, -0.5737993260938785 
1.9599999999998006, -0.5733866521642509 
1.9699999999997995, -0.5729293814400755 
1.9799999999997984, -0.5724608928552254 
1.9899999999997973, -0.5720354216811914 
1.9999999999997962, -0.5717430147358237 
2.0099999999998173, -0.571735524968238 
2.0199999999998384, -0.5722681390504705 
2.0299999999998595, -0.5737619125130872 
2.0399999999998806, -0.5768901200759851 
2.0499999999999017, -0.5826759768927666 
2.059999999999923, -0.5925400742645273 
2.069999999999944, -0.6081226428432945 
2.079999999999965, -0.6305691092029944 
2.089999999999986, -0.6591613418329858 
2.100000000000007, -0.6902820736155644 
2.1100000000000283, -0.718664115987054 
2.1200000000000494, -0.7405753870306684 
2.1300000000000705, -0.7554485879317601 
2.1400000000000916, -0.7647571386855833 
2.1500000000001127, -0.7703384844421625 
2.160000000000134, -0.7736095451737284 
2.170000000000155, -0.7754805328967735 
2.180000000000176, -0.7764896183682157 
2.190000000000197, -0.7769386668835685 
2.2000000000002182, -0.776982337251604 
2.2100000000002393, -0.7766755574284725 
2.2200000000002604, -0.7759901511177378 
2.2300000000002815, -0.7748061409274564 
2.2400000000003026, -0.7728781959499644 
2.2500000000003237, -0.769779091284646 
2.260000000000345, -0.7648427636118051 
2.270000000000366, -0.7571893924542039 
2.280000000000387, -0.745993821426741 
2.290000000000408, -0.731081922384958 
2.3000000000004293, -0.713493463858092 
2.3100000000004504, -0.6952986985556731 
2.3200000000004715, -0.6786239974645447 
2.3300000000004926, -0.664788291425206 
2.3400000000005137, -0.6541549503643806 
2.3500000000005348, -0.6464556142366794 
2.360000000000556, -0.6411543493203691 
2.370000000000577, -0.6376762045645855 
2.380000000000598, -0.6355116792448994 
2.390000000000619, -0.6342501969252521 
2.4000000000006403, -0.6335805616764878 
2.4100000000006614, -0.6332778430242618 
2.4200000000006825, -0.6331857352835969 
2.4300000000007036, -0.6331988813759079 
2.4400000000007247, -0.6332476641191915 
2.450000000000746, -0.6332868871546983 
2.460000000000767, -0.6332889793032159 
2.470000000000788, -0.6332414418800398 
2.480000000000809, -0.6331468164435654 
2.49000000000083, -0.6330217941599983 
2.5000000000008513, -0.632891887083839 
2.5100000000008724, -0.6327809397430236 
2.5200000000008935, -0.6326993217665164 
2.5300000000009146, -0.6326370405715643 
2.5400000000009357, -0.632566067597467 
2.550000000000957, -0.6324510634213986 
2.560000000000978, -0.6322626279879141 
2.570000000000999, -0.6319861918071774 
2.58000000000102, -0.6316239531335637 
2.5900000000010412, -0.6311927573385161 
2.6000000000010624, -0.6307228795166677 
2.6100000000010835, -0.6302614013304303 
2.6200000000011046, -0.6298820680568308 
2.6300000000011257, -0.6297026845636591 
2.6400000000011468, -0.6299109015423617 
2.650000000001168, -0.6307986328952325 
2.660000000001189, -0.6328031582519739 
2.67000000000121, -0.6365471957838106 
2.680000000001231, -0.6428564164832993 
2.6900000000012523, -0.6527034028488792 
2.7000000000012734, -0.666980829068562 
2.7100000000012945, -0.6859923089238793 
2.7200000000013156, -0.7087333771744024 
2.7300000000013367, -0.7325506803905135 
2.740000000001358, -0.7540181483495766 
2.750000000001379, -0.7707168900406943 
2.7600000000014, -0.782205345973978 
2.770000000001421, -0.7894503801464022 
2.780000000001442, -0.7937735504870329 
2.7900000000014633, -0.7962522455909136 
2.8000000000014844, -0.7975992981587638 
2.8100000000015055, -0.7982377810532595 
2.8200000000015266, -0.7983977500839535 
2.8300000000015477, -0.7981829419834673 
2.840000000001569, -0.7976036630174256 
2.85000000000159, -0.7965805376407322 
2.860000000001611, -0.794919393416422 
2.870000000001632, -0.7922506950739622 
2.8800000000016532, -0.7879242492590968 
2.8900000000016743, -0.7808699288081725 
2.9000000000016954, -0.7695271506248644 
2.9100000000017165, -0.752158409470362 
2.9200000000017377, -0.7279734840640515 
2.9300000000017588, -0.6987015046236246 
2.94000000000178, -0.6687008636687987 
2.950000000001801, -0.6425779229443597 
2.960000000001822, -0.6227303251200416 
2.970000000001843, -0.6091209284951755 
2.9800000000018643, -0.6004641260287831 
2.9900000000018854, -0.5952731711306054 
3.0000000000019065, -0.5923259585614737 
3.0100000000019276, -0.5907536046736908 
3.0200000000019487, -0.5899843679255579 
3.03000000000197, -0.5896594813891888 
3.040000000001991, -0.5895607753405409 
3.050000000002012, -0.5895579142124816 
3.060000000002033, -0.5895729798394401 
3.070000000002054, -0.5895582882784843 
3.0800000000020753, -0.5894840370134002 
3.0900000000020964, -0.5893334200682501 
3.1000000000021175, -0.5891030745305956 
3.1100000000021386, -0.5888056078124463 
3.1200000000021597, -0.5884694559329826 
3.130000000002181, -0.5881321196179713 
3.140000000002202, -0.5878273750359984 
3.150000000002223, -0.5875722271443757 
3.160000000002244, -0.5873604325687578 
3.1700000000022652, -0.5871658585293809 
3.1800000000022863, -0.5869537181895477 
3.1900000000023074, -0.5866937158887129 
3.2000000000023285, -0.5863688839499301 
3.2100000000023496, -0.5859779303931695 
3.2200000000023707, -0.5855337514714478 
3.230000000002392, -0.58506261694369 
3.240000000002413, -0.5846075778619066 
3.250000000002434, -0.5842383324459651 
3.260000000002455, -0.5840695512545881 
3.2700000000024763, -0.5842903696488676 
3.2800000000024974, -0.5852085370065908 
3.2900000000025185, -0.5873120115612775 
3.3000000000025396, -0.5913447617279269 
3.3100000000025607, -0.5983723430624341 
3.3200000000025818, -0.6097570439407617 
3.330000000002603, -0.6268592239692564 
3.340000000002624, -0.6502237477223389 
3.350000000002645, -0.6783741191401667 
3.360000000002666, -0.707383388085587 
3.3700000000026873, -0.7326079794381284 
3.3800000000027084, -0.7513918696706599 
3.3900000000027295, -0.7638363227086002 
3.4000000000027506, -0.7714998074769233 
3.4100000000027717, -0.776034526811032 
3.420000000002793, -0.7786494385399164 
3.430000000002814, -0.7801014876101846 
3.440000000002835, -0.7808292490573383 
3.450000000002856, -0.7810707632997588 
3.460000000002877, -0.7809364937409361 
3.4700000000028983, -0.7804443286187932 
3.4800000000029194, -0.7795251200489404 
3.4900000000029405, -0.7780011871698964 
3.5000000000029616, -0.7755353336642797 
3.5100000000029827, -0.7715523933316237 
3.520000000003004, -0.7651690513893026 
3.530000000003025, -0.7552590711104348 
3.540000000003046, -0.7408839881958895 
3.550000000003067, -0.7221417166454386 
3.5600000000030882, -0.7007828186714569 
3.5700000000031094, -0.679644523564882 
3.5800000000031305, -0.6612091084330387 
3.5900000000031516, -0.6466755722480768 
3.6000000000031727, -0.6360604248185974 
3.6100000000031938, -0.6287511242540267 
3.620000000003215, -0.62396420879178 
3.630000000003236, -0.6209794887413117 
3.640000000003257, -0.619219549821838 
3.650000000003278, -0.6182551733853252 
3.6600000000032993, -0.6177831781021861 
3.6700000000033204, -0.617597622581629 
3.6800000000033415, -0.6175627429546975 
3.6900000000033626, -0.6175907174621226 
3.7000000000033837, -0.617625205940781 
3.710000000003405, -0.6176307327463093 
3.720000000003426, -0.6175874874794676 
3.730000000003447, -0.6174903183591509 
3.740000000003468, -0.6173492296083011 
3.750000000003489, -0.617187407601384 
3.7600000000035103, -0.6170337573751266 
3.7700000000035314, -0.6169109378801642 
3.7800000000035525, -0.6168241880736105 
3.7900000000035736, -0.6167570755405023 
3.8000000000035947, -0.6166769624622825 
3.810000000003616, -0.6165475413083981 
3.820000000003637, -0.6163416379762963 
3.830000000003658, -0.6160481642596599 
3.840000000003679, -0.6156723412332152 
3.8500000000037002, -0.615233144595146 
3.8600000000037213, -0.614762842179322 
3.8700000000037424, -0.6143118636425141 
3.8800000000037635, -0.6139608338799085 
3.8900000000037847, -0.6138413759461344 
3.9000000000038058, -0.6141676200105695 
3.910000000003827, -0.6152800914538935 
3.920000000003848, -0.6177010716835237 
3.930000000003869, -0.6221918849979142 
3.94000000000389, -0.6297794741894317 
3.9500000000039113, -0.6416691802663983 
3.9600000000039324, -0.6588880813532774 
3.9700000000039535, -0.6815186061535962 
3.9800000000039746, -0.7077795943511271 
3.9900000000039957, -0.7339931344102015 
4.000000000004016, -0.7562754808502008 
4.010000000003993, -0.7726479929850631 
4.02000000000397, -0.7834165282145685 
4.030000000003946, -0.7900111001161076 
4.040000000003923, -0.7938817251246257 
4.0500000000039, -0.7960786448832954 
4.0600000000038765, -0.7972562615444512 
4.070000000003853, -0.7977899534316325 
4.08000000000383, -0.7978771907633925 
4.090000000003807, -0.7975985946805582 
4.100000000003783, -0.7969440188946633 
4.11000000000376, -0.7958093219876317 
4.120000000003737, -0.7939629538183621 
4.130000000003713, -0.790975434114549 
4.14000000000369, -0.7861084363467881 
4.150000000003667, -0.7782005571441564 
4.1600000000036434, -0.765714489668767 
4.17000000000362, -0.7472976713485046 
4.180000000003597, -0.7230359538357177 
4.1900000000035735, -0.6954802889992565 
4.20000000000355, -0.6688029636384258 
4.210000000003527, -0.6464621185397488 
4.220000000003504, -0.62979566361524 
4.23000000000348, -0.6183880746946693 
4.240000000003457, -0.6110716053793497 
4.250000000003434, -0.6066279451040764 
4.26000000000341, -0.6040710394160457 
4.270000000003387, -0.6026916017940408 
4.280000000003364, -0.6020126653923186 
4.2900000000033405, -0.6017274261697719 
4.300000000003317, -0.6016445614782173 
4.310000000003294, -0.6016468784278846 
4.320000000003271, -0.6016625832804088 
4.330000000003247, -0.6016469155956097 
4.340000000003224, -0.6015720665992943 
4.350000000003201, -0.6014236724333138 
4.360000000003177, -0.6012017499569418 
4.370000000003154, -0.6009224639573103 
4.380000000003131, -0.6006160169925595 
4.390000000003107, -0.6003178401527749 
4.400000000003084, -0.6000553442625177 
4.410000000003061, -0.5998366953006695 
4.4200000000030375, -0.5996476209161068 
4.430000000003014, -0.5994578844266593 
4.440000000002991, -0.599233851209391 
4.450000000002968, -0.5989505239375763 
4.460000000002944, -0.5985978871781088 
4.470000000002921, -0.598181345718938 
4.480000000002898, -0.5977200606555437 
4.490000000002874, -0.5972475370517043 
4.500000000002851, -0.5968173747503375 
4.510000000002828, -0.5965159905742496 
4.520000000002804, -0.5964840786693182 
4.530000000002781, -0.5969490370038074 
4.540000000002758, -0.5982705004962672 
4.5500000000027345, -0.600998608832247 
4.560000000002711, -0.6059351612610051 
4.570000000002688, -0.6141610040456855 
4.580000000002665, -0.6269332970998527 
4.590000000002641, -0.6452730573251079 
4.600000000002618, -0.66910021984415 
4.610000000002595, -0.6962796873231654 
4.620000000002571, -0.7227992649684133 
4.630000000002548, -0.7447854924739844 
4.640000000002525, -0.760587429913933 
4.6500000000025015, -0.7708207834467684 
4.660000000002478, -0.7770359371456415 
4.670000000002455, -0.7806735141508103 
4.6800000000024315, -0.7827374221099727 
4.690000000002408, -0.7838414326281751 
4.700000000002385, -0.7843340162595915 
4.710000000002362, -0.7843962316446833 
4.720000000002338, -0.7840982602775394 
4.730000000002315, -0.7834219305189711 
4.740000000002292, -0.7822548279108354 
4.750000000002268, -0.7803550908189643 
4.760000000002245, -0.7772819488052644 
4.770000000002222, -0.772296838595756 
4.7800000000021985, -0.7642925909023129 
4.790000000002175, -0.7519372886123676 
4.800000000002152, -0.7343240233420104 
4.810000000002129, -0.7120551334033632 
4.820000000002105, -0.6877238582965697 
4.830000000002082, -0.6647848215783557 
4.840000000002059, -0.6457510213843617 
4.850000000002035, -0.6314486267637826 
4.860000000002012, -0.6214655407150557 
4.870000000001989, -0.6148833818200671 
4.880000000001965, -0.6107531673261959 
4.890000000001942, -0.6082890675080581 
4.900000000001919, -0.6069054177307874 
4.9100000000018955, -0.6061919700425726 
4.920000000001872, -0.6058733828652241 
