t, s[1].omega / s[0].omega 
0, -0.33991835609625637 
0.009999999999999995, -0.332499059790082 
0.019999999999999934, -0.3266472320838253 
0.029999999999999874, -0.3222313825925903 
0.04000000000000012, -0.31896403459324535 
0.050000000000000405, -0.3165575276142299 
0.06000000000000069, -0.314781628143712 
0.07000000000000098, -0.3134707229557392 
0.08000000000000126, -0.3125140540005372 
0.09000000000000155, -0.3118439290337463 
0.10000000000000184, -0.31142697084189863 
0.11000000000000212, -0.31125969938519904 
0.12000000000000241, -0.3113688053823617 
0.130000000000002, -0.3118166976416708 
0.1400000000000009, -0.3127136015870947 
0.1499999999999998, -0.314238212845671 
0.1599999999999987, -0.3166686627348161 
0.1699999999999976, -0.32042112738467593 
0.1799999999999965, -0.3260760649778031 
0.1899999999999954, -0.3343253221328684 
0.1999999999999943, -0.3456963687519595 
0.2099999999999932, -0.3599303071696148 
0.2199999999999921, -0.37535589832445837 
0.229999999999991, -0.3893123171763306 
0.2399999999999899, -0.39983295081775216 
0.2499999999999888, -0.40670339070692263 
0.2599999999999877, -0.41084071795975063 
0.2699999999999866, -0.41327513828342743 
0.2799999999999855, -0.4147228718553162 
0.2899999999999844, -0.41559697192881095 
0.2999999999999833, -0.4161202250302109 
0.3099999999999822, -0.4164113929519999 
0.3199999999999811, -0.41653354915951935 
0.32999999999998, -0.4165186865998671 
0.3399999999999789, -0.41638047553472174 
0.3499999999999778, -0.41612219261637085 
0.35999999999997667, -0.4157438111671552 
0.36999999999997557, -0.41525013650934745 
0.37999999999997447, -0.414659283822749 
0.38999999999997337, -0.41400773577453476 
0.39999999999997227, -0.41334724127811906 
0.40999999999997117, -0.4127326864689483 
0.41999999999997006, -0.4122064417534831 
0.42999999999996896, -0.4117870578235509 
0.43999999999996786, -0.41146666767887063 
0.44999999999996676, -0.41121665977890015 
0.45999999999996566, -0.41099844123610385 
0.46999999999996456, -0.41077487450589717 
0.47999999999996346, -0.4105181135537078 
0.48999999999996235, -0.4102118581664631 
0.49999999999996125, -0.4098492130972541 
0.5099999999999602, -0.40942892101836614 
0.519999999999959, -0.40895218353001167 
0.529999999999958, -0.40842089089423916 
0.5399999999999568, -0.40783686188108337 
0.5499999999999557, -0.407200351698101 
0.5599999999999546, -0.4065029430945735 
0.5699999999999535, -0.405701487095177 
0.5799999999999524, -0.40464114656024347 
0.5899999999999513, -0.40287334752466164 
0.5999999999999502, -0.3993635723465571 
0.6099999999999491, -0.3924137915229027 
0.619999999999948, -0.38062672192213115 
0.6299999999999469, -0.3648258608191551 
0.6399999999999458, -0.3482797538063039 
0.6499999999999447, -0.334168423715184 
0.6599999999999436, -0.32370263896549817 
0.6699999999999425, -0.31653183188016853 
0.6799999999999414, -0.31179797408874427 
0.6899999999999403, -0.30871498877452747 
0.6999999999999392, -0.3067154465425618 
0.7099999999999381, -0.30542674201587644 
0.719999999999937, -0.30461444533637755 
0.7299999999999359, -0.3041351428298802 
0.7399999999999348, -0.3039048396086251 
0.7499999999999337, -0.30387986275997037 
0.7599999999999326, -0.3040465122881872 
0.7699999999999315, -0.3044168014197454 
0.7799999999999304, -0.30502863528987195 
0.7899999999999293, -0.3059492161194517 
0.7999999999999282, -0.30728002067372034 
0.8099999999999271, -0.3091596966976019 
0.819999999999926, -0.31175641665082227 
0.8299999999999249, -0.3152331022074118 
0.8399999999999238, -0.31966425471180837 
0.8499999999999227, -0.3249073264917216 
0.8599999999999216, -0.3305119902343561 
0.8699999999999205, -0.33581658587561214 
0.8799999999999194, -0.3402444573355938 
0.8899999999999183, -0.3435510534888829 
0.8999999999999172, -0.3458145291570386 
0.9099999999999161, -0.3472641994447324 
0.919999999999915, -0.3481338008877473 
0.9299999999999139, -0.3486005536806062 
0.9399999999999128, -0.3487793609997553 
0.9499999999999117, -0.34873538436900076 
0.9599999999999106, -0.3484976397858956 
0.9699999999999095, -0.3480696967241219 
0.9799999999999084, -0.3474392822446671 
0.9899999999999073, -0.3465903759446293 
0.9999999999999062, -0.3455201973574362 
1.0099999999999052, -0.3442580929445373 
1.019999999999904, -0.3428754558963264 
1.029999999999903, -0.34147484953850943 
1.039999999999902, -0.34016015645733344 
1.0499999999999008, -0.33900598727353914 
1.0599999999998997, -0.3380435816656385 
1.0699999999998986, -0.337264991614731 
1.0799999999998975, -0.33663677741048603 
1.0899999999998964, -0.3361148921143854 
1.0999999999998953, -0.33565651549792885 
1.1099999999998942, -0.33522722337825844 
1.119999999999893, -0.3348034439671278 
1.129999999999892, -0.33437151752947114 
1.1399999999998909, -0.33392533816273334 
1.1499999999998898, -0.3334641847513379 
1.1599999999998887, -0.3329913942368389 
1.1699999999998876, -0.3325133547294478 
1.1799999999998865, -0.3320363089195367 
1.1899999999998854, -0.33155346783385814 
1.1999999999998843, -0.3310022563239387 
1.2099999999998832, -0.3301461842610068 
1.219999999999882, -0.3283181120547847 
1.229999999999881, -0.32408917431824535 
1.2399999999998799, -0.3154633652554109 
1.2499999999998788, -0.3015443115206392 
1.2599999999998777, -0.2844683365422426 
1.2699999999998766, -0.2681884151079207 
1.2799999999998755, -0.2553094629608984 
1.2899999999998744, -0.24619730741193724 
1.2999999999998733, -0.24008248868026966 
1.3099999999998722, -0.23604747257475384 
1.319999999999871, -0.23338285867944478 
1.32999999999987, -0.2316148981676068 
1.3399999999998689, -0.23044610160601567 
1.3499999999998678, -0.22969631485990977 
1.3599999999998666, -0.22926199177401715 
1.3699999999998655, -0.22909186995579475 
1.3799999999998644, -0.22917459835165258 
1.3899999999998633, -0.22953523804622328 
1.3999999999998622, -0.2302393764299136 
1.4099999999998611, -0.23140507569156826 
1.41999999999986, -0.23322355302464387 
1.429999999999859, -0.2359876888069261 
1.4399999999998578, -0.24011791169941094 
1.4499999999998567, -0.24614598641089858 
1.4599999999998556, -0.2545596204514606 
1.4699999999998545, -0.2653843125519112 
1.4799999999998534, -0.27762606254328104 
1.4899999999998523, -0.28929755468081503 
1.4999999999998512, -0.29855755735378287 
1.5099999999998501, -0.3048381791446225 
1.519999999999849, -0.30868356678966075 
1.529999999999848, -0.31093190714033636 
1.5399999999998468, -0.31223553778833707 
1.5499999999998457, -0.3129929879836314 
1.5599999999998446, -0.313424775110025 
1.5699999999998435, -0.3136490331063503 
1.5799999999998424, -0.31372861685083653 
1.5899999999998413, -0.3136968131836676 
1.5999999999998402, -0.3135715649744676 
1.6099999999998391, -0.31336468200602263 
1.619999999999838, -0.31308939121940477 
1.629999999999837, -0.3127670197516037 
1.6399999999998358, -0.31243129659914726 
1.6499999999998347, -0.3121275882253489 
1.6599999999998336, -0.3119057527924446 
1.6699999999998325, -0.3118085677122491 
1.6799999999998314, -0.31185978159812894 
1.6899999999998303, -0.312055362406984 
1.6999999999998292, -0.3123607127639184 
1.709999999999828, -0.31271660756910524 
1.719999999999827, -0.3130542015552426 
1.729999999999826, -0.3133132967019364 
1.7399999999998248, -0.3134543043149581 
1.7499999999998237, -0.3134587040371165 
1.7599999999998226, -0.3133206735226496 
1.7699999999998215, -0.3130357421829459 
1.7799999999998204, -0.3125898888493838 
1.7899999999998193, -0.31194869470283226 
1.7999999999998182, -0.31104374216727654 
1.809999999999817, -0.3097529602158543 
1.819999999999816, -0.30787472382533265 
1.8299999999998149, -0.3051086209886925 
1.8399999999998138, -0.3010878074957807 
1.8499999999998127, -0.2955399398607831 
1.8599999999998116, -0.2885809337460966 
1.8699999999998105, -0.2808929190367706 
1.8799999999998094, -0.27346454890635424 
1.8899999999998083, -0.26706817212682726 
1.8999999999998072, -0.2619933526657203 
1.909999999999806, -0.25815409693608 
1.919999999999805, -0.25530818655184123 
1.9299999999998039, -0.2532032875056169 
1.9399999999998028, -0.2516343813342142 
1.9499999999998017, -0.2504531157841529 
1.9599999999998006, -0.2495602684851268 
1.9699999999997995, -0.24889572460266182 
1.9799999999997984, -0.2484310888355355 
1.9899999999997973, -0.24816655422719167 
1.9999999999997962, -0.24813290996755577 
2.0099999999998173, -0.24840007412956466 
2.0199999999998384, -0.2490947254317551 
2.0299999999998595, -0.2504309625845501 
2.0399999999998806, -0.25275737531457837 
2.0499999999999017, -0.2566134272195014 
2.059999999999923, -0.262743157211767 
2.069999999999944, -0.27188914369760997 
2.079999999999965, -0.2840270613249328 
2.089999999999986, -0.297083791033669 
2.100000000000007, -0.30695870491741467 
2.1100000000000283, -0.3107879613080273 
2.1200000000000494, -0.3096506074956926 
2.1300000000000705, -0.3065487392568237 
2.1400000000000916, -0.3035419356514961 
2.1500000000001127, -0.30130741431214336 
2.160000000000134, -0.29982750025339416 
2.170000000000155, -0.29890254246334136 
2.180000000000176, -0.2983459187793286 
2.190000000000197, -0.29802532261010095 
2.2000000000002182, -0.2978567281541422 
2.2100000000002393, -0.2977906537514881 
2.2200000000002604, -0.2978013340805997 
2.2300000000002815, -0.2978802704337891 
2.2400000000003026, -0.29803344480647054 
2.2500000000003237, -0.29828113002032597 
2.260000000000345, -0.2986590466519457 
2.270000000000366, -0.29921920220322124 
2.280000000000387, -0.3000280876073552 
2.290000000000408, -0.3011589511976346 
2.3000000000004293, -0.3026737623157174 
2.3100000000004504, -0.30459140813735364 
2.3200000000004715, -0.30684767523205986 
2.3300000000004926, -0.30927255980792034 
2.3400000000005137, -0.3116214088306302 
2.3500000000005348, -0.3136617784729819 
2.360000000000556, -0.31525689783987226 
2.370000000000577, -0.31638501967462096 
2.380000000000598, -0.31709987957990116 
2.390000000000619, -0.31747879413903846 
2.4000000000006403, -0.3175886624297076 
2.4100000000006614, -0.31747183258798517 
2.4200000000006825, -0.3171428845672689 
2.4300000000007036, -0.3165893026204735 
2.4400000000007247, -0.3157741263728583 
2.450000000000746, -0.3146435017289023 
2.460000000000767, -0.3131454541319045 
2.470000000000788, -0.3112640012904461 
2.480000000000809, -0.30905839740438257 
2.49000000000083, -0.3066769130187238 
2.5000000000008513, -0.3043189914435082 
2.5100000000008724, -0.30216385756538905 
2.5200000000008935, -0.300317144524601 
2.5300000000009146, -0.2988036276506478 
2.5400000000009357, -0.29759165711617863 
2.550000000000957, -0.29662315347067086 
2.560000000000978, -0.29583558512001346 
2.570000000000999, -0.29517430631595115 
2.58000000000102, -0.29459776089138145 
2.5900000000010412, -0.2940782906003524 
2.6000000000010624, -0.2936008746084856 
2.6100000000010835, -0.29316168023748845 
2.6200000000011046, -0.2927677380391532 
2.6300000000011257, -0.2924384426787566 
2.6400000000011468, -0.29220880056196435 
2.650000000001168, -0.2921323693920329 
2.660000000001189, -0.29227547895503536 
2.67000000000121, -0.2926758802605433 
2.680000000001231, -0.2931973720261285 
2.6900000000012523, -0.2931702887419561 
2.7000000000012734, -0.2908784246671362 
2.7100000000012945, -0.2837645488490791 
2.7200000000013156, -0.2706825061334668 
2.7300000000013367, -0.2542248379309371 
2.740000000001358, -0.2387768749356914 
2.750000000001379, -0.22686093940577173 
2.7600000000014, -0.21861465253102302 
2.770000000001421, -0.21316953431326824 
2.780000000001442, -0.2096167028131072 
2.7900000000014633, -0.2072906167092373 
2.8000000000014844, -0.20576085272505512 
2.8100000000015055, -0.20476346066970502 
2.8200000000015266, -0.20414262496149047 
2.8300000000015477, -0.2038128475993714 
2.840000000001569, -0.20373761941878604 
2.85000000000159, -0.20391985258288364 
2.860000000001611, -0.2044013554651502 
2.870000000001632, -0.20527069473039253 
2.8800000000016532, -0.20668038297722302 
2.8900000000016743, -0.20887470584533877 
2.9000000000016954, -0.21222559968673443 
2.9100000000017165, -0.21725660506822483 
2.9200000000017377, -0.22458610917509247 
2.9300000000017588, -0.23464217868438064 
2.94000000000178, -0.24704506953884983 
2.950000000001801, -0.2600883865940621 
2.960000000001822, -0.2713727128856819 
2.970000000001843, -0.27944113405332527 
2.9800000000018643, -0.2844358345668394 
2.9900000000018854, -0.2872941872107513 
3.0000000000019065, -0.28889513983444326 
3.0100000000019276, -0.2898010362509992 
3.0200000000019487, -0.2903194222985437 
3.03000000000197, -0.29060942728166833 
3.040000000001991, -0.29075302328985714 
3.050000000002012, -0.29079326507478476 
3.060000000002033, -0.2907538351153196 
3.070000000002054, -0.2906498622692983 
3.0800000000020753, -0.2904952969395421 
3.0900000000020964, -0.29030901828207184 
3.1000000000021175, -0.29011957594922844 
3.1100000000021386, -0.2899668773138571 
3.1200000000021597, -0.289898987788788 
3.130000000002181, -0.28996384253781515 
3.140000000002202, -0.29019763247298636 
3.150000000002223, -0.2906123458191777 
3.160000000002244, -0.29118552434133 
3.1700000000022652, -0.29185753131683484 
3.1800000000022863, -0.2925424192691138 
3.1900000000023074, -0.2931516552023902 
3.2000000000023285, -0.29361854693909867 
3.2100000000023496, -0.29390907475343614 
3.2200000000023707, -0.29401604408428783 
3.230000000002392, -0.2939445063484203 
3.240000000002413, -0.2936970780937987 
3.250000000002434, -0.2932622697846998 
3.260000000002455, -0.2926044936278217 
3.2700000000024763, -0.2916534127152637 
3.2800000000024974, -0.2902926772030376 
3.2900000000025185, -0.28835528722104536 
3.3000000000025396, -0.28564652314223155 
3.3100000000025607, -0.28202559949585065 
3.3200000000025818, -0.2775450433223614 
3.330000000002603, -0.27254703305068806 
3.340000000002624, -0.26757142724376026 
3.350000000002645, -0.26310721366185386 
3.360000000002666, -0.2594095657494192 
3.3700000000026873, -0.25650040178433364 
3.3800000000027084, -0.2542698228425377 
3.3900000000027295, -0.25256951326227706 
3.4000000000027506, -0.25126286312767115 
3.4100000000027717, -0.2502424448262729 
3.420000000002793, -0.24943171430428385 
3.430000000002814, -0.2487813619042337 
3.440000000002835, -0.24826523543299134 
3.450000000002856, -0.24787807684911392 
3.460000000002877, -0.24763635519855512 
3.4700000000028983, -0.24758338658849585 
3.4800000000029194, -0.2478002430499405 
3.4900000000029405, -0.24842390345945864 
3.5000000000029616, -0.2496710856131647 
3.5100000000029827, -0.2518516955160645 
3.520000000003004, -0.2553077222998873 
3.530000000003025, -0.26010456522653735 
3.540000000003046, -0.26524524967841534 
3.550000000003067, -0.2678345575934115 
3.5600000000030882, -0.2643316935408083 
3.5700000000031094, -0.2545016368028912 
3.5800000000031305, -0.24227436899396376 
3.5900000000031516, -0.2315623257885489 
3.6000000000031727, -0.22374470314985132 
3.6100000000031938, -0.21851032674561827 
3.620000000003215, -0.21511854417389373 
3.630000000003236, -0.2129372615828121 
3.640000000003257, -0.21153602864022547 
3.650000000003278, -0.21064590371695915 
3.6600000000032993, -0.210106448047877 
3.6700000000033204, -0.20982743469276627 
3.6800000000033415, -0.20976585963868316 
3.6900000000033626, -0.20991426625384407 
3.7000000000033837, -0.21029727491525452 
3.710000000003405, -0.21097477207395815 
3.720000000003426, -0.21205135009173975 
3.730000000003447, -0.21369172728511834 
3.740000000003468, -0.21613940665596956 
3.750000000003489, -0.21972636596583003 
3.7600000000035103, -0.22483761174141645 
3.7700000000035314, -0.23175871481095506 
3.7800000000035525, -0.24035249433923883 
3.7900000000035736, -0.24973787846227635 
3.8000000000035947, -0.25847142540425017 
3.810000000003616, -0.2653684088477929 
3.820000000003637, -0.27012309716129823 
3.830000000003658, -0.27312002021435194 
3.840000000003679, -0.2749227738166055 
3.8500000000037002, -0.2759827054234603 
3.8600000000037213, -0.27658935021570824 
3.8700000000037424, -0.2769112576027718 
3.8800000000037635, -0.27704246208808214 
3.8900000000037847, -0.2770342203667971 
3.9000000000038058, -0.2769142245974756 
3.910000000003827, -0.27669885949934564 
3.920000000003848, -0.2764025310532936 
3.930000000003869, -0.2760457308986932 
3.94000000000389, -0.2756609773040452 
3.9500000000039113, -0.27529400864679754 
3.9600000000039324, -0.27499828616238464 
3.9700000000039535, -0.27482408885076015 
3.9800000000039746, -0.27480619410001456 
3.9900000000039957, -0.27495378028058937 
4.000000000004016, -0.2752447518452391 
4.010000000003993, -0.2756270908349715 
4.02000000000397, -0.27602988658800764 
4.030000000003946, -0.27638195244132 
4.040000000003923, -0.2766290789620566 
4.0500000000039, -0.27674082206407435 
4.0600000000038765, -0.2767055317754915 
4.070000000003853, -0.27651912462879485 
4.08000000000383, -0.27617313933209403 
4.090000000003807, -0.2756437922952668 
4.100000000003783, -0.27488060734492276 
4.11000000000376, -0.27379249927579713 
4.120000000003737, -0.27223197301413216 
4.130000000003713, -0.26998764137247544 
4.14000000000369, -0.26681478398199343 
4.150000000003667, -0.2625477360372729 
4.1600000000036434, -0.2572862291533494 
4.17000000000362, -0.25150134025891596 
4.180000000003597, -0.2458727339165044 
4.1900000000035735, -0.24095471724644665 
4.20000000000355, -0.23698409712215898 
4.210000000003527, -0.23392834466901363 
4.220000000003504, -0.23162688162648 
4.23000000000348, -0.22989735130062577 
4.240000000003457, -0.2285837853921048 
4.250000000003434, -0.22756886787428607 
4.26000000000341, -0.22677149561354754 
4.270000000003387, -0.2261406584949432 
4.280000000003364, -0.22565015321059242 
4.2900000000033405, -0.22529591767869483 
4.300000000003317, -0.22509697369918005 
4.310000000003294, -0.225101002052886 
4.320000000003271, -0.22539582344284376 
4.330000000003247, -0.22612734191503617 
4.340000000003224, -0.2275188795399731 
4.350000000003201, -0.22986414313656148 
4.360000000003177, -0.23339890647915187 
4.370000000003154, -0.23783584890202197 
4.380000000003131, -0.24143421670396906 
4.390000000003107, -0.24064286349866318 
4.400000000003084, -0.232761460930431 
4.410000000003061, -0.21974679364027244 
4.4200000000030375, -0.2064554290530635 
4.430000000003014, -0.19597015518524497 
4.440000000002991, -0.1887138709593012 
4.450000000002968, -0.18395914035397842 
4.460000000002944, -0.1808882816705207 
4.470000000002921, -0.1789010937408333 
4.480000000002898, -0.17761320842473421 
4.490000000002874, -0.1767924203668857 
4.500000000002851, -0.17630486137022075 
4.510000000002828, -0.17608083024904855 
4.520000000002804, -0.17609631410640547 
4.530000000002781, -0.17636582880897594 
4.540000000002758, -0.17694430660650048 
4.5500000000027345, -0.17793785771085888 
4.560000000002711, -0.17952475870894105 
4.570000000002688, -0.18198773877408336 
4.580000000002665, -0.18575179137905432 
4.590000000002641, -0.19139512597979608 
4.600000000002618, -0.19953408451106108 
4.610000000002595, -0.21040719556503454 
4.620000000002571, -0.22316542780117365 
4.630000000002548, -0.23564097381743526 
4.640000000002525, -0.24556177191781572 
4.6500000000025015, -0.25211951518676073 
4.660000000002478, -0.2559411575980946 
4.670000000002455, -0.25804224647983004 
4.6800000000024315, -0.2591896934816222 
4.690000000002408, -0.25982668073150456 
4.700000000002385, -0.260182782067332 
4.710000000002362, -0.2603734759733434 
4.720000000002338, -0.26045775194464704 
4.730000000002315, -0.2604673619013389 
4.740000000002292, -0.26042175507592585 
4.750000000002268, -0.26033680253514724 
4.760000000002245, -0.2602311320451786 
4.770000000002222, -0.2601311963277306 
4.7800000000021985, -0.2600743682260977 
4.790000000002175, -0.2601084951562741 
4.800000000002152, -0.2602868126592026 
4.810000000002129, -0.2606582970489688 
4.820000000002105, -0.2612541655753071 
4.830000000002082, -0.2620719321488528 
4.840000000002059, -0.26306205380689457 
4.850000000002035, -0.2641279818080514 
