t, s[1].omega / s[0].omega 
0, -0.340022644174777 
0.009999999999999995, -0.34248375241998114 
0.019999999999999934, -0.34521879438426323 
0.029999999999999874, -0.3479776209732268 
0.04000000000000012, -0.3504781680480628 
0.050000000000000405, -0.3525149384587302 
0.06000000000000069, -0.35401633498674634 
0.07000000000000098, -0.35502097529215065 
0.08000000000000126, -0.3556167470750206 
0.09000000000000155, -0.3558915275638575 
0.10000000000000184, -0.355909377135062 
0.11000000000000212, -0.35570382105770443 
0.12000000000000241, -0.35527772262123114 
0.130000000000002, -0.3546044474084922 
0.1400000000000009, -0.3536304914396563 
0.1499999999999998, -0.3522847029037076 
0.1599999999999987, -0.35050265845941925 
0.1699999999999976, -0.3482702925830861 
0.1799999999999965, -0.34567029917859116 
0.1899999999999954, -0.34289045268637175 
0.1999999999999943, -0.34016740103264737 
0.2099999999999932, -0.3376995116473645 
0.2199999999999921, -0.3355926323837621 
0.229999999999991, -0.33386206207254054 
0.2399999999999899, -0.3324658948447936 
0.2499999999999888, -0.3313394115678276 
0.2599999999999877, -0.33041786008338303 
0.2699999999999866, -0.32964789753634804 
0.2799999999999855, -0.3289916626837259 
0.2899999999999844, -0.32842716117464615 
0.2999999999999833, -0.32794773215769263 
0.3099999999999822, -0.32756262214803533 
0.3199999999999811, -0.32730025724608836 
0.32999999999998, -0.32721579827483827 
0.3399999999999789, -0.32740494348925514 
0.3499999999999778, -0.3280261002272715 
0.35999999999997667, -0.32933061113962925 
0.36999999999997557, -0.3316881369080845 
0.37999999999997447, -0.33555268391973514 
0.38999999999997337, -0.3412215016384152 
0.39999999999997227, -0.34817768574694014 
0.40999999999997117, -0.3542622000676777 
0.41999999999997006, -0.35623692410118146 
0.42999999999996896, -0.3527118111087685 
0.43999999999996786, -0.34578537955887895 
0.44999999999996676, -0.33863210353733886 
0.45999999999996566, -0.3329887828583812 
0.46999999999996456, -0.3291038441955333 
0.47999999999996346, -0.32660748477618934 
0.48999999999996235, -0.32505922791727515 
0.49999999999996125, -0.3241207909615841 
0.5099999999999602, -0.32356748590189316 
0.519999999999959, -0.3232594093792258 
0.529999999999958, -0.3231129668162364 
0.5399999999999568, -0.3230810074999582 
0.5499999999999557, -0.32314084243730945 
0.5599999999999546, -0.3232879875004601 
0.5699999999999535, -0.3235337916122082 
0.5799999999999524, -0.3239054186833409 
0.5899999999999513, -0.3244465352869568 
0.5999999999999502, -0.32521651925979617 
0.6099999999999491, -0.3262851248887872 
0.619999999999948, -0.3277184443074931 
0.6299999999999469, -0.32955196483141425 
0.6399999999999458, -0.3317520949112155 
0.6499999999999447, -0.3341840251898061 
0.6599999999999436, -0.33662135880637184 
0.6699999999999425, -0.3388168560689755 
0.6799999999999414, -0.3405949399632997 
0.6899999999999403, -0.34189647492988934 
0.6999999999999392, -0.3427555783749908 
0.7099999999999381, -0.3432471305914416 
0.719999999999937, -0.34344490094363034 
0.7299999999999359, -0.3434009317522396 
0.7399999999999348, -0.34313904948839913 
0.7499999999999337, -0.34265386862209224 
0.7599999999999326, -0.3419111966199625 
0.7699999999999315, -0.34085090338588386 
0.7799999999999304, -0.33939833501308075 
0.7899999999999293, -0.33749318063995704 
0.7999999999999282, -0.3351373805090444 
0.8099999999999271, -0.33243918357504565 
0.819999999999926, -0.3296089190302052 
0.8299999999999249, -0.3268890345770096 
0.8399999999999238, -0.32446564811050793 
0.8499999999999227, -0.3224248537782653 
0.8599999999999216, -0.3207651382341267 
0.8699999999999205, -0.31943454681225636 
0.8799999999999194, -0.3183641024726227 
0.8899999999999183, -0.31748831425742197 
0.8999999999999172, -0.3167547541689315 
0.9099999999999161, -0.31612697590163524 
0.919999999999915, -0.3155843096200654 
0.9299999999999139, -0.31512110453684505 
0.9399999999999128, -0.3147472859808663 
0.9499999999999117, -0.3144916974640386 
0.9599999999999106, -0.3144096814338134 
0.9699999999999095, -0.31459653988306785 
0.9799999999999084, -0.3152079018844959 
0.9899999999999073, -0.3164830983914607 
0.9999999999999062, -0.31874814259117773 
1.0099999999999052, -0.32231920307732 
1.019999999999904, -0.3271305208009296 
1.029999999999903, -0.3319648792371338 
1.039999999999902, -0.333987652287845 
1.0499999999999008, -0.3304394752186222 
1.0599999999998997, -0.32181040984502957 
1.0699999999998986, -0.3115934913834354 
1.0799999999998975, -0.3028088770883941 
1.0899999999998964, -0.2964371362544834 
1.0999999999998953, -0.292193993187859 
1.1099999999998942, -0.2894756266680974 
1.119999999999893, -0.2877626568359054 
1.129999999999892, -0.2866954815058002 
1.1399999999998909, -0.2860456088468376 
1.1499999999998898, -0.28567407308118936 
1.1599999999998887, -0.28549995505748066 
1.1699999999998876, -0.2854805238938337 
1.1799999999998865, -0.28560013065303436 
1.1899999999998854, -0.2858651585508445 
1.1999999999998843, -0.28630315248940924 
1.2099999999998832, -0.2869646925403661 
1.219999999999882, -0.28792634560123304 
1.229999999999881, -0.2892917978175485 
1.2399999999998799, -0.2911853834301419 
1.2499999999998788, -0.2937274395298055 
1.2599999999998777, -0.2969783156853578 
1.2699999999998766, -0.3008524624291493 
1.2799999999998755, -0.30505238925852374 
1.2899999999998744, -0.3091168408988147 
1.2999999999998733, -0.31260745619785185 
1.3099999999998722, -0.31529286982605376 
1.319999999999871, -0.3171775842451967 
1.32999999999987, -0.3184015858483049 
1.3399999999998689, -0.3191313948650704 
1.3499999999998678, -0.31950296508467124 
1.3599999999998666, -0.31960764677322595 
1.3699999999998655, -0.3194967760531673 
1.3799999999998644, -0.31919031009806986 
1.3899999999998633, -0.31868515737430114 
1.3999999999998622, -0.31796438921222375 
1.4099999999998611, -0.31701059403891296 
1.41999999999986, -0.31582504757368846 
1.429999999999859, -0.3144476758419057 
1.4399999999998578, -0.31296434745431456 
1.4499999999998567, -0.3114898009673117 
1.4599999999998556, -0.31013247788725223 
1.4699999999998545, -0.30896363352641043 
1.4799999999998534, -0.30800696903910574 
1.4899999999998523, -0.3072467203430537 
1.4999999999998512, -0.3066432942120776 
1.5099999999998501, -0.30614839091368706 
1.519999999999849, -0.30571634107228846 
1.529999999999848, -0.3053106451806099 
1.5399999999998468, -0.30490583516824027 
1.5499999999998457, -0.30448591840267314 
1.5599999999998446, -0.3040412176730501 
1.5699999999998435, -0.303564921414494 
1.5799999999998424, -0.30304944294436864 
1.5899999999998413, -0.30248094905942174 
1.5999999999998402, -0.30182728634681527 
1.6099999999998391, -0.30100759720559667 
1.619999999999838, -0.29981797076256644 
1.629999999999837, -0.2977723113277191 
1.6399999999998358, -0.2938599420596308 
1.6499999999998347, -0.28649584952062196 
1.6599999999998336, -0.274403343385229 
1.6699999999998325, -0.2584395136283045 
1.6799999999998314, -0.24186502740027088 
1.6899999999998303, -0.2278211772376711 
1.6999999999998292, -0.2174317854849836 
1.709999999999828, -0.2102749155832567 
1.719999999999827, -0.20547352906605837 
1.729999999999826, -0.20225711190617437 
1.7399999999998248, -0.2000839263783872 
1.7499999999998237, -0.19860537779577542 
1.7599999999998226, -0.19760702622818055 
1.7699999999998215, -0.1969631787839415 
1.7799999999998204, -0.19660853514405902 
1.7899999999998193, -0.19652332722298818 
1.7999999999998182, -0.19672889078387262 
1.809999999999817, -0.19729265640119292 
1.819999999999816, -0.1983437996084018 
1.8299999999998149, -0.2001029022055591 
1.8399999999998138, -0.2029295147808702 
1.8499999999998127, -0.20738406984890276 
1.8599999999998116, -0.21426470529767122 
1.8699999999998105, -0.2244740707028443 
1.8799999999998094, -0.23841335735698715 
1.8899999999998083, -0.25482280155885284 
1.8999999999998072, -0.270349691811418 
1.909999999999806, -0.2816754041994664 
1.919999999999805, -0.28811976425543195 
1.9299999999998039, -0.2911550024121904 
1.9399999999998028, -0.2924403873379053 
1.9499999999998017, -0.2929776747332171 
1.9599999999998006, -0.2932224066286843 
1.9699999999997995, -0.2933522078702383 
1.9799999999997984, -0.293430320926997 
1.9899999999997973, -0.2934781881128072 
1.9999999999997962, -0.29350354966303577 
2.0099999999998173, -0.29351089471205805 
2.0199999999998384, -0.29350592518368396 
2.0299999999998595, -0.29349856637690636 
2.0399999999998806, -0.2935059859461876 
2.0499999999999017, -0.29355546441625063 
2.059999999999923, -0.29368586330961477 
2.069999999999944, -0.2939459394016152 
2.079999999999965, -0.2943880539215552 
2.089999999999986, -0.2950565066259151 
2.100000000000007, -0.2959705807330978 
2.1100000000000283, -0.29710523995337607 
2.1200000000000494, -0.29837919928627554 
2.1300000000000705, -0.2996651480875109 
2.1400000000000916, -0.30082670491207747 
2.1500000000001127, -0.30176240543647487 
2.160000000000134, -0.30242749927696855 
2.170000000000155, -0.30282494903846885 
2.180000000000176, -0.30298086003414976 
2.190000000000197, -0.30292178715681106 
2.2000000000002182, -0.3026602505274873 
2.2100000000002393, -0.3021864480805075 
2.2200000000002604, -0.30146257401607207 
2.2300000000002815, -0.3004187431112893 
2.2400000000003026, -0.29895474593256244 
2.2500000000003237, -0.29695902331497986 
2.260000000000345, -0.2943589648998576 
2.270000000000366, -0.291197414370272 
2.280000000000387, -0.2876830379722325 
2.290000000000408, -0.28414406269929154 
2.3000000000004293, -0.28089589564606465 
2.3100000000004504, -0.27812877570473 
2.3200000000004715, -0.2758886392125207 
2.3300000000004926, -0.2741248054932971 
2.3400000000005137, -0.2727465372277393 
2.3500000000005348, -0.27166018615246035 
2.360000000000556, -0.2707865629957517 
2.370000000000577, -0.27006633016609716 
2.380000000000598, -0.26945978368018564 
2.390000000000619, -0.26894482512188655 
2.4000000000006403, -0.2685153577353749 
2.4100000000006614, -0.2681815422931911 
2.4200000000006825, -0.26797298404624964 
2.4300000000007036, -0.2679457400733299 
2.4400000000007247, -0.26819329778182127 
2.450000000000746, -0.26885788196301524 
2.460000000000767, -0.2701242126664787 
2.470000000000788, -0.27213625131695285 
2.480000000000809, -0.27469599883693846 
2.49000000000083, -0.2766038464143563 
2.5000000000008513, -0.2751307795498038 
2.5100000000008724, -0.26745332929220006 
2.5200000000008935, -0.2541538014245097 
2.5300000000009146, -0.23947617249828745 
2.5400000000009357, -0.22717910654232304 
2.550000000000957, -0.2183615106004419 
2.560000000000978, -0.21248777430160012 
2.570000000000999, -0.2086745547196905 
2.58000000000102, -0.20620590783582257 
2.5900000000010412, -0.20460284818207758 
2.6000000000010624, -0.2035681019756197 
2.6100000000010835, -0.20292459423542097 
2.6200000000011046, -0.2025725855791677 
2.6300000000011257, -0.20246433615868456 
2.6400000000011468, -0.20259143352751469 
2.650000000001168, -0.202981350935937 
2.660000000001189, -0.2037017750430043 
2.67000000000121, -0.20487278493076994 
2.680000000001231, -0.20668754020876173 
2.6900000000012523, -0.20943984085854436 
2.7000000000012734, -0.21354589416667716 
2.7100000000012945, -0.21951571112142854 
2.7200000000013156, -0.22777208166407648 
2.7300000000013367, -0.23821229848796074 
2.740000000001358, -0.24971336166913943 
2.750000000001379, -0.2603342105131921 
2.7600000000014, -0.268504864894729 
2.770000000001421, -0.2739169754656588 
2.780000000001442, -0.2771813540837045 
2.7900000000014633, -0.27907249366546527 
2.8000000000014844, -0.2801597380435723 
2.8100000000015055, -0.28078288458973655 
2.8200000000015266, -0.281128322861271 
2.8300000000015477, -0.28129574021797427 
2.840000000001569, -0.2813384819504178 
2.85000000000159, -0.28128568359915707 
2.860000000001611, -0.2811549574494587 
2.870000000001632, -0.2809610403952664 
2.8800000000016532, -0.28072286067197977 
2.8900000000016743, -0.2804690509210387 
2.9000000000016954, -0.2802401315680696 
2.9100000000017165, -0.2800853981877137 
2.9200000000017377, -0.2800544459518347 
2.9300000000017588, -0.2801855763245646 
2.94000000000178, -0.2804939400327125 
2.950000000001801, -0.280962108209475 
2.960000000001822, -0.28153724432022054 
2.970000000001843, -0.2821401527817543 
2.9800000000018643, -0.28268633808374105 
2.9900000000018854, -0.2831090615223088 
3.0000000000019065, -0.28337111314002783 
3.0100000000019276, -0.28346106902865603 
3.0200000000019487, -0.28338035874247414 
3.03000000000197, -0.2831292264092425 
3.040000000001991, -0.2826950320659635 
3.050000000002012, -0.282042003443842 
3.060000000002033, -0.2811002841305254 
3.070000000002054, -0.27975423035056857 
3.0800000000020753, -0.277836899421206 
3.0900000000020964, -0.27515146665331475 
3.1000000000021175, -0.27155154257576597 
3.1100000000021386, -0.26708201369716483 
3.1200000000021597, -0.26208107218423937 
3.130000000002181, -0.25709276994925656 
3.140000000002202, -0.25261512453721957 
3.150000000002223, -0.24891006174428765 
3.160000000002244, -0.24600120374489384 
3.1700000000022652, -0.24377704890861454 
3.1800000000022863, -0.24208670542271302 
3.1900000000023074, -0.24079117317588325 
3.2000000000023285, -0.23978106711064365 
3.2100000000023496, -0.23897820883643156 
3.2200000000023707, -0.23833176976088472 
3.230000000002392, -0.2378139282532044 
3.240000000002413, -0.237417241562905 
3.250000000002434, -0.23715493177774238 
3.260000000002455, -0.23706510944432052 
3.2700000000024763, -0.23722007496218236 
3.2800000000024974, -0.23774134024229254 
3.2900000000025185, -0.23881694550402943 
3.3000000000025396, -0.24070081790415404 
3.3100000000025607, -0.2436222056716181 
3.3200000000025818, -0.24742822083305738 
3.330000000002603, -0.2507819748402128 
3.340000000002624, -0.2505546140440087 
3.350000000002645, -0.24364669548212192 
3.360000000002666, -0.23093859397021319 
3.3700000000026873, -0.21702151783786716 
3.3800000000027084, -0.20556307025020856 
3.3900000000027295, -0.1974574485593737 
3.4000000000027506, -0.1920994819150249 
3.4100000000027717, -0.1886325324709722 
3.420000000002793, -0.1863901102103366 
3.430000000002814, -0.18493524150951396 
3.440000000002835, -0.184000396613958 
3.450000000002856, -0.18342872209974107 
3.460000000002877, -0.183134829662788 
3.4700000000028983, -0.18308253182466178 
3.4800000000029194, -0.18327476990718955 
3.4900000000029405, -0.18375281081151298 
3.5000000000029616, -0.18460390230327547 
3.5100000000029827, -0.18597822377389908 
3.520000000003004, -0.1881163613964634 
3.530000000003025, -0.19138453594872543 
3.540000000003046, -0.19629696638348695 
3.550000000003067, -0.20345495125551954 
3.5600000000030882, -0.2132542919468634 
3.5700000000031094, -0.2252694993321846 
3.5800000000031305, -0.2377787788212106 
3.5900000000031516, -0.24846273681148695 
3.6000000000031727, -0.2560020652593792 
3.6100000000031938, -0.26061535243665296 
3.620000000003215, -0.26322886035390025 
3.630000000003236, -0.26467811665378893 
3.640000000003257, -0.2654887704959493 
3.650000000003278, -0.26594579302829546 
3.6600000000032993, -0.2661959239444864 
3.6700000000033204, -0.26631468189884694 
3.6800000000033415, -0.266342127469554 
3.6900000000033626, -0.26630125859928566 
3.7000000000033837, -0.26620837876512404 
3.710000000003405, -0.26608025192502416 
3.720000000003426, -0.2659398540628306 
3.730000000003447, -0.2658204121997574 
3.740000000003468, -0.26576616382901275 
3.750000000003489, -0.26582843318931126 
3.7600000000035103, -0.2660570126790171 
3.7700000000035314, -0.26648798976137184 
3.7800000000035525, -0.2671295424051298 
3.7900000000035736, -0.26794908432850956 
3.8000000000035947, -0.2688696782292387 
3.810000000003616, -0.2697847554350953 
3.820000000003637, -0.2705893588102157 
3.830000000003658, -0.2712101770188128 
3.840000000003679, -0.27161606247512465 
3.8500000000037002, -0.27180775228572046 
3.8600000000037213, -0.2717989664997596 
3.8700000000037424, -0.2715996840707241 
3.8800000000037635, -0.27120462534248724 
3.8900000000037847, -0.2705851811678787 
3.9000000000038058, -0.2696829376821006 
3.910000000003827, -0.2684064148491463 
3.920000000003848, -0.2666393055312489 
3.930000000003869, -0.26427563640191576 
3.94000000000389, -0.2612912784932712 
3.9500000000039113, -0.2578220506420022 
3.9600000000039324, -0.2541698032544534 
3.9700000000039535, -0.25069249077056316 
3.9800000000039746, -0.24765707535664797 
3.9900000000039957, -0.24517208161276507 
4.000000000004016, -0.2432165823731917 
4.010000000003993, -0.24170388731909057 
4.02000000000397, -0.24053140528008607 
4.030000000003946, -0.23960657320649997 
4.040000000003923, -0.23885630416432443 
4.0500000000039, -0.23822816006385317 
4.0600000000038765, -0.23768818979298506 
4.070000000003853, -0.23721807940002132 
4.08000000000383, -0.2368131009311057 
4.090000000003807, -0.23648165629205126 
4.100000000003783, -0.23624655441762005 
4.11000000000376, -0.23614684278267992 
4.120000000003737, -0.23623499141431706 
4.130000000003713, -0.23655200380920222 
4.14000000000369, -0.23703159291266984 
4.150000000003667, -0.23723192032189325 
4.1600000000036434, -0.23582951860637422 
4.17000000000362, -0.23036178594479276 
4.180000000003597, -0.21873579917235655 
4.1900000000035735, -0.20229846022511286 
4.20000000000355, -0.18557717417506192 
4.210000000003527, -0.17211409175113107 
4.220000000003504, -0.1626452988024143 
4.23000000000348, -0.15637439621905722 
4.240000000003457, -0.15228398483156352 
4.250000000003434, -0.14959909393970033 
4.26000000000341, -0.1478162028802576 
4.270000000003387, -0.14662826006993882 
4.280000000003364, -0.14585536801061177 
4.2900000000033405, -0.14539953981793016 
4.300000000003317, -0.14521959425110123 
4.310000000003294, -0.14532064352780752 
4.320000000003271, -0.14575532694689142 
4.330000000003247, -0.14663712037064955 
4.340000000003224, -0.14816920055479912 
4.350000000003201, -0.15069463409448633 
4.360000000003177, -0.15476967344746967 
4.370000000003154, -0.16123038802056427 
4.380000000003131, -0.1711077711300985 
4.390000000003107, -0.1850112314875554 
4.400000000003084, -0.2016849263963135 
4.410000000003061, -0.21714859007700418 
4.4200000000030375, -0.22731367162725089 
4.430000000003014, -0.23168064908678324 
4.440000000002991, -0.23254207177535288 
4.450000000002968, -0.23208241889144648 
4.460000000002944, -0.2313880196446904 
4.470000000002921, -0.23081166704704245 
4.480000000002898, -0.23040858198475847 
4.490000000002874, -0.23014987624762545 
4.500000000002851, -0.22999725912244876 
4.510000000002828, -0.2299227946217126 
4.520000000002804, -0.22991172233038765 
4.530000000002781, -0.22996178087253866 
4.540000000002758, -0.23008310881872301 
4.5500000000027345, -0.2302996511749768 
4.560000000002711, -0.23065185798882654 
4.570000000002688, -0.23119978107900435 
4.580000000002665, -0.23202488193868304 
4.590000000002641, -0.2332273943724151 
4.600000000002618, -0.23491317515504656 
4.610000000002595, -0.23716059855735078 
4.620000000002571, -0.23996190704832182 
4.630000000002548, -0.24315917322006347 
4.640000000002525, -0.24643675509339222 
4.6500000000025015, -0.2494234131739695 
4.660000000002478, -0.25185003127547845 
4.670000000002455, -0.2536318028775557 
4.6800000000024315, -0.2548298956437467 
4.690000000002408, -0.25556450424785593 
4.700000000002385, -0.25595119744048045 
4.710000000002362, -0.2560751606704117 
4.720000000002338, -0.25598829620138697 
4.730000000002315, -0.2557147253997955 
4.740000000002292, -0.25525844215686766 
4.750000000002268, -0.254612665061515 
4.760000000002245, -0.25377263681491163 
4.770000000002222, -0.25275199521369324 
4.7800000000021985, -0.2515972733331677 
4.790000000002175, -0.2503898105276694 
4.800000000002152, -0.24922843549397636 
4.810000000002129, -0.2482008378394045 
4.820000000002105, -0.24736097135550256 
4.830000000002082, -0.24672249248676045 
4.840000000002059, -0.24626507146328952 
4.850000000002035, -0.24594597544547364 
