t, s[1].omega / s[0].omega 
0, -0.8999681780504225 
0.009999999999999995, -0.8985101943354122 
0.019999999999999934, -0.9001492298920338 
0.029999999999999874, -0.9036609348411382 
0.04000000000000012, -0.9076084804591501 
0.050000000000000405, -0.9110453219231444 
0.06000000000000069, -0.9136249730785814 
0.07000000000000098, -0.9153746331957405 
0.08000000000000126, -0.9164586225984221 
0.09000000000000155, -0.9170455670722208 
0.10000000000000184, -0.9172589150808899 
0.11000000000000212, -0.91716646137978 
0.12000000000000241, -0.916779616450359 
0.130000000000002, -0.9160478652458842 
0.1400000000000009, -0.9148409009173205 
0.1499999999999998, -0.9129138237654025 
0.1599999999999987, -0.9098564456915114 
0.1699999999999976, -0.9050479642549532 
0.1799999999999965, -0.8976878906448864 
0.1899999999999954, -0.8870377303940282 
0.1999999999999943, -0.872960082212216 
0.2099999999999932, -0.8564967917985568 
0.2199999999999921, -0.8398301597593644 
0.229999999999991, -0.825342027645171 
0.2399999999999899, -0.8145026492175849 
0.2499999999999888, -0.8074937526467576 
0.2599999999999877, -0.8035975121562272 
0.2699999999999866, -0.8018004096770779 
0.2799999999999855, -0.8012066124702493 
0.2899999999999844, -0.8011891924174144 
0.2999999999999833, -0.8013745549388188 
0.3099999999999822, -0.8015663506494912 
0.3199999999999811, -0.8016700768943318 
0.32999999999998, -0.8016387142621507 
0.3399999999999789, -0.8014387820954016 
0.3499999999999778, -0.8010303651419027 
0.35999999999997667, -0.8003562360691452 
0.36999999999997557, -0.7993395145009107 
0.37999999999997447, -0.7978936810741605 
0.38999999999997337, -0.7959491657502632 
0.39999999999997227, -0.7934916453119613 
0.40999999999997117, -0.7905910038527584 
0.41999999999997006, -0.7873960042860628 
0.42999999999996896, -0.7840933413328888 
0.43999999999996786, -0.780858720707427 
0.44999999999996676, -0.7778278883244231 
0.45999999999996566, -0.7750926599117608 
0.46999999999996456, -0.7727101526310224 
0.47999999999996346, -0.7707127605615736 
0.48999999999996235, -0.76911327204584 
0.49999999999996125, -0.7679055033286735 
0.5099999999999602, -0.7670635930365793 
0.519999999999959, -0.7665431880114755 
0.529999999999958, -0.7662860877682227 
0.5399999999999568, -0.766227623165799 
0.5499999999999557, -0.7663044725843302 
0.5599999999999546, -0.7664606433316924 
0.5699999999999535, -0.766650677593756 
0.5799999999999524, -0.7668406184873504 
0.5899999999999513, -0.7670078335667161 
0.5999999999999502, -0.7671401749411296 
0.6099999999999491, -0.7672338407537674 
0.619999999999948, -0.7672890411326556 
0.6299999999999469, -0.7673040690278973 
0.6399999999999458, -0.767270628096631 
0.6499999999999447, -0.7671737290023445 
0.6599999999999436, -0.7669968252979316 
0.6699999999999425, -0.7667291187925449 
0.6799999999999414, -0.7663707845934596 
0.6899999999999403, -0.7659344004997839 
0.6999999999999392, -0.7654442786839543 
0.7099999999999381, -0.7649365170470055 
0.719999999999937, -0.7644612415544432 
0.7299999999999359, -0.7640863815793163 
0.7399999999999348, -0.7639006509115625 
0.7499999999999337, -0.7640127458024584 
0.7599999999999326, -0.7645445671792961 
0.7699999999999315, -0.7656185660994155 
0.7799999999999304, -0.7673418854664182 
0.7899999999999293, -0.7697906728291706 
0.7999999999999282, -0.7729956450239837 
0.8099999999999271, -0.77692635888339 
0.819999999999926, -0.7814708688113006 
0.8299999999999249, -0.7864142164168968 
0.8399999999999238, -0.7914341725672112 
0.8499999999999227, -0.7961434600108626 
0.8599999999999216, -0.8001877399117051 
0.8699999999999205, -0.8033540125674522 
0.8799999999999194, -0.8056149053041091 
0.8899999999999183, -0.807084600492481 
0.8999999999999172, -0.8079344753692741 
0.9099999999999161, -0.8083261782535576 
0.919999999999915, -0.8083812341666137 
0.9299999999999139, -0.8081767848305242 
0.9399999999999128, -0.8077526753461356 
0.9499999999999117, -0.8071220946806253 
0.9599999999999106, -0.8062855740814386 
0.9699999999999095, -0.8052543618419362 
0.9799999999999084, -0.8040948250702453 
0.9899999999999073, -0.8030083771419708 
0.9999999999999062, -0.8024506370877805 
1.0099999999999052, -0.8032466939729499 
1.019999999999904, -0.8065624338629588 
1.029999999999903, -0.8135157853834751 
1.039999999999902, -0.8243909674370105 
1.0499999999999008, -0.837993811840765 
1.0599999999998997, -0.8519967495968052 
1.0699999999998986, -0.8642041736630055 
1.0799999999998975, -0.8735359305438314 
1.0899999999998964, -0.8800180306033252 
1.0999999999998953, -0.8842308892040128 
1.1099999999998942, -0.8868377785373625 
1.119999999999893, -0.8883733276278472 
1.129999999999892, -0.8892051985742088 
1.1399999999998909, -0.8895617843402978 
1.1499999999998898, -0.8895690368725419 
1.1599999999998887, -0.8892764588883082 
1.1699999999998876, -0.8886677869929027 
1.1799999999998865, -0.8876555743173669 
1.1899999999998854, -0.8860583275533239 
1.1999999999998843, -0.8835591702770504 
1.2099999999998832, -0.879653196173885 
1.219999999999882, -0.873619984562041 
1.229999999999881, -0.8646204135872871 
1.2399999999998799, -0.8520712978107154 
1.2499999999998788, -0.8363108639261301 
1.2599999999998777, -0.8190728811848877 
1.2699999999998766, -0.8030008573350944 
1.2799999999998755, -0.7903064587283675 
1.2899999999998744, -0.7817872479852259 
1.2999999999998733, -0.7769356924629158 
1.3099999999998722, -0.7746591351437246 
1.319999999999871, -0.7738937480152741 
1.32999999999987, -0.7738685926668523 
1.3399999999998689, -0.774118709747696 
1.3499999999998678, -0.7744004860899726 
1.3599999999998666, -0.7746005162614803 
1.3699999999998655, -0.774669111000257 
1.3799999999998644, -0.774579282642975 
1.3899999999998633, -0.7743031769267434 
1.3999999999998622, -0.7737987777324367 
1.4099999999998611, -0.7730037735627608 
1.41999999999986, -0.771838258699863 
1.429999999999859, -0.7702213028165418 
1.4399999999998578, -0.7681036047739059 
1.4499999999998567, -0.7655052776367144 
1.4599999999998556, -0.7625330908971918 
1.4699999999998545, -0.7593580921552163 
1.4799999999998534, -0.7561657163590116 
1.4899999999998523, -0.753111566267687 
1.4999999999998512, -0.7503036525951778 
1.5099999999998501, -0.7478072684755415 
1.519999999999849, -0.7456580586718353 
1.529999999999848, -0.7438726890349774 
1.5399999999998468, -0.7424538194938272 
1.5499999999998457, -0.7413907636386667 
1.5599999999998446, -0.7406588186882737 
1.5699999999998435, -0.7402198910194573 
1.5799999999998424, -0.7400256490265031 
1.5899999999998413, -0.7400227843323915 
1.5999999999998402, -0.7401588550558512 
1.6099999999998391, -0.7403871199011792 
1.619999999999838, -0.7406695599544344 
1.629999999999837, -0.7409781778270295 
1.6399999999998358, -0.7412949375988485 
1.6499999999998347, -0.7416102333488024 
1.6599999999998336, -0.7419192453298898 
1.6699999999998325, -0.7422160859976551 
1.6799999999998314, -0.7424875888620404 
1.6899999999998303, -0.7427104487761139 
1.6999999999998292, -0.7428547128145458 
1.709999999999828, -0.7428926599252015 
1.719999999999827, -0.7428079288985217 
1.729999999999826, -0.7425997671339054 
1.7399999999998248, -0.7422817175108805 
1.7499999999998237, -0.7418782956756288 
1.7599999999998226, -0.7414238104178199 
1.7699999999998215, -0.7409655057690318 
1.7799999999998204, -0.7405710422571835 
1.7899999999998193, -0.7403387345500192 
1.7999999999998182, -0.740407491855048 
1.809999999999817, -0.7409619860878307 
1.819999999999816, -0.7422279960624576 
1.8299999999998149, -0.7444539513958408 
1.8399999999998138, -0.7478767950767435 
1.8499999999998127, -0.7526713669641232 
1.8599999999998116, -0.7588824635329886 
1.8699999999998105, -0.7663441396260062 
1.8799999999998094, -0.7746137302851984 
1.8899999999998083, -0.7829860139421788 
1.8999999999998072, -0.7906547077931466 
1.909999999999806, -0.7969845550725049 
1.919999999999805, -0.8017160772090168 
1.9299999999998039, -0.8049564404221965 
1.9399999999998028, -0.8070101985003095 
1.9499999999998017, -0.808207396104178 
1.9599999999998006, -0.8088130049516197 
1.9699999999997995, -0.8090064845110498 
1.9799999999997984, -0.808892689735357 
1.9899999999997973, -0.8085181231879701 
1.9999999999997962, -0.8078824430663956 
2.0099999999998173, -0.8069438035077499 
2.0199999999998384, -0.8056206551382973 
2.0299999999998595, -0.8037960402622553 
2.0399999999998806, -0.8013351064044123 
2.0499999999999017, -0.7981301451963715 
2.059999999999923, -0.7941794434940608 
2.069999999999944, -0.7896731536561338 
2.079999999999965, -0.7850215158644872 
2.089999999999986, -0.7807934766768605 
2.100000000000007, -0.7776079188134039 
2.1100000000000283, -0.7759509494490058 
2.1200000000000494, -0.7759024739714981 
2.1300000000000705, -0.7770501881193659 
2.1400000000000916, -0.7787552910631584 
2.1500000000001127, -0.7804845385050803 
2.160000000000134, -0.7819436239565238 
2.170000000000155, -0.7830363088789175 
2.180000000000176, -0.7837738293710548 
2.190000000000197, -0.7842043893571872 
2.2000000000002182, -0.7843741485334493 
2.2100000000002393, -0.7843091483737931 
2.2200000000002604, -0.7840064291828592 
2.2300000000002815, -0.783426856868036 
2.2400000000003026, -0.7824866213971625 
2.2500000000003237, -0.7810494170513427 
2.260000000000345, -0.7789289873398673 
2.270000000000366, -0.775920733334927 
2.280000000000387, -0.7718790757897518 
2.290000000000408, -0.7668235917647159 
2.3000000000004293, -0.7610028681399333 
2.3100000000004504, -0.7548454335776966 
2.3200000000004715, -0.7488198106994722 
2.3300000000004926, -0.743303741601107 
2.3400000000005137, -0.7385298145114748 
2.3500000000005348, -0.7345971327007021 
2.360000000000556, -0.7315076861456025 
2.370000000000577, -0.7292000991787361 
2.380000000000598, -0.7275739834793262 
2.390000000000619, -0.7265078345100211 
2.4000000000006403, -0.7258739459803836 
2.4100000000006614, -0.7255510730439616 
2.4200000000006825, -0.7254335867210353 
2.4300000000007036, -0.7254359466678073 
2.4400000000007247, -0.7254927560303923 
2.450000000000746, -0.7255560683840722 
2.460000000000767, -0.7255921338464225 
2.470000000000788, -0.7255792762948216 
2.480000000000809, -0.7255072835401168 
2.49000000000083, -0.7253770020171967 
2.5000000000008513, -0.7251978421231575 
2.5100000000008724, -0.7249820051870011 
2.5200000000008935, -0.7247372537139635 
2.5300000000009146, -0.7244622994127912 
2.5400000000009357, -0.7241478191440687 
2.550000000000957, -0.7237823811592419 
2.560000000000978, -0.7233595020086757 
2.570000000000999, -0.7228822965119621 
2.58000000000102, -0.7223650464734779 
2.5900000000010412, -0.7218334991104048 
2.6000000000010624, -0.7213259644149955 
2.6100000000010835, -0.7208959201454622 
2.6200000000011046, -0.7206152563855798 
2.6300000000011257, -0.7205762959966723 
2.6400000000011468, -0.7208905966488062 
2.650000000001168, -0.7216833564677535 
2.660000000001189, -0.7230836456568219 
2.67000000000121, -0.7252116103163684 
2.680000000001231, -0.7281630230024653 
2.6900000000012523, -0.7319889776887639 
2.7000000000012734, -0.7366663489841649 
2.7100000000012945, -0.7420579134792024 
2.7200000000013156, -0.7478758607750138 
2.7300000000013367, -0.75368608585161 
2.740000000001358, -0.7589945614789653 
2.750000000001379, -0.7634018386170035 
2.7600000000014, -0.766729369894684 
2.770000000001421, -0.7690270846752582 
2.780000000001442, -0.7704797702462164 
2.7900000000014633, -0.7713001325601538 
2.8000000000014844, -0.7716652596353091 
2.8100000000015055, -0.7716970089974211 
2.8200000000015266, -0.771464903229398 
2.8300000000015477, -0.7709946663644252 
2.840000000001569, -0.7702750143592165 
2.85000000000159, -0.7692615986231546 
2.860000000001611, -0.7678807093695605 
2.870000000001632, -0.7660385119775082 
2.8800000000016532, -0.7636442374250952 
2.8900000000016743, -0.7606532084026262 
2.9000000000016954, -0.7571182527778662 
2.9100000000017165, -0.7532087911007449 
2.9200000000017377, -0.7491710115448105 
2.9300000000017588, -0.7453102322830845 
2.94000000000178, -0.7420679612148271 
2.950000000001801, -0.739962970702413 
2.960000000001822, -0.7392445280057092 
2.970000000001843, -0.739681096064476 
2.9800000000018643, -0.740761661630666 
2.9900000000018854, -0.7420115010936189 
3.0000000000019065, -0.7431387363354476 
3.0100000000019276, -0.7440201166826285 
3.0200000000019487, -0.7446330443634593 
3.03000000000197, -0.7449968898748267 
3.040000000001991, -0.7451374875776231 
3.050000000002012, -0.7450688005374749 
3.060000000002033, -0.744783255968487 
3.070000000002054, -0.7442451819485978 
3.0800000000020753, -0.7433856927247815 
3.0900000000020964, -0.7421020471817871 
3.1000000000021175, -0.7402699945190168 
3.1100000000021386, -0.7377798703783518 
3.1200000000021597, -0.7345959754853346 
3.130000000002181, -0.7308103657089509 
3.140000000002202, -0.7266444824165802 
3.150000000002223, -0.7223844867808493 
3.160000000002244, -0.7182942321460646 
3.1700000000022652, -0.7145611367967472 
3.1800000000022863, -0.7112894107525458 
3.1900000000023074, -0.7085201266459361 
3.2000000000023285, -0.7062547846926893 
3.2100000000023496, -0.7044715421482675 
3.2200000000023707, -0.7031335320059752 
3.230000000002392, -0.702192697977796 
3.240000000002413, -0.7015925760144115 
3.250000000002434, -0.7012718824938768 
3.260000000002455, -0.7011690565129955 
3.2700000000024763, -0.7012268355320346 
3.2800000000024974, -0.7013958100179191 
3.2900000000025185, -0.7016364692495443 
3.3000000000025396, -0.7019199297319814 
3.3100000000025607, -0.7022277572579281 
3.3200000000025818, -0.7025508426603972 
3.330000000002603, -0.7028865620557152 
3.340000000002624, -0.7032334164322441 
3.350000000002645, -0.7035838268454071 
3.360000000002666, -0.7039182004322211 
3.3700000000026873, -0.7042045471290341 
3.3800000000027084, -0.7044056129486276 
3.3900000000027295, -0.7044903346208068 
3.4000000000027506, -0.7044428920333305 
3.4100000000027717, -0.7042648070776435 
3.420000000002793, -0.7039713244209957 
3.430000000002814, -0.7035869110771542 
3.440000000002835, -0.7031441059292975 
3.450000000002856, -0.7026876778547855 
3.460000000002877, -0.7022845037538035 
3.4700000000028983, -0.7020388529569487 
3.4800000000029194, -0.7021117934344321 
3.4900000000029405, -0.7027413145803711 
3.5000000000029616, -0.7042562247669263 
3.5100000000029827, -0.7070721467205177 
3.520000000003004, -0.7116522860438621 
3.530000000003025, -0.7184104367450559 
3.540000000003046, -0.7275374186180084 
3.550000000003067, -0.7387703554848961 
3.5600000000030882, -0.7512246374983343 
3.5700000000031094, -0.7635089991774862 
3.5800000000031305, -0.7742231963085973 
3.5900000000031516, -0.7825369669803446 
3.6000000000031727, -0.7883802474960808 
3.6100000000031938, -0.79218514020883 
3.620000000003215, -0.7945188891849365 
3.630000000003236, -0.7958643267331439 
3.640000000003257, -0.7965595503103231 
3.650000000003278, -0.7968145224699139 
3.6600000000032993, -0.7967440298311612 
3.6700000000033204, -0.7963927701980693 
3.6800000000033415, -0.7957469571920155 
3.6900000000033626, -0.7947320962585234 
3.7000000000033837, -0.7931964688174682 
3.710000000003405, -0.7908792094709753 
3.720000000003426, -0.7873652516421819 
3.730000000003447, -0.7820459783920384 
3.740000000003468, -0.7741497932552824 
3.750000000003489, -0.7629779928142694 
3.7600000000035103, -0.7484599771298469 
3.7700000000035314, -0.7317721974208775 
3.7800000000035525, -0.7152468492281786 
3.7900000000035736, -0.7012449472880474 
3.8000000000035947, -0.6909904242483405 
3.810000000003616, -0.6843924397215987 
3.820000000003637, -0.6806250137408768 
3.830000000003658, -0.6787323972422659 
3.840000000003679, -0.6779390958728084 
3.8500000000037002, -0.6777181765081337 
3.8600000000037213, -0.6777497723086114 
3.8700000000037424, -0.6778546074677406 
3.8800000000037635, -0.6779371181473877 
3.8900000000037847, -0.6779458013466018 
3.9000000000038058, -0.6778484050206453 
3.910000000003827, -0.6776177839894408 
3.920000000003848, -0.6772255904857402 
3.930000000003869, -0.6766429279326334 
3.94000000000389, -0.6758479237753209 
3.9500000000039113, -0.6748381719103883 
3.9600000000039324, -0.6736413162455548 
3.9700000000039535, -0.6723146082669753 
3.9800000000039746, -0.6709302784552483 
3.9900000000039957, -0.669554810893395 
4.000000000004016, -0.6682346042837555 
4.010000000003993, -0.6669938586847757 
4.02000000000397, -0.6658415745019025 
4.030000000003946, -0.6647811982763076 
4.040000000003923, -0.6638183119195291 
4.0500000000039, -0.6629649329618255 
4.0600000000038765, -0.662240967131705 
4.070000000003853, -0.6616738048080992 
4.08000000000383, -0.6612967639827079 
4.090000000003807, -0.6611468234006399 
4.100000000003783, -0.6612621134618221 
4.11000000000376, -0.6616797648469148 
4.120000000003737, -0.6624346523155535 
4.130000000003713, -0.6635591135063854 
4.14000000000369, -0.6650828468705828 
4.150000000003667, -0.6670310173169629 
4.1600000000036434, -0.6694174309162633 
4.17000000000362, -0.6722293612826102 
4.180000000003597, -0.6754033097506236 
4.1900000000035735, -0.678799505766292 
4.20000000000355, -0.6821960300164759 
4.210000000003527, -0.6853268122305777 
4.220000000003504, -0.6879607614003921 
4.23000000000348, -0.6899750658582662 
4.240000000003457, -0.6913714027171138 
4.250000000003434, -0.6922347598988553 
4.26000000000341, -0.692676323274612 
4.270000000003387, -0.6927937985210727 
4.280000000003364, -0.6926546858528277 
4.2900000000033405, -0.6922933586298834 
4.300000000003317, -0.6917125662603028 
4.310000000003294, -0.6908841527767431 
4.320000000003271, -0.6897469807447538 
4.330000000003247, -0.6882014614961116 
4.340000000003224, -0.6860998842861052 
4.350000000003201, -0.6832294507928613 
4.360000000003177, -0.6792818595868185 
4.370000000003154, -0.6738153212245905 
4.380000000003131, -0.6662889047893927 
4.390000000003107, -0.6563768461744165 
4.400000000003084, -0.6446084938054979 
4.410000000003061, -0.6326407694338998 
4.4200000000030375, -0.6224211050098336 
4.430000000003014, -0.6150200634600489 
4.440000000002991, -0.610375599356244 
4.450000000002968, -0.6078153470751269 
4.460000000002944, -0.6065916779844702 
4.470000000002921, -0.6061250368588634 
4.480000000002898, -0.6060372367121312 
4.490000000002874, -0.6061055206621336 
4.500000000002851, -0.6062070720366752 
4.510000000002828, -0.6062762691081943 
4.520000000002804, -0.6062767255587318 
4.530000000002781, -0.606184651386226 
4.540000000002758, -0.6059801326597734 
4.5500000000027345, -0.6056444425950941 
4.560000000002711, -0.6051626975647918 
4.570000000002688, -0.6045308717002105 
4.580000000002665, -0.6037638013953995 
4.590000000002641, -0.6028980878979259 
4.600000000002618, -0.6019850569386878 
4.610000000002595, -0.6010757807304212 
4.620000000002571, -0.6002066635265559 
4.630000000002548, -0.5993933032153331 
4.640000000002525, -0.5986338919054315 
4.6500000000025015, -0.5979180353901662 
4.660000000002478, -0.5972358060130054 
4.670000000002455, -0.5965839496989177 
4.6800000000024315, -0.5959690161426038 
4.690000000002408, -0.5954089269153877 
4.700000000002385, -0.5949346715894387 
4.710000000002362, -0.5945931138202102 
4.720000000002338, -0.5944511326416639 
4.730000000002315, -0.5946008709199785 
4.740000000002292, -0.5951656468405233 
4.750000000002268, -0.5963058294891275 
4.760000000002245, -0.5982231883322815 
4.770000000002222, -0.6011600133107249 
4.7800000000021985, -0.6053844274996052 
4.790000000002175, -0.6111453692279774 
4.800000000002152, -0.6185747012005292 
4.810000000002129, -0.6275293961902702 
4.820000000002105, -0.6374361166664114 
4.830000000002082, -0.6473053260633834 
4.840000000002059, -0.6560524781972333 
4.850000000002035, -0.6629622251381662 
4.860000000002012, -0.66790484145904 
4.870000000001989, -0.6711783503119442 
4.880000000001965, -0.6732199366056347 
4.890000000001942, -0.6744165177146708 
4.900000000001919, -0.6750447217730248 
4.9100000000018955, -0.6752781946285735 
4.920000000001872, -0.6752113378989455 
