t, s[1].omega / s[0].omega 
0, -1.7400823990592442 
0.009999999999999995, -1.7533165756944484 
0.019999999999999934, -1.767097505969207 
0.029999999999999874, -1.7754703072333562 
0.04000000000000012, -1.7795656920627727 
0.050000000000000405, -1.7813254668396035 
0.06000000000000069, -1.7819021077390835 
0.07000000000000098, -1.7818562485070832 
0.08000000000000126, -1.7814698240293336 
0.09000000000000155, -1.7809457506499757 
0.10000000000000184, -1.780491619095193 
0.11000000000000212, -1.7802584782537256 
0.12000000000000241, -1.780251121765069 
0.130000000000002, -1.7803795096689747 
0.1400000000000009, -1.7805345446266112 
0.1499999999999998, -1.7805913612381654 
0.1599999999999987, -1.780413861185489 
0.1699999999999976, -1.779848094173344 
0.1799999999999965, -1.778663855857807 
0.1899999999999954, -1.7764521052731097 
0.1999999999999943, -1.7724939091361638 
0.2099999999999932, -1.765691934836136 
0.2199999999999921, -1.7550475127023077 
0.229999999999991, -1.7418137946076169 
0.2399999999999899, -1.731875617790558 
0.2499999999999888, -1.7300038952086427 
0.2599999999999877, -1.7327938654054988 
0.2699999999999866, -1.7355777740037026 
0.2799999999999855, -1.737123798804563 
0.2899999999999844, -1.737706874480138 
0.2999999999999833, -1.7376872345870698 
0.3099999999999822, -1.7372715812194905 
0.3199999999999811, -1.7366148710194396 
0.32999999999998, -1.7360095276823384 
0.3399999999999789, -1.735970238752293 
0.3499999999999778, -1.7368490803701704 
0.35999999999997667, -1.7383720081447518 
0.36999999999997557, -1.739961028513454 
0.37999999999997447, -1.7412447911116633 
0.38999999999997337, -1.7420995625569173 
0.39999999999997227, -1.7425086934552325 
0.40999999999997117, -1.7424758562619664 
0.41999999999997006, -1.7419901232140949 
0.42999999999996896, -1.7410125708226516 
0.43999999999996786, -1.739473908353408 
0.44999999999996676, -1.7372893529384767 
0.45999999999996566, -1.7344261317087644 
0.46999999999996456, -1.7310970011002689 
0.47999999999996346, -1.7280246881154757 
0.48999999999996235, -1.7261846200949087 
0.49999999999996125, -1.7257660790196705 
0.5099999999999602, -1.726015012030351 
0.519999999999959, -1.7262295687711862 
0.529999999999958, -1.7261350165490985 
0.5399999999999568, -1.7256391065280272 
0.5499999999999557, -1.7246222939417024 
0.5599999999999546, -1.7229178061267671 
0.5699999999999535, -1.7206859671184673 
0.5799999999999524, -1.719514484390832 
0.5899999999999513, -1.7225104822794481 
0.5999999999999502, -1.7301596640961594 
0.6099999999999491, -1.738804934029592 
0.619999999999948, -1.7455241283005534 
0.6299999999999469, -1.7498483402214027 
0.6399999999999458, -1.7523241887041117 
0.6499999999999447, -1.7535546656314125 
0.6599999999999436, -1.7539694179183578 
0.6699999999999425, -1.7538378044837806 
0.6799999999999414, -1.7533256061841365 
0.6899999999999403, -1.7525507609436661 
0.6999999999999392, -1.7516238054869386 
0.7099999999999381, -1.750667132184427 
0.719999999999937, -1.7498317548556876 
0.7299999999999359, -1.7492783536808425 
0.7399999999999348, -1.749044794207719 
0.7499999999999337, -1.7489654527541425 
0.7599999999999326, -1.7488007089640683 
0.7699999999999315, -1.7483430856266113 
0.7799999999999304, -1.7473489037604832 
0.7899999999999293, -1.7453566368368552 
0.7999999999999282, -1.7414176792758358 
0.8099999999999271, -1.7339227123839378 
0.819999999999926, -1.7219069037459502 
0.8299999999999249, -1.71047712646168 
0.8399999999999238, -1.7115077086940278 
0.8499999999999227, -1.7247210593678042 
0.8599999999999216, -1.737829007728457 
0.8699999999999205, -1.7457141100388924 
0.8799999999999194, -1.7495751848231655 
0.8899999999999183, -1.751235397520724 
0.8999999999999172, -1.7517717904941947 
0.9099999999999161, -1.751711154054804 
0.919999999999915, -1.751321977633435 
0.9299999999999139, -1.7508046860788042 
0.9399999999999128, -1.7503743505030478 
0.9499999999999117, -1.7501945453881163 
0.9599999999999106, -1.7502685150845267 
0.9699999999999095, -1.7504850713634457 
0.9799999999999084, -1.7507188675715146 
0.9899999999999073, -1.7508476777620974 
0.9999999999999062, -1.7507484826065032 
1.0099999999999052, -1.7502893645352828 
1.019999999999904, -1.749287369078155 
1.029999999999903, -1.747438433549372 
1.039999999999902, -1.7442359707631625 
1.0499999999999008, -1.738925845712367 
1.0599999999998997, -1.730728455888635 
1.0699999999998986, -1.7199570257878811 
1.0799999999998975, -1.7099625429816114 
1.0899999999998964, -1.7054613720402987 
1.0999999999998953, -1.706209258448125 
1.1099999999998942, -1.7083530905853035 
1.119999999999893, -1.7098509807138729 
1.129999999999892, -1.7105098295326564 
1.1399999999998909, -1.7105666044299361 
1.1499999999998898, -1.7101972195116535 
1.1599999999998887, -1.7095108839926034 
1.1699999999998876, -1.7087164037354092 
1.1799999999998865, -1.708347000574531 
1.1899999999998854, -1.7090965574559926 
1.1999999999998843, -1.7110286152800143 
1.2099999999998832, -1.7134134214611998 
1.219999999999882, -1.7155385675668917 
1.229999999999881, -1.7171114016592053 
1.2399999999998799, -1.7181028811745875 
1.2499999999998788, -1.7185637507554663 
1.2599999999998777, -1.7185460866530957 
1.2699999999998766, -1.7180803910352391 
1.2799999999998755, -1.7171726515325456 
1.2899999999998744, -1.7158119424066336 
1.2999999999998733, -1.7139945980944564 
1.3099999999998722, -1.7117886516058927 
1.319999999999871, -1.709464820941377 
1.32999999999987, -1.7075722516513963 
1.3399999999998689, -1.706598229781799 
1.3499999999998678, -1.7064293087354305 
1.3599999999998666, -1.7065340806707148 
1.3699999999998655, -1.7065077304591032 
1.3799999999998644, -1.7061612353967976 
1.3899999999998633, -1.705341513811921 
1.3999999999998622, -1.7037780395083917 
1.4099999999998611, -1.7010690208320625 
1.41999999999986, -1.697253761505682 
1.429999999999859, -1.694781508579992 
1.4399999999998578, -1.6990085413170242 
1.4499999999998567, -1.7107441288742447 
1.4599999999998556, -1.7235414542987617 
1.4699999999998545, -1.7328057939806691 
1.4799999999998534, -1.7382957036153233 
1.4899999999998523, -1.741194909734197 
1.4999999999998512, -1.7425382227808555 
1.5099999999998501, -1.7429703730893482 
1.519999999999849, -1.742853821860986 
1.529999999999848, -1.7423977990825446 
1.5399999999998468, -1.7417537764687647 
1.5499999999998457, -1.7410617911514539 
1.5599999999998446, -1.7404414518195321 
1.5699999999998435, -1.7399778395026697 
1.5799999999998424, -1.7397201455917053 
1.5899999999998413, -1.739632550066346 
1.5999999999998402, -1.7395700721854586 
1.6099999999998391, -1.7393487204922586 
1.619999999999838, -1.7387806300000865 
1.629999999999837, -1.7375972622724565 
1.6399999999998358, -1.735282258056987 
1.6499999999998347, -1.7308143122924329 
1.6599999999998336, -1.7224458949166777 
1.6699999999998325, -1.70849146774395 
1.6799999999998314, -1.6914963199342605 
1.6899999999998303, -1.6818580133962897 
1.6999999999998292, -1.6851312256017732 
1.709999999999828, -1.6931762263395993 
1.719999999999827, -1.699109550186634 
1.729999999999826, -1.7022257762111104 
1.7399999999998248, -1.703579792828742 
1.7499999999998237, -1.7039807399074642 
1.7599999999998226, -1.7038499935823292 
1.7699999999998215, -1.7034095896725248 
1.7799999999998204, -1.7028597964240473 
1.7899999999998193, -1.702490734306182 
1.7999999999998182, -1.702589071986988 
1.809999999999817, -1.7031748783407348 
1.819999999999816, -1.7039935037636584 
1.8299999999998149, -1.7047743296855427 
1.8399999999998138, -1.705354421790648 
1.8499999999998127, -1.7056452426474924 
1.8599999999998116, -1.7055856785733894 
1.8699999999998105, -1.7051106704708794 
1.8799999999998094, -1.7041276415671007 
1.8899999999998083, -1.7025006660084654 
1.8999999999998072, -1.7000476338208337 
1.909999999999806, -1.696577957206386 
1.919999999999805, -1.6920600169399613 
1.9299999999998039, -1.6870330107976712 
1.9399999999998028, -1.6829150233626955 
1.9499999999998017, -1.68102206848831 
1.9599999999998006, -1.681008142518852 
1.9699999999997995, -1.6815781860553245 
1.9799999999997984, -1.6819544010029925 
1.9899999999997973, -1.6819444759702857 
1.9999999999997962, -1.6815283362880655 
2.0099999999998173, -1.6806582892138284 
2.0199999999998384, -1.6792802036321195 
2.0299999999998595, -1.677668038768155 
2.0399999999998806, -1.6771336449809116 
2.0499999999999017, -1.679748123340153 
2.059999999999923, -1.6856374204006497 
2.069999999999944, -1.692349463245542 
2.079999999999965, -1.6978349839309466 
2.089999999999986, -1.7015939797267325 
2.100000000000007, -1.7038900306707547 
2.1100000000000283, -1.7051133825170683 
2.1200000000000494, -1.705579293586012 
2.1300000000000705, -1.7055052355386107 
2.1400000000000916, -1.7050344348984652 
2.1500000000001127, -1.7042699936075945 
2.160000000000134, -1.7033078784635998 
2.170000000000155, -1.7022596697620163 
2.180000000000176, -1.7012717516906288 
2.190000000000197, -1.7005261287195332 
2.2000000000002182, -1.7001378370238887 
2.2100000000002393, -1.7000171804006663 
2.2200000000002604, -1.6999306892660393 
2.2300000000002815, -1.6996577359692266 
2.2400000000003026, -1.69900116472514 
2.2500000000003237, -1.6976626637610461 
2.260000000000345, -1.6950396712076479 
2.270000000000366, -1.6899622133084893 
2.280000000000387, -1.6807658113872797 
2.290000000000408, -1.667544696838533 
2.3000000000004293, -1.6576474755634627 
2.3100000000004504, -1.6614157933937594 
2.3200000000004715, -1.6747178166910015 
2.3300000000004926, -1.6864745701806119 
2.3400000000005137, -1.6933492194853677 
2.3500000000005348, -1.6967076130480412 
2.360000000000556, -1.698145079149716 
2.370000000000577, -1.69858476919283 
2.380000000000598, -1.6984820411686035 
2.390000000000619, -1.6980767995244037 
2.4000000000006403, -1.6975639748747586 
2.4100000000006614, -1.6971714226229995 
2.4200000000006825, -1.6970846975986535 
2.4300000000007036, -1.6973080440487096 
2.4400000000007247, -1.6976966725079272 
2.450000000000746, -1.698091976421749 
2.460000000000767, -1.698367241683771 
2.470000000000788, -1.6984162311792386 
2.480000000000809, -1.6981386076930316 
2.49000000000083, -1.6974133485823781 
2.5000000000008513, -1.6960622275616246 
2.5100000000008724, -1.6938158313763734 
2.5200000000008935, -1.6902993026035253 
2.5300000000009146, -1.685102906542221 
2.5400000000009357, -1.6781361194433881 
2.550000000000957, -1.6704729028070968 
2.560000000000978, -1.6647392222639763 
2.570000000000999, -1.6627839049585151 
2.58000000000102, -1.6633905727005953 
2.5900000000010412, -1.66447504585017 
2.6000000000010624, -1.665139761255018 
2.6100000000010835, -1.6652940026131708 
2.6200000000011046, -1.6650142290730454 
2.6300000000011257, -1.6643363010448193 
2.6400000000011468, -1.6632972306187352 
2.650000000001168, -1.66219511181584 
2.660000000001189, -1.6619806843481826 
2.67000000000121, -1.663878980758604 
2.680000000001231, -1.6678262406445046 
2.6900000000012523, -1.6723403172598517 
2.7000000000012734, -1.6761710175313715 
2.7100000000012945, -1.6789282347859085 
2.7200000000013156, -1.6806916700149253 
2.7300000000013367, -1.6816558172552714 
2.740000000001358, -1.6819979102145104 
2.750000000001379, -1.681850372696345 
2.7600000000014, -1.6813056687362304 
2.770000000001421, -1.680432746812271 
2.780000000001442, -1.6793002471440506 
2.7900000000014633, -1.6780043956988222 
2.8000000000014844, -1.676706158517376 
2.8100000000015055, -1.675649034761743 
2.8200000000015266, -1.6750411919538497 
2.8300000000015477, -1.6748441600723996 
2.840000000001569, -1.6747961808233538 
2.85000000000159, -1.674633374055188 
2.860000000001611, -1.6741626353802972 
2.870000000001632, -1.6731588563174955 
2.8800000000016532, -1.671193343448109 
2.8900000000016743, -1.6674207133703667 
2.9000000000016954, -1.6605455018000412 
2.9100000000017165, -1.6502222079905207 
2.9200000000017377, -1.6415638344549799 
2.9300000000017588, -1.644671027678297 
2.94000000000178, -1.6589940803089593 
2.950000000001801, -1.673401684635405 
2.960000000001822, -1.6825444220910246 
2.970000000001843, -1.6872747709139908 
2.9800000000018643, -1.6894528795052626 
2.9900000000018854, -1.6902906645369409 
3.0000000000019065, -1.6904136922193693 
3.0100000000019276, -1.6901351842250123 
3.0200000000019487, -1.6896522764759023 
3.03000000000197, -1.689161481041505 
3.040000000001991, -1.6888611358951078 
3.050000000002012, -1.6888421393462287 
3.060000000002033, -1.6890412799890977 
3.070000000002054, -1.6893311011510377 
3.0800000000020753, -1.6895871316157252 
3.0900000000020964, -1.6896921955236472 
3.1000000000021175, -1.6895344681392435 
3.1100000000021386, -1.6889922378685274 
3.1200000000021597, -1.6878958950869063 
3.130000000002181, -1.685981532037011 
3.140000000002202, -1.6828523984284562 
3.150000000002223, -1.6779904185209724 
3.160000000002244, -1.6709738280570945 
3.1700000000022652, -1.662231944519553 
3.1800000000022863, -1.6541242802394216 
3.1900000000023074, -1.6498493465276867 
3.2000000000023285, -1.6496244517871552 
3.2100000000023496, -1.6509406540448925 
3.2200000000023707, -1.652051848034231 
3.230000000002392, -1.6525695593794065 
3.240000000002413, -1.6525764647085264 
3.250000000002434, -1.6521691315817784 
3.260000000002455, -1.6513902698555085 
3.2700000000024763, -1.6503535280394153 
3.2800000000024974, -1.6495560098169981 
3.2900000000025185, -1.6500513988802825 
3.3000000000025396, -1.6525860351169617 
3.3100000000025607, -1.6564826579428735 
3.3200000000025818, -1.6603886142560238 
3.330000000002603, -1.6635079337300005 
3.340000000002624, -1.6656821832850004 
3.350000000002645, -1.667021664126316 
3.360000000002666, -1.667684759796082 
3.3700000000026873, -1.667806601460707 
3.3800000000027084, -1.6674868218151038 
3.3900000000027295, -1.6667963657778082 
3.4000000000027506, -1.66579363058166 
3.4100000000027717, -1.6645476459347432 
3.420000000002793, -1.6631693535359406 
3.430000000002814, -1.6618524679950446 
3.440000000002835, -1.660863016767755 
3.450000000002856, -1.6603643459672965 
3.460000000002877, -1.6602355559776973 
3.4700000000028983, -1.6601869358198926 
3.4800000000029194, -1.659973447932493 
3.4900000000029405, -1.6594110858401254 
3.5000000000029616, -1.6582514846689989 
3.5100000000029827, -1.656004547159498 
3.520000000003004, -1.6517356662042413 
3.530000000003025, -1.6441749882481216 
3.540000000003046, -1.6336325392642153 
3.550000000003067, -1.6265574421101623 
3.5600000000030882, -1.6322252269385236 
3.5700000000031094, -1.6473208770248402 
3.5800000000031305, -1.6610158428171182 
3.5900000000031516, -1.669377637621085 
3.6000000000031727, -1.6736424911601777 
3.6100000000031938, -1.675584234326561 
3.620000000003215, -1.6763042367043273 
3.630000000003236, -1.6763659275784284 
3.640000000003257, -1.6760553141833827 
3.650000000003278, -1.6755627557205905 
3.6600000000032993, -1.6750873875091226 
3.6700000000033204, -1.6748257627721777 
3.6800000000033415, -1.6748562015346973 
3.6900000000033626, -1.675101776141809 
3.7000000000033837, -1.6754273530522998 
3.710000000003405, -1.6757062217638268 
3.720000000003426, -1.675823635212128 
3.730000000003447, -1.6756727508446243 
3.740000000003468, -1.6751384423130582 
3.750000000003489, -1.674062870457647 
3.7600000000035103, -1.6722067198667119 
3.7700000000035314, -1.6692207458901904 
3.7800000000035525, -1.6646633160581104 
3.7900000000035736, -1.6581911377813885 
3.8000000000035947, -1.650186301422386 
3.810000000003616, -1.6426558539905254 
3.820000000003637, -1.6384200217311193 
3.830000000003658, -1.6378966829293145 
3.840000000003679, -1.638967943030425 
3.8500000000037002, -1.6399678109685052 
3.8600000000037213, -1.6404472884600256 
3.8700000000037424, -1.640442382192359 
3.8800000000037635, -1.6400259051263943 
3.8900000000037847, -1.6392192168506348 
3.9000000000038058, -1.6380984112574695 
3.910000000003827, -1.6371200697860733 
3.920000000003848, -1.637422677299305 
3.930000000003869, -1.640053275123457 
3.94000000000389, -1.6444818893667534 
3.9500000000039113, -1.6491170456578357 
3.9600000000039324, -1.652893192312817 
3.9700000000039535, -1.65555776616835 
3.9800000000039746, -1.6572363909069285 
3.9900000000039957, -1.658132290383032 
4.000000000004016, -1.6584232980142908 
4.010000000003993, -1.6582424668721356 
4.02000000000397, -1.657685014127273 
4.030000000003946, -1.6568259390253401 
4.040000000003923, -1.6557428791424382 
4.0500000000039, -1.6545395347126521 
4.0600000000038765, -1.6533721037448839 
4.070000000003853, -1.6524527643519444 
4.08000000000383, -1.651939759806088 
4.090000000003807, -1.651772994479862 
4.100000000003783, -1.6517134828527638 
4.11000000000376, -1.651524250750771 
4.120000000003737, -1.6510191021389684 
4.130000000003713, -1.6499643825200294 
4.14000000000369, -1.647912132513634 
4.150000000003667, -1.6439733182242986 
4.1600000000036434, -1.63668726824036 
4.17000000000362, -1.625024048862618 
4.180000000003597, -1.6125267112480297 
4.1900000000035735, -1.6094718681414246 
4.20000000000355, -1.6195077955402213 
4.210000000003527, -1.6329585805803872 
4.220000000003504, -1.6424364463299412 
4.23000000000348, -1.6475626167700548 
4.240000000003457, -1.6499861950116579 
4.250000000003434, -1.6509647937465695 
4.26000000000341, -1.6511738245636984 
4.270000000003387, -1.6509483249736534 
4.280000000003364, -1.6504862542157182 
4.2900000000033405, -1.6499858793044044 
4.300000000003317, -1.6496877486130668 
4.310000000003294, -1.6497590315541188 
4.320000000003271, -1.6501585916163637 
4.330000000003247, -1.6507051468805767 
4.340000000003224, -1.6512238030637643 
4.350000000003201, -1.6515887756752599 
4.360000000003177, -1.6517068774691812 
4.370000000003154, -1.6514978352101959 
4.380000000003131, -1.6508718436138516 
4.390000000003107, -1.649707061863354 
4.400000000003084, -1.6478345334287805 
4.410000000003061, -1.645039066885173 
4.4200000000030375, -1.6411071704964244 
4.430000000003014, -1.636013131292335 
4.440000000002991, -1.630345748790242 
4.450000000002968, -1.6256137870964245 
4.460000000002944, -1.623272087445591 
4.470000000002921, -1.6230846659924272 
4.480000000002898, -1.6236925031532121 
4.490000000002874, -1.624183177565314 
4.500000000002851, -1.6242987889599796 
4.510000000002828, -1.6240181036941945 
4.520000000002804, -1.6233135148763935 
4.530000000002781, -1.622110161342651 
4.540000000002758, -1.620456485059447 
4.5500000000027345, -1.619088117658014 
4.560000000002711, -1.6199572392896726 
4.570000000002688, -1.624707995300892 
4.580000000002665, -1.6320712027792186 
4.590000000002641, -1.6392557884865162 
4.600000000002618, -1.644729285751339 
4.610000000002595, -1.6483549125493056 
4.620000000002571, -1.6505156557361957 
4.630000000002548, -1.6516306157954088 
4.640000000002525, -1.6520221279869733 
4.6500000000025015, -1.6519106334045932 
4.660000000002478, -1.6514441184320041 
4.670000000002455, -1.6507357267641958 
4.6800000000024315, -1.6498947448762782 
4.690000000002408, -1.649036911596001 
4.700000000002385, -1.6482825939864427 
4.710000000002362, -1.6477478349438315 
4.720000000002338, -1.6474826240216252 
4.730000000002315, -1.6473970280574441 
4.740000000002292, -1.6473053430502584 
4.750000000002268, -1.6470222190815107 
4.760000000002245, -1.6463636437253453 
4.770000000002222, -1.6450502156062232 
4.7800000000021985, -1.6425445743046077 
4.790000000002175, -1.6378227096414553 
4.800000000002152, -1.6292294963395482 
4.810000000002129, -1.615294353846707 
4.820000000002105, -1.5982635211850624 
4.830000000002082, -1.5871327251761076 
4.840000000002059, -1.588152385352657 
4.850000000002035, -1.5955076562608286 
4.860000000002012, -1.6019593419846405 
4.870000000001989, -1.6057361692332481 
4.880000000001965, -1.6075602290952673 
4.890000000001942, -1.6082619303177101 
4.900000000001919, -1.6083290004167181 
4.9100000000018955, -1.6080091157839582 
4.920000000001872, -1.6074631662254593 
4.930000000001849, -1.6069098719736161 
4.940000000001826, -1.6066993772868627 
