t, s[1].omega / s[0].omega 
0, -1.0199979850190286 
0.009999999999999995, -1.0197128788130854 
0.019999999999999934, -1.019458097683148 
0.029999999999999874, -1.0193496890420795 
0.04000000000000012, -1.0190892042308823 
0.050000000000000405, -1.0187469936586924 
0.06000000000000069, -1.0186004103992654 
0.07000000000000098, -1.0183767357211975 
0.08000000000000126, -1.0179981760513073 
0.09000000000000155, -1.0177495572925013 
0.10000000000000184, -1.0175745866249706 
0.11000000000000212, -1.0171978387304788 
0.12000000000000241, -1.0168245867465016 
0.130000000000002, -1.0166661735050653 
0.1400000000000009, -1.0163254571764315 
0.1499999999999998, -1.0158632393597873 
0.1599999999999987, -1.0156350561258398 
0.1699999999999976, -1.0153694434810232 
0.1799999999999965, -1.0148726121680867 
0.1899999999999954, -1.0144976190891397 
0.1999999999999943, -1.0143056745838908 
0.2099999999999932, -1.0138310342490227 
0.2199999999999921, -1.0133047905528425 
0.229999999999991, -1.01310179363777 
0.2399999999999899, -1.012717479357784 
0.2499999999999888, -1.0121024202190698 
0.2599999999999877, -1.0117625045129206 
0.2699999999999866, -1.0115030193286234 
0.2799999999999855, -1.0108823725602574 
0.2899999999999844, -1.0103361417385113 
0.2999999999999833, -1.0101407845839228 
0.3099999999999822, -1.0096137771139095 
0.3199999999999811, -1.0089049991927763 
0.32999999999998, -1.0086239672440722 
0.3399999999999789, -1.0082633720095426 
0.3499999999999778, -1.0075047572935862 
0.35999999999997667, -1.0069978842740688 
0.36999999999997557, -1.0067756915241233 
0.37999999999997447, -1.0060995988034565 
0.38999999999997337, -1.0053558801374871 
0.39999999999997227, -1.0051285436234656 
0.40999999999997117, -1.0046460881703492 
0.41999999999997006, -1.0037923836848972 
0.42999999999996896, -1.0033696983958071 
0.43999999999996786, -1.0030879816818898 
0.44999999999996676, -1.0022901718751231 
0.45999999999996566, -1.0015888301306275 
0.46999999999996456, -1.001386153408553 
0.47999999999996346, -1.0007871794041099 
0.48999999999996235, -0.999914189931761 
0.49999999999996125, -0.9995857720003939 
0.5099999999999602, -0.9992280150629494 
0.519999999999959, -0.9983729469352264 
0.529999999999958, -0.9977735004103903 
0.5399999999999568, -0.9975637109304619 
0.5499999999999557, -0.9968873331832939 
0.5599999999999546, -0.9960766507445746 
0.5699999999999535, -0.9958227586125192 
0.5799999999999524, -0.9953961591428843 
0.5899999999999513, -0.9945644017376712 
0.5999999999999502, -0.994087236062598 
0.6099999999999491, -0.9938517453136586 
0.619999999999948, -0.9931605577972539 
0.6299999999999469, -0.9924666635857581 
0.6399999999999458, -0.9922578739853607 
0.6499999999999447, -0.9917926061618334 
0.6599999999999436, -0.9910483466807268 
0.6699999999999425, -0.9906817535288996 
0.6799999999999414, -0.9904194046100735 
0.6899999999999403, -0.9897741255733142 
0.6999999999999392, -0.9892130561517961 
0.7099999999999381, -0.9890266937657328 
0.719999999999937, -0.988563869750805 
0.7299999999999359, -0.987936846017571 
0.7399999999999348, -0.987656389163813 
0.7499999999999337, -0.9873806911614151 
0.7599999999999326, -0.9868187182556892 
0.7699999999999315, -0.9863795154129559 
0.7799999999999304, -0.9862053649578221 
0.7899999999999293, -0.9857809700979763 
0.7999999999999282, -0.9852708604792237 
0.8099999999999271, -0.9850544507733724 
0.819999999999926, -0.9847867627237861 
0.8299999999999249, -0.9843179481060388 
0.8399999999999238, -0.9839800578761877 
0.8499999999999227, -0.9838196189540541 
0.8599999999999216, -0.9834550192190981 
0.8699999999999205, -0.9830461185675039 
0.8799999999999194, -0.9828807813004521 
0.8899999999999183, -0.982642994582739 
0.8999999999999172, -0.9822585679951813 
0.9099999999999161, -0.982003992555082 
0.919999999999915, -0.9818679340925521 
0.9299999999999139, -0.9815696199695162 
0.9399999999999128, -0.9812434954754712 
0.9499999999999117, -0.9811272609444437 
0.9599999999999106, -0.9809377289414094 
0.9699999999999095, -0.980621327028532 
0.9799999999999084, -0.9804406731285933 
0.9899999999999073, -0.9803468514648214 
0.9999999999999062, -0.9801112089002769 
1.0099999999999052, -0.9798538918193558 
1.019999999999904, -0.9797967937586066 
1.029999999999903, -0.979670056451901 
1.039999999999902, -0.9794048729528915 
1.0499999999999008, -0.979300662222545 
1.0599999999998997, -0.9792741111172389 
1.0699999999998986, -0.9790922481750801 
1.0799999999998975, -0.9788978187769074 
1.0899999999998964, -0.978924638604904 
1.0999999999998953, -0.9788728553436955 
1.1099999999998942, -0.97864487149748 
1.119999999999893, -0.9786356290954276 
1.129999999999892, -0.9787109832261944 
1.1399999999998909, -0.9785711194014136 
1.1499999999998898, -0.9784445851565576 
1.1599999999998887, -0.9786013227641843 
1.1699999999998876, -0.9786346982787982 
1.1799999999998865, -0.978433990778776 
1.1899999999998854, -0.9785622266589867 
1.1999999999998843, -0.9787870926448933 
1.2099999999998832, -0.9786745299011207 
1.219999999999882, -0.9786367111735418 
1.229999999999881, -0.9790020033581407 
1.2399999999998799, -0.97912534081288 
1.2499999999998788, -0.9789472988246993 
1.2599999999998777, -0.9792943072944601 
1.2699999999998766, -0.9797280032827546 
1.2799999999998755, -0.9796243408766515 
1.2899999999998744, -0.9797216110996381 
1.2999999999998733, -0.9804190063916608 
1.3099999999998722, -0.9806215317735194 
1.319999999999871, -0.9804697221853995 
1.32999999999987, -0.9811765651465959 
1.3399999999998689, -0.9818706940844625 
1.3499999999998678, -0.9817549322523967 
1.3599999999998666, -0.9820760189499652 
1.3699999999998655, -0.9832621502206765 
1.3799999999998644, -0.9835021094439576 
1.3899999999998633, -0.9833958567664343 
1.3999999999998622, -0.9846689559577131 
1.4099999999998611, -0.9856106884747428 
1.41999999999986, -0.9854644241228717 
1.429999999999859, -0.9861573282369325 
1.4399999999998578, -0.9879218685824296 
1.4499999999998567, -0.9881232933725974 
1.4599999999998556, -0.9881155336076605 
1.4699999999998545, -0.9901367946666607 
1.4799999999998534, -0.9911705004550285 
1.4899999999998523, -0.9909876975963782 
1.4999999999998512, -0.9922317463945417 
1.5099999999998501, -0.9943839954574564 
1.519999999999849, -0.9944715655537352 
1.529999999999848, -0.9946745237086737 
1.5399999999998468, -0.9973266393446432 
1.5499999999998457, -0.998178063890831 
1.5599999999998446, -0.997982577226418 
1.5699999999998435, -0.999822184608966 
1.5799999999998424, -1.0018267783514125 
1.5899999999998413, -1.0017752728761191 
1.5999999999998402, -1.0023337141690711 
1.6099999999998391, -1.005003785481954 
1.619999999999838, -1.0054876067623808 
1.629999999999837, -1.0053616318030294 
1.6399999999998358, -1.0074725558336146 
1.6499999999998347, -1.0088497097124358 
1.6599999999998336, -1.0086918723565466 
1.6699999999998325, -1.0096106492457264 
1.6799999999998314, -1.0116177882356177 
1.6899999999998303, -1.011760210190507 
1.6999999999998292, -1.011825531982913 
1.709999999999828, -1.0136427505133394 
1.719999999999827, -1.0143400618745364 
1.729999999999826, -1.0141531036076363 
1.7399999999998248, -1.0151842520426266 
1.7499999999998237, -1.0163522453724305 
1.7599999999998226, -1.016277706875499 
1.7699999999998215, -1.0165543963129189 
1.7799999999998204, -1.0177578519478783 
1.7899999999998193, -1.017986443575975 
1.7999999999998182, -1.0178667536146357 
1.809999999999817, -1.0187105231213949 
1.819999999999816, -1.019250601398196 
1.8299999999998149, -1.0190760022957448 
1.8399999999998138, -1.0194347426146653 
1.8499999999998127, -1.0200817349590114 
1.8599999999998116, -1.0200471400863589 
1.8699999999998105, -1.0200298100989451 
1.8799999999998094, -1.0205612025922914 
1.8899999999998083, -1.0207207138303551 
1.8999999999998072, -1.0205358567400757 
1.909999999999806, -1.0208318725811363 
1.919999999999805, -1.021101889468131 
1.9299999999998039, -1.0209346270078818 
1.9399999999998028, -1.0209715995229975 
1.9499999999998017, -1.0212294619858042 
1.9599999999998006, -1.0211697370698138 
1.9699999999997995, -1.0210170342953049 
1.9799999999997984, -1.0211837684035483 
1.9899999999997973, -1.0212154136470488 
1.9999999999997962, -1.020994132902555 
2.0099999999998173, -1.0210212338253921 
2.0199999999998384, -1.0210808592785185 
2.0299999999998595, -1.020892703412447 
2.0399999999998806, -1.0207661008174347 
2.0499999999999017, -1.020805459590752 
2.059999999999923, -1.0206793679447268 
2.069999999999944, -1.0204446276812393 
2.079999999999965, -1.0204255872426802 
2.089999999999986, -1.0203385945348011 
2.100000000000007, -1.0200741346662585 
2.1100000000000283, -1.0199534262286092 
2.1200000000000494, -1.0198825445409025 
2.1300000000000705, -1.0196420871782474 
2.1400000000000916, -1.0194065431145238 
2.1500000000001127, -1.0193308126440046 
2.160000000000134, -1.0191233398780986 
2.170000000000155, -1.0188118554160484 
2.180000000000176, -1.0186845885673583 
2.190000000000197, -1.0185098728903486 
2.2000000000002182, -1.0181785708123785 
2.2100000000002393, -1.0179480496586297 
2.2200000000002604, -1.0178072841776376 
2.2300000000002815, -1.0174893639686893 
2.2400000000003026, -1.017148701856215 
2.2500000000003237, -1.0170075747621903 
2.260000000000345, -1.0167244994657305 
2.270000000000366, -1.0163164161074534 
2.280000000000387, -1.0161002201638982 
2.290000000000408, -1.0158772313166102 
2.3000000000004293, -1.0154509213562994 
2.3100000000004504, -1.0151031507710486 
2.3200000000004715, -1.0149322953670825 
2.3300000000004926, -1.0145303240460968 
2.3400000000005137, -1.014061434441684 
2.3500000000005348, -1.0138650761651165 
2.360000000000556, -1.013537487857174 
2.370000000000577, -1.0130053363939904 
2.380000000000598, -1.0126805670304382 
2.390000000000619, -1.01245179891664 
2.4000000000006403, -1.011921146396725 
2.4100000000006614, -1.0114237729716813 
2.4200000000006825, -1.0112361594417913 
2.4300000000007036, -1.0107828162459054 
2.4400000000007247, -1.0101603647000506 
2.450000000000746, -1.0098827928996275 
2.460000000000767, -1.0095650586399991 
2.470000000000788, -1.0089075333717121 
2.480000000000809, -1.0084307375297785 
2.49000000000083, -1.0082228900372752 
2.5000000000008513, -1.0076332131946186 
2.5100000000008724, -1.0069620911827724 
2.5200000000008935, -1.0067337097162128 
2.5300000000009146, -1.0063040499875346 
2.5400000000009357, -1.005545894025442 
2.550000000000957, -1.0051342319151615 
2.560000000000978, -1.0048735207117445 
2.570000000000999, -1.00416069350709 
2.58000000000102, -1.0035050172615705 
2.5900000000010412, -1.003303569903163 
2.6000000000010624, -1.002758100378519 
2.6100000000010835, -1.0019552639608778 
2.6200000000011046, -1.0016269747758133 
2.6300000000011257, -1.0012920777147594 
2.6400000000011468, -1.00050103158123 
2.650000000001168, -0.9999207621304729 
2.660000000001189, -0.999715263861239 
2.67000000000121, -0.9990786208633635 
2.680000000001231, -0.9983029780511137 
2.6900000000012523, -0.9980468257056812 
2.7000000000012734, -0.9976367673319357 
2.7100000000012945, -0.9968350367170233 
2.7200000000013156, -0.9963606980408497 
2.7300000000013367, -0.9961287547958568 
2.740000000001358, -0.995451917368181 
2.750000000001379, -0.9947634637849029 
2.7600000000014, -0.9945531753742227 
2.770000000001421, -0.99409010634519 
2.780000000001442, -0.9933431635278966 
2.7900000000014633, -0.9929731702777663 
2.8000000000014844, -0.9927086283760571 
2.8100000000015055, -0.9920509321393284 
2.8200000000015266, -0.9914787471315938 
2.8300000000015477, -0.9912901439270246 
2.840000000001569, -0.990812001344792 
2.85000000000159, -0.9901613132668536 
2.860000000001611, -0.9898761815591552 
2.870000000001632, -0.9895888746243546 
2.8800000000016532, -0.9889957345316719 
2.8900000000016743, -0.9885398897494199 
2.9000000000016954, -0.9883596543596315 
2.9100000000017165, -0.9879053226662874 
2.9200000000017377, -0.9873635318404238 
2.9300000000017588, -0.9871414155835079 
2.94000000000178, -0.9868516678349397 
2.950000000001801, -0.9863436555402456 
2.960000000001822, -0.985989034831914 
2.970000000001843, -0.9858157986322431 
2.9800000000018643, -0.9854125766929268 
2.9900000000018854, -0.9849726231196299 
3.0000000000019065, -0.9847982613159448 
3.0100000000019276, -0.9845289791385922 
3.0200000000019487, -0.9841054226899444 
3.03000000000197, -0.9838347804483684 
3.040000000001991, -0.9836768719530032 
3.050000000002012, -0.9833364542680225 
3.060000000002033, -0.9829837058020107 
3.070000000002054, -0.9828515632667787 
3.0800000000020753, -0.9826222381782983 
3.0900000000020964, -0.9822710979215407 
3.1000000000021175, -0.9820728161646188 
3.1100000000021386, -0.9819454257066442 
3.1200000000021597, -0.981666948889175 
3.130000000002181, -0.9813879527006739 
3.140000000002202, -0.9813030372984344 
3.150000000002223, -0.9811277200963988 
3.160000000002244, -0.9808339859814266 
3.1700000000022652, -0.9807060578119989 
3.1800000000022863, -0.9806295359879842 
3.1900000000023074, -0.9804048107005858 
3.2000000000023285, -0.9801922505673012 
3.2100000000023496, -0.9801712999890291 
3.2200000000023707, -0.9800593257069564 
3.230000000002392, -0.9798097900129894 
3.240000000002413, -0.9797630632944536 
3.250000000002434, -0.9797632116145075 
3.260000000002455, -0.9795805463687739 
3.2700000000024763, -0.9794365337183419 
3.2800000000024974, -0.9795113317683842 
3.2900000000025185, -0.979468352060681 
3.3000000000025396, -0.9792539255409437 
3.3100000000025607, -0.9793173844482671 
3.3200000000025818, -0.9794270203042045 
3.330000000002603, -0.9792727854734711 
3.340000000002624, -0.9792129920149025 
3.350000000002645, -0.979436957639786 
3.360000000002666, -0.979463979812108 
3.3700000000026873, -0.9792813192941567 
3.3800000000027084, -0.9795119184192506 
3.3900000000027295, -0.9797706840603001 
3.4000000000027506, -0.979629659830989 
3.4100000000027717, -0.9796908428043284 
3.420000000002793, -0.9801476752923395 
3.430000000002814, -0.9802363198204336 
3.440000000002835, -0.980090455688642 
3.450000000002856, -0.9805887352066444 
3.460000000002877, -0.981034428670986 
3.4700000000028983, -0.9808907031477803 
3.4800000000029194, -0.9811439739317352 
3.4900000000029405, -0.9819478179076306 
3.5000000000029616, -0.9820721050351499 
3.5100000000029827, -0.9819823541575423 
3.520000000003004, -0.982906171888993 
3.530000000003025, -0.9835468553300658 
3.540000000003046, -0.9833868234547924 
3.550000000003067, -0.9839547807010779 
3.5600000000030882, -0.9852093039421487 
3.5700000000031094, -0.9853212080728893 
3.5800000000031305, -0.9853340001574037 
3.5900000000031516, -0.9868703862873703 
3.6000000000031727, -0.9876348937578887 
3.6100000000031938, -0.9874535144457173 
3.620000000003215, -0.9885082735789726 
3.630000000003236, -0.9901829112607922 
3.640000000003257, -0.9902262109618816 
3.650000000003278, -0.9904353487075215 
3.6600000000032993, -0.9926444984507488 
3.6700000000033204, -0.993358692897479 
3.6800000000033415, -0.9931723889341468 
3.6900000000033626, -0.9948442164113636 
3.7000000000033837, -0.996636972980527 
3.710000000003405, -0.9965782751589182 
3.720000000003426, -0.9971231044285978 
3.730000000003447, -0.9996822846810135 
3.740000000003468, -1.0001608037436869 
3.750000000003489, -1.0000326758627318 
3.7600000000035103, -1.0021862283581915 
3.7700000000035314, -1.0036392161707586 
3.7800000000035525, -1.0034872291022277 
3.7900000000035736, -1.004443948162265 
3.8000000000035947, -1.0067034972308273 
3.810000000003616, -1.0068906252313734 
3.820000000003637, -1.0069394951264954 
3.830000000003658, -1.0090749434113735 
3.840000000003679, -1.0099432225506613 
3.8500000000037002, -1.009751711233345 
3.8600000000037213, -1.0109595729651237 
3.8700000000037424, -1.0124786617947137 
3.8800000000037635, -1.0124428213330612 
3.8900000000037847, -1.0127422398650925 
3.9000000000038058, -1.0143569550682667 
3.910000000003827, -1.0147183927131491 
3.920000000003848, -1.0145815238477514 
3.930000000003869, -1.0157039989353882 
3.94000000000389, -1.0165077601916404 
3.9500000000039113, -1.0163500794596114 
3.9600000000039324, -1.0168074782028467 
3.9700000000039535, -1.017780151412612 
3.9800000000039746, -1.0178230211119497 
3.9900000000039957, -1.0178088068740059 
4.000000000004016, -1.0186079927875051 
4.010000000003993, -1.0189262012073184 
4.02000000000397, -1.018741881935301 
4.030000000003946, -1.0191815270564708 
4.040000000003923, -1.0196613257245417 
4.0500000000039, -1.0195341809145584 
4.0600000000038765, -1.0196135263975274 
4.070000000003853, -1.0200684093675123 
4.08000000000383, -1.020099986607678 
4.090000000003807, -1.0199528449776865 
4.100000000003783, -1.0202569470873442 
4.11000000000376, -1.0204184390373188 
4.120000000003737, -1.0202178245174338 
4.130000000003713, -1.0203119409809405 
4.14000000000369, -1.0205054146749144 
4.150000000003667, -1.0203730702698173 
4.1600000000036434, -1.020269645111956 
4.17000000000362, -1.0204164773969038 
4.180000000003597, -1.0203765465157724 
4.1900000000035735, -1.020160210484062 
4.20000000000355, -1.0202093653478654 
4.210000000003527, -1.02021858138426 
4.220000000003504, -1.0199942815014664 
4.23000000000348, -1.0199085017697813 
4.240000000003457, -1.0199211672387536 
4.250000000003434, -1.0197468301132793 
4.26000000000341, -1.0195361576924373 
4.270000000003387, -1.0195188075800528 
4.280000000003364, -1.0193906964346149 
4.2900000000033405, -1.0191171544837403 
4.300000000003317, -1.019024989632971 
4.310000000003294, -1.0189239557438323 
4.320000000003271, -1.0186533802166997 
4.330000000003247, -1.0184503352634453 
4.340000000003224, -1.018362643405337 
4.350000000003201, -1.0181215584526668 
4.360000000003177, -1.017821546235955 
4.370000000003154, -1.0177107838823363 
4.380000000003131, -1.0175035751037604 
4.390000000003107, -1.0171597373684855 
4.400000000003084, -1.0169657062300541 
4.410000000003061, -1.016799983132064 
4.4200000000030375, -1.0164574467674878 
4.430000000003014, -1.0161471198051166 
4.440000000002991, -1.0160069372021265 
4.450000000002968, -1.015692005662743 
4.460000000002944, -1.015291375262665 
4.470000000002921, -1.015109363438933 
4.480000000002898, -1.0148510596213816 
4.490000000002874, -1.0144135418307105 
4.500000000002851, -1.0141139138267121 
4.510000000002828, -1.0139240952959394 
4.520000000002804, -1.0134962318913348 
4.530000000002781, -1.0130607608354953 
4.540000000002758, -1.0128854947555146 
4.5500000000027345, -1.0125179171212548 
4.560000000002711, -1.011995401472877 
4.570000000002688, -1.0117280846442267 
4.580000000002665, -1.0114619543268437 
4.590000000002641, -1.0109195018015944 
4.600000000002618, -1.0104851937927724 
4.610000000002595, -1.0102954835398001 
4.620000000002571, -1.0098058735072837 
4.630000000002548, -1.0092236650207773 
4.640000000002525, -1.008997060337196 
4.6500000000025015, -1.008630615269475 
4.660000000002478, -1.0079852845465231 
4.670000000002455, -1.0075928608551517 
4.6800000000024315, -1.0073581652878447 
4.690000000002408, -1.0067470471112674 
4.700000000002385, -1.0061522482698455 
4.710000000002362, -1.0059530408282862 
4.720000000002338, -1.0054737450961644 
4.730000000002315, -1.004759866739546 
4.740000000002292, -1.0044348970316805 
4.750000000002268, -1.004129296741019 
4.760000000002245, -1.0034204267739875 
4.770000000002222, -1.002868976361276 
4.7800000000021985, -1.0026691187803038 
4.790000000002175, -1.0020853513237737 
4.800000000002152, -1.0013593105194547 
4.810000000002129, -1.001101224979415 
4.820000000002105, -1.0007140495181341 
4.830000000002082, -0.9999561654141164 
4.840000000002059, -0.9994881807430364 
4.850000000002035, -0.9992613316302379 
4.860000000002012, -0.9986074401677063 
4.870000000001989, -0.9979304782521614 
4.880000000001965, -0.997718463108057 
4.890000000001942, -0.9972604670751474 
4.900000000001919, -0.9965146084843761 
4.9100000000018955, -0.9961413429497432 
4.920000000001872, -0.995874513288899 
4.930000000001849, -0.9952032488815306 
