t, s[1].omega / s[0].omega 
0, -0.7099976890554678 
0.009999999999999995, -0.7097620115825491 
0.019999999999999934, -0.7095093387653246 
0.029999999999999874, -0.7092203662883864 
0.04000000000000012, -0.7088746597984892 
0.050000000000000405, -0.7084607388147824 
0.06000000000000069, -0.7079815988408253 
0.07000000000000098, -0.7074558825950301 
0.08000000000000126, -0.706918022698576 
0.09000000000000155, -0.7064203344675188 
0.10000000000000184, -0.7060377681416175 
0.11000000000000212, -0.7058738220740193 
0.12000000000000241, -0.7060648000052263 
0.130000000000002, -0.7067794558968481 
0.1400000000000009, -0.7082122903568813 
0.1499999999999998, -0.7105707914251578 
0.1599999999999987, -0.7140579341570674 
0.1699999999999976, -0.7188490801520391 
0.1799999999999965, -0.7250566927175502 
0.1899999999999954, -0.7326710878492395 
0.1999999999999943, -0.741472173756698 
0.2099999999999932, -0.7509430610599988 
0.2199999999999921, -0.7602779637713937 
0.229999999999991, -0.7685833512543555 
0.2399999999999899, -0.7752141715395072 
0.2499999999999888, -0.7799921397817098 
0.2599999999999877, -0.7831397611413442 
0.2699999999999866, -0.7850499450768953 
0.2799999999999855, -0.7860958827645903 
0.2899999999999844, -0.7865520803215686 
0.2999999999999833, -0.7865891801529988 
0.3099999999999822, -0.7862932033253757 
0.3199999999999811, -0.7856834790813056 
0.32999999999998, -0.7847217748720834 
0.3399999999999789, -0.7833134898747288 
0.3499999999999778, -0.7813063581195092 
0.35999999999997667, -0.77849774236732 
0.36999999999997557, -0.7746677376455453 
0.37999999999997447, -0.7696484641904445 
0.38999999999997337, -0.7633912985688753 
0.39999999999997227, -0.7559270614204081 
0.40999999999997117, -0.7472632743652527 
0.41999999999997006, -0.7376965489991868 
0.42999999999996896, -0.7285163097663767 
0.43999999999996786, -0.7216162603464223 
0.44999999999996676, -0.7179454303255298 
0.45999999999996566, -0.716983877229306 
0.46999999999996456, -0.7175765743017446 
0.47999999999996346, -0.7187479026775934 
0.48999999999996235, -0.7199375465739405 
0.49999999999996125, -0.7209076591112777 
0.5099999999999602, -0.7215950739544588 
0.519999999999959, -0.7220072249974349 
0.529999999999958, -0.7221659311236761 
0.5399999999999568, -0.7220803997115179 
0.5499999999999557, -0.7217337753207355 
0.5599999999999546, -0.7210749622416069 
0.5699999999999535, -0.7200145401261772 
0.5799999999999524, -0.7184309252499336 
0.5899999999999513, -0.7161989385183463 
0.5999999999999502, -0.7132480775312027 
0.6099999999999491, -0.7096303554503607 
0.619999999999948, -0.7055448048975588 
0.6299999999999469, -0.7012822803819346 
0.6399999999999458, -0.6971254605039829 
0.6499999999999447, -0.6932762051799951 
0.6599999999999436, -0.6898418752819102 
0.6699999999999425, -0.6868602260999952 
0.6799999999999414, -0.6843314223400494 
0.6899999999999403, -0.6822405505435267 
0.6999999999999392, -0.6805681825670973 
0.7099999999999381, -0.6792926068699078 
0.719999999999937, -0.6783882039578122 
0.7299999999999359, -0.6778234110741421 
0.7399999999999348, -0.6775602919051176 
0.7499999999999337, -0.6775563481183673 
0.7599999999999326, -0.6777681056502989 
0.7699999999999315, -0.6781554148098325 
0.7799999999999304, -0.6786853887579812 
0.7899999999999293, -0.6793351926567259 
0.7999999999999282, -0.68009298943684 
0.8099999999999271, -0.6809559878675654 
0.819999999999926, -0.6819241927965727 
0.8299999999999249, -0.6829893051579454 
0.8399999999999238, -0.6841212366104581 
0.8499999999999227, -0.6852591739169643 
0.8599999999999216, -0.6863162969912417 
0.8699999999999205, -0.6872014295051705 
0.8799999999999194, -0.6878473774194395 
0.8899999999999183, -0.6882277855352832 
0.8999999999999172, -0.6883537050929788 
0.9099999999999161, -0.6882575182530604 
0.919999999999915, -0.6879776059139757 
0.9299999999999139, -0.6875516517525148 
0.9399999999999128, -0.6870204226688564 
0.9499999999999117, -0.6864427341463254 
0.9599999999999106, -0.6859249131311542 
0.9699999999999095, -0.6856717121863759 
0.9799999999999084, -0.6860675575024051 
0.9899999999999073, -0.6877922917178318 
0.9999999999999062, -0.6919533268386618 
1.0099999999999052, -0.7001560043602606 
1.019999999999904, -0.7143160941399443 
1.029999999999903, -0.7359012797449676 
1.039999999999902, -0.7645063100338326 
1.0499999999999008, -0.7967026484595074 
1.0599999999998997, -0.8270377557912034 
1.0699999999998986, -0.851149963329199 
1.0799999999998975, -0.8678295061077259 
1.0899999999998964, -0.8783030962908056 
1.0999999999998953, -0.8845019217358956 
1.1099999999998942, -0.8880381117784764 
1.119999999999893, -0.88998107206545 
1.129999999999892, -0.8909653003080942 
1.1399999999998909, -0.8913410594971347 
1.1499999999998898, -0.8912817305335148 
1.1599999999998887, -0.8908426012863883 
1.1699999999998876, -0.8899817447569394 
1.1799999999998865, -0.8885496955353347 
1.1899999999998854, -0.8862477954619482 
1.1999999999998843, -0.8825519628447088 
1.2099999999998832, -0.8766089347015378 
1.219999999999882, -0.8671583474955057 
1.229999999999881, -0.8526486561383713 
1.2399999999998799, -0.8318662089175961 
1.2499999999998788, -0.8052612642344708 
1.2599999999998777, -0.7761307152233388 
1.2699999999998766, -0.7496945866063992 
1.2799999999998755, -0.7299808711473909 
1.2899999999998744, -0.7177944426481216 
1.2999999999998733, -0.7115229564071501 
1.3099999999998722, -0.7089457162873359 
1.319999999999871, -0.708297294256755 
1.32999999999987, -0.7084827397980924 
1.3399999999998689, -0.7089227799045776 
1.3499999999998678, -0.7093479107804226 
1.3599999999998666, -0.7096472773277009 
1.3699999999998655, -0.7097787414857535 
1.3799999999998644, -0.7097205783619822 
1.3899999999998633, -0.7094465451674762 
1.3999999999998622, -0.7089135032432791 
1.4099999999998611, -0.708058179093828 
1.41999999999986, -0.7068057366746606 
1.429999999999859, -0.7050949189691769 
1.4399999999998578, -0.7029166916243275 
1.4499999999998567, -0.7003453288469619 
1.4599999999998556, -0.6975326822668736 
1.4699999999998545, -0.6946610958908964 
1.4799999999998534, -0.6918873363510676 
1.4899999999998523, -0.689312849705505 
1.4999999999998512, -0.6869865035935911 
1.5099999999998501, -0.6849238914025508 
1.519999999999849, -0.683126889430621 
1.529999999999848, -0.6815960655170965 
1.5399999999998468, -0.680335463686234 
1.5499999999998457, -0.6793520673834881 
1.5599999999998446, -0.6786525803335873 
1.5699999999998435, -0.6782397023254657 
1.5799999999998424, -0.6781094956516229 
1.5899999999998413, -0.6782507968086519 
1.5999999999998402, -0.6786468905669815 
1.6099999999998391, -0.6792789388573137 
1.619999999999838, -0.6801301163311316 
1.629999999999837, -0.6811890730335077 
1.6399999999998358, -0.6824510498457866 
1.6499999999998347, -0.6839146269734353 
1.6599999999998336, -0.6855721836562123 
1.6699999999998325, -0.687393991359208 
1.6799999999998314, -0.6893108406358979 
1.6899999999998303, -0.6912071350601717 
1.6999999999998292, -0.6929381423464972 
1.709999999999828, -0.6943713194627816 
1.719999999999827, -0.6954281239975636 
1.729999999999826, -0.6960977727643468 
1.7399999999998248, -0.6964189076205275 
1.7499999999998237, -0.6964491725022055 
1.7599999999998226, -0.6962422614245471 
1.7699999999998215, -0.6958386136253134 
1.7799999999998204, -0.6952677240493264 
1.7899999999998193, -0.6945603927981894 
1.7999999999998182, -0.6937740741028109 
1.809999999999817, -0.6930409131197954 
1.819999999999816, -0.6926543538257108 
1.8299999999998149, -0.6932109532686966 
1.8399999999998138, -0.6958017553516237 
1.8499999999998127, -0.7021628076301213 
1.8599999999998116, -0.7145040168785199 
1.8699999999998105, -0.7345506425786026 
1.8799999999998094, -0.7617513791683221 
1.8899999999998083, -0.7921840957822195 
1.8999999999998072, -0.8203015417667737 
1.909999999999806, -0.8423134712089603 
1.919999999999805, -0.8575395300642551 
1.9299999999998039, -0.8672486615129985 
1.9399999999998028, -0.8731414187601286 
1.9499999999998017, -0.8766043458231312 
1.9599999999998006, -0.8785715421489118 
1.9699999999997995, -0.8796139367143916 
1.9799999999997984, -0.8800571045617895 
1.9899999999997973, -0.880067302330619 
1.9999999999997962, -0.8796994466963117 
2.0099999999998173, -0.8789122367457655 
2.0199999999998384, -0.8775523217986066 
2.0299999999998595, -0.875302281019368 
2.0399999999998806, -0.8715822151881231 
2.0499999999999017, -0.8654062679417762 
2.059999999999923, -0.8552636596730249 
2.069999999999944, -0.839277344689048 
2.079999999999965, -0.8160919367931896 
2.089999999999986, -0.7865188780543821 
2.100000000000007, -0.7544435643725308 
2.1100000000000283, -0.7251399257389181 
2.1200000000000494, -0.702253623707099 
2.1300000000000705, -0.6865581009330453 
2.1400000000000916, -0.6768720431891863 
2.1500000000001127, -0.6714219559927476 
2.160000000000134, -0.6686354636904052 
2.170000000000155, -0.6673798344677212 
2.180000000000176, -0.6669293423455609 
2.190000000000197, -0.6668543350923306 
2.2000000000002182, -0.6669145074877267 
2.2100000000002393, -0.6669796200404126 
2.2200000000002604, -0.6669774634742132 
2.2300000000002815, -0.666862489090077 
2.2400000000003026, -0.6665989954803204 
2.2500000000003237, -0.666155318748953 
2.260000000000345, -0.6655074805253156 
2.270000000000366, -0.6646499836620916 
2.280000000000387, -0.6636071326108601 
2.290000000000408, -0.6624345478383945 
2.3000000000004293, -0.66120514045739 
2.3100000000004504, -0.6599862748632945 
2.3200000000004715, -0.6588222347489272 
2.3300000000004926, -0.6577305098296677 
2.3400000000005137, -0.6567098618444193 
2.3500000000005348, -0.6557527994693609 
2.360000000000556, -0.6548562114197721 
2.370000000000577, -0.6540277021399373 
2.380000000000598, -0.6532882908398239 
2.390000000000619, -0.6526731584683512 
2.4000000000006403, -0.6522315270644464 
2.4100000000006614, -0.6520258230044645 
2.4200000000006825, -0.6521299026557511 
2.4300000000007036, -0.652626424322192 
2.4400000000007247, -0.6536040196718564 
2.450000000000746, -0.6551551317072583 
2.460000000000767, -0.6573746935637497 
2.470000000000788, -0.6603579124497587 
2.480000000000809, -0.664192292849314 
2.49000000000083, -0.6689353627448736 
2.5000000000008513, -0.6745683687354236 
2.5100000000008724, -0.6809258352431571 
2.5200000000008935, -0.6876327258299132 
2.5300000000009146, -0.694123833064962 
2.5400000000009357, -0.6998041764754312 
2.550000000000957, -0.7042784743892151 
2.560000000000978, -0.7074692527027536 
2.570000000000999, -0.7095465352204356 
2.58000000000102, -0.7107730628737438 
2.5900000000010412, -0.7113886510079074 
2.6000000000010624, -0.7115644334973013 
2.6100000000010835, -0.7113993391737036 
2.6200000000011046, -0.710928709954099 
2.6300000000011257, -0.710129063867709 
2.6400000000011468, -0.7089121622713653 
2.650000000001168, -0.7071036065112262 
2.660000000001189, -0.7043983279873703 
2.67000000000121, -0.7002786867394811 
2.680000000001231, -0.6938751361273336 
2.6900000000012523, -0.6837788210812585 
2.7000000000012734, -0.6680044943458309 
2.7100000000012945, -0.6447599027486883 
2.7200000000013156, -0.6145797694514518 
2.7300000000013367, -0.5819360502540405 
2.740000000001358, -0.5529376789591278 
2.750000000001379, -0.5311632218364658 
2.7600000000014, -0.5166653848200591 
2.770000000001421, -0.5077326899368171 
2.780000000001442, -0.5024988722617689 
2.7900000000014633, -0.4995480632062833 
2.8000000000014844, -0.4979494210340617 
2.8100000000015055, -0.4971298966520911 
2.8200000000015266, -0.4967476226919557 
2.8300000000015477, -0.49660166382561977 
2.840000000001569, -0.49657460476008086 
2.85000000000159, -0.4965979330897555 
2.860000000001611, -0.4966321427223993 
2.870000000001632, -0.4966563811219464 
2.8800000000016532, -0.49666441036864545 
2.8900000000016743, -0.49666425389695446 
2.9000000000016954, -0.4966783817088971 
2.9100000000017165, -0.49674078777368563 
2.9200000000017377, -0.49688850947328406 
2.9300000000017588, -0.49714835123986445 
2.94000000000178, -0.4975229512628839 
2.950000000001801, -0.49798220546240624 
2.960000000001822, -0.4984659632218268 
2.970000000001843, -0.4988999926896243 
2.9800000000018643, -0.4992186353700901 
2.9900000000018854, -0.49938133206291263 
3.0000000000019065, -0.49937485066481413 
3.0100000000019276, -0.49920410599733006 
3.0200000000019487, -0.49888002120131436 
3.03000000000197, -0.4984103146015131 
3.040000000001991, -0.4977943923793332 
3.050000000002012, -0.4970208767696557 
3.060000000002033, -0.49606525583598693 
3.070000000002054, -0.4948828934783857 
3.0800000000020753, -0.49338408453916804 
3.0900000000020964, -0.4913523834777931 
3.1000000000021175, -0.48821196738833067 
3.1100000000021386, -0.4825114427480185 
3.1200000000021597, -0.47132031064965807 
3.130000000002181, -0.4510374315281114 
3.140000000002202, -0.42141683796446694 
3.150000000002223, -0.3885962324973236 
3.160000000002244, -0.36035875875158924 
3.1700000000022652, -0.34002776713678695 
3.1800000000022863, -0.32676128368785806 
3.1900000000023074, -0.31845727345510816 
3.2000000000023285, -0.3133133702412652 
3.2100000000023496, -0.3101201249737834 
3.2200000000023707, -0.30813394433714597 
3.230000000002392, -0.3069111015975665 
3.240000000002413, -0.3061894783611246 
3.250000000002434, -0.30581641055118836 
3.260000000002455, -0.30570734281972894 
3.2700000000024763, -0.3058233547148548 
3.2800000000024974, -0.3061603503535731 
3.2900000000025185, -0.3067459746554816 
3.3000000000025396, -0.3076421400445468 
3.3100000000025607, -0.30895165178329775 
3.3200000000025818, -0.31082655190116343 
3.330000000002603, -0.31347212630826216 
3.340000000002624, -0.3171313277530988 
3.350000000002645, -0.3220191896608208 
3.360000000002666, -0.32817343682821887 
3.3700000000026873, -0.3352524523248449 
3.3800000000027084, -0.34247054513844066 
3.3900000000027295, -0.3488880579755324 
3.4000000000027506, -0.3538921178858023 
3.4100000000027717, -0.35739885141060784 
3.420000000002793, -0.3596713942583573 
3.430000000002814, -0.36105395894575754 
3.440000000002835, -0.361827933279007 
3.450000000002856, -0.3621805638451383 
3.460000000002877, -0.3622193441317656 
3.4700000000028983, -0.3619929676599273 
3.4800000000029194, -0.3615074117568836 
3.4900000000029405, -0.3607384952157482 
3.5000000000029616, -0.3596471902990656 
3.5100000000029827, -0.3582046703605902 
3.520000000003004, -0.3564273529265084 
3.530000000003025, -0.3544056428227235 
3.540000000003046, -0.3522982403830534 
3.550000000003067, -0.3502832695766707 
3.5600000000030882, -0.3484978307855562 
3.5700000000031094, -0.347006625136114 
3.5800000000031305, -0.34580793716684854 
3.5900000000031516, -0.34485804042253915 
3.6000000000031727, -0.3440957826345955 
3.6100000000031938, -0.3434603962902955 
3.620000000003215, -0.3429020291028419 
3.630000000003236, -0.3423861325956271 
3.640000000003257, -0.3418935925151097 
3.650000000003278, -0.3414191723268523 
3.6600000000032993, -0.3409708381184145 
3.6700000000033204, -0.3405720122901736 
3.6800000000033415, -0.3402684603715969 
3.6900000000033626, -0.3401414532490566 
3.7000000000033837, -0.34032752219109097 
3.710000000003405, -0.3410363840711825 
3.720000000003426, -0.3425225424437453 
3.730000000003447, -0.3448542527667047 
3.740000000003468, -0.3471113309867468 
3.750000000003489, -0.34580868114990054 
3.7600000000035103, -0.3346442351142496 
3.7700000000035314, -0.3103467597352862 
3.7800000000035525, -0.27948390078013247 
3.7900000000035736, -0.2522741965977797 
3.8000000000035947, -0.23305148387059044 
3.810000000003616, -0.22083724365350954 
3.820000000003637, -0.2133377242788585 
3.830000000003658, -0.20872866326348444 
3.840000000003679, -0.2058590041389034 
3.8500000000037002, -0.20405467276233868 
3.8600000000037213, -0.20292996633662647 
3.8700000000037424, -0.20226773408064735 
3.8800000000037635, -0.20195200216555032 
3.8900000000037847, -0.20193282759756523 
3.9000000000038058, -0.20221078410267598 
3.910000000003827, -0.20283497320750582 
3.920000000003848, -0.20391292763842234 
3.930000000003869, -0.20563407486895832 
3.94000000000389, -0.20831065547834227 
3.9500000000039113, -0.21243814275624479 
3.9600000000039324, -0.21875879438126478 
3.9700000000039535, -0.22824376446350003 
3.9800000000039746, -0.24175713408026173 
3.9900000000039957, -0.25910761998143633 
4.000000000004016, -0.27797098546120413 
4.010000000003993, -0.2945965629431255 
4.02000000000397, -0.30654043841885487 
4.030000000003946, -0.3139296030964206 
4.040000000003923, -0.31816622354339913 
4.0500000000039, -0.32055295989404026 
4.0600000000038765, -0.32191113327905974 
4.070000000003853, -0.3226874908287608 
4.08000000000383, -0.3231136223162216 
4.090000000003807, -0.3233084671408781 
4.100000000003783, -0.32333246087094947 
4.11000000000376, -0.3232153554436424 
4.120000000003737, -0.3229722556409687 
4.130000000003713, -0.3226156033333639 
4.14000000000369, -0.32216608011808845 
4.150000000003667, -0.32166120259586345 
4.1600000000036434, -0.32115736008695345 
4.17000000000362, -0.32072205218529415 
4.180000000003597, -0.32041857796722656 
4.1900000000035735, -0.32028994548541634 
4.20000000000355, -0.32034749023780656 
4.210000000003527, -0.32056608210409443 
4.220000000003504, -0.3208874039000821 
4.23000000000348, -0.3212332854260568 
4.240000000003457, -0.3215264290507659 
4.250000000003434, -0.3217086975787548 
4.26000000000341, -0.3217474186654946 
4.270000000003387, -0.3216289217929186 
4.280000000003364, -0.3213455122497641 
4.2900000000033405, -0.3208813501140433 
4.300000000003317, -0.3201977329283355 
4.310000000003294, -0.3192135160294002 
4.320000000003271, -0.31777262840631604 
4.330000000003247, -0.31558834555706394 
4.340000000003224, -0.3121620368123097 
4.350000000003201, -0.3067249056756521 
4.360000000003177, -0.2983892733243031 
4.370000000003154, -0.2867853464321418 
4.380000000003131, -0.2729249733530504 
4.390000000003107, -0.2590631347427885 
4.400000000003084, -0.24723727178190802 
4.410000000003061, -0.2382180660673808 
4.4200000000030375, -0.23175186804078768 
4.430000000003014, -0.22722392429402274 
4.440000000002991, -0.22405304830110745 
4.450000000002968, -0.22180584041808354 
4.460000000002944, -0.22018943593169463 
4.470000000002921, -0.2190164248331467 
4.480000000002898, -0.2181738390044568 
4.490000000002874, -0.21760260703585615 
4.500000000002851, -0.21728709657543507 
4.510000000002828, -0.21725406705220368 
4.520000000002804, -0.21758213826500614 
4.530000000002781, -0.2184259370095581 
4.540000000002758, -0.22006385931239963 
4.5500000000027345, -0.22298492255946475 
4.560000000002711, -0.2280329138942085 
4.570000000002688, -0.2365924806446491 
4.580000000002665, -0.2506091868361011 
4.590000000002641, -0.27164211457051296 
4.600000000002618, -0.2976810745765398 
4.610000000002595, -0.32005047304073037 
4.620000000002571, -0.3293917319713827 
4.630000000002548, -0.3264299801266282 
4.640000000002525, -0.3188267936612289 
4.6500000000025015, -0.3119265755604677 
4.660000000002478, -0.3071460061636903 
4.670000000002455, -0.30417739028653357 
4.6800000000024315, -0.3024216911220702 
4.690000000002408, -0.30141202841586245 
4.700000000002385, -0.3008496663145554 
4.710000000002362, -0.30055687232499806 
4.720000000002338, -0.30043194120078814 
4.730000000002315, -0.3004197443842687 
4.740000000002292, -0.30049504375001007 
4.750000000002268, -0.30065438989193355 
4.760000000002245, -0.30091355408372233 
4.770000000002222, -0.30130826009504336 
4.7800000000021985, -0.3018960996618556 
4.790000000002175, -0.3027571278863445 
4.800000000002152, -0.3039897191632197 
4.810000000002129, -0.3056962173736894 
4.820000000002105, -0.30795030183127803 
4.830000000002082, -0.31074152456145016 
4.840000000002059, -0.31391556868379517 
4.850000000002035, -0.31716675849462167 
4.860000000002012, -0.3201327773729975 
4.870000000001989, -0.3225443850728223 
4.880000000001965, -0.32430800997928083 
4.890000000001942, -0.3254736403627267 
