t, s[1].omega / s[0].omega 
0, -0.5699977379238375 
0.009999999999999995, -0.5697916061293979 
0.019999999999999934, -0.56961561145357 
0.029999999999999874, -0.569445111741124 
0.04000000000000012, -0.5692503508977382 
0.050000000000000405, -0.5690068986634234 
0.06000000000000069, -0.5687018583467046 
0.07000000000000098, -0.5683347609076812 
0.08000000000000126, -0.5679156809813791 
0.09000000000000155, -0.5674641136327221 
0.10000000000000184, -0.5670112008275836 
0.11000000000000212, -0.5666069319735397 
0.12000000000000241, -0.5663339041679506 
0.130000000000002, -0.5663298998555295 
0.1400000000000009, -0.5668221029507552 
0.1499999999999998, -0.5681745481994666 
0.1599999999999987, -0.5709432790062785 
0.1699999999999976, -0.575911534813597 
0.1799999999999965, -0.5840270442683375 
0.1899999999999954, -0.5960954730156203 
0.1999999999999943, -0.612122892937349 
0.2099999999999932, -0.6306168351672417 
0.2199999999999921, -0.6487762959494733 
0.229999999999991, -0.6639730802421672 
0.2399999999999899, -0.6751295817622582 
0.2499999999999888, -0.6826406589004707 
0.2599999999999877, -0.6874697342188223 
0.2699999999999866, -0.6905076805814068 
0.2799999999999855, -0.6923887779471564 
0.2899999999999844, -0.6935200456440337 
0.2999999999999833, -0.6941506111765515 
0.3099999999999822, -0.6944263077321284 
0.3199999999999811, -0.6944235302726028 
0.32999999999998, -0.6941670294003279 
0.3399999999999789, -0.6936362394593211 
0.3499999999999778, -0.6927636882974115 
0.35999999999997667, -0.6914301925595686 
0.36999999999997557, -0.6894667597898683 
0.37999999999997447, -0.6866816365102477 
0.38999999999997337, -0.6829318940102936 
0.39999999999997227, -0.6782293180570111 
0.40999999999997117, -0.6728114299361221 
0.41999999999997006, -0.6670957505895506 
0.42999999999996896, -0.6615312030211643 
0.43999999999996786, -0.656458607683464 
0.44999999999996676, -0.6520612718048167 
0.45999999999996566, -0.6483921763586662 
0.46999999999996456, -0.6454253730236769 
0.47999999999996346, -0.643097695466981 
0.48999999999996235, -0.6413329335803233 
0.49999999999996125, -0.6400529333699875 
0.5099999999999602, -0.6391819271068351 
0.519999999999959, -0.6386484485232673 
0.529999999999958, -0.6383868895003342 
0.5399999999999568, -0.6383391790493291 
0.5499999999999557, -0.6384563400128294 
0.5599999999999546, -0.6386996009322807 
0.5699999999999535, -0.6390409600622794 
0.5799999999999524, -0.6394632259653441 
0.5899999999999513, -0.6399593069728617 
0.5999999999999502, -0.6405299101175601 
0.6099999999999491, -0.6411783738144361 
0.619999999999948, -0.6419020327062434 
0.6299999999999469, -0.6426818843217731 
0.6399999999999458, -0.643475587133157 
0.6499999999999447, -0.6442201973949719 
0.6599999999999436, -0.6448470055469866 
0.6699999999999425, -0.6453018481470787 
0.6799999999999414, -0.645558631065329 
0.6899999999999403, -0.6456190797804267 
0.6999999999999392, -0.6455025237487242 
0.7099999999999381, -0.6452344749966961 
0.719999999999937, -0.644840011732555 
0.7299999999999359, -0.6443437081369581 
0.7399999999999348, -0.6437762878123935 
0.7499999999999337, -0.6431892464435943 
0.7599999999999326, -0.6426808780142281 
0.7699999999999315, -0.64243888350892 
0.7799999999999304, -0.6428032401720817 
0.7899999999999293, -0.6443414178835629 
0.7999999999999282, -0.6478929328559659 
0.8099999999999271, -0.6544703955612068 
0.819999999999926, -0.6648448294459142 
0.8299999999999249, -0.6788001626413982 
0.8399999999999238, -0.6946216287203562 
0.8499999999999227, -0.7097189020587915 
0.8599999999999216, -0.7221152928854262 
0.8699999999999205, -0.73124179151666 
0.8799999999999194, -0.7375276809834588 
0.8899999999999183, -0.7416977410301285 
0.8999999999999172, -0.744397081915143 
0.9099999999999161, -0.7461004612657274 
0.919999999999915, -0.7471299986745772 
0.9299999999999139, -0.7476931188344051 
0.9399999999999128, -0.747914651851401 
0.9499999999999117, -0.7478582297356758 
0.9599999999999106, -0.7475372451648317 
0.9699999999999095, -0.7469163725455201 
0.9799999999999084, -0.7459049309385384 
0.9899999999999073, -0.7443456529928969 
0.9999999999999062, -0.7420097169446672 
1.0099999999999052, -0.73862223918298 
1.019999999999904, -0.7339500019141652 
1.029999999999903, -0.7279509871048562 
1.039999999999902, -0.7208992012583737 
1.0499999999999008, -0.7133542243547939 
1.0599999999998997, -0.7059634225056588 
1.0699999999998986, -0.6992473510986275 
1.0799999999998975, -0.6935038832927289 
1.0899999999998964, -0.6888300329746136 
1.0999999999998953, -0.6851896010411009 
1.1099999999998942, -0.6824742887680106 
1.119999999999893, -0.6805436826793079 
1.129999999999892, -0.6792485447790886 
1.1399999999998909, -0.6784447459048076 
1.1499999999998898, -0.6780022305613349 
1.1599999999998887, -0.6778104537381741 
1.1699999999998876, -0.6777805126281891 
1.1799999999998865, -0.6778443831750574 
1.1899999999998854, -0.6779523202811788 
1.1999999999998843, -0.6780698456954425 
1.2099999999998832, -0.6781755016338514 
1.219999999999882, -0.6782596428466646 
1.229999999999881, -0.6783232148147993 
1.2399999999998799, -0.678374556803585 
1.2499999999998788, -0.6784230198507861 
1.2599999999998777, -0.67847084057556 
1.2699999999998766, -0.6785073533684318 
1.2799999999998755, -0.678509566636748 
1.2899999999998744, -0.6784496030513681 
1.2999999999998733, -0.6783048883809688 
1.3099999999998722, -0.6780653681095011 
1.319999999999871, -0.6777351224372732 
1.32999999999987, -0.6773303640274371 
1.3399999999998689, -0.6768778178890688 
1.3499999999998678, -0.6764165051418117 
1.3599999999998666, -0.676004156732247 
1.3699999999998655, -0.6757282446201428 
1.3799999999998644, -0.6757207570558668 
1.3899999999998633, -0.6761746887960208 
1.3999999999998622, -0.6773583745109215 
1.4099999999998611, -0.6796211021913553 
1.41999999999986, -0.6833793944928552 
1.429999999999859, -0.6890669739388253 
1.4399999999998578, -0.6970242928383045 
1.4499999999998567, -0.7073091702222627 
1.4599999999998556, -0.7194635879666362 
1.4699999999998545, -0.7323956229152409 
1.4799999999998534, -0.7446138444874837 
1.4899999999998523, -0.7548218380180011 
1.4999999999998512, -0.7624386438719 
1.5099999999998501, -0.7676222472869239 
1.519999999999849, -0.7709134261947066 
1.529999999999848, -0.7728873766064008 
1.5399999999998468, -0.7739912619330191 
1.5499999999998457, -0.7745215912537552 
1.5599999999998446, -0.7746538686391975 
1.5699999999998435, -0.7744757433629961 
1.5799999999998424, -0.7740077573450833 
1.5899999999998413, -0.773208919875896 
1.5999999999998402, -0.7719665015732354 
1.6099999999998391, -0.7700679464347552 
1.619999999999838, -0.7671524165453095 
1.629999999999837, -0.7626478814653757 
1.6399999999998358, -0.7557343930683866 
1.6499999999998347, -0.7454558299684002 
1.6599999999998336, -0.7311761991812652 
1.6699999999998325, -0.7133686360006537 
1.6799999999998314, -0.6940577796358851 
1.6899999999998303, -0.6760620862177791 
1.6999999999998292, -0.6615125085455387 
1.709999999999828, -0.6510820953369292 
1.719999999999827, -0.6443037450276046 
1.729999999999826, -0.6402527814961562 
1.7399999999998248, -0.6380210652632028 
1.7499999999998237, -0.6369041180960471 
1.7599999999998226, -0.6364195148812752 
1.7699999999998215, -0.636261868441101 
1.7799999999998204, -0.6362478911004219 
1.7899999999998193, -0.6362708748535516 
1.7999999999998182, -0.6362683219456535 
1.809999999999817, -0.6362010465538089 
1.819999999999816, -0.6360411838633911 
1.8299999999998149, -0.635767266270506 
1.8399999999998138, -0.6353652014825786 
1.8499999999998127, -0.6348333951866871 
1.8599999999998116, -0.6341881137985748 
1.8699999999998105, -0.6334635326183714 
1.8799999999998094, -0.6327033178124715 
1.8899999999998083, -0.6319469984973556 
1.8999999999998072, -0.6312188806714848 
1.909999999999806, -0.6305252129489805 
1.919999999999805, -0.6298594447033632 
1.9299999999998039, -0.629211199828661 
1.9399999999998028, -0.628574279006023 
1.9499999999998017, -0.6279514600326271 
1.9599999999998006, -0.6273566512070384 
1.9699999999997995, -0.6268162353334177 
1.9799999999997984, -0.6263710942357614 
1.9899999999997973, -0.6260798054633223 
1.9999999999997962, -0.6260226839466901 
2.0099999999998173, -0.6263059427097455 
2.0199999999998384, -0.6270651555429418 
2.0299999999998595, -0.6284671251201952 
2.0399999999998806, -0.6307086310172425 
2.0499999999999017, -0.6340084445768656 
2.059999999999923, -0.638584546132993 
2.069999999999944, -0.6446024012538032 
2.079999999999965, -0.6520792544996226 
2.089999999999986, -0.6607523600099791 
2.100000000000007, -0.6699852084269775 
2.1100000000000283, -0.6788525223170192 
2.1200000000000494, -0.6864634734017401 
2.1300000000000705, -0.6923221073096965 
2.1400000000000916, -0.6964282372399568 
2.1500000000001127, -0.6990968796017255 
2.160000000000134, -0.700719292310189 
2.170000000000155, -0.7016235336816463 
2.180000000000176, -0.7020368194510623 
2.190000000000197, -0.7020958502776853 
2.2000000000002182, -0.7018662653316945 
2.2100000000002393, -0.701355104396789 
2.2200000000002604, -0.7005113108631007 
2.2300000000002815, -0.6992118414491155 
2.2400000000003026, -0.6972304031509211 
2.2500000000003237, -0.6941879058712411 
2.260000000000345, -0.6894994337492311 
2.270000000000366, -0.6823815511549538 
2.280000000000387, -0.6720638231235962 
2.290000000000408, -0.6583251398414068 
2.3000000000004293, -0.6420916057617746 
2.3100000000004504, -0.6253667875180515 
2.3200000000004715, -0.6102685870631124 
2.3300000000004926, -0.598067460518706 
2.3400000000005137, -0.589006044094017 
2.3500000000005348, -0.5826834372781264 
2.360000000000556, -0.5784795054287609 
2.370000000000577, -0.5757995593889982 
2.380000000000598, -0.5741640103483683 
2.390000000000619, -0.5732181598079277 
2.4000000000006403, -0.5727126202966758 
2.4100000000006614, -0.5724778271678248 
2.4200000000006825, -0.5724012240195588 
2.4300000000007036, -0.5724093987568584 
2.4400000000007247, -0.5724552371476941 
2.450000000000746, -0.5725095665368036 
2.460000000000767, -0.5725566212064794 
2.470000000000788, -0.5725923587141326 
2.480000000000809, -0.5726239242755969 
2.49000000000083, -0.5726677656996534 
2.5000000000008513, -0.5727441575749859 
2.5100000000008724, -0.5728680431017148 
2.5200000000008935, -0.5730392660541838 
2.5300000000009146, -0.5732372144913198 
2.5400000000009357, -0.5734238890689645 
2.550000000000957, -0.5735551414773263 
2.560000000000978, -0.5735944192836925 
2.570000000000999, -0.5735215361771008 
2.58000000000102, -0.5733331832527953 
2.5900000000010412, -0.5730379237713554 
2.6000000000010624, -0.572650779511266 
2.6100000000010835, -0.5721910577178307 
2.6200000000011046, -0.5716850534048866 
2.6300000000011257, -0.5711747331790977 
2.6400000000011468, -0.5707344238128511 
2.650000000001168, -0.5704989753433736 
2.660000000001189, -0.570707223152172 
2.67000000000121, -0.5717597571929645 
2.680000000001231, -0.5742699557776944 
2.6900000000012523, -0.5790352686703779 
2.7000000000012734, -0.5867766634444627 
2.7100000000012945, -0.5975226227219813 
2.7200000000013156, -0.6099666280805329 
2.7300000000013367, -0.6217822723357049 
2.740000000001358, -0.6311356134874848 
2.750000000001379, -0.6377034057697593 
2.7600000000014, -0.642147425967263 
2.770000000001421, -0.645205939051227 
2.780000000001442, -0.6473575340846912 
2.7900000000014633, -0.6488734241986035 
2.8000000000014844, -0.649918508250087 
2.8100000000015055, -0.6506045849378919 
2.8200000000015266, -0.6510098371662706 
2.8300000000015477, -0.6511853197741592 
2.840000000001569, -0.6511573761275113 
2.85000000000159, -0.6509283769541017 
2.860000000001611, -0.6504765853470621 
2.870000000001632, -0.6497568672930928 
2.8800000000016532, -0.6487062356761945 
2.8900000000016743, -0.6472601966614542 
2.9000000000016954, -0.6453831621547244 
2.9100000000017165, -0.6431039002207114 
2.9200000000017377, -0.6405315122658947 
2.9300000000017588, -0.6378315470234478 
2.94000000000178, -0.6351734245714915 
2.950000000001801, -0.6326848289131972 
2.960000000001822, -0.6304365224510867 
2.970000000001843, -0.6284531283336268 
2.9800000000018643, -0.6267331018076558 
2.9900000000018854, -0.6252656985020079 
3.0000000000019065, -0.6240410041146778 
3.0100000000019276, -0.6230539313969703 
3.0200000000019487, -0.6223044617536518 
3.03000000000197, -0.6217961401786535 
3.040000000001991, -0.6215342055127702 
3.050000000002012, -0.6215242242317045 
3.060000000002033, -0.6217717112341472 
3.070000000002054, -0.6222828653098084 
3.0800000000020753, -0.62306615392873 
3.0900000000020964, -0.6241340088831034 
3.1000000000021175, -0.6255032735368918 
3.1100000000021386, -0.6271922453762133 
3.1200000000021597, -0.6292114881239221 
3.130000000002181, -0.6315461952364474 
3.140000000002202, -0.634132043445762 
3.150000000002223, -0.6368358724258492 
3.160000000002244, -0.6394621266221413 
3.1700000000022652, -0.6417993520610027 
3.1800000000022863, -0.6436886434059736 
3.1900000000023074, -0.6450680194203773 
3.2000000000023285, -0.6459651641352071 
3.2100000000023496, -0.6464558911028272 
3.2200000000023707, -0.6466224275805954 
3.230000000002392, -0.6465287884682251 
3.240000000002413, -0.6462114322108623 
3.250000000002434, -0.6456770806446094 
3.260000000002455, -0.6449011522164023 
3.2700000000024763, -0.6438228160563928 
3.2800000000024974, -0.6423334801613813 
3.2900000000025185, -0.6402539587710375 
3.3000000000025396, -0.6372915929049033 
3.3100000000025607, -0.6329666515502488 
3.3200000000025818, -0.6265233389234914 
3.330000000002603, -0.6169611749426376 
3.340000000002624, -0.6035209958157558 
3.350000000002645, -0.5867232260769958 
3.360000000002666, -0.5688996026311454 
3.3700000000026873, -0.5529953583413552 
3.3800000000027084, -0.5407819737813608 
3.3900000000027295, -0.5324101546968574 
3.4000000000027506, -0.5271175696050527 
3.4100000000027717, -0.5239658752598066 
3.420000000002793, -0.5221833710797616 
3.430000000002814, -0.5212304007590132 
3.440000000002835, -0.520758967743889 
3.450000000002856, -0.5205543507300952 
3.460000000002877, -0.5204872219363935 
3.4700000000028983, -0.5204804711306049 
3.4800000000029194, -0.5204880556768569 
3.4900000000029405, -0.52048250123432 
3.5000000000029616, -0.52044853559906 
3.5100000000029827, -0.5203810813114591 
3.520000000003004, -0.520285831687651 
3.530000000003025, -0.5201799039549367 
3.540000000003046, -0.5200895469897293 
3.550000000003067, -0.520043055887516 
3.5600000000030882, -0.5200601335764456 
3.5700000000031094, -0.5201419626505488 
3.5800000000031305, -0.5202670341888291 
3.5900000000031516, -0.5203957875762735 
3.6000000000031727, -0.5204827784307349 
3.6100000000031938, -0.5204903464174122 
3.620000000003215, -0.5203967452092305 
3.630000000003236, -0.5201961287904556 
3.640000000003257, -0.5198933302425036 
3.650000000003278, -0.5194981767910153 
3.6600000000032993, -0.5190224579253231 
3.6700000000033204, -0.5184806711784542 
3.6800000000033415, -0.5178949889563154 
3.6900000000033626, -0.5173052571603193 
3.7000000000033837, -0.5167850145799059 
3.710000000003405, -0.5164619585182406 
3.720000000003426, -0.5165298304294463 
3.730000000003447, -0.5172069071290043 
3.740000000003468, -0.5185434493834272 
3.750000000003489, -0.5200000415215138 
3.7600000000035103, -0.5200966732352372 
3.7700000000035314, -0.5170767496650537 
3.7800000000035525, -0.5107125555816465 
3.7900000000035736, -0.502909404980438 
3.8000000000035947, -0.4959511989380527 
3.810000000003616, -0.49091970596264894 
3.820000000003637, -0.4877584748448526 
3.830000000003658, -0.4859652243226612 
3.840000000003679, -0.4850371470823923 
3.8500000000037002, -0.48460831766659035 
3.8600000000037213, -0.4844458057400221 
3.8700000000037424, -0.48441091969309236 
3.8800000000037635, -0.48442370330534673 
3.8900000000037847, -0.4844383451955177 
3.9000000000038058, -0.48442814662077704 
3.910000000003827, -0.48437742997994393 
3.920000000003848, -0.4842784339659977 
3.930000000003869, -0.48413176952503534 
3.94000000000389, -0.4839486897570505 
3.9500000000039113, -0.4837524255395579 
3.9600000000039324, -0.4835754440516803 
3.9700000000039535, -0.4834512523666724 
3.9800000000039746, -0.4834028970837908 
3.9900000000039957, -0.48343297456213075 
4.000000000004016, -0.48351996133026465 
4.010000000003993, -0.4836233600492876 
4.02000000000397, -0.48369612216369384 
4.030000000003946, -0.483698436533179 
4.040000000003923, -0.48360600608232696 
4.0500000000039, -0.4834101674435528 
4.0600000000038765, -0.4831125955676959 
4.070000000003853, -0.4827191275377329 
4.08000000000383, -0.48223560153164413 
4.090000000003807, -0.48166644417555105 
4.100000000003783, -0.48101561169276225 
4.11000000000376, -0.48028893851771126 
4.120000000003737, -0.4794952763675441 
4.130000000003713, -0.47863768289148007 
4.14000000000369, -0.4776691604869837 
4.150000000003667, -0.47635652258941275 
4.1600000000036434, -0.4739915654885688 
4.17000000000362, -0.4690968229930824 
4.180000000003597, -0.4598587424782116 
4.1900000000035735, -0.44592514913970394 
4.20000000000355, -0.42974653597753 
4.210000000003527, -0.4148965261339274 
4.220000000003504, -0.403453392414022 
4.23000000000348, -0.3955663931394168 
4.240000000003457, -0.3904637995433328 
4.250000000003434, -0.3872723534199033 
4.26000000000341, -0.38531544584881616 
4.270000000003387, -0.38413699687512715 
4.280000000003364, -0.3834476151480254 
4.2900000000033405, -0.383068800308372 
4.300000000003317, -0.3828925166988296 
4.310000000003294, -0.3828553173782505 
4.320000000003271, -0.3829229062037942 
4.330000000003247, -0.38308165663028404 
4.340000000003224, -0.3833346680014655 
4.350000000003201, -0.3837005244026038 
4.360000000003177, -0.3842128955506518 
4.370000000003154, -0.3849186602862797 
4.380000000003131, -0.38587168306912356 
4.390000000003107, -0.3871191615213651 
4.400000000003084, -0.38867866362867015 
4.410000000003061, -0.3905094043936346 
4.4200000000030375, -0.39249299314506964 
4.430000000003014, -0.39444767496548516 
4.440000000002991, -0.3961840888348959 
4.450000000002968, -0.39757092346792483 
4.460000000002944, -0.3985639917361784 
4.470000000002921, -0.3991877627822586 
4.480000000002898, -0.39949644387182504 
4.490000000002874, -0.39954186156510146 
4.500000000002851, -0.39935570416749216 
4.510000000002828, -0.39894102677641713 
4.520000000002804, -0.3982660463892484 
4.530000000002781, -0.3972560182819259 
4.540000000002758, -0.3957835872127773 
4.5500000000027345, -0.39366640091253535 
4.560000000002711, -0.39069493668015537 
4.570000000002688, -0.3867219002708554 
4.580000000002665, -0.38180738612382015 
4.590000000002641, -0.37631301738670014 
4.600000000002618, -0.3708036585005857 
4.610000000002595, -0.3657963512028275 
4.620000000002571, -0.36157517373473796 
4.630000000002548, -0.3581859584844505 
4.640000000002525, -0.35553347751554043 
4.6500000000025015, -0.35347569630780457 
4.660000000002478, -0.35187749529775714 
4.670000000002455, -0.35063145001833285 
4.6800000000024315, -0.34966156517405844 
4.690000000002408, -0.34892077914771813 
4.700000000002385, -0.34838776035009467 
4.710000000002362, -0.34806556995944077 
4.720000000002338, -0.3479835755770092 
4.730000000002315, -0.34820385797541126 
4.740000000002292, -0.3488338707879374 
4.750000000002268, -0.3500480182559112 
4.760000000002245, -0.3521214748195568 
4.770000000002222, -0.35547772135442335 
4.7800000000021985, -0.36073977413540137 
4.790000000002175, -0.36873634911973735 
4.800000000002152, -0.38032544950379976 
4.810000000002129, -0.3958124362724503 
4.820000000002105, -0.41400503132961985 
4.830000000002082, -0.43192973089017317 
4.840000000002059, -0.44644249160971416 
4.850000000002035, -0.4563375405342246 
4.860000000002012, -0.4623835643583093 
4.870000000001989, -0.46593692953006194 
4.880000000001965, -0.46804859234163254 
4.890000000001942, -0.4693390704646189 
4.900000000001919, -0.47014018805813684 
4.9100000000018955, -0.47062689851875794 
