t, s[1].omega / s[0].omega 
0, -0.6399977150422947 
0.009999999999999995, -0.6397797624634773 
0.019999999999999934, -0.6395731730877365 
0.029999999999999874, -0.6393540414488881 
0.04000000000000012, -0.6390948729678894 
0.050000000000000405, -0.6387755945833012 
0.06000000000000069, -0.6383898051637209 
0.07000000000000098, -0.6379457825428143 
0.08000000000000126, -0.6374655526221045 
0.09000000000000155, -0.6369858881125198 
0.10000000000000184, -0.636563600808141 
0.11000000000000212, -0.6362859727197728 
0.12000000000000241, -0.6362862874647528 
0.130000000000002, -0.6367637277468503 
0.1400000000000009, -0.6380057829736312 
0.1499999999999998, -0.6404091169987908 
0.1599999999999987, -0.6444901954254725 
0.1699999999999976, -0.6508668327714418 
0.1799999999999965, -0.6601727990734029 
0.1899999999999954, -0.6728464686033498 
0.1999999999999943, -0.6887568497508457 
0.2099999999999932, -0.7067956502291388 
0.2199999999999921, -0.7248634291216722 
0.229999999999991, -0.7406413635637691 
0.2399999999999899, -0.7527107227854504 
0.2499999999999888, -0.7609830385800388 
0.2599999999999877, -0.766220373392778 
0.2699999999999866, -0.7693593134666789 
0.2799999999999855, -0.771150306566955 
0.2899999999999844, -0.7720909351740787 
0.2999999999999833, -0.7724766789733476 
0.3099999999999822, -0.7724637553666065 
0.3199999999999811, -0.7721111300241008 
0.32999999999998, -0.7713978975567339 
0.3399999999999789, -0.7702170394259333 
0.3499999999999778, -0.7683430207575003 
0.35999999999997667, -0.7653661841043141 
0.36999999999997557, -0.7605900397821552 
0.37999999999997447, -0.7529227058742639 
0.38999999999997337, -0.7409096121863497 
0.39999999999997227, -0.7232399800073697 
0.40999999999997117, -0.6999387040074041 
0.41999999999997006, -0.6734201786119123 
0.42999999999996896, -0.6477482833767095 
0.43999999999996786, -0.6263294247797144 
0.44999999999996676, -0.6104626726245848 
0.45999999999996566, -0.5996973765881555 
0.46999999999996456, -0.5928533913038458 
0.47999999999996346, -0.5887275525962835 
0.48999999999996235, -0.5863656782423574 
0.49999999999996125, -0.585094140196558 
0.5099999999999602, -0.5844671963934516 
0.519999999999959, -0.5842017147813763 
0.529999999999958, -0.5841226495012825 
0.5399999999999568, -0.5841233170286592 
0.5499999999999557, -0.5841385899174425 
0.5599999999999546, -0.5841281598957422 
0.5699999999999535, -0.5840675461690046 
0.5799999999999524, -0.5839450504055045 
0.5899999999999513, -0.583762549209865 
0.5999999999999502, -0.5835367561676915 
0.6099999999999491, -0.5832967462158278 
0.619999999999948, -0.5830753610367305 
0.6299999999999469, -0.5828966677704763 
0.6399999999999458, -0.5827653931414223 
0.6499999999999447, -0.5826639822902454 
0.6599999999999436, -0.5825590820391919 
0.6699999999999425, -0.5824141911170453 
0.6799999999999414, -0.5822018424779598 
0.6899999999999403, -0.5819098411070159 
0.6999999999999392, -0.5815411048458559 
0.7099999999999381, -0.5811109403316267 
0.719999999999937, -0.5806462581128711 
0.7299999999999359, -0.580189780248282 
0.7399999999999348, -0.5798112848633089 
0.7499999999999337, -0.5796282839997547 
0.7599999999999326, -0.5798397866406277 
0.7699999999999315, -0.5807778888042863 
0.7799999999999304, -0.5829805814114298 
0.7899999999999293, -0.587279227669123 
0.7999999999999282, -0.5948605775047584 
0.8099999999999271, -0.607181191949957 
0.819999999999926, -0.6254900048038687 
0.8299999999999249, -0.6497607671153911 
0.8399999999999238, -0.6775502504589477 
0.8499999999999227, -0.7043849966543296 
0.8599999999999216, -0.7262683832697819 
0.8699999999999205, -0.7418021502794855 
0.8799999999999194, -0.7518460001629217 
0.8899999999999183, -0.7580100133905596 
0.8999999999999172, -0.7616923054128073 
0.9099999999999161, -0.7638454266579586 
0.919999999999915, -0.7650532907857885 
0.9299999999999139, -0.7656542106405821 
0.9399999999999128, -0.765831753616105 
0.9499999999999117, -0.765667653104631 
0.9599999999999106, -0.7651654700279222 
0.9699999999999095, -0.7642515135062724 
0.9799999999999084, -0.7627553715242703 
0.9899999999999073, -0.7603721263833191 
0.9999999999999062, -0.7566200244140228 
1.0099999999999052, -0.7508439116134624 
1.019999999999904, -0.7423701520663373 
1.029999999999903, -0.7308983929578848 
1.039999999999902, -0.7169597346051768 
1.0499999999999008, -0.701959020180821 
1.0599999999998997, -0.68758993464764 
1.0699999999998986, -0.6751210431816431 
1.0799999999998975, -0.6651118745313999 
1.0899999999998964, -0.657551942537671 
1.0999999999998953, -0.652124463326299 
1.1099999999998942, -0.6484083532187681 
1.119999999999893, -0.6459886431898327 
1.129999999999892, -0.6445045325104435 
1.1399999999998909, -0.643664496840407 
1.1499999999998898, -0.6432454635155501 
1.1599999999998887, -0.6430843784811533 
1.1699999999998876, -0.6430665497776448 
1.1799999999998865, -0.6431136261228012 
1.1899999999998854, -0.6431732766485894 
1.1999999999998843, -0.6432119365896758 
1.2099999999998832, -0.6432111321074909 
1.219999999999882, -0.6431666266627082 
1.229999999999881, -0.6430879707403621 
1.2399999999998799, -0.6429950779105614 
1.2499999999998788, -0.6429099445856398 
1.2599999999998777, -0.642845569244989 
1.2699999999998766, -0.6427975042912202 
1.2799999999998755, -0.6427431759661137 
1.2899999999998744, -0.64264997500346 
1.2999999999998733, -0.6424877635718221 
1.3099999999998722, -0.6422389392458498 
1.319999999999871, -0.641902026009711 
1.32999999999987, -0.6414902450438442 
1.3399999999998689, -0.6410296284504924 
1.3499999999998678, -0.6405606671686594 
1.3599999999998666, -0.6401455990544399 
1.3699999999998655, -0.6398822255828088 
1.3799999999998644, -0.6399246487198418 
1.3899999999998633, -0.6405106657260492 
1.3999999999998622, -0.6419938059199634 
1.4099999999998611, -0.6448739490644874 
1.41999999999986, -0.6498116603988202 
1.429999999999859, -0.6575932309103779 
1.4399999999998578, -0.6689834959754336 
1.4499999999998567, -0.6843841224611921 
1.4599999999998556, -0.7032991876772577 
1.4699999999998545, -0.7239245220951875 
1.4799999999998534, -0.7435029433176557 
1.4899999999998523, -0.7596007366247858 
1.4999999999998512, -0.7712436145248944 
1.5099999999998501, -0.7788786543806714 
1.519999999999849, -0.7835653103754585 
1.529999999999848, -0.7863132357844114 
1.5399999999998468, -0.7878468987160853 
1.5499999999998457, -0.7886185166487578 
1.5599999999998446, -0.7888854246733606 
1.5699999999998435, -0.7887753080824549 
1.5799999999998424, -0.7883235498029985 
1.5899999999998413, -0.7874843451068102 
1.5999999999998402, -0.7861169177310595 
1.6099999999998391, -0.7839430841387526 
1.619999999999838, -0.7804688060741162 
1.629999999999837, -0.774871844020967 
1.6399999999998358, -0.7659123870467207 
1.6499999999998347, -0.7520712700858427 
1.6599999999998336, -0.732278276567895 
1.6699999999998325, -0.7072345785987095 
1.6799999999998314, -0.6800958787020097 
1.6899999999998303, -0.6550775606067993 
1.6999999999998292, -0.6350913687071332 
1.709999999999828, -0.6208267149252078 
1.719999999999827, -0.6114688017224486 
1.729999999999826, -0.6057191691951566 
1.7399999999998248, -0.6023855650915151 
1.7499999999998237, -0.6005689677921091 
1.7599999999998226, -0.5996559811165294 
1.7699999999998215, -0.5992524120725367 
1.7799999999998204, -0.5991147964837746 
1.7899999999998193, -0.5990964843066168 
1.7999999999998182, -0.5991097416787393 
1.809999999999817, -0.59910105752219 
1.819999999999816, -0.599036542458215 
1.8299999999998149, -0.5988951050622837 
1.8399999999998138, -0.598667575969924 
1.8499999999998127, -0.5983592596341077 
1.8599999999998116, -0.5979917354351683 
1.8699999999998105, -0.5975992472481513 
1.8799999999998094, -0.5972181933806254 
1.8899999999998083, -0.5968737811459935 
1.8999999999998072, -0.5965708504163723 
1.909999999999806, -0.5962936215964787 
1.919999999999805, -0.5960140281987171 
1.9299999999998039, -0.5957038508588871 
1.9399999999998028, -0.5953445868421527 
1.9499999999998017, -0.5949317576914466 
1.9599999999998006, -0.5944748578902912 
1.9699999999997995, -0.5939967124066187 
1.9799999999997984, -0.5935357227808615 
1.9899999999997973, -0.5931531481617719 
1.9999999999997962, -0.5929468011139403 
2.0099999999998173, -0.59307253001662 
2.0199999999998384, -0.5937749752922377 
2.0299999999998595, -0.5954282952597203 
2.0399999999998806, -0.5985838157212758 
2.0499999999999017, -0.6040100217599635 
2.059999999999923, -0.612681378879495 
2.069999999999944, -0.625617345372584 
2.079999999999965, -0.643423326925775 
2.089999999999986, -0.6655081655455228 
2.100000000000007, -0.6894904809947275 
2.1100000000000283, -0.711817883946717 
2.1200000000000494, -0.7296429107004021 
2.1300000000000705, -0.7421512483307732 
2.1400000000000916, -0.7501686446915601 
2.1500000000001127, -0.755033237522059 
2.160000000000134, -0.7578860372044689 
2.170000000000155, -0.7594990495283942 
2.180000000000176, -0.760339726877733 
2.190000000000197, -0.760671235199162 
2.2000000000002182, -0.7606253758047951 
2.2100000000002393, -0.7602423003298262 
2.2200000000002604, -0.7594829094476538 
2.2300000000002815, -0.7582172997632157 
2.2400000000003026, -0.7561883466021972 
2.2500000000003237, -0.7529506269076199 
2.260000000000345, -0.7478050574893661 
2.270000000000366, -0.7398122937817259 
2.280000000000387, -0.7280619217186584 
2.290000000000408, -0.7123196348903488 
2.3000000000004293, -0.6936908967897372 
2.3100000000004504, -0.6744666642448778 
2.3200000000004715, -0.6570137946121049 
2.3300000000004926, -0.642755713298602 
2.3400000000005137, -0.632008934279795 
2.3500000000005348, -0.6243888489300635 
2.360000000000556, -0.6192481631471244 
2.370000000000577, -0.6159367305626305 
2.380000000000598, -0.6139072528079026 
2.390000000000619, -0.6127382116624086 
2.4000000000006403, -0.6121224994653829 
2.4100000000006614, -0.6118453220206372 
2.4200000000006825, -0.611761210669547 
2.4300000000007036, -0.6117739708323424 
2.4400000000007247, -0.6118209803452843 
2.450000000000746, -0.611862266389496 
2.460000000000767, -0.6118742806263722 
2.470000000000788, -0.6118476603862523 
2.480000000000809, -0.6117870995729332 
2.49000000000083, -0.6117101119841125 
2.5000000000008513, -0.6116414958744838 
2.5100000000008724, -0.6116030431709629 
2.5200000000008935, -0.6116021860864047 
2.5300000000009146, -0.6116254824633753 
2.5400000000009357, -0.6116411669851647 
2.550000000000957, -0.6116101635140928 
2.560000000000978, -0.6114997273310474 
2.570000000000999, -0.6112925106458117 
2.58000000000102, -0.610988103098197 
2.5900000000010412, -0.6105999004155257 
2.6000000000010624, -0.6101524601797174 
2.6100000000010835, -0.6096832704703663 
2.6200000000011046, -0.6092511362224453 
2.6300000000011257, -0.6089529797970042 
2.6400000000011468, -0.6089515385695313 
2.650000000001168, -0.6095171418382864 
2.660000000001189, -0.611085818406045 
2.67000000000121, -0.6143299691012463 
2.680000000001231, -0.6202186183631142 
2.6900000000012523, -0.6299967038462297 
2.7000000000012734, -0.6449285260234012 
2.7100000000012945, -0.665604369190868 
2.7200000000013156, -0.6908946173820305 
2.7300000000013367, -0.7174784471637798 
2.740000000001358, -0.7411658907203074 
2.750000000001379, -0.759265736076395 
2.7600000000014, -0.7715369497502226 
2.770000000001421, -0.7792315454083373 
2.780000000001442, -0.7838448593740166 
2.7900000000014633, -0.7865319434711626 
2.8000000000014844, -0.7880400438784858 
2.8100000000015055, -0.7888119831257983 
2.8200000000015266, -0.7890933399302525 
2.8300000000015477, -0.7890032469586459 
2.840000000001569, -0.788570576695667 
2.85000000000159, -0.7877425880722001 
2.860000000001611, -0.7863686714127838 
2.870000000001632, -0.7841571092100003 
2.8800000000016532, -0.7806045182097959 
2.8900000000016743, -0.7749214826431419 
2.9000000000016954, -0.7660509780817433 
2.9100000000017165, -0.7529840627088751 
2.9200000000017377, -0.735506966097472 
2.9300000000017588, -0.7149452372342049 
2.94000000000178, -0.6939421445847198 
2.950000000001801, -0.6751557804823525 
2.960000000001822, -0.6601107188989491 
2.970000000001843, -0.6490564782643202 
2.9800000000018643, -0.6414643530967313 
2.9900000000018854, -0.6365394568859654 
3.0000000000019065, -0.6335156310092648 
3.0100000000019276, -0.6317693116066035 
3.0200000000019487, -0.6308374714273999 
3.03000000000197, -0.6303965731629418 
3.040000000001991, -0.6302305581070468 
3.050000000002012, -0.6301998260616999 
3.060000000002033, -0.6302157178467322 
3.070000000002054, -0.6302217538734141 
3.0800000000020753, -0.630181570961305 
3.0900000000020964, -0.6300730090542939 
3.1000000000021175, -0.6298872196111883 
3.1100000000021386, -0.6296303139629481 
3.1200000000021597, -0.6293234181334013 
3.130000000002181, -0.6289972290817548 
3.140000000002202, -0.6286809314986191 
3.150000000002223, -0.6283903421963419 
3.160000000002244, -0.6281217702416537 
3.1700000000022652, -0.6278549104587562 
3.1800000000022863, -0.6275628377880125 
3.1900000000023074, -0.627223431252191 
3.2000000000023285, -0.6268268541662084 
3.2100000000023496, -0.626377691958274 
3.2200000000023707, -0.6258943969704344 
3.230000000002392, -0.6254098657366807 
3.240000000002413, -0.6249758091837018 
3.250000000002434, -0.6246720849229408 
3.260000000002455, -0.6246212817245113 
3.2700000000024763, -0.6250083048061534 
3.2800000000024974, -0.626103880139594 
3.2900000000025185, -0.6282890500297929 
3.3000000000025396, -0.6320734289375103 
3.3100000000025607, -0.6380900278218713 
3.3200000000025818, -0.6470293327205159 
3.330000000002603, -0.6594479165387914 
3.340000000002624, -0.6753918395379157 
3.350000000002645, -0.6939210425011535 
3.360000000002666, -0.7129573029349254 
3.3700000000026873, -0.7299734622504648 
3.3800000000027084, -0.7432348477259934 
3.3900000000027295, -0.7524424431368375 
3.4000000000027506, -0.7583215080071966 
3.4100000000027717, -0.7618704755924267 
3.420000000002793, -0.7639183913451635 
3.430000000002814, -0.7650240246911506 
3.440000000002835, -0.7655234930431326 
3.450000000002856, -0.7655994178351184 
3.460000000002877, -0.7653296673760847 
3.4700000000028983, -0.7647102164374336 
3.4800000000029194, -0.7636538742495559 
3.4900000000029405, -0.7619636587217739 
3.5000000000029616, -0.7592751343764791 
3.5100000000029827, -0.7549642214456667 
3.520000000003004, -0.748047047461206 
3.530000000003025, -0.7371983532933253 
3.540000000003046, -0.7211774069676868 
3.550000000003067, -0.6998639781662106 
3.5600000000030882, -0.6752444129405532 
3.5700000000031094, -0.6509071947766684 
3.5800000000031305, -0.6300749480031851 
3.5900000000031516, -0.6141935756086838 
3.6000000000031727, -0.6030823069188713 
3.6100000000031938, -0.5957847729912384 
3.620000000003215, -0.5912289365911445 
3.630000000003236, -0.5885171802439799 
3.640000000003257, -0.5869880024332114 
3.650000000003278, -0.5861865118854006 
3.6600000000032993, -0.5858131838114428 
3.6700000000033204, -0.5856765895221441 
3.6800000000033415, -0.5856567263691147 
3.6900000000033626, -0.5856789395796631 
3.7000000000033837, -0.5856967407047765 
3.710000000003405, -0.5856818154487311 
3.720000000003426, -0.5856197552041418 
3.730000000003447, -0.5855097276262229 
3.740000000003468, -0.5853651719810562 
3.750000000003489, -0.5852116482257889 
3.7600000000035103, -0.5850791779377386 
3.7700000000035314, -0.5849903391125543 
3.7800000000035525, -0.5849493063028224 
3.7900000000035736, -0.5849376930529513 
3.8000000000035947, -0.5849199913251298 
3.810000000003616, -0.5848562549756411 
3.820000000003637, -0.5847153361816075 
3.830000000003658, -0.5844821973600342 
3.840000000003679, -0.58415791798151 
3.8500000000037002, -0.583756143321278 
3.8600000000037213, -0.5833009460325573 
3.8700000000037424, -0.5828295322419064 
3.8800000000037635, -0.5824019226193842 
3.8900000000037847, -0.582119990034805 
3.9000000000038058, -0.582159683603858 
3.910000000003827, -0.5828218778375529 
3.920000000003848, -0.5846069454368876 
3.930000000003869, -0.588310071382484 
3.94000000000389, -0.5951035865894532 
3.9500000000039113, -0.6064918410806226 
3.9600000000039324, -0.6238888539927091 
3.9700000000039535, -0.6475636690156431 
3.9800000000039746, -0.6753583179053949 
3.9900000000039957, -0.702813236418016 
4.000000000004016, -0.7256262360685721 
4.010000000003993, -0.7420548016917572 
4.02000000000397, -0.7527945296084964 
4.030000000003946, -0.7594456092283005 
4.040000000003923, -0.7634536038375932 
4.0500000000039, -0.7658222685823531 
4.0600000000038765, -0.7671753004828615 
4.070000000003853, -0.7678791142121524 
4.08000000000383, -0.7681371322234234 
4.090000000003807, -0.7680464560504824 
4.100000000003783, -0.7676250915539871 
4.11000000000376, -0.7668166186486026 
4.120000000003737, -0.7654752028284266 
4.130000000003713, -0.7633328991259761 
4.14000000000369, -0.759960150952279 
4.150000000003667, -0.7547605988270158 
4.1600000000036434, -0.7470913558308839 
4.17000000000362, -0.7365969125651998 
4.180000000003597, -0.7236424996920829 
4.1900000000035735, -0.7094306873917834 
4.20000000000355, -0.6955379384277245 
4.210000000003527, -0.683242765567027 
4.220000000003504, -0.6731904017306787 
4.23000000000348, -0.6654672281161661 
4.240000000003457, -0.6598320974061946 
4.250000000003434, -0.6559123880772685 
4.26000000000341, -0.6533189637863719 
4.270000000003387, -0.6517007522414835 
4.280000000003364, -0.6507657734381401 
4.2900000000033405, -0.6502851030208298 
4.300000000003317, -0.6500879464429794 
4.310000000003294, -0.6500521703349137 
4.320000000003271, -0.6500932892675578 
4.330000000003247, -0.6501542684581569 
4.340000000003224, -0.6501978589327593 
4.350000000003201, -0.6502023397158164 
4.360000000003177, -0.6501602972885895 
4.370000000003154, -0.65007837318381 
4.380000000003131, -0.6499746423004994 
4.390000000003107, -0.6498712383471358 
4.400000000003084, -0.6497835205497033 
4.410000000003061, -0.6497108463765227 
4.4200000000030375, -0.6496344133011288 
4.430000000003014, -0.6495239582043213 
4.440000000002991, -0.6493497281257097 
4.450000000002968, -0.6490930564010492 
4.460000000002944, -0.6487509508645466 
4.470000000002921, -0.6483353874248783 
4.480000000002898, -0.6478715445327949 
4.490000000002874, -0.6473990527938799 
4.500000000002851, -0.6469784640491582 
4.510000000002828, -0.646703688704374 
4.520000000002804, -0.6467203903930364 
4.530000000002781, -0.6472495218899053 
4.540000000002758, -0.6486135747730117 
4.5500000000027345, -0.6512599326589315 
4.560000000002711, -0.6557693488009982 
4.570000000002688, -0.6628246891613365 
4.580000000002665, -0.6730932301667607 
4.590000000002641, -0.6869585085362391 
4.600000000002618, -0.704088405329736 
4.610000000002595, -0.7230495707365063 
4.620000000002571, -0.7414746427277163 
4.630000000002548, -0.7570518236696357 
4.640000000002525, -0.7686226058948453 
4.6500000000025015, -0.7763728636931561 
4.660000000002478, -0.7811994749069535 
4.670000000002455, -0.7840554172878782 
4.6800000000024315, -0.7856607055334688 
4.690000000002408, -0.7864779604040091 
4.700000000002385, -0.7867756105361037 
4.710000000002362, -0.7866903698135842 
4.720000000002338, -0.786265631703267 
4.730000000002315, -0.7854648170695534 
4.740000000002292, -0.7841607297543163 
4.750000000002268, -0.7820976041994172 
4.760000000002245, -0.7788181740325986 
4.770000000002222, -0.773553110720117 
4.7800000000021985, -0.7651121076491826 
4.790000000002175, -0.7519473453667551 
4.800000000002152, -0.7327557331539252 
4.810000000002129, -0.7078012641666771 
4.820000000002105, -0.6799461000761786 
4.830000000002082, -0.6536173085842816 
4.840000000002059, -0.6322437550998563 
4.850000000002035, -0.6168831809599375 
4.860000000002012, -0.606805118654178 
4.870000000001989, -0.6006366094955278 
4.880000000001965, -0.5970797326605617 
4.890000000001942, -0.595152358023219 
4.900000000001919, -0.5941882351912495 
4.9100000000018955, -0.5937631798283184 
4.920000000001872, -0.5936179574126481 
