t, s[1].omega / s[0].omega 
0, -0.6399977137784365 
0.009999999999999995, -0.6397672618050009 
0.019999999999999934, -0.6395280207633134 
0.029999999999999874, -0.6392671785397688 
0.04000000000000012, -0.6389704759650027 
0.050000000000000405, -0.6386283569239769 
0.06000000000000069, -0.6382393621794467 
0.07000000000000098, -0.6378106752817009 
0.08000000000000126, -0.637357677647524 
0.09000000000000155, -0.6369045692166939 
0.10000000000000184, -0.6364872789724074 
0.11000000000000212, -0.6361590438738021 
0.12000000000000241, -0.6359984841471467 
0.130000000000002, -0.6361195035069149 
0.1400000000000009, -0.6366815140603171 
0.1499999999999998, -0.6378969121751045 
0.1599999999999987, -0.6400298260301353 
0.1699999999999976, -0.6433752683655098 
0.1799999999999965, -0.6482017927085385 
0.1899999999999954, -0.6546407159809584 
0.1999999999999943, -0.6625305649755481 
0.2099999999999932, -0.6712962005579578 
0.2199999999999921, -0.6800131866614634 
0.229999999999991, -0.6877287078546203 
0.2399999999999899, -0.693846344587584 
0.2499999999999888, -0.6982682398067285 
0.2599999999999877, -0.7012449059477894 
0.2699999999999866, -0.7031405888581616 
0.2799999999999855, -0.7042822472301906 
0.2899999999999844, -0.7049095778645302 
0.2999999999999833, -0.7051785966010699 
0.3099999999999822, -0.7051799090349203 
0.3199999999999811, -0.7049544038696729 
0.32999999999998, -0.7045014547690094 
0.3399999999999789, -0.7037790096931751 
0.3499999999999778, -0.7026959967070963 
0.35999999999997667, -0.701098930229553 
0.36999999999997557, -0.6987599662964981 
0.37999999999997447, -0.6953863268053744 
0.38999999999997337, -0.6906869707148212 
0.39999999999997227, -0.6845231786847523 
0.40999999999997117, -0.6770913459304906 
0.41999999999997006, -0.6689795462991284 
0.42999999999996896, -0.6609847773470949 
0.43999999999996786, -0.6538074248942509 
0.44999999999996676, -0.647852405183541 
0.45999999999996566, -0.643220087182751 
0.46999999999996456, -0.639805684195769 
0.47999999999996346, -0.6374077430474082 
0.48999999999996235, -0.635802725337168 
0.49999999999996125, -0.6347846151085857 
0.5099999999999602, -0.6341811999588605 
0.519999999999959, -0.6338574021739762 
0.529999999999958, -0.6337121628901686 
0.5399999999999568, -0.6336725808455254 
0.5499999999999557, -0.6336874587039694 
0.5599999999999546, -0.6337215742093157 
0.5699999999999535, -0.6337514651389953 
0.5799999999999524, -0.6337630409263076 
0.5899999999999513, -0.633750700412375 
0.5999999999999502, -0.6337168027881949 
0.6099999999999491, -0.6336697547670262 
0.619999999999948, -0.6336195192800378 
0.6299999999999469, -0.6335713334421172 
0.6399999999999458, -0.6335205941476066 
0.6499999999999447, -0.633452178970787 
0.6599999999999436, -0.633345133514027 
0.6699999999999425, -0.633180210923282 
0.6799999999999414, -0.6329460641807958 
0.6899999999999403, -0.6326414982237737 
0.6999999999999392, -0.6322744225154109 
0.7099999999999381, -0.6318601014651792 
0.719999999999937, -0.6314211213964499 
0.7299999999999359, -0.630990417331543 
0.7399999999999348, -0.6306179359524374 
0.7499999999999337, -0.6303812205334371 
0.7599999999999326, -0.630399898908757 
0.7699999999999315, -0.6308530413740661 
0.7799999999999304, -0.6319957400474028 
0.7899999999999293, -0.6341657641832119 
0.7999999999999282, -0.6377615133508504 
0.8099999999999271, -0.643160777050971 
0.819999999999926, -0.6505511008497548 
0.8299999999999249, -0.6596948384348629 
0.8399999999999238, -0.6697795158957498 
0.8499999999999227, -0.6795874578708776 
0.8599999999999216, -0.6880022689053562 
0.8699999999999205, -0.6944662185397897 
0.8799999999999194, -0.6990233011654096 
0.8899999999999183, -0.7020470431781363 
0.8999999999999172, -0.7039663406582881 
0.9099999999999161, -0.7051311413597481 
0.919999999999915, -0.7057858500950256 
0.9299999999999139, -0.7060860040145963 
0.9399999999999128, -0.7061214648520499 
0.9499999999999117, -0.7059334657689347 
0.9599999999999106, -0.7055232573144364 
0.9699999999999095, -0.7048529888833386 
0.9799999999999084, -0.7038401892764325 
0.9899999999999073, -0.7023490089896477 
0.9999999999999062, -0.7001868933355186 
1.0099999999999052, -0.69712544504691 
1.019999999999904, -0.6929706084903642 
1.029999999999903, -0.6876848518924887 
1.039999999999902, -0.6814976063118608 
1.0499999999999008, -0.6748944705499088 
1.0599999999998997, -0.668455741825021 
1.0699999999998986, -0.6626585663311366 
1.0799999999998975, -0.6577733548439526 
1.0899999999998964, -0.6538740820899721 
1.0999999999998953, -0.6509029679593723 
1.1099999999998942, -0.6487352365527758 
1.119999999999893, -0.6472236590271114 
1.129999999999892, -0.6462238527444075 
1.1399999999998909, -0.6456068961044514 
1.1499999999998898, -0.6452645788666139 
1.1599999999998887, -0.645110388484176 
1.1699999999998876, -0.6450779659845507 
1.1799999999998865, -0.6451182163115818 
1.1899999999998854, -0.6451960696094006 
1.1999999999998843, -0.6452877131875094 
1.2099999999998832, -0.6453787581656731 
1.219999999999882, -0.6454631779235502 
1.229999999999881, -0.6455420646263537 
1.2399999999998799, -0.645620821344439 
1.2499999999998788, -0.645704111646177 
1.2599999999998777, -0.6457898238076789 
1.2699999999998766, -0.6458651592163166 
1.2799999999998755, -0.6459078010409461 
1.2899999999998744, -0.645892325903867 
1.2999999999998733, -0.6457984394590456 
1.3099999999998722, -0.6456164866337131 
1.319999999999871, -0.645348209388886 
1.32999999999987, -0.6450043355113847 
1.3399999999998689, -0.6446021492838818 
1.3499999999998678, -0.6441654817348769 
1.3599999999998666, -0.6437282895097958 
1.3699999999998655, -0.6433423198080348 
1.3799999999998644, -0.6430892015333721 
1.3899999999998633, -0.643096981129883 
1.3999999999998622, -0.6435597957569549 
1.4099999999998611, -0.6447559819086333 
1.41999999999986, -0.647053031487606 
1.429999999999859, -0.6508765019387154 
1.4399999999998578, -0.6566084361667535 
1.4499999999998567, -0.6643898317463683 
1.4599999999998556, -0.6738741275832745 
1.4699999999998545, -0.6841202018778778 
1.4799999999998534, -0.6938525589593031 
1.4899999999998523, -0.7020150819580728 
1.4999999999998512, -0.7081699280195888 
1.5099999999998501, -0.7124519447266022 
1.519999999999849, -0.715267495091966 
1.529999999999848, -0.7170410113977066 
1.5399999999998468, -0.7181059430684836 
1.5499999999998457, -0.7186907347833275 
1.5599999999998446, -0.718938675156594 
1.5699999999998435, -0.7189305131702677 
1.5799999999998424, -0.7187000101039993 
1.5899999999998413, -0.7182410037858454 
1.5999999999998402, -0.7175066829866722 
1.6099999999998391, -0.7164023982571933 
1.619999999999838, -0.7147755199480422 
1.629999999999837, -0.712412366572761 
1.6399999999998358, -0.7090637287343988 
1.6499999999998347, -0.7045266173580826 
1.6599999999998336, -0.6987814179060519 
1.6699999999998325, -0.6921073598375804 
1.6799999999998314, -0.685055605233046 
1.6899999999998303, -0.6782603193246219 
1.6999999999998292, -0.6722239533588167 
1.709999999999828, -0.6672148117627471 
1.719999999999827, -0.6632875265058328 
1.729999999999826, -0.6603576184111388 
1.7399999999998248, -0.6582729003664174 
1.7499999999998237, -0.6568619476909314 
1.7599999999998226, -0.6559614913209408 
1.7699999999998215, -0.655429736816353 
1.7799999999998204, -0.6551511816674273 
1.7899999999998193, -0.655036372830633 
1.7999999999998182, -0.6550187960580947 
1.809999999999817, -0.6550505243387473 
1.819999999999816, -0.6550979245190803 
1.8299999999998149, -0.6551383687116699 
1.8399999999998138, -0.6551583867808733 
1.8499999999998127, -0.6551529338900355 
1.8599999999998116, -0.6551245523795712 
1.8699999999998105, -0.6550808032399627 
1.8799999999998094, -0.6550292705222555 
1.8899999999998083, -0.65497160889124 
1.8999999999998072, -0.6548998453688663 
1.909999999999806, -0.6547975715333649 
1.919999999999805, -0.6546457319411383 
1.9299999999998039, -0.6544296842837498 
1.9399999999998028, -0.6541437742348888 
1.9499999999998017, -0.6537921461118088 
1.9599999999998006, -0.6533873957476686 
1.9699999999997995, -0.6529496808726405 
1.9799999999997984, -0.6525081797372081 
1.9899999999997973, -0.6521057055645908 
1.9999999999997962, -0.6518065930692284 
2.0099999999998173, -0.6517075132222295 
2.0199999999998384, -0.6519501425817953 
2.0299999999998595, -0.6527331256011581 
2.0399999999998806, -0.6543180171980751 
2.0499999999999017, -0.6570192795691073 
2.059999999999923, -0.6611619757254978 
2.069999999999944, -0.6669866575041069 
2.079999999999965, -0.6744942645489509 
2.089999999999986, -0.6832802014963042 
2.100000000000007, -0.69249761255928 
2.1100000000000283, -0.7010924369634967 
2.1200000000000494, -0.7082293420135303 
2.1300000000000705, -0.7135817569488998 
2.1400000000000916, -0.7172855969267166 
2.1500000000001127, -0.7196978439946357 
2.160000000000134, -0.7211892714405853 
2.170000000000155, -0.7220515304048704 
2.180000000000176, -0.7224834912349924 
2.190000000000197, -0.7226073747740525 
2.2000000000002182, -0.7224876701763401 
2.2100000000002393, -0.7221435431518999 
2.2200000000002604, -0.7215528640261293 
2.2300000000002815, -0.7206479033634247 
2.2400000000003026, -0.7193033952513935 
2.2500000000003237, -0.7173204160517349 
2.260000000000345, -0.7144183501811352 
2.270000000000366, -0.7102644508263237 
2.280000000000387, -0.7045834625263347 
2.290000000000408, -0.6973536815999702 
2.3000000000004293, -0.6889790018086852 
2.3100000000004504, -0.6802467999038233 
2.3200000000004715, -0.6720357233331993 
2.3300000000004926, -0.6649934737805452 
2.3400000000005137, -0.6594036848486119 
2.3500000000005348, -0.655244866272179 
2.360000000000556, -0.6523208430361254 
2.370000000000577, -0.6503725652046917 
2.380000000000598, -0.6491459880216209 
2.390000000000619, -0.6484238517189824 
2.4000000000006403, -0.6480352369213305 
2.4100000000006614, -0.6478533981281258 
2.4200000000006825, -0.6477883612342354 
2.4300000000007036, -0.6477780715620025 
2.4400000000007247, -0.6477802559715866 
2.450000000000746, -0.6477661826518725 
2.460000000000767, -0.647716869562662 
2.470000000000788, -0.6476217135297982 
2.480000000000809, -0.6474787010842495 
2.49000000000083, -0.6472943995649934 
2.5000000000008513, -0.6470816322536479 
2.5100000000008724, -0.6468541113853287 
2.5200000000008935, -0.6466199320620437 
2.5300000000009146, -0.6463775157448484 
2.5400000000009357, -0.6461165264058045 
2.550000000000957, -0.6458231546328194 
2.560000000000978, -0.6454865482730693 
2.570000000000999, -0.6451031607318398 
2.58000000000102, -0.6446780823822186 
2.5900000000010412, -0.6442247562603022 
2.6000000000010624, -0.6437651903465843 
2.6100000000010835, -0.6433321307972698 
2.6200000000011046, -0.6429737267270119 
2.6300000000011257, -0.6427605438094259 
2.6400000000011468, -0.6427942659619146 
2.650000000001168, -0.6432167419303907 
2.660000000001189, -0.6442168694841366 
2.67000000000121, -0.6460307542255045 
2.680000000001231, -0.6489270664683328 
2.6900000000012523, -0.6531646264476616 
2.7000000000012734, -0.6589068536387706 
2.7100000000012945, -0.6660910761309209 
2.7200000000013156, -0.674299778617597 
2.7300000000013367, -0.6827527839080836 
2.740000000001358, -0.690528207406848 
2.750000000001379, -0.6969256429530117 
2.7600000000014, -0.7016953134084439 
2.770000000001421, -0.7049815574464006 
2.780000000001442, -0.7071105683902964 
2.7900000000014633, -0.7084136423996281 
2.8000000000014844, -0.7091492321426606 
2.8100000000015055, -0.7094922919947929 
2.8200000000015266, -0.7095485831289443 
2.8300000000015477, -0.7093708462431908 
2.840000000001569, -0.7089687680766685 
2.85000000000159, -0.7083109571124022 
2.860000000001611, -0.7073188083530493 
2.870000000001632, -0.7058530327028227 
2.8800000000016532, -0.7036972355705092 
2.8900000000016743, -0.7005535170625488 
2.9000000000016954, -0.6960839220644435 
2.9100000000017165, -0.6900405834466328 
2.9200000000017377, -0.6824751005247187 
2.9300000000017588, -0.6738875327145635 
2.94000000000178, -0.6651260079678162 
2.950000000001801, -0.6570556774719241 
2.960000000001822, -0.6502555221129345 
2.970000000001843, -0.644932509915429 
2.9800000000018643, -0.6410118767195946 
2.9900000000018854, -0.6382732372514042 
3.0000000000019065, -0.6364546420571552 
3.0100000000019276, -0.6353105792518456 
3.0200000000019487, -0.6346363388001006 
3.03000000000197, -0.6342732277951295 
3.040000000001991, -0.6341044517247185 
3.050000000002012, -0.6340472903711294 
3.060000000002033, -0.6340446501095066 
3.070000000002054, -0.6340576658324865 
3.0800000000020753, -0.6340602323052608 
3.0900000000020964, -0.6340358190391857 
3.1000000000021175, -0.6339763626041109 
3.1100000000021386, -0.6338822277418127 
3.1200000000021597, -0.6337614167605106 
3.130000000002181, -0.6336262591628963 
3.140000000002202, -0.6334874722776094 
3.150000000002223, -0.633347976962064 
3.160000000002244, -0.6332000197913011 
3.1700000000022652, -0.6330276061069575 
3.1800000000022863, -0.6328129497213493 
3.1900000000023074, -0.6325432210416573 
3.2000000000023285, -0.6322143573638155 
3.2100000000023496, -0.6318314469147533 
3.2200000000023707, -0.6314076037874147 
3.230000000002392, -0.6309637355250578 
3.240000000002413, -0.6305307796227654 
3.250000000002434, -0.6301550900532888 
3.260000000002455, -0.6299071640204278 
3.2700000000024763, -0.6298935424278487 
3.2800000000024974, -0.6302709633347825 
3.2900000000025185, -0.6312600653663559 
3.3000000000025396, -0.6331522555996443 
3.3100000000025607, -0.6362967022789304 
3.3200000000025818, -0.6410451144769366 
3.330000000002603, -0.6476276962024051 
3.340000000002624, -0.6559592842836375 
3.350000000002645, -0.6654623567480854 
3.360000000002666, -0.6751005108085048 
3.3700000000026873, -0.6837438763572938 
3.3800000000027084, -0.6906505788377416 
3.3900000000027295, -0.6956670409331329 
3.4000000000027506, -0.6990609764380227 
3.4100000000027717, -0.7012416406310223 
3.420000000002793, -0.702579307253189 
3.430000000002814, -0.7033462328559733 
3.440000000002835, -0.7037210859497354 
3.450000000002856, -0.7038105162300805 
3.460000000002877, -0.7036680065408861 
3.4700000000028983, -0.7033047913952746 
3.4800000000029194, -0.702692602561703 
3.4900000000029405, -0.701759149564124 
3.5000000000029616, -0.7003784252408238 
3.5100000000029827, -0.698362166998744 
3.520000000003004, -0.6954685480676329 
3.530000000003025, -0.6914558230561055 
3.540000000003046, -0.6862006826655079 
3.550000000003067, -0.6798421886091491 
3.5600000000030882, -0.6728330482652134 
3.5700000000031094, -0.6658099620018408 
3.5800000000031305, -0.6593610107310097 
3.5900000000031516, -0.6538601406303739 
3.6000000000031727, -0.6494422122766702 
3.6100000000031938, -0.6460678313365711 
3.620000000003215, -0.6436039439010293 
3.630000000003236, -0.6418836447804053 
3.640000000003257, -0.6407409829522136 
3.650000000003278, -0.6400280435379871 
3.6600000000032993, -0.6396216233109633 
3.6700000000033204, -0.6394241526557962 
3.6800000000033415, -0.6393614931431404 
3.6900000000033626, -0.6393792309179871 
3.7000000000033837, -0.6394386444735549 
3.710000000003405, -0.6395132451490865 
3.720000000003426, -0.6395864376325229 
3.730000000003447, -0.6396502847657661 
3.740000000003468, -0.639704578830659 
3.750000000003489, -0.63975478826093 
3.7600000000035103, -0.6398077391949856 
3.7700000000035314, -0.6398655496488294 
3.7800000000035525, -0.6399204736225863 
3.7900000000035736, -0.6399539992256558 
3.8000000000035947, -0.639941557370508 
3.810000000003616, -0.6398605692476631 
3.820000000003637, -0.639697305928187 
3.830000000003658, -0.6394493778939297 
3.840000000003679, -0.6391242527959936 
3.8500000000037002, -0.6387366378310758 
3.8600000000037213, -0.6383075168148672 
3.8700000000037424, -0.6378664085302034 
3.8800000000037635, -0.6374575180816079 
3.8900000000037847, -0.637150193990594 
3.9000000000038058, -0.6370539547900431 
3.910000000003827, -0.6373375220601984 
3.920000000003848, -0.6382487985257187 
3.930000000003869, -0.6401271459395894 
3.94000000000389, -0.6433891107728469 
3.9500000000039113, -0.6484552514520716 
3.9600000000039324, -0.655582878612688 
3.9700000000039535, -0.6646163829375279 
3.9800000000039746, -0.6747980331846414 
3.9900000000039957, -0.6848933794012189 
4.000000000004016, -0.6936975726075612 
4.010000000003993, -0.7005489237402166 
4.02000000000397, -0.705427052660643 
4.030000000003946, -0.7086894340567534 
4.040000000003923, -0.7107763592241171 
4.0500000000039, -0.71205674303743 
4.0600000000038765, -0.7127921759941638 
4.070000000003853, -0.7131513609263276 
4.08000000000383, -0.7132339029958635 
4.090000000003807, -0.7130886651539269 
4.100000000003783, -0.7127237428331552 
4.11000000000376, -0.7121085481316874 
4.120000000003737, -0.7111692399692965 
4.130000000003713, -0.7097801370552125 
4.14000000000369, -0.7077584253475433 
4.150000000003667, -0.7048788812669757 
4.1600000000036434, -0.7009336015994099 
4.17000000000362, -0.695846639211464 
4.180000000003597, -0.6897938153303635 
4.1900000000035735, -0.6832204831257352 
4.20000000000355, -0.6767040999090379 
4.210000000003527, -0.6707530343839079 
4.220000000003504, -0.6656805605361258 
4.23000000000348, -0.661596066519464 
4.240000000003457, -0.65846304379508 
4.250000000003434, -0.6561655064135471 
4.26000000000341, -0.6545566928080722 
4.270000000003387, -0.6534880977784602 
4.280000000003364, -0.6528247189529173 
4.2900000000033405, -0.6524519720950441 
4.300000000003317, -0.6522776162704734 
4.310000000003294, -0.652230609863996 
4.320000000003271, -0.6522582358945874 
4.330000000003247, -0.6523226385026872 
4.340000000003224, -0.6523977350973476 
4.350000000003201, -0.6524671204535631 
4.360000000003177, -0.6525229613948896 
4.370000000003154, -0.6525650467787222 
4.380000000003131, -0.6525985598997752 
4.390000000003107, -0.6526295872052168 
4.400000000003084, -0.6526591773933708 
4.410000000003061, -0.6526787927267785 
4.4200000000030375, -0.6526702679772045 
4.430000000003014, -0.6526110211619873 
4.440000000002991, -0.6524817623072725 
4.450000000002968, -0.6522723776311747 
4.460000000002944, -0.651983570963915 
4.470000000002921, -0.6516252576417855 
4.480000000002898, -0.651214558240972 
4.490000000002874, -0.6507758454082263 
4.500000000002851, -0.6503440918491363 
4.510000000002828, -0.6499719566834232 
4.520000000002804, -0.6497406951190926 
4.530000000002781, -0.6497745200039431 
4.540000000002758, -0.6502568081864143 
4.5500000000027345, -0.6514438026943782 
4.560000000002711, -0.6536663257775865 
4.570000000002688, -0.6573018989972998 
4.580000000002665, -0.6626911982291567 
4.590000000002641, -0.669977726076625 
4.600000000002618, -0.6788991021769191 
4.610000000002595, -0.6886670630473065 
4.620000000002571, -0.698134823707643 
4.630000000002548, -0.706257335007153 
4.640000000002525, -0.7125058643979664 
4.6500000000025015, -0.7169139472089386 
4.660000000002478, -0.7198325086561178 
4.670000000002455, -0.7216727630589636 
4.6800000000024315, -0.7227742297925184 
4.690000000002408, -0.7233752561632085 
4.700000000002385, -0.7236271251082372 
4.710000000002362, -0.72361580666915 
4.720000000002338, -0.7233780923926603 
4.730000000002315, -0.7229092517856134 
4.740000000002292, -0.7221623420616121 
4.750000000002268, -0.7210399486560133 
4.760000000002245, -0.7193808349807223 
4.770000000002222, -0.7169501039010393 
4.7800000000021985, -0.7134547318748886 
4.790000000002175, -0.7086201307887546 
4.800000000002152, -0.7023462934710618 
4.810000000002129, -0.6948774022446863 
4.820000000002105, -0.6868277658516748 
4.830000000002082, -0.6789809332040498 
4.840000000002059, -0.6719987360668075 
4.850000000002035, -0.6662495010584234 
4.860000000002012, -0.6618121232792038 
4.870000000001989, -0.6585731203327025 
4.880000000001965, -0.6563283517482957 
4.890000000001942, -0.6548532123348891 
4.900000000001919, -0.6539409188259728 
4.9100000000018955, -0.6534189729442396 
4.920000000001872, -0.6531528354080411 
