t, s[1].omega / s[0].omega 
0, -0.9999980931922301 
0.009999999999999995, -0.9997268161838399 
0.019999999999999934, -0.9992903875647297 
0.029999999999999874, -0.9986900405352913 
0.04000000000000012, -0.9979655123579956 
0.050000000000000405, -0.997209817995977 
0.06000000000000069, -0.9965546235484483 
0.07000000000000098, -0.9961244961812576 
0.08000000000000126, -0.9959864719504693 
0.09000000000000155, -0.9961276390184661 
0.10000000000000184, -0.9964594812493827 
0.11000000000000212, -0.9968502697937869 
0.12000000000000241, -0.9971778916927277 
0.130000000000002, -0.9973667604752186 
0.1400000000000009, -0.9973922135314501 
0.1499999999999998, -0.9972578924710143 
0.1599999999999987, -0.99696444669057 
0.1699999999999976, -0.9965030771781226 
0.1799999999999965, -0.9958820758551572 
0.1899999999999954, -0.9951558980375109 
0.1999999999999943, -0.9944320252039408 
0.2099999999999932, -0.9938470168032965 
0.2199999999999921, -0.9935145759446053 
0.229999999999991, -0.9934799369778687 
0.2399999999999899, -0.9937070895880491 
0.2499999999999888, -0.9940920611938059 
0.2599999999999877, -0.9945027697329251 
0.2699999999999866, -0.9948295901898145 
0.2799999999999855, -0.9950129113330292 
0.2899999999999844, -0.9950383549275448 
0.2999999999999833, -0.994908346771821 
0.3099999999999822, -0.9946155942726757 
0.3199999999999811, -0.9941493730837347 
0.32999999999998, -0.993527482823697 
0.3399999999999789, -0.9928199444479309 
0.3499999999999778, -0.9921477261107562 
0.35999999999997667, -0.9916498720873204 
0.36999999999997557, -0.9914269670262195 
0.37999999999997447, -0.9915019617771468 
0.38999999999997337, -0.9918178794168473 
0.39999999999997227, -0.992260233663254 
0.40999999999997117, -0.9927012547265072 
0.41999999999997006, -0.993045260870683 
0.42999999999996896, -0.9932467111760689 
0.43999999999996786, -0.9932966291765514 
0.44999999999996676, -0.9931911197966722 
0.45999999999996566, -0.9929139393923581 
0.46999999999996456, -0.992455358962019 
0.47999999999996346, -0.9918454582183878 
0.48999999999996235, -0.9911705738816393 
0.49999999999996125, -0.9905642985635134 
0.5099999999999602, -0.9901660521669104 
0.519999999999959, -0.9900613180752362 
0.529999999999958, -0.990250579801305 
0.5399999999999568, -0.9906583397777462 
0.5499999999999557, -0.9911638305825461 
0.5599999999999546, -0.99164660722153 
0.5699999999999535, -0.9920249686239396 
0.5799999999999524, -0.9922643395856554 
0.5899999999999513, -0.9923557544889836 
0.5999999999999502, -0.9922852369163034 
0.6099999999999491, -0.992028928824016 
0.619999999999948, -0.9915822856239889 
0.6299999999999469, -0.9909903924451868 
0.6399999999999458, -0.9903564843444589 
0.6499999999999447, -0.9898259215654143 
0.6599999999999436, -0.9895362678094686 
0.6699999999999425, -0.9895557729183743 
0.6799999999999414, -0.9898623586046593 
0.6899999999999403, -0.9903643724889912 
0.6999999999999392, -0.9909380559597166 
0.7099999999999381, -0.9914720155831104 
0.719999999999937, -0.9918975060553055 
0.7299999999999359, -0.9921869662353701 
0.7399999999999348, -0.9923263970745066 
0.7499999999999337, -0.9922901570805142 
0.7599999999999326, -0.9920504636837848 
0.7699999999999315, -0.9916127899905901 
0.7799999999999304, -0.9910394999361908 
0.7899999999999293, -0.9904510334745482 
0.7999999999999282, -0.9900032857849075 
0.8099999999999271, -0.9898289084075805 
0.819999999999926, -0.9899762008083426 
0.8299999999999249, -0.9904004501803575 
0.8399999999999238, -0.9909961374889271 
0.8499999999999227, -0.9916391485359967 
0.8599999999999216, -0.9922280659814243 
0.8699999999999205, -0.9927053384051028 
0.8799999999999194, -0.993046157071094 
0.8899999999999183, -0.9932277121676687 
0.8999999999999172, -0.9932138370407934 
0.9099999999999161, -0.992978413338039 
0.919999999999915, -0.9925415544141115 
0.9299999999999139, -0.99198439327673 
0.9399999999999128, -0.9914444359760559 
0.9499999999999117, -0.9910858118972851 
0.9599999999999106, -0.9910315645116975 
0.9699999999999095, -0.9913065930612327 
0.9799999999999084, -0.9918438071371071 
0.9899999999999073, -0.9925264008291391 
0.9999999999999062, -0.9932323670726205 
1.0099999999999052, -0.9938707987009296 
1.019999999999904, -0.9943931731319494 
1.029999999999903, -0.9947735372066818 
1.039999999999902, -0.9949786112311947 
1.0499999999999008, -0.9949656732423918 
1.0599999999998997, -0.9947167671141515 
1.0699999999998986, -0.9942701574663263 
1.0799999999998975, -0.9937263229594404 
1.0899999999998964, -0.9932389289807235 
1.0999999999998953, -0.9929759857684944 
1.1099999999998942, -0.9930440600955472 
1.119999999999893, -0.9934409982888477 
1.129999999999892, -0.9940786188521213 
1.1399999999998909, -0.9948321562491022 
1.1499999999998898, -0.995584368265258 
1.1599999999998887, -0.9962552532160587 
1.1699999999998876, -0.9968030986586924 
1.1799999999998865, -0.997198000592313 
1.1899999999998854, -0.9973972492603339 
1.1999999999998843, -0.9973577797635299 
1.2099999999998832, -0.9970757869442072 
1.219999999999882, -0.9966095020984493 
1.229999999999881, -0.9960785061145633 
1.2399999999998799, -0.9956502853244258 
1.2499999999998788, -0.9954892944680653 
1.2599999999998777, -0.9956770101053005 
1.2699999999998766, -0.9961817887579988 
1.2799999999998755, -0.9968974201168317 
1.2899999999998744, -0.9976954095265963 
1.2999999999998733, -0.9984661802688046 
1.3099999999998722, -0.9991409543413102 
1.319999999999871, -0.9996828949777844 
1.32999999999987, -1.000057039195335 
1.3399999999998689, -1.0002149658809594 
1.3499999999998678, -1.0001203393691123 
1.3599999999998666, -0.9997876457644884 
1.3699999999998655, -0.9992952825363559 
1.3799999999998644, -0.9987809351326796 
1.3899999999998633, -0.998421014583569 
1.3999999999998622, -0.998365566574106 
1.4099999999998611, -0.9986626624942815 
1.41999999999986, -0.9992517695129621 
1.429999999999859, -1.00001359440239 
1.4399999999998578, -1.0008206530462527 
1.4499999999998567, -1.0015738919607973 
1.4599999999998556, -1.0022159126426429 
1.4699999999998545, -1.0027133709308407 
1.4799999999998534, -1.0030270684206664 
1.4899999999998523, -1.0031084129784928 
1.4999999999998512, -1.0029339739179328 
1.5099999999998501, -1.002538285604511 
1.519999999999849, -1.0020191579652653 
1.529999999999848, -1.0015301739712672 
1.5399999999998468, -1.0012480217375652 
1.5499999999998457, -1.0012956071171055 
1.5599999999998446, -1.0016829334500759 
1.5699999999998435, -1.0023250241519979 
1.5799999999998424, -1.0030953281297277 
1.5899999999998413, -1.003871871840138 
1.5999999999998402, -1.004568528551766 
1.6099999999998391, -1.005139145356032 
1.619999999999838, -1.0055531581205572 
1.629999999999837, -1.0057695597539429 
1.6399999999998358, -1.005745479686974 
1.6499999999998347, -1.0054744162164666 
1.6599999999998336, -1.0050108929686736 
1.6699999999998325, -1.0044709846610462 
1.6799999999998314, -1.004019554121958 
1.6899999999998303, -1.0038211928982166 
1.6999999999998292, -1.0039609914655305 
1.709999999999828, -1.0044124193188906 
1.719999999999827, -1.0050728474809343 
1.729999999999826, -1.0058136201829997 
1.7399999999998248, -1.006522009458403 
1.7499999999998237, -1.0071264785539635 
1.7599999999998226, -1.0075916175117605 
1.7699999999998215, -1.0078895237700627 
1.7799999999998204, -1.0079806195060268 
1.7899999999998193, -1.0078326188183693 
1.7999999999998182, -1.0074577055196061 
1.809999999999817, -1.00692961951403 
1.819999999999816, -1.006380824341877 
1.8299999999998149, -1.0059792710226905 
1.8399999999998138, -1.0058640457712174 
1.8499999999998127, -1.0060782592963198 
1.8599999999998116, -1.0065656092633615 
1.8699999999998105, -1.0072119257051397 
1.8799999999998094, -1.0078902295622567 
1.8899999999998083, -1.0085000193885312 
1.8999999999998072, -1.0089851667818994 
1.909999999999806, -1.00932011863819 
1.919999999999805, -1.009479874218606 
1.9299999999998039, -1.0094294618673985 
1.9399999999998028, -1.009150375056526 
1.9499999999998017, -1.0086737951856821 
1.9599999999998006, -1.0080918068290516 
1.9699999999997995, -1.0075494721999425 
1.9799999999997984, -1.0072066364775725 
1.9899999999997973, -1.0071672424510103 
1.9999999999997962, -1.0074359118230114 
2.0099999999998173, -1.007934190554806 
2.0199999999998384, -1.0085400477942734 
2.0299999999998595, -1.0091313080470998 
2.0399999999998806, -1.0096221073411582 
2.0499999999999017, -1.0099716763606263 
2.059999999999923, -1.0101630661127268 
2.069999999999944, -1.010174497884166 
2.079999999999965, -1.0099781615344303 
2.089999999999986, -1.0095710525231272 
2.100000000000007, -1.009003145568607 
2.1100000000000283, -1.008383509599051 
2.1200000000000494, -1.007863295127161 
2.1300000000000705, -1.0075831690242776 
2.1400000000000916, -1.0076094596885177 
2.1500000000001127, -1.0079156207418531 
2.160000000000134, -1.0084057122151628 
2.170000000000155, -1.008952219845579 
2.180000000000176, -1.009441240133491 
2.190000000000197, -1.0098032773416996 
2.2000000000002182, -1.0100120137531248 
2.2100000000002393, -1.01005750162404 
2.2200000000002604, -1.0099213882322862 
2.2300000000002815, -1.0095848449169544 
2.2400000000003026, -1.0090612135635124 
2.2500000000003237, -1.0084188802244474 
2.260000000000345, -1.007781173716828 
2.270000000000366, -1.0072970081064856 
2.280000000000387, -1.0070806986239318 
2.290000000000408, -1.0071644137585527 
2.3000000000004293, -1.0074962734466575 
2.3100000000004504, -1.0079647868106598 
2.3200000000004715, -1.0084403199556347 
2.3300000000004926, -1.008821011113531 
2.3400000000005137, -1.009054471077554 
2.3500000000005348, -1.0091271113919704 
2.360000000000556, -1.0090340416040395 
2.370000000000577, -1.0087603813610129 
2.380000000000598, -1.008297563953052 
2.390000000000619, -1.0076757200631163 
2.4000000000006403, -1.0069808119248687 
2.4100000000006614, -1.0063460280066754 
2.4200000000006825, -1.005910234843416 
2.4300000000007036, -1.00575935371837 
2.4400000000007247, -1.005896228779934 
2.450000000000746, -1.006246142948801 
2.460000000000767, -1.0066843582131628 
2.470000000000788, -1.0070842106218696 
2.480000000000809, -1.0073590364125138 
2.49000000000083, -1.0074731373811592 
2.5000000000008513, -1.007423143132682 
2.5100000000008724, -1.0072069798984553 
2.5200000000008935, -1.0068132467632707 
2.5300000000009146, -1.0062446524752955 
2.5400000000009357, -1.0055482979916777 
2.550000000000957, -1.0048260499637707 
2.560000000000978, -1.004215579672902 
2.570000000000999, -1.003840264697848 
2.58000000000102, -1.003758693353623 
2.5900000000010412, -1.0039473157847025 
2.6000000000010624, -1.004310021182154 
2.6100000000010835, -1.004713629895463 
2.6200000000011046, -1.0050400283381407 
2.6300000000011257, -1.0052195431793178 
2.6400000000011468, -1.0052316104802568 
2.650000000001168, -1.0050797645406917 
2.660000000001189, -1.0047623862101887 
2.67000000000121, -1.00427175138127 
2.680000000001231, -1.0036227792022583 
2.6900000000012523, -1.0028793832352276 
2.7000000000012734, -1.0021567958780537 
2.7100000000012945, -1.001591928117331 
2.7200000000013156, -1.0012896707599415 
2.7300000000013367, -1.001282702016166 
2.740000000001358, -1.0015224148400668 
2.750000000001379, -1.0018945966467316 
2.7600000000014, -1.0022643218574525 
2.770000000001421, -1.0025264994662573 
2.780000000001442, -1.0026287224835893 
2.7900000000014633, -1.0025628395759354 
2.8000000000014844, -1.002335259997648 
2.8100000000015055, -1.0019427145119928 
2.8200000000015266, -1.0013817994370255 
2.8300000000015477, -1.0006805696687762 
2.840000000001569, -0.9999191867801013 
2.85000000000159, -0.9992231930484274 
2.860000000001611, -0.9987243206258787 
2.870000000001632, -0.9985073470687151 
2.8800000000016532, -0.9985798216729868 
2.8900000000016743, -0.9988699503129262 
2.9000000000016954, -0.9992511636154894 
2.9100000000017165, -0.9995933736441368 
2.9200000000017377, -0.9998071477831032 
2.9300000000017588, -0.9998561998854449 
2.94000000000178, -0.9997408473041753 
2.950000000001801, -0.999466019578579 
2.960000000001822, -0.999025482977568 
2.970000000001843, -0.9984214283151646 
2.9800000000018643, -0.997695956237949 
2.9900000000018854, -0.9969445756566714 
3.0000000000019065, -0.9963000273985647 
3.0100000000019276, -0.9958853671442327 
3.0200000000019487, -0.9957641469592269 
3.03000000000197, -0.9959195562929862 
3.040000000001991, -0.9962602119253003 
3.050000000002012, -0.9966539366366547 
3.060000000002033, -0.9969804690774574 
3.070000000002054, -0.997166881180174 
3.0800000000020753, -0.9971904557196738 
3.0900000000020964, -0.997054989062616 
3.1000000000021175, -0.9967599885641976 
3.1100000000021386, -0.9962962394858248 
3.1200000000021597, -0.9956734693988859 
3.130000000002181, -0.9949486921964045 
3.140000000002202, -0.9942317121579086 
3.150000000002223, -0.9936596444218606 
3.160000000002244, -0.9933441211355791 
3.1700000000022652, -0.9933266823417323 
3.1800000000022863, -0.9935676546842185 
3.1900000000023074, -0.9939609104404444 
3.2000000000023285, -0.9943747043462412 
3.2100000000023496, -0.9947015997133698 
3.2200000000023707, -0.9948844670706586 
3.230000000002392, -0.9949102347486525 
3.240000000002413, -0.9947807488229399 
3.250000000002434, -0.9944874358518974 
3.260000000002455, -0.9940196650586951 
3.2700000000024763, -0.9933971794553826 
3.2800000000024974, -0.9926927035730517 
3.2900000000025185, -0.9920293229086365 
3.3000000000025396, -0.9915461127084739 
3.3100000000025607, -0.9913410665963476 
3.3200000000025818, -0.9914333049151671 
3.330000000002603, -0.9917625228010281 
3.340000000002624, -0.9922127628878751 
3.350000000002645, -0.9926571677812079 
3.360000000002666, -0.9930023731231604 
3.3700000000026873, -0.9932049664225084 
3.3800000000027084, -0.9932565390202079 
3.3900000000027295, -0.9931520493231911 
3.4000000000027506, -0.9928741752231063 
3.4100000000027717, -0.9924139735918562 
3.420000000002793, -0.9918039419994853 
3.430000000002814, -0.9911332043891333 
3.440000000002835, -0.9905372233324171 
3.450000000002856, -0.9901548812207632 
3.460000000002877, -0.9900685501241945 
3.4700000000028983, -0.9902748069783482 
3.4800000000029194, -0.9906952138127928 
3.4900000000029405, -0.991208135944482 
3.5000000000029616, -0.9916944421679624 
3.5100000000029827, -0.9920747185062591 
3.520000000003004, -0.9923160229451096 
3.530000000003025, -0.9924092268835377 
3.540000000003046, -0.9923389293488218 
3.550000000003067, -0.9920807380618897 
3.5600000000030882, -0.991631672280466 
3.5700000000031094, -0.991039614891605 
3.5800000000031305, -0.9904106013289464 
3.5900000000031516, -0.9898915369461008 
3.6000000000031727, -0.9896187681748798 
3.6100000000031938, -0.9896568763414338 
3.620000000003215, -0.9899798577859397 
3.630000000003236, -0.9904935463878943 
3.640000000003257, -0.9910738542295457 
3.650000000003278, -0.9916109839648315 
3.6600000000032993, -0.9920383236432314 
3.6700000000033204, -0.9923293652244658 
3.6800000000033415, -0.9924693466621018 
3.6900000000033626, -0.9924312943278273 
3.7000000000033837, -0.9921877144949869 
3.710000000003405, -0.991746383064794 
3.720000000003426, -0.9911727022525028 
3.730000000003447, -0.9905898438450286 
3.740000000003468, -0.9901547756404839 
3.750000000003489, -0.989998062844428 
3.7600000000035103, -0.9901637410313079 
3.7700000000035314, -0.9906032460212397 
3.7800000000035525, -0.9912090366785546 
3.7900000000035736, -0.9918571833198289 
3.8000000000035947, -0.992448071713801 
3.810000000003616, -0.9929260372329523 
3.820000000003637, -0.9932667370227616 
3.830000000003658, -0.9934462468796597 
3.840000000003679, -0.9934275558779913 
3.8500000000037002, -0.9931858043486406 
3.8600000000037213, -0.9927439802844352 
3.8700000000037424, -0.9921863435388389 
3.8800000000037635, -0.9916529560625158 
3.8900000000037847, -0.9913082944139703 
3.9000000000038058, -0.9912722112573773 
3.910000000003827, -0.9915647843634957 
3.920000000003848, -0.9921153165248001 
3.930000000003869, -0.9928055735084897 
3.94000000000389, -0.9935142531392588 
3.9500000000039113, -0.9941524038226932 
3.9600000000039324, -0.9946730817135496 
3.9700000000039535, -0.9950502956455214 
3.9800000000039746, -0.9952496395478634 
3.9900000000039957, -0.995228370821408 
4.000000000004016, -0.9949707173604747 
4.010000000003993, -0.9945181361944959 
4.02000000000397, -0.9939741932427222 
4.030000000003946, -0.9934947615649135 
4.040000000003923, -0.9932471017052524 
4.0500000000039, -0.99333330821938 
4.0600000000038765, -0.9937460629509848 
4.070000000003853, -0.9943940763627921 
4.08000000000383, -0.995151856817622 
4.090000000003807, -0.9959033890355902 
4.100000000003783, -0.996570721741224 
4.11000000000376, -0.9971133861801783 
4.120000000003737, -0.997501107628509 
4.130000000003713, -0.997690404440362 
4.14000000000369, -0.9976391863414098 
4.150000000003667, -0.9973465185195328 
4.1600000000036434, -0.9968738904414892 
4.17000000000362, -0.996343833880736 
4.180000000003597, -0.995925394938682 
4.1900000000035735, -0.9957807539611603 
4.20000000000355, -0.9959856990985935 
4.210000000003527, -0.9965035233767633 
4.220000000003504, -0.9972256735587346 
4.23000000000348, -0.9980236850748134 
4.240000000003457, -0.9987896896336093 
4.250000000003434, -0.9994569789290668 
4.26000000000341, -0.9999896343277284 
4.270000000003387, -1.0003522185399432 
4.280000000003364, -1.0004961861139847 
4.2900000000033405, -1.000387109594791 
4.300000000003317, -1.0000426891691891 
4.310000000003294, -0.9995444874569958 
4.320000000003271, -0.9990328811884105 
4.330000000003247, -0.9986847296075193 
4.340000000003224, -0.9986459951086513 
4.350000000003201, -0.9989583275860023 
4.360000000003177, -0.9995567989525203 
4.370000000003154, -1.0003206803884952 
4.380000000003131, -1.001123230428636 
4.390000000003107, -1.0018674895368676 
4.400000000003084, -1.002498055743152 
4.410000000003061, -1.0029822193101003 
4.4200000000030375, -1.0032804322944895 
4.430000000003014, -1.0033447516742593 
4.440000000002991, -1.0031543275758028 
4.450000000002968, -1.0027469572127212 
4.460000000002944, -1.002223469802112 
4.470000000002921, -1.0017396200028457 
4.480000000002898, -1.0014709020224155 
4.490000000002874, -1.0015344950631482 
4.500000000002851, -1.001934108256583 
4.510000000002828, -1.0025814424772088 
4.520000000002804, -1.0033493490514318 
4.530000000002781, -1.0041171931368766 
4.540000000002758, -1.004801194131931 
4.5500000000027345, -1.005357027032551 
4.560000000002711, -1.0057545395205445 
4.570000000002688, -1.0059526637064995 
4.580000000002665, -1.0059098882187707 
4.590000000002641, -1.0056226405706525 
4.600000000002618, -1.0051486129108103 
4.610000000002595, -1.0046067023718608 
4.620000000002571, -1.0041629722714003 
4.630000000002548, -1.0039788831351826 
4.640000000002525, -1.004132935875013 
4.6500000000025015, -1.0045932711691063 
4.660000000002478, -1.0052550030236873 
4.670000000002455, -1.005989521984713 
4.6800000000024315, -1.0066859175284355 
4.690000000002408, -1.00727510680684 
4.700000000002385, -1.0077232556515707 
4.710000000002362, -1.008002713233264 
4.720000000002338, -1.0080741976223833 
4.730000000002315, -1.007907308998004 
4.740000000002292, -1.0075172663019762 
4.750000000002268, -1.006980864394385 
4.760000000002245, -1.0064329978978468 
4.770000000002222, -1.0060413512267001 
4.7800000000021985, -1.0059402309052656 
4.790000000002175, -1.0061663959553788 
4.800000000002152, -1.0066594861402725 
4.810000000002129, -1.007303812586527 
4.820000000002105, -1.0079729661150532 
4.830000000002082, -1.008568655063544 
4.840000000002059, -1.009037169024264 
4.850000000002035, -1.0093542146865795 
4.860000000002012, -1.0094949340668442 
4.870000000001989, -1.0094249962282036 
4.880000000001965, -1.009128112706802 
4.890000000001942, -1.0086384978855512 
4.900000000001919, -1.0080511505114402 
4.9100000000018955, -1.0075128072099662 
4.920000000001872, -1.0071813757832149 
4.930000000001849, -1.0071552416606269 
