t, s[1].omega / s[0].omega 
0, -1.8799888549829635 
0.009999999999999995, -1.878512677551949 
0.019999999999999934, -1.876169583562254 
0.029999999999999874, -1.8727161480244316 
0.04000000000000012, -1.8681431523264416 
0.050000000000000405, -1.8633787800145882 
0.06000000000000069, -1.8603995775374447 
0.07000000000000098, -1.8599545859020203 
0.08000000000000126, -1.860622333320105 
0.09000000000000155, -1.8611501842665337 
0.10000000000000184, -1.8612214194705181 
0.11000000000000212, -1.860846858581286 
0.12000000000000241, -1.8600429550581576 
0.130000000000002, -1.8589138782043073 
0.1400000000000009, -1.858089220964868 
0.1499999999999998, -1.858872419341979 
0.1599999999999987, -1.8616939023557328 
0.1699999999999976, -1.8652043015950137 
0.1799999999999965, -1.8681049730859698 
0.1899999999999954, -1.870047706789779 
0.1999999999999943, -1.8711420893624304 
0.2099999999999932, -1.8715584246027361 
0.2199999999999921, -1.871415230751989 
0.229999999999991, -1.8707675884281816 
0.2399999999999899, -1.8696175508285844 
0.2499999999999888, -1.867937171472002 
0.2599999999999877, -1.865734175660594 
0.2699999999999866, -1.8632346097099632 
0.2799999999999855, -1.8611031466503445 
0.2899999999999844, -1.860063517910906 
0.2999999999999833, -1.8599917886365702 
0.3099999999999822, -1.8601712641398944 
0.3199999999999811, -1.8601346044265348 
0.32999999999998, -1.8597110960219616 
0.3399999999999789, -1.8587636979337145 
0.3499999999999778, -1.8571031710097334 
0.35999999999997667, -1.8548860450224207 
0.36999999999997557, -1.853907620464804 
0.37999999999997447, -1.8573333715111868 
0.38999999999997337, -1.8646210705456068 
0.39999999999997227, -1.8717543219575887 
0.40999999999997117, -1.8767115282134958 
0.41999999999997006, -1.8796283379875507 
0.42999999999996896, -1.8811243685719083 
0.43999999999996786, -1.8816862915622448 
0.44999999999996676, -1.8816132489312536 
0.45999999999996566, -1.8810735743519498 
0.46999999999996456, -1.8801647861881867 
0.47999999999996346, -1.8789655633927822 
0.48999999999996235, -1.8775927471969909 
0.49999999999996125, -1.8762899347096713 
0.5099999999999602, -1.8754156311001993 
0.519999999999959, -1.8751036274011543 
0.529999999999958, -1.875066920043152 
0.5399999999999568, -1.8749355365126767 
0.5499999999999557, -1.8744684681970494 
0.5599999999999546, -1.8734229717103545 
0.5699999999999535, -1.8713539336096676 
0.5799999999999524, -1.8676249030381722 
0.5899999999999513, -1.8627432809630187 
0.5999999999999502, -1.8619394527694866 
0.6099999999999491, -1.8711135601740103 
0.619999999999948, -1.884644197804067 
0.6299999999999469, -1.8948133282937807 
0.6399999999999458, -1.900572561048668 
0.6499999999999447, -1.903420638648092 
0.6599999999999436, -1.9046281355752719 
0.6699999999999425, -1.9049168005923924 
0.6799999999999414, -1.904658598746823 
0.6899999999999403, -1.9040557185241807 
0.6999999999999392, -1.9032517610275153 
0.7099999999999381, -1.9023775473913478 
0.719999999999937, -1.9015707601288843 
0.7299999999999359, -1.9009969189777371 
0.7399999999999348, -1.90073788940223 
0.7499999999999337, -1.9006433069108666 
0.7599999999999326, -1.9004480442502871 
0.7699999999999315, -1.899913205420209 
0.7799999999999304, -1.898735313680484 
0.7899999999999293, -1.8962971549251226 
0.7999999999999282, -1.8913812977053754 
0.8099999999999271, -1.882805463966561 
0.819999999999926, -1.8744107320341967 
0.8299999999999249, -1.878305841949405 
0.8399999999999238, -1.894004648126571 
0.8499999999999227, -1.907806872642314 
0.8599999999999216, -1.915480494672814 
0.8699999999999205, -1.9190411472607838 
0.8799999999999194, -1.9204793192475869 
0.8899999999999183, -1.9208511505020767 
0.8999999999999172, -1.9206528578158195 
0.9099999999999161, -1.9201398340831783 
0.919999999999915, -1.919498005171866 
0.9299999999999139, -1.9188844311740296 
0.9399999999999128, -1.9183969059373165 
0.9499999999999117, -1.9180914332042982 
0.9599999999999106, -1.9179657914882688 
0.9699999999999095, -1.9178866747529792 
0.9799999999999084, -1.9176438284622108 
0.9899999999999073, -1.917010778579407 
0.9999999999999062, -1.9156381099218738 
1.0099999999999052, -1.912778856788977 
1.019999999999904, -1.9068660724926243 
1.029999999999903, -1.8956911885565682 
1.039999999999902, -1.8810983560023427 
1.0499999999999008, -1.8765790531112891 
1.0599999999998997, -1.887893889069008 
1.0699999999998986, -1.9007719924408992 
1.0799999999998975, -1.9081784862389444 
1.0899999999998964, -1.9115267813853258 
1.0999999999998953, -1.9128120376061393 
1.1099999999998942, -1.913094315515926 
1.119999999999893, -1.9128573069161203 
1.129999999999892, -1.9123591940221754 
1.1399999999998909, -1.911816893844291 
1.1499999999998898, -1.9114142651099555 
1.1599999999998887, -1.9112095595607197 
1.1699999999998876, -1.911159881767102 
1.1799999999998865, -1.9111882692543272 
1.1899999999998854, -1.9111642535371502 
1.1999999999998843, -1.9109167520835004 
1.2099999999998832, -1.9102413818289226 
1.219999999999882, -1.9087973984937228 
1.229999999999881, -1.905876782122062 
1.2399999999998799, -1.9000385296245628 
1.2499999999998788, -1.8890217477446825 
1.2599999999998777, -1.8725000432654266 
1.2699999999998766, -1.8596348125430109 
1.2799999999998755, -1.8611726371415611 
1.2899999999998744, -1.8695294091264454 
1.2999999999998733, -1.8755782657414737 
1.3099999999998722, -1.8785054152859941 
1.319999999999871, -1.8796349178214338 
1.32999999999987, -1.8798533343772224 
1.3399999999998689, -1.8795878014918599 
1.3499999999998678, -1.879083765561111 
1.3599999999998666, -1.8785963030999735 
1.3699999999998655, -1.8783850852783637 
1.3799999999998644, -1.8785122008433786 
1.3899999999998633, -1.8788202423246911 
1.3999999999998622, -1.8791304969053897 
1.4099999999998611, -1.879308195417425 
1.41999999999986, -1.8792300058743912 
1.429999999999859, -1.8787574693953482 
1.4399999999998578, -1.8776798672585584 
1.4499999999998567, -1.8756103523772931 
1.4599999999998556, -1.871841982776918 
1.4699999999998545, -1.8652515252823598 
1.4799999999998534, -1.8548285847019983 
1.4899999999998523, -1.84228597600737 
1.4999999999998512, -1.834358974441694 
1.5099999999998501, -1.834515050275528 
1.519999999999849, -1.8377156365738976 
1.529999999999848, -1.8400621262755987 
1.5399999999998468, -1.8411393500907205 
1.5499999999998457, -1.8413899981426027 
1.5599999999998446, -1.841138409885581 
1.5699999999998435, -1.840577867927729 
1.5799999999998424, -1.839957998069221 
1.5899999999998413, -1.8397180901025554 
1.5999999999998402, -1.8402077727557642 
1.6099999999998391, -1.8412410705302693 
1.619999999999838, -1.8423418901015185 
1.629999999999837, -1.843200737779726 
1.6399999999998358, -1.8437019972816941 
1.6499999999998347, -1.8438000892546031 
1.6599999999998336, -1.8434469394955055 
1.6699999999998325, -1.8425524420344614 
1.6799999999998314, -1.8409542147021234 
1.6899999999998303, -1.838396715540941 
1.6999999999998292, -1.8345635321153153 
1.709999999999828, -1.829344364674268 
1.719999999999827, -1.8236087376335846 
1.729999999999826, -1.8196146210795807 
1.7399999999998248, -1.8186880484576915 
1.7499999999998237, -1.8194250495827635 
1.7599999999998226, -1.8201836041574222 
1.7699999999998215, -1.8204628752368752 
1.7799999999998204, -1.8202719601254533 
1.7899999999998193, -1.8196590079261643 
1.7999999999998182, -1.8186782204626268 
1.809999999999817, -1.817674536595078 
1.819999999999816, -1.817655141626902 
1.8299999999998149, -1.8195717241299458 
1.8399999999998138, -1.8228172844112733 
1.8499999999998127, -1.8259812385052996 
1.8599999999998116, -1.8283403860469254 
1.8699999999998105, -1.8298320645907702 
1.8799999999998094, -1.8305950810274774 
1.8899999999998083, -1.8307634101396466 
1.8999999999998072, -1.8304203174229952 
1.909999999999806, -1.8295985124942689 
1.919999999999805, -1.8282931237016378 
1.9299999999998039, -1.8264920896374768 
1.9399999999998028, -1.824261008101883 
1.9499999999998017, -1.8219306101890063 
1.9599999999998006, -1.8201811543465944 
1.9699999999997995, -1.8194860743320795 
1.9799999999997984, -1.8195118161151758 
1.9899999999997973, -1.819629095594858 
1.9999999999997962, -1.8194901126373064 
2.0099999999998173, -1.8189442944468843 
2.0199999999998384, -1.8178155522267065 
2.0299999999998595, -1.815852244523334 
2.0399999999998806, -1.8132063313070792 
2.0499999999999017, -1.8119849404288186 
2.059999999999923, -1.8160313562400816 
2.069999999999944, -1.8248344437299164 
2.079999999999965, -1.8335168763428125 
2.089999999999986, -1.839539268822352 
2.100000000000007, -1.8430676411999634 
2.1100000000000283, -1.8448953080705555 
2.1200000000000494, -1.845647263386298 
2.1300000000000705, -1.845708300559476 
2.1400000000000916, -1.8452983793500402 
2.1500000000001127, -1.8445502549645654 
2.160000000000134, -1.8435688346170516 
2.170000000000155, -1.8424706817777665 
2.180000000000176, -1.8414278293280588 
2.190000000000197, -1.8406789453657886 
2.2000000000002182, -1.8403482218400282 
2.2100000000002393, -1.8402635669101077 
2.2200000000002604, -1.8401245173424385 
2.2300000000002815, -1.8396913226986211 
2.2400000000003026, -1.8387143085400723 
2.2500000000003237, -1.8367253034342153 
2.260000000000345, -1.8328160165348102 
2.270000000000366, -1.8260105224147467 
2.280000000000387, -1.818612141459336 
2.290000000000408, -1.8202817290535802 
2.3000000000004293, -1.834412605793784 
2.3100000000004504, -1.8496006403085077 
2.3200000000004715, -1.859167998005142 
2.3300000000004926, -1.8640083007963562 
2.3400000000005137, -1.8661772700769987 
2.3500000000005348, -1.8669616769599504 
2.360000000000556, -1.8670082984327236 
2.370000000000577, -1.8666374215318484 
2.380000000000598, -1.8660455178252424 
2.390000000000619, -1.8653999879784926 
2.4000000000006403, -1.8648326912025113 
2.4100000000006614, -1.8644191387389122 
2.4200000000006825, -1.8641970422448229 
2.4300000000007036, -1.8641197630189663 
2.4400000000007247, -1.8640242919547774 
2.450000000000746, -1.863708217286355 
2.460000000000767, -1.862944319785429 
2.470000000000788, -1.861344605202157 
2.480000000000809, -1.8580835969699965 
2.49000000000083, -1.851506800538336 
2.5000000000008513, -1.8394110447383543 
2.5100000000008724, -1.823501620666613 
2.5200000000008935, -1.8162553632262484 
2.5300000000009146, -1.8244996431316653 
2.5400000000009357, -1.8361032423524708 
2.550000000000957, -1.8433241822690714 
2.560000000000978, -1.8467314693708405 
2.570000000000999, -1.848090835081629 
2.58000000000102, -1.848433100500354 
2.5900000000010412, -1.8482432134113462 
2.6000000000010624, -1.8477782299147119 
2.6100000000010835, -1.847262604861213 
2.6200000000011046, -1.8469225130564433 
2.6300000000011257, -1.8468549716017413 
2.6400000000011468, -1.846981713274337 
2.650000000001168, -1.8471740350665538 
2.660000000001189, -1.8473077548388186 
2.67000000000121, -1.847249534825739 
2.680000000001231, -1.8468527961715786 
2.6900000000012523, -1.8459147341986877 
2.7000000000012734, -1.844072636346492 
2.7100000000012945, -1.8406460892502476 
2.7200000000013156, -1.8344755109763944 
2.7300000000013367, -1.8241864302979782 
2.740000000001358, -1.810358485287102 
2.750000000001379, -1.7992694888082323 
2.7600000000014, -1.7973625899847776 
2.770000000001421, -1.800902016255506 
2.780000000001442, -1.8041948578398792 
2.7900000000014633, -1.8059373982249096 
2.8000000000014844, -1.8065760746476243 
2.8100000000015055, -1.80656679856938 
2.8200000000015266, -1.8061606466322755 
2.8300000000015477, -1.805550075101048 
2.840000000001569, -1.8050544173935403 
2.85000000000159, -1.8051045385843376 
2.860000000001611, -1.805834118659984 
2.870000000001632, -1.8069017939905823 
2.8800000000016532, -1.8079011835898424 
2.8900000000016743, -1.808621057344767 
2.9000000000016954, -1.8089812006805226 
2.9100000000017165, -1.808937846924024 
2.9200000000017377, -1.8084337190961317 
2.9300000000017588, -1.8073667436931824 
2.94000000000178, -1.8055666766335936 
2.950000000001801, -1.8027872191055518 
2.960000000001822, -1.7987722410859484 
2.970000000001843, -1.793583711162281 
2.9800000000018643, -1.7883173634536054 
2.9900000000018854, -1.7850493306619584 
3.0000000000019065, -1.784496824940834 
3.0100000000019276, -1.7851945625068306 
3.0200000000019487, -1.785815408789824 
3.03000000000197, -1.7859893282120702 
3.040000000001991, -1.7857205352282157 
3.050000000002012, -1.7850272740008672 
3.060000000002033, -1.783940302808065 
3.070000000002054, -1.7828190874052297 
3.0800000000020753, -1.7828001579867632 
3.0900000000020964, -1.7850538171025572 
3.1000000000021175, -1.7889654759280926 
3.1100000000021386, -1.7928498225226182 
3.1200000000021597, -1.7957878361843953 
3.130000000002181, -1.7976893250464787 
3.140000000002202, -1.7987369547508103 
3.150000000002223, -1.7991180489227858 
3.160000000002244, -1.798963507856832 
3.1700000000022652, -1.7983491865087888 
3.1800000000022863, -1.7973124609998425 
3.1900000000023074, -1.795879257482556 
3.2000000000023285, -1.7941162683043281 
3.2100000000023496, -1.792238852129256 
3.2200000000023707, -1.7906977662759769 
3.230000000002392, -1.7899110241644312 
3.240000000002413, -1.7897757324689336 
3.250000000002434, -1.789820721863298 
3.260000000002455, -1.7896884520163006 
3.2700000000024763, -1.7891890548866853 
3.2800000000024974, -1.7881140792050487 
3.2900000000025185, -1.7860898546846855 
3.3000000000025396, -1.7827155782579467 
3.3100000000025607, -1.7788863460562765 
3.3200000000025818, -1.779259088253371 
3.330000000002603, -1.7881272268811608 
3.340000000002624, -1.8008313168555905 
3.350000000002645, -1.8109137395148216 
3.360000000002666, -1.8170264756202528 
3.3700000000026873, -1.820265327463834 
3.3800000000027084, -1.821776127404854 
3.3900000000027295, -1.8222829269296752 
3.4000000000027506, -1.8221865487515374 
3.4100000000027717, -1.8217092490685114 
3.420000000002793, -1.8210006725623966 
3.430000000002814, -1.8201937537166155 
3.440000000002835, -1.8194136367958087 
3.450000000002856, -1.818786568813002 
3.460000000002877, -1.8184200177029257 
3.4700000000028983, -1.8182846670589612 
3.4800000000029194, -1.8181874863465926 
3.4900000000029405, -1.817902907858921 
3.5000000000029616, -1.817210100967685 
3.5100000000029827, -1.815760954073309 
3.520000000003004, -1.8128253713932527 
3.530000000003025, -1.8069605468473582 
3.540000000003046, -1.7963633085065625 
3.550000000003067, -1.7830391779793247 
3.5600000000030882, -1.778766321568605 
3.5700000000031094, -1.7897248034128264 
3.5800000000031305, -1.8037735365908816 
3.5900000000031516, -1.8127183419589923 
3.6000000000031727, -1.817105425990031 
3.6100000000031938, -1.8189786911384769 
3.620000000003215, -1.8195949792232515 
3.630000000003236, -1.8195604493536308 
3.640000000003257, -1.8191737217148471 
3.650000000003278, -1.8186446412423838 
3.6600000000032993, -1.8181832891248835 
3.6700000000033204, -1.8179358138250439 
3.6800000000033415, -1.8179017168672928 
3.6900000000033626, -1.8179956487646585 
3.7000000000033837, -1.8181123048077237 
3.710000000003405, -1.818121227193155 
3.720000000003426, -1.8178757370764296 
3.730000000003447, -1.8172008780625408 
3.740000000003468, -1.8158140966623049 
3.750000000003489, -1.8131845761764285 
3.7600000000035103, -1.808345790646896 
3.7700000000035314, -1.799843576215378 
3.7800000000035525, -1.786771608933409 
3.7900000000035736, -1.7724453059302039 
3.8000000000035947, -1.7652658767609275 
3.810000000003616, -1.767070054161874 
3.820000000003637, -1.7712601215666073 
3.830000000003658, -1.7740788189270411 
3.840000000003679, -1.7753972460807883 
3.8500000000037002, -1.775788919221633 
3.8600000000037213, -1.7756369740308435 
3.8700000000037424, -1.7751500083074478 
3.8800000000037635, -1.774535363090689 
3.8900000000037847, -1.7741543644381834 
3.9000000000038058, -1.7744010787256947 
3.910000000003827, -1.7752811869083374 
3.920000000003848, -1.7764011399700785 
3.930000000003869, -1.7773942301190562 
3.94000000000389, -1.7780858924560161 
3.9500000000039113, -1.7784101210439864 
3.9600000000039324, -1.7783284458514377 
3.9700000000039535, -1.7777880922097136 
3.9800000000039746, -1.7766966546483616 
3.9900000000039957, -1.7749058866415184 
4.000000000004016, -1.772213099579411 
4.010000000003993, -1.76843368371743 
4.02000000000397, -1.7636948570140043 
4.030000000003946, -1.7589990363804588 
4.040000000003923, -1.756077317724199 
4.0500000000039, -1.755495053105933 
4.0600000000038765, -1.756036139973904 
4.070000000003853, -1.7565502651935865 
4.08000000000383, -1.7566725469719202 
4.090000000003807, -1.756373405580409 
4.100000000003783, -1.7556381318549303 
4.11000000000376, -1.7544474510792807 
4.120000000003737, -1.7530819663528707 
4.130000000003713, -1.7527259930043304 
4.14000000000369, -1.7550225240940172 
4.150000000003667, -1.7597273315608402 
4.1600000000036434, -1.7647585285053236 
4.17000000000362, -1.7687009050148483 
4.180000000003597, -1.7713201846165627 
4.1900000000035735, -1.7728495996508993 
4.20000000000355, -1.7735631125831688 
4.210000000003527, -1.7736657099111377 
4.220000000003504, -1.7732903582091228 
4.23000000000348, -1.772519116148916 
4.240000000003457, -1.7714116122241976 
4.250000000003434, -1.7700408448712384 
4.26000000000341, -1.7685494100413863 
4.270000000003387, -1.767218257644409 
4.280000000003364, -1.766382396776881 
4.2900000000033405, -1.7661013802669097 
4.300000000003317, -1.7660744673218793 
4.310000000003294, -1.7659615150194914 
4.320000000003271, -1.7655424607252583 
4.330000000003247, -1.7646016133483144 
4.340000000003224, -1.7627421322215853 
4.350000000003201, -1.7592539152155275 
4.360000000003177, -1.7535796129010357 
4.370000000003154, -1.7480587841621518 
4.380000000003131, -1.7505416301008236 
4.390000000003107, -1.7639141625873915 
4.400000000003084, -1.7790312141953954 
4.410000000003061, -1.7893384424380792 
4.4200000000030375, -1.794950923465413 
4.430000000003014, -1.7976639517339048 
4.440000000002991, -1.7987923258229332 
4.450000000002968, -1.7990570607456902 
4.460000000002944, -1.7988275657456505 
4.470000000002921, -1.7983143518320304 
4.480000000002898, -1.7976832300122876 
4.490000000002874, -1.7970830551636374 
4.500000000002851, -1.7966128740800411 
4.510000000002828, -1.796320099689441 
4.520000000002804, -1.7962026951272752 
4.530000000002781, -1.796163318481269 
4.540000000002758, -1.79602922924588 
4.5500000000027345, -1.7956140304447377 
4.560000000002711, -1.794684362482966 
4.570000000002688, -1.7928144974549247 
4.580000000002665, -1.7891347454834652 
4.590000000002641, -1.7820192112544917 
4.600000000002618, -1.769417247812275 
4.610000000002595, -1.7524435977378257 
4.620000000002571, -1.7411240909085552 
4.630000000002548, -1.743687033857854 
4.640000000002525, -1.752314062802995 
4.6500000000025015, -1.7587788263079012 
4.660000000002478, -1.7621200121386615 
4.670000000002455, -1.7635420082876911 
4.6800000000024315, -1.7639539406677016 
4.690000000002408, -1.763817944262453 
4.700000000002385, -1.7633759699995637 
4.710000000002362, -1.7628440691595575 
4.720000000002338, -1.7625055637950093 
4.730000000002315, -1.7625827208880445 
4.740000000002292, -1.7630280205763813 
4.750000000002268, -1.7636089757258542 
4.760000000002245, -1.7641223705028377 
4.770000000002222, -1.7644393156033136 
4.7800000000021985, -1.7644662487962268 
4.790000000002175, -1.7641115739439523 
4.800000000002152, -1.7632502531650611 
4.810000000002129, -1.7616841714713716 
4.820000000002105, -1.7591067184051017 
4.830000000002082, -1.7550997710640068 
4.840000000002059, -1.7492898487293391 
4.850000000002035, -1.7419833871172088 
4.860000000002012, -1.735200390411082 
4.870000000001989, -1.7317749516959982 
4.880000000001965, -1.7317851185832847 
4.890000000001942, -1.7329367658801509 
4.900000000001919, -1.7337896538368363 
4.9100000000018955, -1.734085074927037 
4.920000000001872, -1.7339071914308342 
4.930000000001849, -1.7333247421723335 
4.940000000001826, -1.7323968956920393 
