t, s[1].omega / s[0].omega 
0, -1.0099978259849764 
0.009999999999999995, -1.0096966108829943 
0.019999999999999934, -1.0092254215860854 
0.029999999999999874, -1.008581344249071 
0.04000000000000012, -1.0077813884821711 
0.050000000000000405, -1.0068766535665319 
0.06000000000000069, -1.0059546611236954 
0.07000000000000098, -1.005126743247678 
0.08000000000000126, -1.0045004469578405 
0.09000000000000155, -1.0041493020659582 
0.10000000000000184, -1.0040953069738974 
0.11000000000000212, -1.0043040045958507 
0.12000000000000241, -1.0046899200234816 
0.130000000000002, -1.005138920744534 
0.1400000000000009, -1.00554135291456 
0.1499999999999998, -1.0058169659146516 
0.1599999999999987, -1.0059236035175187 
0.1699999999999976, -1.0058523131733805 
0.1799999999999965, -1.005611475020038 
0.1899999999999954, -1.0052079516595287 
0.1999999999999943, -1.004640200128953 
0.2099999999999932, -1.0039095071163107 
0.2199999999999921, -1.0030389407307647 
0.229999999999991, -1.0020861042786187 
0.2399999999999899, -1.0011430821215168 
0.2499999999999888, -1.0003207502598634 
0.2599999999999877, -0.9997201493418624 
0.2699999999999866, -0.9994049940188824 
0.2799999999999855, -0.9993866583427089 
0.2899999999999844, -0.9996196015031216 
0.2999999999999833, -1.0000093836335255 
0.3099999999999822, -1.000439267966162 
0.3199999999999811, -1.0008036456337557 
0.32999999999998, -1.0010296458995138 
0.3399999999999789, -1.0010827857394458 
0.3499999999999778, -1.000959887860236 
0.35999999999997667, -1.0006716568024117 
0.36999999999997557, -1.0002245110664565 
0.37999999999997447, -0.9996166689636587 
0.38999999999997337, -0.9988518063338198 
0.39999999999997227, -0.9979579322216949 
0.40999999999997117, -0.9969983807617224 
0.41999999999997006, -0.9960693371742914 
0.42999999999996896, -0.9952815970649987 
0.43999999999996786, -0.9947310570352415 
0.44999999999996676, -0.9944728860956468 
0.45999999999996566, -0.9945086265089428 
0.46999999999996456, -0.9947836965777417 
0.47999999999996346, -0.9951986656455301 
0.48999999999996235, -0.9956379188087016 
0.49999999999996125, -0.9960015878190878 
0.5099999999999602, -0.9962242025726789 
0.519999999999959, -0.9962778648921666 
0.529999999999958, -0.9961628064875901 
0.5399999999999568, -0.9958886301180239 
0.5499999999999557, -0.9954578797859063 
0.5599999999999546, -0.9948660387273575 
0.5699999999999535, -0.9941177364626186 
0.5799999999999524, -0.9932451346420612 
0.5899999999999513, -0.9923168543700254 
0.5999999999999502, -0.9914333051570536 
0.6099999999999491, -0.9907062787576801 
0.619999999999948, -0.9902281060075165 
0.6299999999999469, -0.9900465398770308 
0.6399999999999458, -0.9901544804259476 
0.6499999999999447, -0.9904910148968965 
0.6599999999999436, -0.9909554191618465 
0.6699999999999425, -0.9914357700966245 
0.6799999999999414, -0.9918386110410212 
0.6899999999999403, -0.9921052333891718 
0.6999999999999392, -0.9922125768507806 
0.7099999999999381, -0.992161295509045 
0.719999999999937, -0.9919562809257102 
0.7299999999999359, -0.9915931690943889 
0.7399999999999348, -0.9910629679831169 
0.7499999999999337, -0.9903706184467927 
0.7599999999999326, -0.9895522802639416 
0.7699999999999315, -0.9886819725438273 
0.7799999999999304, -0.9878651491521925 
0.7899999999999293, -0.9872164892509036 
0.7999999999999282, -0.9868269982780555 
0.8099999999999271, -0.9867385399096597 
0.819999999999926, -0.9869365386924233 
0.8299999999999249, -0.9873555532260211 
0.8399999999999238, -0.987895566502692 
0.8499999999999227, -0.9884493508795578 
0.8599999999999216, -0.9889296089174011 
0.8699999999999205, -0.9892831610402104 
0.8799999999999194, -0.9894895248857593 
0.8899999999999183, -0.989546620492812 
0.8999999999999172, -0.9894514717974474 
0.9099999999999161, -0.9891907453994071 
0.919999999999915, -0.9887504036927804 
0.9299999999999139, -0.9881361042391188 
0.9399999999999128, -0.987388609172212 
0.9499999999999117, -0.9865879913902114 
0.9599999999999106, -0.9858460769321024 
0.9699999999999095, -0.9852828803835469 
0.9799999999999084, -0.9849908779294749 
0.9899999999999073, -0.9850078487634917 
0.9999999999999062, -0.9853123400611086 
1.0099999999999052, -0.9858345099935896 
1.019999999999904, -0.9864749930427078 
1.029999999999903, -0.9871308074967363 
1.039999999999902, -0.9877198579789884 
1.0499999999999008, -0.9881929022094758 
1.0599999999998997, -0.9885296664506017 
1.0699999999998986, -0.9887225658595196 
1.0799999999998975, -0.9887585636363629 
1.0899999999998964, -0.988614627440781 
1.0999999999998953, -0.9882724673111538 
1.1099999999998942, -0.9877399258342725 
1.119999999999893, -0.987063610379309 
1.129999999999892, -0.9863306114470576 
1.1399999999998909, -0.9856604930543315 
1.1499999999998898, -0.9851808318120316 
1.1599999999998887, -0.9849880380126677 
1.1699999999998876, -0.9851172397363747 
1.1799999999998865, -0.9855399625407264 
1.1899999999998854, -0.986180737307495 
1.1999999999998843, -0.9869393046316275 
1.2099999999998832, -0.9877155172671774 
1.219999999999882, -0.9884311735050978 
1.229999999999881, -0.9890394031265013 
1.2399999999998799, -0.9895181646728283 
1.2499999999998788, -0.9898524872344593 
1.2599999999998777, -0.9900184347493982 
1.2699999999998766, -0.9899841180848875 
1.2799999999998755, -0.9897291500315105 
1.2899999999998744, -0.9892658197936127 
1.2999999999998733, -0.9886480971878978 
1.3099999999998722, -0.9879710227188223 
1.319999999999871, -0.9873627876260186 
1.32999999999987, -0.9869595093971063 
1.3399999999998689, -0.9868622204013796 
1.3499999999998678, -0.9871033643707442 
1.3599999999998666, -0.9876465478560863 
1.3699999999998655, -0.98840906319628 
1.3799999999998644, -0.9892879173982569 
1.3899999999998633, -0.9901842861264327 
1.3999999999998622, -0.9910227469134207 
1.4099999999998611, -0.9917577348853892 
1.41999999999986, -0.9923643486461978 
1.429999999999859, -0.9928197020385974 
1.4399999999998578, -0.9930898513854902 
1.4499999999998567, -0.9931366037170138 
1.4599999999998556, -0.9929406986475894 
1.4699999999998545, -0.9925213138521628 
1.4799999999998534, -0.9919410231051294 
1.4899999999998523, -0.9913033963996867 
1.4999999999998512, -0.990745280484337 
1.5099999999998501, -0.9904101409488105 
1.519999999999849, -0.9904011109827195 
1.529999999999848, -0.9907453633759385 
1.5399999999998468, -0.9913970174247858 
1.5499999999998457, -0.9922652426656705 
1.5599999999998446, -0.9932435278555624 
1.5699999999998435, -0.9942337714508013 
1.5799999999998424, -0.9951630412732775 
1.5899999999998413, -0.9959869618469492 
1.5999999999998402, -0.9966779684364969 
1.6099999999998391, -0.9972064516305787 
1.619999999999838, -0.997531287260565 
1.629999999999837, -0.9976120054271993 
1.6399999999998358, -0.9974340172742606 
1.6499999999998347, -0.9970251697723892 
1.6599999999998336, -0.9964571051923243 
1.6699999999998325, -0.9958419355526632 
1.6799999999998314, -0.9953240115895228 
1.6899999999998303, -0.995050142457194 
1.6999999999998292, -0.9951192390334139 
1.709999999999828, -0.9955481001867242 
1.719999999999827, -0.9962798016058981 
1.729999999999826, -0.9972161264132134 
1.7399999999998248, -0.99824810136239 
1.7499999999998237, -0.9992792183136973 
1.7599999999998226, -1.0002399038032643 
1.7699999999998215, -1.001087993139038 
1.7799999999998204, -1.0017948477048266 
1.7899999999998193, -1.0023270092438445 
1.7999999999998182, -1.0026405346256615 
1.809999999999817, -1.0026972746719383 
1.819999999999816, -1.0024901329271794 
1.8299999999998149, -1.0020561580850404 
1.8399999999998138, -1.0014756695882623 
1.8499999999998127, -1.0008686737178536 
1.8599999999998116, -1.000384262679318 
1.8699999999998105, -1.0001656234943115 
1.8799999999998094, -1.0002984977275773 
1.8899999999998083, -1.000783846437219 
1.8999999999998072, -1.0015536389907473 
1.909999999999806, -1.002504779606493 
1.919999999999805, -1.0035282658569313 
1.9299999999998039, -1.0045310872116604 
1.9399999999998028, -1.0054487236398735 
1.9499999999998017, -1.0062430537036011 
1.9599999999998006, -1.006886905415677 
1.9699999999997995, -1.007346787339211 
1.9799999999997984, -1.0075806659472044 
1.9899999999997973, -1.0075565901898231 
1.9999999999997962, -1.0072763596582242 
2.0099999999998173, -1.0067856920141047 
2.0199999999998384, -1.0061727566709453 
2.0299999999998595, -1.0055640024206136 
2.0399999999998806, -1.0051084526379315 
2.0499999999999017, -1.0049367447078 
2.059999999999923, -1.005113231636107 
2.069999999999944, -1.0056206510486332 
2.079999999999965, -1.0063821783671292 
2.089999999999986, -1.0072928628371984 
2.100000000000007, -1.0082459220693094 
2.1100000000000283, -1.009153685554969 
2.1200000000000494, -1.0099584384827467 
2.1300000000000705, -1.0106280450082183 
2.1400000000000916, -1.011139431425387 
2.1500000000001127, -1.0114626480582098 
2.160000000000134, -1.0115613214545176 
2.170000000000155, -1.0114119962328378 
2.180000000000176, -1.011025524770216 
2.190000000000197, -1.0104554929574596 
2.2000000000002182, -1.0097970635019566 
2.2100000000002393, -1.0091805459983465 
2.2200000000002604, -1.0087483458661994 
2.2300000000002815, -1.00861048225985 
2.2400000000003026, -1.0088064919822939 
2.2500000000003237, -1.0093031513609094 
2.260000000000345, -1.01001798424846 
2.270000000000366, -1.0108456315677319 
2.280000000000387, -1.0116823948413836 
2.290000000000408, -1.0124470734977558 
2.3000000000004293, -1.013090016997802 
2.3100000000004504, -1.0135865251466114 
2.3200000000004715, -1.0139195758470676 
2.3300000000004926, -1.014065175474246 
2.3400000000005137, -1.0139946832639715 
2.3500000000005348, -1.0136938988521826 
2.360000000000556, -1.0131823655575778 
2.370000000000577, -1.0125210734623349 
2.380000000000598, -1.0118111760365804 
2.390000000000619, -1.0111830701886366 
2.4000000000006403, -1.0107661436946758 
2.4100000000006614, -1.0106461645030962 
2.4200000000006825, -1.0108405506102507 
2.4300000000007036, -1.0113045013684818 
2.4400000000007247, -1.0119509698865565 
2.450000000000746, -1.0126733449127625 
2.460000000000767, -1.013370918516814 
2.470000000000788, -1.0139696023452678 
2.480000000000809, -1.0144284835437425 
2.49000000000083, -1.014731018930452 
2.5000000000008513, -1.0148671790085817 
2.5100000000008724, -1.0148199123815964 
2.5200000000008935, -1.014568824576697 
2.5300000000009146, -1.0141087728686355 
2.5400000000009357, -1.0134676504105695 
2.550000000000957, -1.0127136431679302 
2.560000000000978, -1.0119524058722065 
2.570000000000999, -1.011310393333606 
2.58000000000102, -1.0109004556778294 
2.5900000000010412, -1.0107861411393113 
2.6000000000010624, -1.010968400477458 
2.6100000000010835, -1.0113932275791335 
2.6200000000011046, -1.0119673072248188 
2.6300000000011257, -1.0125813410401818 
2.6400000000011468, -1.0131378616998 
2.650000000001168, -1.013570431103069 
2.660000000001189, -1.013847046242128 
2.67000000000121, -1.0139593305562005 
2.680000000001231, -1.013904178953542 
2.6900000000012523, -1.013671218975575 
2.7000000000012734, -1.0132477325763625 
2.7100000000012945, -1.012636984653406 
2.7200000000013156, -1.0118749288011413 
2.7300000000013367, -1.0110365759310074 
2.740000000001358, -1.0102302590001977 
2.750000000001379, -1.0095758067130651 
2.7600000000014, -1.0091700197919364 
2.770000000001421, -1.0090592716527622 
2.780000000001442, -1.0092321045568546 
2.7900000000014633, -1.0096245350881954 
2.8000000000014844, -1.0101349390198415 
2.8100000000015055, -1.0106514516595753 
2.8200000000015266, -1.0110809545534483 
2.8300000000015477, -1.011365083668505 
2.840000000001569, -1.0114804832485256 
2.85000000000159, -1.0114262905013442 
2.860000000001611, -1.0112053111315398 
2.870000000001632, -1.0108125887682966 
2.8800000000016532, -1.0102418215964477 
2.8900000000016743, -1.0095037749319207 
2.9000000000016954, -1.0086420108934806 
2.9100000000017165, -1.007737665626373 
2.9200000000017377, -1.006900240417882 
2.9300000000017588, -1.0062423689616256 
2.94000000000178, -1.0058476668741974 
2.950000000001801, -1.0057495669499765 
2.960000000001822, -1.0059252480903886 
2.970000000001843, -1.0062993883167473 
2.9800000000018643, -1.006762338330994 
2.9900000000018854, -1.0072017226782557 
3.0000000000019065, -1.007530206245258 
3.0100000000019276, -1.0076976357962617 
3.0200000000019487, -1.0076886232852016 
3.03000000000197, -1.0075084463294983 
3.040000000001991, -1.007163862786064 
3.050000000002012, -1.0066532587099035 
3.060000000002033, -1.0059750373978253 
3.070000000002054, -1.0051463457661107 
3.0800000000020753, -1.0042176443291322 
3.0900000000020964, -1.0032753592416426 
3.1000000000021175, -1.0024293991431954 
3.1100000000021386, -1.001786052484947 
3.1200000000021597, -1.0014185098880823 
3.130000000002181, -1.0013492578817493 
3.140000000002202, -1.001544145803301 
3.150000000002223, -1.001917313764993 
3.160000000002244, -1.0023540005822509 
3.1700000000022652, -1.0027441302678042 
3.1800000000022863, -1.0030072425877594 
3.1900000000023074, -1.003101157177608 
3.2000000000023285, -1.0030172615440873 
3.2100000000023496, -1.0027647496691843 
3.2200000000023707, -1.002351488541212 
3.230000000002392, -1.0017765749194483 
3.240000000002413, -1.0010412043571257 
3.250000000002434, -1.0001676997621247 
3.260000000002455, -0.9992125941064918 
3.2700000000024763, -0.9982669359298371 
3.2800000000024974, -0.9974410066491807 
3.2900000000025185, -0.9968359848331186 
3.3000000000025396, -0.996516312509517 
3.3100000000025607, -0.9964943698831686 
3.3200000000025818, -0.9967258363028151 
3.330000000002603, -0.9971175304292185 
3.340000000002624, -0.9975535335987904 
3.350000000002645, -0.9979284033991367 
3.360000000002666, -0.9981690131360366 
3.3700000000026873, -0.9982404448448748 
3.3800000000027084, -0.9981389804184129 
3.3900000000027295, -0.9978746727978858 
3.4000000000027506, -0.9974530984405682 
3.4100000000027717, -0.9968713304813126 
3.420000000002793, -0.9961316238907449 
3.430000000002814, -0.9952604671920898 
3.440000000002835, -0.9943198213440237 
3.450000000002856, -0.993405134302772 
3.460000000002877, -0.9926277018132418 
3.4700000000028983, -0.9920849898346583 
3.4800000000029194, -0.9918338548217781 
3.4900000000029405, -0.9918775144792967 
3.5000000000029616, -0.9921638210661992 
3.5100000000029827, -0.9925961958706283 
3.520000000003004, -0.9930608890465835 
3.530000000003025, -0.9934584120486982 
3.540000000003046, -0.9937227464357271 
3.550000000003067, -0.9938249127423111 
3.5600000000030882, -0.9937634881348124 
3.5700000000031094, -0.9935458460228149 
3.5800000000031305, -0.993171924117693 
3.5900000000031516, -0.992634528351382 
3.6000000000031727, -0.9919358710686941 
3.6100000000031938, -0.9911061292816202 
3.620000000003215, -0.9902125176870266 
3.630000000003236, -0.9893553021312704 
3.640000000003257, -0.9886482203568752 
3.650000000003278, -0.9881869688742149 
3.6600000000032993, -0.9880222379724919 
3.6700000000033204, -0.9881492569748247 
3.6800000000033415, -0.9885102078794596 
3.6900000000033626, -0.9890079250712459 
3.7000000000033837, -0.989532670995083 
3.710000000003405, -0.98999118842301 
3.720000000003426, -0.9903236921011336 
3.730000000003447, -0.9905052114365601 
3.740000000003468, -0.990533592890555 
3.750000000003489, -0.9904101094147956 
3.7600000000035103, -0.990126410514365 
3.7700000000035314, -0.9896697951097723 
3.7800000000035525, -0.9890423112607812 
3.7900000000035736, -0.9882781027910297 
3.8000000000035947, -0.9874500444029325 
3.810000000003616, -0.9866642440080728 
3.820000000003637, -0.9860390170851184 
3.830000000003658, -0.9856709218907561 
3.840000000003679, -0.9856063384479822 
3.8500000000037002, -0.9858334286388538 
3.8600000000037213, -0.9862895200501214 
3.8700000000037424, -0.9868776774385619 
3.8800000000037635, -0.9874923961892406 
3.8900000000037847, -0.9880460557625991 
3.9000000000038058, -0.9884837366219238 
3.910000000003827, -0.9887822221091106 
3.920000000003848, -0.9889356888319326 
3.930000000003869, -0.9889365854497296 
3.94000000000389, -0.9887667845288909 
3.9500000000039113, -0.9884081412282127 
3.9600000000039324, -0.9878635334449004 
3.9700000000039535, -0.9871721025804749 
3.9800000000039746, -0.9864132377826619 
3.9900000000039957, -0.9857001795730733 
4.000000000004016, -0.9851581091980808 
4.010000000003993, -0.9848871873446059 
4.02000000000397, -0.9849313244267939 
4.030000000003946, -0.9852719400800208 
4.040000000003923, -0.9858408408498843 
4.0500000000039, -0.9865403221453314 
4.0600000000038765, -0.9872680440060242 
4.070000000003853, -0.987940849836178 
4.08000000000383, -0.9885071395890263 
4.090000000003807, -0.9889433287699206 
4.100000000003783, -0.9892376026059763 
4.11000000000376, -0.989371999545972 
4.120000000003737, -0.9893185803400638 
4.130000000003713, -0.9890552292056072 
4.14000000000369, -0.9885876434642984 
4.150000000003667, -0.9879614888595715 
4.1600000000036434, -0.9872636714008954 
4.17000000000362, -0.986615641334797 
4.180000000003597, -0.9861509851506441 
4.1900000000035735, -0.9859750789516233 
4.20000000000355, -0.9861301928940311 
4.210000000003527, -0.9865905720179243 
4.220000000003504, -0.987281035954888 
4.23000000000348, -0.9881012671125317 
4.240000000003457, -0.9889504811776425 
4.250000000003434, -0.9897487138106462 
4.26000000000341, -0.9904463932829601 
4.270000000003387, -0.9910180725105068 
4.280000000003364, -0.9914447206514447 
4.2900000000033405, -0.9916979081389942 
4.300000000003317, -0.9917415271040733 
4.310000000003294, -0.9915522686275424 
4.320000000003271, -0.9911411944728391 
4.330000000003247, -0.9905620211846804 
4.340000000003224, -0.9899099718127745 
4.350000000003201, -0.9893151660685342 
4.360000000003177, -0.9889194802869931 
4.370000000003154, -0.988832522336536 
4.380000000003131, -0.9890934775779647 
4.390000000003107, -0.9896680835468767 
4.400000000003084, -0.9904729025189121 
4.410000000003061, -0.9914036666328789 
4.4200000000030375, -0.9923600381254805 
4.430000000003014, -0.993264525345595 
4.440000000002991, -0.9940690305409069 
4.450000000002968, -0.9947458276310782 
4.460000000002944, -0.9952689710656742 
4.470000000002921, -0.9956013686244878 
4.480000000002898, -0.9957020831917003 
4.490000000002874, -0.9955502040497044 
4.500000000002851, -0.9951644850227324 
4.510000000002828, -0.9946076240686664 
4.520000000002804, -0.9939834725159357 
4.530000000002781, -0.9934303690800457 
4.540000000002758, -0.9930960052923355 
4.5500000000027345, -0.9930896087404382 
4.560000000002711, -0.9934429051310174 
4.570000000002688, -0.9941111460025202 
4.580000000002665, -0.9950025259560741 
4.590000000002641, -0.9960091062603277 
4.600000000002618, -0.9970312439435958 
4.610000000002595, -0.9979942876746193 
4.620000000002571, -0.9988521372977596 
4.630000000002548, -0.9995757143081395 
4.640000000002525, -1.0001341759392253 
4.6500000000025015, -1.0004853821346238 
4.660000000002478, -1.0005880529042464 
4.670000000002455, -1.0004271306001142 
4.6800000000024315, -1.0000303642367754 
4.690000000002408, -0.9994694331875741 
4.700000000002385, -0.9988565135365073 
4.710000000002362, -0.9983364666431075 
4.720000000002338, -0.9980575369986786 
4.730000000002315, -0.9981205595971847 
4.740000000002292, -0.9985436571525693 
4.750000000002268, -0.9992702285050467 
4.760000000002245, -1.0002017650241717 
4.770000000002222, -1.0012286817151903 
4.7800000000021985, -1.0022536381151683 
4.790000000002175, -1.003206241516893 
4.800000000002152, -1.0040438976208406 
4.810000000002129, -1.0047382612816262 
4.820000000002105, -1.0052569280233252 
4.830000000002082, -1.0055573235987354 
4.840000000002059, -1.0056022773418667 
4.850000000002035, -1.0053849158463557 
4.860000000002012, -1.0049420081842244 
4.870000000001989, -1.0043535164032513 
4.880000000001965, -1.0037389959292031 
4.890000000001942, -1.0032464130363672 
4.900000000001919, -1.0030167341022687 
4.9100000000018955, -1.00313321989823 
4.920000000001872, -1.0035956751400645 
4.930000000001849, -1.0043365343730448 
